Data from Fe(NO3)3@0.05M.TitratingCurve.Agarose3%dH2O.NegLispCup.LampEnergy10.LIBS07252019_HRD10591_16-46-56-334.txt Node
Date: Thu Jul 25 16:46:56 EDT 2019
User: cochatt
Spectrometer: HR+D1059
Trigger mode: 1
Integration Time (sec): 1.000000E-1
Scans to average: 1
Electric dark correction enabled: true
Nonlinearity correction enabled: false
Boxcar width: 0
XAxis mode: Wavelengths
Number of Pixels in Spectrum: 2048
>>>>>Begin Spectral Data<<<<<
223.165	-11.5
223.4	-11.5
223.635	-11.5
223.869	-19.5
224.104	-24.5
224.338	1.5
224.573	-16.5
224.808	-8.5
225.042	-29.5
225.277	-9.5
225.511	2.5
225.746	7.5
225.98	14.5
226.215	4.5
226.449	0.5
226.683	23.5
226.918	29.5
227.152	35.5
227.387	46.5
227.621	25.5
227.856	49.5
228.09	38.5
228.324	62.5
228.559	70.5
228.793	75.5
229.027	126.5
229.262	105.5
229.496	129.5
229.73	133.5
229.964	143.5
230.199	143.5
230.433	149.5
230.667	159.5
230.901	144.5
231.136	135.5
231.37	143.5
231.604	157.5
231.838	159.5
232.072	153.5
232.306	149.5
232.541	173.5
232.775	168.5
233.009	179.5
233.243	169.5
233.477	169.5
233.711	169.5
233.945	183.5
234.179	166.5
234.413	192.5
234.647	166.5
234.881	193.5
235.115	185.5
235.349	183.5
235.583	182.5
235.817	174.5
236.051	180.5
236.285	194.5
236.519	185.5
236.753	193.5
236.987	198.5
237.221	198.5
237.455	194.5
237.689	196.5
237.922	191.5
238.156	214.5
238.39	228.5
238.624	235.5
238.858	228.5
239.091	229.5
239.325	241.5
239.559	226.5
239.793	230.5
240.027	253.5
240.26	222.5
240.494	236.5
240.728	242.5
240.961	235.5
241.195	231.5
241.429	234.5
241.662	248.5
241.896	221.5
242.13	241.5
242.363	238.5
242.597	238.5
242.83	244.5
243.064	235.5
243.298	257.5
243.531	243.5
243.765	261.5
243.998	249.5
244.232	254.5
244.465	262.5
244.699	249.5
244.932	266.5
245.166	274.5
245.399	269.5
245.633	268.5
245.866	265.5
246.099	257.5
246.333	258.5
246.566	279.5
246.8	281.5
247.033	271.5
247.266	271.5
247.5	295.5
247.733	279.5
247.966	308.5
248.2	278.5
248.433	312.5
248.666	290.5
248.899	314.5
249.133	292.5
249.366	325.5
249.599	318.5
249.832	329.5
250.066	316.5
250.299	305.5
250.532	305.5
250.765	306.5
250.998	316.5
251.231	319.5
251.465	318.5
251.698	297.5
251.931	309.5
252.164	319.5
252.397	346.5
252.63	341.5
252.863	342.5
253.096	350.5
253.329	370.5
253.562	335.5
253.795	326.5
254.028	372.5
254.261	387.5
254.494	363.5
254.727	378.5
254.96	375.5
255.193	363.5
255.426	371.5
255.659	340.5
255.892	335.5
256.124	352.5
256.357	367.5
256.59	381.5
256.823	385.5
257.056	369.5
257.289	371.5
257.521	369.5
257.754	376.5
257.987	373.5
258.22	385.5
258.452	386.5
258.685	399.5
258.918	413.5
259.151	403.5
259.383	396.5
259.616	405.5
259.849	424.5
260.081	461.5
260.314	479.5
260.547	426.5
260.779	425.5
261.012	427.5
261.244	474.5
261.477	451.5
261.71	459.5
261.942	408.5
262.175	426.5
262.407	427.5
262.64	452.5
262.872	461.5
263.105	458.5
263.337	467.5
263.57	452.5
263.802	414.5
264.035	417.5
264.267	410.5
264.499	403.5
264.732	412.5
264.964	413.5
265.197	416.5
265.429	432.5
265.661	417.5
265.894	421.5
266.126	435.5
266.358	423.5
266.591	430.5
266.823	454.5
267.055	467.5
267.287	432.5
267.52	455.5
267.752	438.5
267.984	452.5
268.216	451.5
268.448	455.5
268.681	445.5
268.913	441.5
269.145	449.5
269.377	467.5
269.609	447.5
269.841	462.5
270.073	460.5
270.306	474.5
270.538	477.5
270.77	459.5
271.002	468.5
271.234	479.5
271.466	495.5
271.698	482.5
271.93	484.5
272.162	490.5
272.394	491.5
272.626	491.5
272.858	489.5
273.09	503.5
273.322	516.5
273.553	492.5
273.785	533.5
274.017	566.5
274.249	597.5
274.481	595.5
274.713	628.5
274.945	659.5
275.176	670.5
275.408	620.5
275.64	581.5
275.872	610.5
276.104	583.5
276.335	550.5
276.567	525.5
276.799	523.5
277.031	548.5
277.262	581.5
277.494	551.5
277.726	546.5
277.957	550.5
278.189	545.5
278.421	574.5
278.652	537.5
278.884	552.5
279.115	555.5
279.347	570.5
279.579	562.5
279.81	575.5
280.042	548.5
280.273	553.5
280.505	569.5
280.736	578.5
280.968	555.5
281.199	554.5
281.431	566.5
281.662	579.5
281.894	584.5
282.125	578.5
282.356	585.5
282.588	589.5
282.819	575.5
283.051	556.5
283.282	594.5
283.513	589.5
283.745	577.5
283.976	599.5
284.207	600.5
284.439	597.5
284.67	597.5
284.901	609.5
285.132	610.5
285.364	623.5
285.595	610.5
285.826	612.5
286.057	611.5
286.288	604.5
286.52	626.5
286.751	617.5
286.982	595.5
287.213	616.5
287.444	602.5
287.675	642.5
287.906	645.5
288.138	625.5
288.369	626.5
288.6	638.5
288.831	622.5
289.062	618.5
289.293	639.5
289.524	615.5
289.755	637.5
289.986	605.5
290.217	625.5
290.448	652.5
290.679	639.5
290.91	646.5
291.141	631.5
291.371	614.5
291.602	632.5
291.833	635.5
292.064	641.5
292.295	623.5
292.526	644.5
292.757	629.5
292.987	656.5
293.218	639.5
293.449	651.5
293.68	646.5
293.91	639.5
294.141	646.5
294.372	635.5
294.603	661.5
294.833	646.5
295.064	648.5
295.295	657.5
295.525	635.5
295.756	663.5
295.987	656.5
296.217	664.5
296.448	656.5
296.679	657.5
296.909	666.5
297.14	647.5
297.37	686.5
297.601	689.5
297.831	666.5
298.062	683.5
298.292	700.5
298.523	673.5
298.753	712.5
298.984	681.5
299.214	683.5
299.445	681.5
299.675	690.5
299.905	709.5
300.136	727.5
300.366	716.5
300.597	703.5
300.827	707.5
301.057	740.5
301.288	703.5
301.518	679.5
301.748	727.5
301.979	724.5
302.209	748.5
302.439	775.5
302.669	733.5
302.9	724.5
303.13	755.5
303.36	757.5
303.59	721.5
303.82	717.5
304.051	745.5
304.281	759.5
304.511	744.5
304.741	742.5
304.971	742.5
305.201	728.5
305.431	746.5
305.661	729.5
305.891	732.5
306.121	763.5
306.352	750.5
306.582	763.5
306.812	753.5
307.042	754.5
307.272	735.5
307.502	742.5
307.731	780.5
307.961	767.5
308.191	740.5
308.421	730.5
308.651	710.5
308.881	751.5
309.111	733.5
309.341	725.5
309.571	753.5
309.8	766.5
310.03	734.5
310.26	709.5
310.49	746.5
310.72	769.5
310.949	739.5
311.179	754.5
311.409	775.5
311.639	773.5
311.868	752.5
312.098	786.5
312.328	773.5
312.557	777.5
312.787	758.5
313.017	807.5
313.246	796.5
313.476	804.5
313.706	803.5
313.935	829.5
314.165	805.5
314.394	794.5
314.624	807.5
314.853	780.5
315.083	811.5
315.312	814.5
315.542	804.5
315.771	799.5
316.001	806.5
316.23	799.5
316.46	821.5
316.689	809.5
316.919	791.5
317.148	829.5
317.377	814.5
317.607	808.5
317.836	803.5
318.065	803.5
318.295	792.5
318.524	814.5
318.753	822.5
318.983	815.5
319.212	820.5
319.441	819.5
319.67	861.5
319.9	829.5
320.129	843.5
320.358	846.5
320.587	836.5
320.816	826.5
321.046	818.5
321.275	826.5
321.504	835.5
321.733	849.5
321.962	829.5
322.191	835.5
322.42	846.5
322.649	855.5
322.878	826.5
323.108	854.5
323.337	855.5
323.566	847.5
323.795	840.5
324.024	866.5
324.253	853.5
324.482	877.5
324.71	852.5
324.939	876.5
325.168	872.5
325.397	879.5
325.626	866.5
325.855	873.5
326.084	866.5
326.313	859.5
326.542	894.5
326.77	879.5
326.999	889.5
327.228	881.5
327.457	899.5
327.686	892.5
327.914	904.5
328.143	885.5
328.372	891.5
328.6	869.5
328.829	925.5
329.058	907.5
329.287	909.5
329.515	901.5
329.744	895.5
329.972	917.5
330.201	913.5
330.43	900.5
330.658	925.5
330.887	933.5
331.115	895.5
331.344	925.5
331.572	922.5
331.801	926.5
332.03	915.5
332.258	941.5
332.486	964.5
332.715	947.5
332.943	961.5
333.172	989.5
333.4	1006.5
333.629	1032.5
333.857	1012.5
334.085	1004.5
334.314	1035.5
334.542	1057.5
334.771	1063.5
334.999	1033.5
335.227	1037.5
335.455	1052.5
335.684	1023.5
335.912	1040.5
336.14	1021.5
336.369	1055.5
336.597	1038.5
336.825	1037.5
337.053	1014.5
337.281	1025.5
337.51	1011.5
337.738	997.5
337.966	977.5
338.194	999.5
338.422	962.5
338.65	993.5
338.878	987.5
339.106	972.5
339.334	958.5
339.562	973.5
339.79	961.5
340.018	983.5
340.246	963.5
340.474	982.5
340.702	946.5
340.93	955.5
341.158	954.5
341.386	963.5
341.614	947.5
341.842	973.5
342.07	961.5
342.298	931.5
342.526	988.5
342.754	988.5
342.981	964.5
343.209	976.5
343.437	1002.5
343.665	998.5
343.893	993.5
344.12	1024.5
344.348	1044.5
344.576	1014.5
344.804	1000.5
345.031	986.5
345.259	958.5
345.487	977.5
345.714	963.5
345.942	954.5
346.17	953.5
346.397	943.5
346.625	944.5
346.853	926.5
347.08	917.5
347.308	922.5
347.535	927.5
347.763	901.5
347.99	915.5
348.218	906.5
348.445	911.5
348.673	906.5
348.9	932.5
349.128	929.5
349.355	902.5
349.583	899.5
349.81	918.5
350.037	920.5
350.265	931.5
350.492	923.5
350.72	898.5
350.947	885.5
351.174	899.5
351.402	887.5
351.629	927.5
351.856	893.5
352.083	901.5
352.311	928.5
352.538	875.5
352.765	928.5
352.992	908.5
353.22	907.5
353.447	910.5
353.674	909.5
353.901	935.5
354.128	911.5
354.355	908.5
354.583	889.5
354.81	878.5
355.037	894.5
355.264	942.5
355.491	894.5
355.718	907.5
355.945	902.5
356.172	913.5
356.399	918.5
356.626	923.5
356.853	936.5
357.08	934.5
357.307	945.5
357.534	925.5
357.761	938.5
357.988	961.5
358.215	955.5
358.441	959.5
358.668	902.5
358.895	930.5
359.122	922.5
359.349	901.5
359.576	897.5
359.802	936.5
360.029	900.5
360.256	882.5
360.483	923.5
360.709	924.5
360.936	923.5
361.163	932.5
361.39	930.5
361.616	917.5
361.843	936.5
362.07	943.5
362.296	930.5
362.523	939.5
362.749	951.5
362.976	904.5
363.203	952.5
363.429	950.5
363.656	926.5
363.882	953.5
364.109	937.5
364.335	907.5
364.562	921.5
364.788	939.5
365.015	962.5
365.241	937.5
365.468	939.5
365.694	934.5
365.92	919.5
366.147	916.5
366.373	934.5
366.599	932.5
366.826	938.5
367.052	938.5
367.278	934.5
367.505	954.5
367.731	954.5
367.957	962.5
368.184	952.5
368.41	943.5
368.636	959.5
368.862	953.5
369.089	961.5
369.315	946.5
369.541	951.5
369.767	991.5
369.993	944.5
370.219	965.5
370.445	985.5
370.672	1006.5
370.898	998.5
371.124	971.5
371.35	980.5
371.576	1021.5
371.802	1005.5
372.028	1024.5
372.254	1037.5
372.48	1004.5
372.706	1017.5
372.932	1054.5
373.158	1029.5
373.384	1079.5
373.61	1102.5
373.835	1067.5
374.061	1063.5
374.287	1034.5
374.513	1048.5
374.739	1094.5
374.965	1081.5
375.191	1091.5
375.416	1087.5
375.642	1050.5
375.868	1090.5
376.094	1039.5
376.319	1029.5
376.545	1077.5
376.771	1031.5
376.997	1018.5
377.222	1007.5
377.448	1029.5
377.674	1000.5
377.899	1034.5
378.125	995.5
378.35	999.5
378.576	1027.5
378.802	1014.5
379.027	1008.5
379.253	1051.5
379.478	1014.5
379.704	1025.5
379.929	1054.5
380.155	1027.5
380.38	1025.5
380.606	1026.5
380.831	1020.5
381.057	1053.5
381.282	1051.5
381.507	1062.5
381.733	1062.5
381.958	1096.5
382.184	1062.5
382.409	1099.5
382.634	1098.5
382.86	1099.5
383.085	1124.5
383.31	1079.5
383.535	1107.5
383.761	1106.5
383.986	1101.5
384.211	1114.5
384.436	1165.5
384.662	1145.5
384.887	1165.5
385.112	1129.5
385.337	1133.5
385.562	1160.5
385.787	1165.5
386.013	1176.5
386.238	1230.5
386.463	1221.5
386.688	1181.5
386.913	1186.5
387.138	1171.5
387.363	1197.5
387.588	1183.5
387.813	1221.5
388.038	1221.5
388.263	1194.5
388.488	1186.5
388.713	1207.5
388.938	1213.5
389.163	1193.5
389.387	1233.5
389.612	1185.5
389.837	1188.5
390.062	1201.5
390.287	1190.5
390.512	1225.5
390.736	1231.5
390.961	1236.5
391.186	1223.5
391.411	1235.5
391.636	1213.5
391.86	1259.5
392.085	1261.5
392.31	1270.5
392.534	1280.5
392.759	1302.5
392.984	1279.5
393.208	1273.5
393.433	1257.5
393.658	1246.5
393.882	1267.5
394.107	1258.5
394.331	1253.5
394.556	1233.5
394.78	1262.5
395.005	1289.5
395.229	1274.5
395.454	1274.5
395.678	1255.5
395.903	1339.5
396.127	1319.5
396.352	1321.5
396.576	1293.5
396.801	1286.5
397.025	1322.5
397.249	1342.5
397.474	1364.5
397.698	1353.5
397.922	1365.5
398.147	1338.5
398.371	1367.5
398.595	1430.5
398.82	1459.5
399.044	1479.5
399.268	1543.5
399.492	1597.5
399.717	1686.5
399.941	1688.5
400.165	1634.5
400.389	1602.5
400.613	1574.5
400.837	1545.5
401.062	1487.5
401.286	1485.5
401.51	1472.5
401.734	1444.5
401.958	1468.5
402.182	1425.5
402.406	1425.5
402.63	1452.5
402.854	1458.5
403.078	1447.5
403.302	1456.5
403.526	1464.5
403.75	1454.5
403.974	1495.5
404.198	1438.5
404.422	1509.5
404.645	1487.5
404.869	1525.5
405.093	1487.5
405.317	1470.5
405.541	1488.5
405.765	1525.5
405.988	1514.5
406.212	1537.5
406.436	1555.5
406.66	1582.5
406.883	1561.5
407.107	1627.5
407.331	1652.5
407.555	1699.5
407.778	1670.5
408.002	1645.5
408.226	1645.5
408.449	1629.5
408.673	1578.5
408.896	1585.5
409.12	1566.5
409.344	1553.5
409.567	1551.5
409.791	1530.5
410.014	1538.5
410.238	1544.5
410.461	1516.5
410.685	1559.5
410.908	1557.5
411.132	1480.5
411.355	1483.5
411.578	1495.5
411.802	1492.5
412.025	1509.5
412.249	1517.5
412.472	1502.5
412.695	1487.5
412.919	1507.5
413.142	1512.5
413.365	1475.5
413.589	1459.5
413.812	1462.5
414.035	1474.5
414.258	1441.5
414.482	1461.5
414.705	1465.5
414.928	1449.5
415.151	1452.5
415.374	1460.5
415.597	1424.5
415.821	1395.5
416.044	1401.5
416.267	1384.5
416.49	1406.5
416.713	1395.5
416.936	1435.5
417.159	1402.5
417.382	1377.5
417.605	1388.5
417.828	1409.5
418.051	1393.5
418.274	1379.5
418.497	1388.5
418.72	1405.5
418.943	1363.5
419.166	1461.5
419.389	1505.5
419.611	1513.5
419.834	1468.5
420.057	1457.5
420.28	1405.5
420.503	1373.5
420.726	1411.5
420.948	1346.5
421.171	1376.5
421.394	1368.5
421.617	1357.5
421.839	1368.5
422.062	1367.5
422.285	1377.5
422.507	1353.5
422.73	1351.5
422.953	1366.5
423.175	1368.5
423.398	1375.5
423.621	1357.5
423.843	1381.5
424.066	1380.5
424.288	1390.5
424.511	1380.5
424.733	1361.5
424.956	1345.5
425.178	1378.5
425.401	1363.5
425.623	1375.5
425.846	1339.5
426.068	1342.5
426.291	1382.5
426.513	1362.5
426.735	1350.5
426.958	1355.5
427.18	1332.5
427.402	1333.5
427.625	1341.5
427.847	1307.5
428.069	1309.5
428.292	1325.5
428.514	1329.5
428.736	1303.5
428.958	1342.5
429.181	1281.5
429.403	1271.5
429.625	1302.5
429.847	1314.5
430.069	1316.5
430.292	1310.5
430.514	1295.5
430.736	1319.5
430.958	1317.5
431.18	1323.5
431.402	1374.5
431.624	1288.5
431.846	1326.5
432.068	1283.5
432.29	1334.5
432.512	1307.5
432.734	1345.5
432.956	1289.5
433.178	1345.5
433.4	1333.5
433.622	1302.5
433.844	1333.5
434.066	1339.5
434.287	1352.5
434.509	1365.5
434.731	1391.5
434.953	1360.5
435.175	1374.5
435.397	1404.5
435.618	1359.5
435.84	1337.5
436.062	1305.5
436.284	1337.5
436.505	1313.5
436.727	1333.5
436.949	1310.5
437.17	1315.5
437.392	1293.5
437.614	1305.5
437.835	1257.5
438.057	1301.5
438.278	1285.5
438.5	1276.5
438.721	1279.5
438.943	1278.5
439.165	1282.5
439.386	1301.5
439.608	1302.5
439.829	1319.5
440.05	1321.5
440.272	1269.5
440.493	1330.5
440.715	1334.5
440.936	1356.5
441.158	1332.5
441.379	1318.5
441.6	1394.5
441.822	1396.5
442.043	1326.5
442.264	1374.5
442.486	1349.5
442.707	1364.5
442.928	1364.5
443.149	1375.5
443.371	1345.5
443.592	1357.5
443.813	1407.5
444.034	1393.5
444.255	1380.5
444.476	1402.5
444.698	1401.5
444.919	1450.5
445.14	1499.5
445.361	1501.5
445.582	1404.5
445.803	1375.5
446.024	1388.5
446.245	1365.5
446.466	1360.5
446.687	1318.5
446.908	1323.5
447.129	1302.5
447.35	1265.5
447.571	1274.5
447.792	1234.5
448.013	1256.5
448.234	1253.5
448.455	1226.5
448.675	1209.5
448.896	1251.5
449.117	1213.5
449.338	1211.5
449.559	1210.5
449.779	1221.5
450	1191.5
450.221	1243.5
450.442	1211.5
450.662	1210.5
450.883	1167.5
451.104	1196.5
451.324	1188.5
451.545	1199.5
451.766	1188.5
451.986	1170.5
452.207	1180.5
452.428	1179.5
452.648	1173.5
452.869	1149.5
453.089	1152.5
453.31	1146.5
453.53	1137.5
453.751	1116.5
453.971	1157.5
454.192	1175.5
454.412	1122.5
454.633	1133.5
454.853	1157.5
455.073	1114.5
455.294	1159.5
455.514	1151.5
455.734	1185.5
455.955	1170.5
456.175	1168.5
456.395	1156.5
456.616	1175.5
456.836	1161.5
457.056	1170.5
457.276	1144.5
457.497	1182.5
457.717	1169.5
457.937	1168.5
458.157	1180.5
458.377	1209.5
458.598	1225.5
458.818	1246.5
459.038	1236.5
459.258	1250.5
459.478	1287.5
459.698	1317.5
459.918	1366.5
460.138	1319.5
460.358	1367.5
460.578	1385.5
460.798	1440.5
461.018	1430.5
461.238	1432.5
461.458	1422.5
461.678	1454.5
461.898	1457.5
462.118	1458.5
462.338	1497.5
462.558	1527.5
462.777	1553.5
462.997	1605.5
463.217	1606.5
463.437	1646.5
463.657	1627.5
463.876	1593.5
464.096	1571.5
464.316	1582.5
464.536	1552.5
464.755	1536.5
464.975	1480.5
465.195	1425.5
465.414	1416.5
465.634	1371.5
465.854	1364.5
466.073	1370.5
466.293	1313.5
466.512	1339.5
466.732	1319.5
466.951	1305.5
467.171	1305.5
467.391	1258.5
467.61	1262.5
467.829	1290.5
468.049	1289.5
468.268	1259.5
468.488	1238.5
468.707	1254.5
468.927	1247.5
469.146	1302.5
469.365	1302.5
469.585	1263.5
469.804	1298.5
470.023	1297.5
470.243	1295.5
470.462	1260.5
470.681	1317.5
470.901	1316.5
471.12	1332.5
471.339	1314.5
471.558	1274.5
471.777	1306.5
471.997	1290.5
472.216	1307.5
472.435	1247.5
472.654	1260.5
472.873	1236.5
473.092	1290.5
473.311	1313.5
473.53	1274.5
473.749	1267.5
473.968	1275.5
474.187	1298.5
474.406	1274.5
474.625	1313.5
474.844	1295.5
475.063	1323.5
475.282	1274.5
475.501	1300.5
475.72	1301.5
475.939	1318.5
476.158	1326.5
476.377	1387.5
476.596	1397.5
476.814	1413.5
477.033	1383.5
477.252	1365.5
477.471	1390.5
477.69	1440.5
477.908	1441.5
478.127	1444.5
478.346	1458.5
478.564	1478.5
478.783	1434.5
479.002	1466.5
479.22	1540.5
479.439	1549.5
479.658	1504.5
479.876	1523.5
480.095	1521.5
480.313	1606.5
480.532	1562.5
480.751	1539.5
480.969	1548.5
481.188	1556.5
481.406	1529.5
481.624	1551.5
481.843	1481.5
482.061	1488.5
482.28	1525.5
482.498	1511.5
482.717	1512.5
482.935	1500.5
483.153	1521.5
483.372	1493.5
483.59	1514.5
483.808	1489.5
484.027	1494.5
484.245	1499.5
484.463	1525.5
484.681	1516.5
484.9	1523.5
485.118	1497.5
485.336	1539.5
485.554	1545.5
485.772	1520.5
485.99	1535.5
486.209	1535.5
486.427	1526.5
486.645	1494.5
486.863	1562.5
487.081	1530.5
487.299	1563.5
487.517	1545.5
487.735	1525.5
487.953	1586.5
488.171	1578.5
488.389	1573.5
488.607	1496.5
488.825	1516.5
489.043	1542.5
489.261	1533.5
489.479	1554.5
489.696	1519.5
489.914	1562.5
490.132	1542.5
490.35	1566.5
490.568	1516.5
490.786	1565.5
491.003	1574.5
491.221	1549.5
491.439	1571.5
491.657	1573.5
491.874	1559.5
492.092	1593.5
492.31	1607.5
492.527	1608.5
492.745	1603.5
492.963	1630.5
493.18	1607.5
493.398	1650.5
493.615	1619.5
493.833	1589.5
494.05	1616.5
494.268	1612.5
494.485	1579.5
494.703	1621.5
494.92	1643.5
495.138	1660.5
495.355	1639.5
495.573	1673.5
495.79	1661.5
496.008	1698.5
496.225	1662.5
496.442	1717.5
496.66	1721.5
496.877	1724.5
497.094	1792.5
497.312	1807.5
497.529	1777.5
497.746	1837.5
497.963	1860.5
498.181	1905.5
498.398	1935.5
498.615	2036.5
498.832	2105.5
499.049	2198.5
499.267	2325.5
499.484	2350.5
499.701	2462.5
499.918	2560.5
500.135	2700.5
500.352	2786.5
500.569	2743.5
500.786	2828.5
501.003	2717.5
501.22	2643.5
501.437	2530.5
501.654	2394.5
501.871	2299.5
502.088	2207.5
502.305	2145.5
502.522	2072.5
502.739	1999.5
502.956	1951.5
503.172	1910.5
503.389	1861.5
503.606	1797.5
503.823	1874.5
504.04	1797.5
504.256	1768.5
504.473	1775.5
504.69	1746.5
504.907	1739.5
505.123	1689.5
505.34	1669.5
505.557	1637.5
505.773	1616.5
505.99	1563.5
506.207	1524.5
506.423	1484.5
506.64	1475.5
506.856	1491.5
507.073	1460.5
507.289	1437.5
507.506	1414.5
507.722	1462.5
507.939	1416.5
508.155	1438.5
508.372	1412.5
508.588	1418.5
508.805	1384.5
509.021	1392.5
509.238	1357.5
509.454	1321.5
509.67	1294.5
509.887	1311.5
510.103	1367.5
510.319	1314.5
510.536	1313.5
510.752	1304.5
510.968	1330.5
511.184	1289.5
511.401	1306.5
511.617	1285.5
511.833	1333.5
512.049	1294.5
512.265	1317.5
512.481	1316.5
512.698	1321.5
512.914	1307.5
513.13	1340.5
513.346	1293.5
513.562	1320.5
513.778	1305.5
513.994	1270.5
514.21	1293.5
514.426	1282.5
514.642	1316.5
514.858	1304.5
515.074	1284.5
515.29	1323.5
515.506	1319.5
515.721	1366.5
515.937	1377.5
516.153	1351.5
516.369	1359.5
516.585	1406.5
516.801	1421.5
517.016	1447.5
517.232	1469.5
517.448	1467.5
517.664	1459.5
517.879	1465.5
518.095	1477.5
518.311	1435.5
518.527	1423.5
518.742	1434.5
518.958	1412.5
519.173	1361.5
519.389	1365.5
519.605	1332.5
519.82	1344.5
520.036	1406.5
520.251	1346.5
520.467	1316.5
520.682	1304.5
520.898	1256.5
521.113	1251.5
521.329	1269.5
521.544	1291.5
521.76	1281.5
521.975	1223.5
522.19	1244.5
522.406	1225.5
522.621	1247.5
522.836	1252.5
523.052	1202.5
523.267	1201.5
523.482	1227.5
523.698	1205.5
523.913	1174.5
524.128	1187.5
524.343	1191.5
524.559	1163.5
524.774	1214.5
524.989	1179.5
525.204	1159.5
525.419	1171.5
525.634	1181.5
525.849	1183.5
526.064	1178.5
526.28	1169.5
526.495	1174.5
526.71	1144.5
526.925	1163.5
527.14	1157.5
527.355	1142.5
527.57	1163.5
527.785	1122.5
527.999	1142.5
528.214	1129.5
528.429	1113.5
528.644	1142.5
528.859	1147.5
529.074	1149.5
529.289	1128.5
529.503	1132.5
529.718	1130.5
529.933	1127.5
530.148	1090.5
530.363	1151.5
530.577	1119.5
530.792	1122.5
531.007	1094.5
531.221	1110.5
531.436	1109.5
531.651	1125.5
531.865	1109.5
532.08	1118.5
532.295	1105.5
532.509	1116.5
532.724	1107.5
532.938	1115.5
533.153	1093.5
533.367	1086.5
533.582	1105.5
533.796	1090.5
534.011	1098.5
534.225	1106.5
534.44	1107.5
534.654	1063.5
534.868	1082.5
535.083	1083.5
535.297	1081.5
535.511	1054.5
535.726	1089.5
535.94	1062.5
536.154	1038.5
536.369	1059.5
536.583	1061.5
536.797	1034.5
537.011	1038.5
537.225	1031.5
537.44	1062.5
537.654	1038.5
537.868	1030.5
538.082	1002.5
538.296	1041.5
538.51	1020.5
538.724	1035.5
538.938	1049.5
539.153	1027.5
539.367	1020.5
539.581	1030.5
539.795	1007.5
540.009	993.5
540.222	996.5
540.436	1015.5
540.65	1025.5
540.864	1019.5
541.078	1053.5
541.292	1026.5
541.506	1025.5
541.72	1016.5
541.934	1030.5
542.147	1031.5
542.361	1037.5
542.575	1001.5
542.789	1010.5
543.002	969.5
543.216	996.5
543.43	993.5
543.644	1016.5
543.857	1005.5
544.071	982.5
544.285	1001.5
544.498	963.5
544.712	1005.5
544.925	1022.5
545.139	986.5
545.352	987.5
545.566	999.5
545.779	999.5
545.993	1011.5
546.206	987.5
546.42	1025.5
546.633	989.5
546.847	1006.5
547.06	1012.5
547.274	991.5
547.487	1005.5
547.7	1023.5
547.914	1033.5
548.127	1029.5
548.34	1015.5
548.554	1007.5
548.767	1005.5
548.98	993.5
549.193	1002.5
549.407	1033.5
549.62	1015.5
549.833	1001.5
550.046	1009.5
550.259	1027.5
550.473	995.5
550.686	1015.5
550.899	1006.5
551.112	993.5
551.325	1031.5
551.538	1029.5
551.751	967.5
551.964	972.5
552.177	991.5
552.39	988.5
552.603	1020.5
552.816	1011.5
553.029	1025.5
553.242	1003.5
553.455	1019.5
553.667	1021.5
553.88	994.5
554.093	974.5
554.306	974.5
554.519	991.5
554.732	949.5
554.944	958.5
555.157	950.5
555.37	909.5
555.583	947.5
555.795	887.5
556.008	909.5
556.221	895.5
556.433	907.5
556.646	887.5
556.859	876.5
557.071	895.5
557.284	873.5
557.496	856.5
557.709	861.5
557.921	861.5
558.134	885.5
558.346	852.5
558.559	864.5
558.771	847.5
558.984	871.5
559.196	853.5
559.409	825.5
559.621	837.5
559.833	827.5
560.046	866.5
560.258	872.5
560.47	861.5
560.683	863.5
560.895	829.5
561.107	837.5
561.32	855.5
561.532	881.5
561.744	857.5
561.956	831.5
562.168	855.5
562.381	876.5
562.593	849.5
562.805	853.5
563.017	859.5
563.229	852.5
563.441	836.5
563.653	858.5
563.865	858.5
564.077	838.5
564.289	876.5
564.501	903.5
564.713	895.5
564.925	903.5
565.137	920.5
565.349	901.5
565.561	914.5
565.773	951.5
565.985	970.5
566.197	982.5
566.408	1034.5
566.62	1023.5
566.832	1052.5
567.044	1061.5
567.255	1103.5
567.467	1074.5
567.679	1102.5
567.891	1122.5
568.102	1067.5
568.314	1054.5
568.526	1018.5
568.737	1020.5
568.949	925.5
569.161	904.5
569.372	923.5
569.584	888.5
569.795	872.5
570.007	868.5
570.218	844.5
570.43	833.5
570.641	826.5
570.853	805.5
571.064	800.5
571.276	814.5
571.487	803.5
571.698	795.5
571.91	761.5
572.121	737.5
572.333	762.5
572.544	726.5
572.755	735.5
572.966	720.5
573.178	696.5
573.389	703.5
573.6	685.5
573.811	668.5
574.023	719.5
574.234	689.5
574.445	681.5
574.656	665.5
574.867	674.5
575.078	669.5
575.289	668.5
575.501	689.5
575.712	675.5
575.923	646.5
576.134	629.5
576.345	650.5
576.556	641.5
576.767	661.5
576.978	651.5
577.188	639.5
577.399	630.5
577.61	633.5
577.821	627.5
578.032	615.5
578.243	627.5
578.454	613.5
578.665	609.5
578.875	637.5
579.086	613.5
579.297	622.5
579.508	618.5
579.718	613.5
579.929	607.5
580.14	587.5
580.35	585.5
580.561	615.5
580.772	589.5
580.982	589.5
581.193	586.5
581.403	601.5
581.614	581.5
581.825	603.5
582.035	600.5
582.246	578.5
582.456	582.5
582.667	569.5
582.877	571.5
583.087	578.5
583.298	577.5
583.508	575.5
583.719	558.5
583.929	569.5
584.139	557.5
584.35	571.5
584.56	562.5
584.77	555.5
584.981	572.5
585.191	548.5
585.401	548.5
585.611	566.5
585.821	545.5
586.032	545.5
586.242	570.5
586.452	549.5
586.662	541.5
586.872	565.5
587.082	554.5
587.292	545.5
587.502	526.5
587.713	564.5
587.923	557.5
588.133	570.5
588.343	555.5
588.553	539.5
588.762	549.5
588.972	545.5
589.182	582.5
589.392	586.5
589.602	558.5
589.812	579.5
590.022	577.5
590.232	538.5
590.441	574.5
590.651	547.5
590.861	541.5
591.071	528.5
591.281	528.5
591.49	564.5
591.7	568.5
591.91	542.5
592.119	570.5
592.329	543.5
592.539	558.5
592.748	587.5
592.958	573.5
593.167	569.5
593.377	568.5
593.587	595.5
593.796	587.5
594.006	590.5
594.215	574.5
594.424	569.5
594.634	561.5
594.843	553.5
595.053	554.5
595.262	541.5
595.472	545.5
595.681	534.5
595.89	527.5
596.1	518.5
596.309	511.5
596.518	515.5
596.727	510.5
596.937	513.5
597.146	507.5
597.355	511.5
597.564	508.5
597.774	521.5
597.983	473.5
598.192	478.5
598.401	479.5
598.61	470.5
598.819	456.5
599.028	475.5
599.237	464.5
599.446	480.5
599.655	459.5
599.864	483.5
600.073	463.5
600.282	458.5
600.491	456.5
600.7	455.5
600.909	460.5
601.118	463.5
601.327	443.5
601.536	449.5
601.745	464.5
601.953	459.5
602.162	455.5
602.371	447.5
602.58	453.5
602.789	457.5
602.997	434.5
603.206	442.5
603.415	433.5
603.623	427.5
603.832	436.5
604.041	440.5
604.249	427.5
604.458	410.5
604.666	409.5
604.875	422.5
605.084	420.5
605.292	415.5
605.501	439.5
605.709	418.5
605.918	413.5
606.126	440.5
606.334	417.5
606.543	405.5
606.751	420.5
606.96	423.5
607.168	449.5
607.376	415.5
607.585	407.5
607.793	411.5
608.001	418.5
608.21	401.5
608.418	408.5
608.626	412.5
608.834	421.5
609.043	399.5
609.251	423.5
609.459	401.5
609.667	409.5
609.875	400.5
610.083	399.5
610.291	387.5
610.499	405.5
610.707	399.5
610.916	392.5
611.124	414.5
611.332	387.5
611.54	403.5
611.748	395.5
611.955	391.5
612.163	397.5
612.371	397.5
612.579	404.5
612.787	382.5
612.995	387.5
613.203	393.5
613.411	377.5
613.618	389.5
613.826	385.5
614.034	414.5
614.242	392.5
614.449	378.5
614.657	368.5
614.865	385.5
615.072	375.5
615.28	373.5
615.488	379.5
615.695	395.5
615.903	385.5
616.111	361.5
616.318	377.5
616.526	366.5
616.733	366.5
616.941	358.5
617.148	414.5
617.356	381.5
617.563	373.5
617.771	377.5
617.978	365.5
618.185	366.5
618.393	381.5
618.6	367.5
618.807	375.5
619.015	387.5
619.222	365.5
619.429	377.5
619.637	365.5
619.844	372.5
620.051	367.5
620.258	357.5
620.466	370.5
620.673	339.5
620.88	333.5
621.087	346.5
621.294	358.5
621.501	349.5
621.708	343.5
621.915	349.5
622.122	371.5
622.329	345.5
622.536	329.5
622.743	355.5
622.95	377.5
623.157	347.5
623.364	350.5
623.571	343.5
623.778	343.5
623.985	351.5
624.192	350.5
624.399	359.5
624.606	346.5
624.812	339.5
625.019	342.5
625.226	336.5
625.433	336.5
625.639	338.5
625.846	338.5
626.053	325.5
626.259	322.5
626.466	302.5
626.673	333.5
626.879	312.5
627.086	336.5
627.293	326.5
627.499	319.5
627.706	324.5
627.912	313.5
628.119	324.5
628.325	339.5
628.532	321.5
628.738	328.5
628.945	323.5
629.151	292.5
629.357	329.5
629.564	324.5
629.77	330.5
629.976	314.5
630.183	324.5
630.389	320.5
630.595	311.5
630.802	310.5
631.008	314.5
631.214	317.5
631.42	307.5
631.627	317.5
631.833	295.5
632.039	308.5
632.245	291.5
632.451	316.5
632.657	296.5
632.863	304.5
633.069	299.5
633.275	292.5
633.481	305.5
633.688	317.5
633.893	290.5
634.099	309.5
634.305	289.5
634.511	292.5
634.717	305.5
634.923	287.5
635.129	289.5
635.335	297.5
635.541	271.5
635.747	288.5
635.952	280.5
636.158	286.5
636.364	310.5
636.57	266.5
636.775	286.5
636.981	295.5
637.187	286.5
637.392	289.5
637.598	309.5
637.804	305.5
638.009	310.5
638.215	284.5
638.421	291.5
638.626	291.5
638.832	298.5
639.037	281.5
639.243	270.5
639.448	277.5
639.654	287.5
639.859	279.5
640.065	270.5
640.27	279.5
640.475	289.5
640.681	282.5
640.886	281.5
641.091	284.5
641.297	283.5
641.502	251.5
641.707	288.5
641.913	285.5
642.118	280.5
642.323	270.5
642.528	279.5
642.733	266.5
642.939	282.5
643.144	273.5
643.349	269.5
643.554	258.5
643.759	267.5
643.964	270.5
644.169	276.5
644.374	279.5
644.579	261.5
644.784	285.5
644.989	275.5
645.194	271.5
645.399	285.5
645.604	263.5
645.809	271.5
646.014	259.5
646.219	284.5
646.423	262.5
646.628	280.5
646.833	275.5
647.038	288.5
647.243	272.5
647.447	277.5
647.652	277.5
647.857	260.5
648.062	275.5
648.266	297.5
648.471	277.5
648.676	274.5
648.88	285.5
649.085	275.5
649.289	277.5
649.494	275.5
649.698	267.5
649.903	261.5
650.107	275.5
650.312	270.5
650.516	271.5
650.721	259.5
650.925	270.5
651.13	270.5
651.334	249.5
651.539	263.5
651.743	244.5
651.947	260.5
652.152	246.5
652.356	251.5
652.56	250.5
652.764	263.5
652.969	260.5
653.173	259.5
653.377	252.5
653.581	228.5
653.785	237.5
653.99	226.5
654.194	236.5
654.398	230.5
654.602	236.5
654.806	225.5
655.01	214.5
655.214	232.5
655.418	198.5
655.622	228.5
655.826	231.5
656.03	217.5
656.234	207.5
656.438	218.5
656.642	215.5
656.846	208.5
657.049	221.5
657.253	204.5
657.457	203.5
657.661	188.5
657.865	178.5
658.068	170.5
658.272	167.5
658.476	167.5
658.68	152.5
658.883	148.5
659.087	142.5
659.291	134.5
659.494	143.5
659.698	127.5
659.901	124.5
660.105	137.5
660.309	116.5
660.512	122.5
660.716	125.5
660.919	114.5
661.123	117.5
661.326	111.5
661.53	109.5
661.733	96.5
661.936	101.5
662.14	103.5
662.343	100.5
662.546	105.5
662.75	101.5
662.953	83.5
663.156	91.5
663.36	89.5
663.563	92.5
663.766	86.5
663.969	94.5
664.173	92.5
664.376	91.5
664.579	71.5
664.782	99.5
664.985	88.5
665.188	82.5
665.391	96.5
665.594	86.5
665.797	76.5
666	69.5
666.203	87.5
666.406	92.5
666.609	87.5
666.812	69.5
667.015	93.5
667.218	82.5
667.421	78.5
667.624	90.5
667.827	92.5
668.03	82.5
668.232	81.5
668.435	90.5
668.638	84.5
668.841	103.5
669.043	93.5
669.246	84.5
669.449	79.5
669.651	77.5
669.854	95.5
670.057	92.5
670.259	70.5
670.462	74.5
670.665	85.5
670.867	89.5
671.07	93.5
671.272	87.5
671.475	87.5
671.677	83.5
671.88	72.5
672.082	78.5
672.284	78.5
672.487	93.5
672.689	89.5
672.892	84.5
