Data from Fe(NO3)3@0.1M.TitratingCurve.Agarose3%dH2O.NegLispCup.LampEnergy10.LIBS07252019_HRD10591_16-37-21-332.txt Node
Date: Thu Jul 25 16:37:21 EDT 2019
User: cochatt
Spectrometer: HR+D1059
Trigger mode: 1
Integration Time (sec): 1.000000E-1
Scans to average: 1
Electric dark correction enabled: true
Nonlinearity correction enabled: false
Boxcar width: 0
XAxis mode: Wavelengths
Number of Pixels in Spectrum: 2048
>>>>>Begin Spectral Data<<<<<
223.165	-20.94
223.4	-20.94
223.635	-20.94
223.869	-6.94
224.104	-23.94
224.338	-7.94
224.573	-15.94
224.808	-10.94
225.042	-22.94
225.277	-15.94
225.511	1.06
225.746	-2.94
225.98	8.06
226.215	10.06
226.449	21.06
226.683	13.06
226.918	37.06
227.152	38.06
227.387	40.06
227.621	39.06
227.856	50.06
228.09	54.06
228.324	54.06
228.559	52.06
228.793	60.06
229.027	77.06
229.262	72.06
229.496	74.06
229.73	89.06
229.964	82.06
230.199	83.06
230.433	76.06
230.667	79.06
230.901	96.06
231.136	103.06
231.37	103.06
231.604	98.06
231.838	104.06
232.072	92.06
232.306	97.06
232.541	105.06
232.775	96.06
233.009	98.06
233.243	114.06
233.477	102.06
233.711	112.06
233.945	78.06
234.179	103.06
234.413	102.06
234.647	101.06
234.881	94.06
235.115	101.06
235.349	95.06
235.583	114.06
235.817	94.06
236.051	92.06
236.285	90.06
236.519	120.06
236.753	90.06
236.987	100.06
237.221	105.06
237.455	104.06
237.689	92.06
237.922	103.06
238.156	105.06
238.39	119.06
238.624	101.06
238.858	101.06
239.091	110.06
239.325	96.06
239.559	94.06
239.793	119.06
240.027	104.06
240.26	102.06
240.494	103.06
240.728	105.06
240.961	102.06
241.195	111.06
241.429	108.06
241.662	105.06
241.896	100.06
242.13	96.06
242.363	113.06
242.597	96.06
242.83	112.06
243.064	114.06
243.298	97.06
243.531	100.06
243.765	96.06
243.998	107.06
244.232	112.06
244.465	102.06
244.699	105.06
244.932	104.06
245.166	118.06
245.399	106.06
245.633	103.06
245.866	112.06
246.099	121.06
246.333	102.06
246.566	109.06
246.8	116.06
247.033	116.06
247.266	116.06
247.5	119.06
247.733	125.06
247.966	112.06
248.2	115.06
248.433	106.06
248.666	116.06
248.899	124.06
249.133	118.06
249.366	113.06
249.599	117.06
249.832	125.06
250.066	131.06
250.299	118.06
250.532	119.06
250.765	119.06
250.998	121.06
251.231	132.06
251.465	127.06
251.698	125.06
251.931	136.06
252.164	132.06
252.397	135.06
252.63	128.06
252.863	124.06
253.096	119.06
253.329	128.06
253.562	124.06
253.795	126.06
254.028	123.06
254.261	118.06
254.494	133.06
254.727	128.06
254.96	114.06
255.193	132.06
255.426	146.06
255.659	135.06
255.892	124.06
256.124	132.06
256.357	137.06
256.59	138.06
256.823	128.06
257.056	128.06
257.289	118.06
257.521	131.06
257.754	126.06
257.987	141.06
258.22	153.06
258.452	137.06
258.685	154.06
258.918	151.06
259.151	134.06
259.383	131.06
259.616	143.06
259.849	141.06
260.081	149.06
260.314	154.06
260.547	134.06
260.779	149.06
261.012	154.06
261.244	137.06
261.477	156.06
261.71	138.06
261.942	134.06
262.175	150.06
262.407	137.06
262.64	137.06
262.872	150.06
263.105	148.06
263.337	128.06
263.57	162.06
263.802	134.06
264.035	149.06
264.267	148.06
264.499	158.06
264.732	139.06
264.964	153.06
265.197	153.06
265.429	157.06
265.661	156.06
265.894	159.06
266.126	142.06
266.358	155.06
266.591	153.06
266.823	153.06
267.055	152.06
267.287	163.06
267.52	146.06
267.752	171.06
267.984	156.06
268.216	141.06
268.448	158.06
268.681	163.06
268.913	162.06
269.145	153.06
269.377	146.06
269.609	159.06
269.841	167.06
270.073	160.06
270.306	155.06
270.538	142.06
270.77	148.06
271.002	146.06
271.234	155.06
271.466	157.06
271.698	159.06
271.93	165.06
272.162	145.06
272.394	171.06
272.626	172.06
272.858	191.06
273.09	155.06
273.322	171.06
273.553	169.06
273.785	162.06
274.017	168.06
274.249	174.06
274.481	168.06
274.713	169.06
274.945	166.06
275.176	170.06
275.408	185.06
275.64	178.06
275.872	177.06
276.104	160.06
276.335	174.06
276.567	171.06
276.799	174.06
277.031	157.06
277.262	165.06
277.494	172.06
277.726	180.06
277.957	168.06
278.189	164.06
278.421	178.06
278.652	172.06
278.884	172.06
279.115	171.06
279.347	179.06
279.579	176.06
279.81	169.06
280.042	173.06
280.273	167.06
280.505	180.06
280.736	180.06
280.968	170.06
281.199	185.06
281.431	184.06
281.662	176.06
281.894	187.06
282.125	184.06
282.356	198.06
282.588	185.06
282.819	195.06
283.051	181.06
283.282	178.06
283.513	195.06
283.745	179.06
283.976	185.06
284.207	195.06
284.439	188.06
284.67	202.06
284.901	185.06
285.132	188.06
285.364	183.06
285.595	182.06
285.826	192.06
286.057	179.06
286.288	198.06
286.52	191.06
286.751	193.06
286.982	185.06
287.213	173.06
287.444	188.06
287.675	196.06
287.906	204.06
288.138	194.06
288.369	195.06
288.6	203.06
288.831	199.06
289.062	192.06
289.293	199.06
289.524	196.06
289.755	200.06
289.986	194.06
290.217	211.06
290.448	196.06
290.679	202.06
290.91	201.06
291.141	193.06
291.371	198.06
291.602	193.06
291.833	197.06
292.064	193.06
292.295	188.06
292.526	205.06
292.757	191.06
292.987	222.06
293.218	200.06
293.449	197.06
293.68	197.06
293.91	200.06
294.141	195.06
294.372	194.06
294.603	205.06
294.833	204.06
295.064	194.06
295.295	205.06
295.525	199.06
295.756	199.06
295.987	211.06
296.217	207.06
296.448	219.06
296.679	207.06
296.909	186.06
297.14	194.06
297.37	196.06
297.601	193.06
297.831	210.06
298.062	205.06
298.292	212.06
298.523	229.06
298.753	193.06
298.984	205.06
299.214	194.06
299.445	208.06
299.675	213.06
299.905	206.06
300.136	211.06
300.366	211.06
300.597	197.06
300.827	222.06
301.057	217.06
301.288	220.06
301.518	235.06
301.748	203.06
301.979	229.06
302.209	209.06
302.439	224.06
302.669	214.06
302.9	233.06
303.13	223.06
303.36	221.06
303.59	211.06
303.82	225.06
304.051	220.06
304.281	205.06
304.511	210.06
304.741	227.06
304.971	230.06
305.201	203.06
305.431	225.06
305.661	213.06
305.891	216.06
306.121	217.06
306.352	210.06
306.582	219.06
306.812	210.06
307.042	221.06
307.272	221.06
307.502	214.06
307.731	233.06
307.961	212.06
308.191	235.06
308.421	226.06
308.651	214.06
308.881	210.06
309.111	226.06
309.341	214.06
309.571	219.06
309.8	208.06
310.03	206.06
310.26	217.06
310.49	232.06
310.72	222.06
310.949	217.06
311.179	228.06
311.409	224.06
311.639	213.06
311.868	215.06
312.098	231.06
312.328	233.06
312.557	223.06
312.787	227.06
313.017	237.06
313.246	203.06
313.476	225.06
313.706	218.06
313.935	244.06
314.165	226.06
314.394	230.06
314.624	232.06
314.853	232.06
315.083	218.06
315.312	227.06
315.542	245.06
315.771	221.06
316.001	234.06
316.23	226.06
316.46	230.06
316.689	217.06
316.919	237.06
317.148	236.06
317.377	229.06
317.607	245.06
317.836	234.06
318.065	227.06
318.295	240.06
318.524	235.06
318.753	232.06
318.983	216.06
319.212	222.06
319.441	224.06
319.67	214.06
319.9	236.06
320.129	220.06
320.358	246.06
320.587	228.06
320.816	227.06
321.046	226.06
321.275	230.06
321.504	241.06
321.733	222.06
321.962	224.06
322.191	214.06
322.42	232.06
322.649	241.06
322.878	217.06
323.108	234.06
323.337	237.06
323.566	241.06
323.795	235.06
324.024	224.06
324.253	226.06
324.482	219.06
324.71	235.06
324.939	234.06
325.168	243.06
325.397	223.06
325.626	224.06
325.855	246.06
326.084	256.06
326.313	235.06
326.542	257.06
326.77	259.06
326.999	258.06
327.228	264.06
327.457	253.06
327.686	243.06
327.914	251.06
328.143	232.06
328.372	249.06
328.6	240.06
328.829	231.06
329.058	237.06
329.287	234.06
329.515	252.06
329.744	259.06
329.972	258.06
330.201	224.06
330.43	235.06
330.658	241.06
330.887	274.06
331.115	261.06
331.344	280.06
331.572	273.06
331.801	258.06
332.03	264.06
332.258	273.06
332.486	270.06
332.715	260.06
332.943	273.06
333.172	287.06
333.4	280.06
333.629	319.06
333.857	306.06
334.085	312.06
334.314	304.06
334.542	290.06
334.771	287.06
334.999	285.06
335.227	288.06
335.455	295.06
335.684	288.06
335.912	298.06
336.14	311.06
336.369	296.06
336.597	298.06
336.825	298.06
337.053	291.06
337.281	271.06
337.51	278.06
337.738	280.06
337.966	261.06
338.194	282.06
338.422	251.06
338.65	270.06
338.878	266.06
339.106	252.06
339.334	262.06
339.562	261.06
339.79	277.06
340.018	283.06
340.246	261.06
340.474	266.06
340.702	252.06
340.93	271.06
341.158	268.06
341.386	258.06
341.614	261.06
341.842	243.06
342.07	282.06
342.298	247.06
342.526	267.06
342.754	245.06
342.981	258.06
343.209	254.06
343.437	276.06
343.665	287.06
343.893	270.06
344.12	306.06
344.348	295.06
344.576	292.06
344.804	262.06
345.031	281.06
345.259	274.06
345.487	252.06
345.714	248.06
345.942	248.06
346.17	261.06
346.397	258.06
346.625	252.06
346.853	250.06
347.08	249.06
347.308	245.06
347.535	267.06
347.763	263.06
347.99	258.06
348.218	256.06
348.445	242.06
348.673	253.06
348.9	253.06
349.128	253.06
349.355	237.06
349.583	255.06
349.81	234.06
350.037	247.06
350.265	246.06
350.492	261.06
350.72	247.06
350.947	234.06
351.174	257.06
351.402	261.06
351.629	218.06
351.856	242.06
352.083	258.06
352.311	248.06
352.538	250.06
352.765	227.06
352.992	251.06
353.22	259.06
353.447	245.06
353.674	258.06
353.901	263.06
354.128	260.06
354.355	248.06
354.583	240.06
354.81	241.06
355.037	252.06
355.264	254.06
355.491	239.06
355.718	265.06
355.945	263.06
356.172	240.06
356.399	247.06
356.626	227.06
356.853	237.06
357.08	242.06
357.307	260.06
357.534	264.06
357.761	246.06
357.988	268.06
358.215	248.06
358.441	235.06
358.668	244.06
358.895	256.06
359.122	249.06
359.349	248.06
359.576	257.06
359.802	256.06
360.029	260.06
360.256	251.06
360.483	246.06
360.709	246.06
360.936	263.06
361.163	248.06
361.39	246.06
361.616	252.06
361.843	257.06
362.07	253.06
362.296	250.06
362.523	256.06
362.749	241.06
362.976	224.06
363.203	252.06
363.429	231.06
363.656	247.06
363.882	245.06
364.109	253.06
364.335	263.06
364.562	233.06
364.788	247.06
365.015	254.06
365.241	270.06
365.468	276.06
365.694	241.06
365.92	248.06
366.147	260.06
366.373	243.06
366.599	245.06
366.826	256.06
367.052	266.06
367.278	257.06
367.505	257.06
367.731	260.06
367.957	242.06
368.184	259.06
368.41	265.06
368.636	256.06
368.862	270.06
369.089	261.06
369.315	283.06
369.541	266.06
369.767	269.06
369.993	256.06
370.219	258.06
370.445	268.06
370.672	284.06
370.898	275.06
371.124	256.06
371.35	271.06
371.576	273.06
371.802	273.06
372.028	266.06
372.254	277.06
372.48	295.06
372.706	301.06
372.932	295.06
373.158	298.06
373.384	281.06
373.61	275.06
373.835	284.06
374.061	268.06
374.287	295.06
374.513	287.06
374.739	305.06
374.965	296.06
375.191	308.06
375.416	308.06
375.642	296.06
375.868	302.06
376.094	280.06
376.319	283.06
376.545	299.06
376.771	278.06
376.997	274.06
377.222	288.06
377.448	276.06
377.674	280.06
377.899	273.06
378.125	285.06
378.35	284.06
378.576	279.06
378.802	295.06
379.027	274.06
379.253	271.06
379.478	271.06
379.704	291.06
379.929	263.06
380.155	305.06
380.38	309.06
380.606	295.06
380.831	319.06
381.057	282.06
381.282	301.06
381.507	311.06
381.733	308.06
381.958	300.06
382.184	306.06
382.409	304.06
382.634	301.06
382.86	312.06
383.085	294.06
383.31	320.06
383.535	337.06
383.761	325.06
383.986	324.06
384.211	327.06
384.436	334.06
384.662	344.06
384.887	334.06
385.112	330.06
385.337	341.06
385.562	336.06
385.787	327.06
386.013	353.06
386.238	328.06
386.463	327.06
386.688	356.06
386.913	331.06
387.138	329.06
387.363	334.06
387.588	341.06
387.813	323.06
388.038	339.06
388.263	331.06
388.488	361.06
388.713	357.06
388.938	352.06
389.163	328.06
389.387	344.06
389.612	326.06
389.837	340.06
390.062	346.06
390.287	325.06
390.512	325.06
390.736	358.06
390.961	345.06
391.186	341.06
391.411	366.06
391.636	358.06
391.86	381.06
392.085	386.06
392.31	368.06
392.534	378.06
392.759	360.06
392.984	329.06
393.208	355.06
393.433	359.06
393.658	365.06
393.882	383.06
394.107	352.06
394.331	363.06
394.556	370.06
394.78	362.06
395.005	370.06
395.229	368.06
395.454	378.06
395.678	370.06
395.903	376.06
396.127	381.06
396.352	376.06
396.576	359.06
396.801	365.06
397.025	378.06
397.249	372.06
397.474	402.06
397.698	388.06
397.922	393.06
398.147	376.06
398.371	391.06
398.595	409.06
398.82	435.06
399.044	452.06
399.268	469.06
399.492	530.06
399.717	593.06
399.941	589.06
400.165	534.06
400.389	466.06
400.613	446.06
400.837	443.06
401.062	425.06
401.286	428.06
401.51	420.06
401.734	426.06
401.958	428.06
402.182	438.06
402.406	446.06
402.63	443.06
402.854	434.06
403.078	465.06
403.302	461.06
403.526	484.06
403.75	460.06
403.974	478.06
404.198	466.06
404.422	470.06
404.645	460.06
404.869	473.06
405.093	463.06
405.317	440.06
405.541	458.06
405.765	459.06
405.988	478.06
406.212	454.06
406.436	443.06
406.66	460.06
406.883	473.06
407.107	491.06
407.331	505.06
407.555	506.06
407.778	520.06
408.002	517.06
408.226	491.06
408.449	479.06
408.673	483.06
408.896	490.06
409.12	476.06
409.344	469.06
409.567	468.06
409.791	479.06
410.014	464.06
410.238	460.06
410.461	467.06
410.685	462.06
410.908	459.06
411.132	464.06
411.355	445.06
411.578	455.06
411.802	449.06
412.025	456.06
412.249	456.06
412.472	448.06
412.695	433.06
412.919	424.06
413.142	419.06
413.365	424.06
413.589	439.06
413.812	438.06
414.035	423.06
414.258	448.06
414.482	426.06
414.705	425.06
414.928	439.06
415.151	439.06
415.374	430.06
415.597	437.06
415.821	412.06
416.044	425.06
416.267	422.06
416.49	431.06
416.713	410.06
416.936	426.06
417.159	419.06
417.382	423.06
417.605	425.06
417.828	423.06
418.051	420.06
418.274	431.06
418.497	395.06
418.72	451.06
418.943	432.06
419.166	461.06
419.389	475.06
419.611	469.06
419.834	474.06
420.057	453.06
420.28	432.06
420.503	446.06
420.726	417.06
420.948	418.06
421.171	414.06
421.394	429.06
421.617	419.06
421.839	427.06
422.062	438.06
422.285	416.06
422.507	432.06
422.73	450.06
422.953	433.06
423.175	470.06
423.398	438.06
423.621	468.06
423.843	440.06
424.066	455.06
424.288	430.06
424.511	427.06
424.733	440.06
424.956	422.06
425.178	430.06
425.401	421.06
425.623	428.06
425.846	403.06
426.068	428.06
426.291	401.06
426.513	397.06
426.735	391.06
426.958	399.06
427.18	394.06
427.402	414.06
427.625	394.06
427.847	390.06
428.069	388.06
428.292	381.06
428.514	394.06
428.736	392.06
428.958	393.06
429.181	389.06
429.403	379.06
429.625	378.06
429.847	380.06
430.069	383.06
430.292	379.06
430.514	356.06
430.736	390.06
430.958	380.06
431.18	383.06
431.402	386.06
431.624	384.06
431.846	391.06
432.068	421.06
432.29	404.06
432.512	384.06
432.734	396.06
432.956	395.06
433.178	412.06
433.4	404.06
433.622	417.06
433.844	412.06
434.066	407.06
434.287	389.06
434.509	398.06
434.731	425.06
434.953	417.06
435.175	430.06
435.397	434.06
435.618	436.06
435.84	405.06
436.062	403.06
436.284	400.06
436.505	391.06
436.727	390.06
436.949	409.06
437.17	420.06
437.392	380.06
437.614	394.06
437.835	384.06
438.057	362.06
438.278	366.06
438.5	360.06
438.721	377.06
438.943	378.06
439.165	378.06
439.386	374.06
439.608	380.06
439.829	408.06
440.05	407.06
440.272	409.06
440.493	397.06
440.715	393.06
440.936	404.06
441.158	422.06
441.379	401.06
441.6	429.06
441.822	426.06
442.043	424.06
442.264	423.06
442.486	423.06
442.707	422.06
442.928	428.06
443.149	432.06
443.371	409.06
443.592	436.06
443.813	440.06
444.034	424.06
444.255	453.06
444.476	452.06
444.698	486.06
444.919	482.06
445.14	593.06
445.361	509.06
445.582	448.06
445.803	422.06
446.024	429.06
446.245	397.06
446.466	392.06
446.687	384.06
446.908	397.06
447.129	376.06
447.35	412.06
447.571	382.06
447.792	364.06
448.013	394.06
448.234	385.06
448.455	378.06
448.675	390.06
448.896	383.06
449.117	368.06
449.338	360.06
449.559	346.06
449.779	354.06
450	359.06
450.221	358.06
450.442	370.06
450.662	374.06
450.883	361.06
451.104	386.06
451.324	350.06
451.545	353.06
451.766	377.06
451.986	364.06
452.207	380.06
452.428	348.06
452.648	370.06
452.869	358.06
453.089	354.06
453.31	365.06
453.53	370.06
453.751	365.06
453.971	332.06
454.192	348.06
454.412	345.06
454.633	343.06
454.853	358.06
455.073	363.06
455.294	348.06
455.514	346.06
455.734	358.06
455.955	331.06
456.175	341.06
456.395	342.06
456.616	339.06
456.836	350.06
457.056	342.06
457.276	330.06
457.497	340.06
457.717	344.06
457.937	333.06
458.157	345.06
458.377	355.06
458.598	358.06
458.818	364.06
459.038	370.06
459.258	386.06
459.478	379.06
459.698	401.06
459.918	406.06
460.138	421.06
460.358	452.06
460.578	440.06
460.798	445.06
461.018	463.06
461.238	461.06
461.458	454.06
461.678	438.06
461.898	464.06
462.118	425.06
462.338	484.06
462.558	493.06
462.777	505.06
462.997	522.06
463.217	564.06
463.437	529.06
463.657	493.06
463.876	504.06
464.096	536.06
464.316	514.06
464.536	531.06
464.755	488.06
464.975	489.06
465.195	468.06
465.414	452.06
465.634	412.06
465.854	402.06
466.073	425.06
466.293	393.06
466.512	388.06
466.732	394.06
466.951	393.06
467.171	382.06
467.391	406.06
467.61	396.06
467.829	396.06
468.049	385.06
468.268	376.06
468.488	369.06
468.707	364.06
468.927	380.06
469.146	371.06
469.365	374.06
469.585	401.06
469.804	377.06
470.023	379.06
470.243	375.06
470.462	379.06
470.681	388.06
470.901	399.06
471.12	386.06
471.339	390.06
471.558	378.06
471.777	380.06
471.997	368.06
472.216	373.06
472.435	380.06
472.654	368.06
472.873	361.06
473.092	353.06
473.311	363.06
473.53	361.06
473.749	377.06
473.968	372.06
474.187	371.06
474.406	375.06
474.625	382.06
474.844	379.06
475.063	359.06
475.282	340.06
475.501	358.06
475.72	374.06
475.939	392.06
476.158	388.06
476.377	385.06
476.596	394.06
476.814	388.06
477.033	384.06
477.252	379.06
477.471	398.06
477.69	425.06
477.908	432.06
478.127	403.06
478.346	435.06
478.564	414.06
478.783	437.06
479.002	432.06
479.22	441.06
479.439	424.06
479.658	434.06
479.876	420.06
480.095	414.06
480.313	449.06
480.532	454.06
480.751	468.06
480.969	459.06
481.188	445.06
481.406	410.06
481.624	440.06
481.843	406.06
482.061	390.06
482.28	408.06
482.498	408.06
482.717	406.06
482.935	413.06
483.153	406.06
483.372	429.06
483.59	430.06
483.808	417.06
484.027	421.06
484.245	422.06
484.463	420.06
484.681	443.06
484.9	432.06
485.118	420.06
485.336	420.06
485.554	412.06
485.772	424.06
485.99	446.06
486.209	412.06
486.427	423.06
486.645	438.06
486.863	436.06
487.081	446.06
487.299	426.06
487.517	428.06
487.735	428.06
487.953	437.06
488.171	462.06
488.389	452.06
488.607	417.06
488.825	436.06
489.043	424.06
489.261	423.06
489.479	446.06
489.696	434.06
489.914	423.06
490.132	413.06
490.35	427.06
490.568	420.06
490.786	409.06
491.003	457.06
491.221	440.06
491.439	417.06
491.657	439.06
491.874	432.06
492.092	440.06
492.31	459.06
492.527	455.06
492.745	435.06
492.963	441.06
493.18	443.06
493.398	458.06
493.615	440.06
493.833	461.06
494.05	472.06
494.268	458.06
494.485	460.06
494.703	487.06
494.92	467.06
495.138	470.06
495.355	463.06
495.573	474.06
495.79	463.06
496.008	481.06
496.225	460.06
496.442	475.06
496.66	478.06
496.877	477.06
497.094	496.06
497.312	485.06
497.529	511.06
497.746	517.06
497.963	521.06
498.181	559.06
498.398	556.06
498.615	578.06
498.832	627.06
499.049	668.06
499.267	701.06
499.484	749.06
499.701	803.06
499.918	862.06
500.135	942.06
500.352	1072.06
500.569	1086.06
500.786	1129.06
501.003	1022.06
501.22	930.06
501.437	849.06
501.654	782.06
501.871	710.06
502.088	660.06
502.305	621.06
502.522	621.06
502.739	596.06
502.956	580.06
503.172	565.06
503.389	569.06
503.606	526.06
503.823	499.06
504.04	529.06
504.256	524.06
504.473	512.06
504.69	515.06
504.907	529.06
505.123	485.06
505.34	496.06
505.557	450.06
505.773	455.06
505.99	455.06
506.207	433.06
506.423	427.06
506.64	416.06
506.856	432.06
507.073	425.06
507.289	428.06
507.506	412.06
507.722	402.06
507.939	415.06
508.155	419.06
508.372	401.06
508.588	406.06
508.805	410.06
509.021	384.06
509.238	387.06
509.454	397.06
509.67	395.06
509.887	381.06
510.103	395.06
510.319	381.06
510.536	366.06
510.752	386.06
510.968	381.06
511.184	369.06
511.401	380.06
511.617	392.06
511.833	379.06
512.049	404.06
512.265	378.06
512.481	362.06
512.698	382.06
512.914	389.06
513.13	375.06
513.346	366.06
513.562	384.06
513.778	363.06
513.994	402.06
514.21	379.06
514.426	380.06
514.642	367.06
514.858	387.06
515.074	377.06
515.29	418.06
515.506	388.06
515.721	396.06
515.937	409.06
516.153	412.06
516.369	418.06
516.585	437.06
516.801	448.06
517.016	432.06
517.232	449.06
517.448	446.06
517.664	471.06
517.879	498.06
518.095	488.06
518.311	499.06
518.527	467.06
518.742	443.06
518.958	453.06
519.173	417.06
519.389	414.06
519.605	402.06
519.82	398.06
520.036	399.06
520.251	391.06
520.467	388.06
520.682	387.06
520.898	399.06
521.113	391.06
521.329	392.06
521.544	370.06
521.76	387.06
521.975	384.06
522.19	389.06
522.406	365.06
522.621	361.06
522.836	356.06
523.052	357.06
523.267	379.06
523.482	360.06
523.698	380.06
523.913	373.06
524.128	383.06
524.343	368.06
524.559	356.06
524.774	353.06
524.989	371.06
525.204	365.06
525.419	339.06
525.634	342.06
525.849	360.06
526.064	350.06
526.28	375.06
526.495	357.06
526.71	354.06
526.925	353.06
527.14	345.06
527.355	361.06
527.57	362.06
527.785	352.06
527.999	355.06
528.214	349.06
528.429	350.06
528.644	368.06
528.859	363.06
529.074	374.06
529.289	373.06
529.503	370.06
529.718	359.06
529.933	349.06
530.148	359.06
530.363	342.06
530.577	361.06
530.792	358.06
531.007	361.06
531.221	372.06
531.436	350.06
531.651	359.06
531.865	370.06
532.08	347.06
532.295	358.06
532.509	348.06
532.724	348.06
532.938	363.06
533.153	346.06
533.367	358.06
533.582	354.06
533.796	352.06
534.011	340.06
534.225	336.06
534.44	339.06
534.654	349.06
534.868	336.06
535.083	353.06
535.297	352.06
535.511	326.06
535.726	334.06
535.94	315.06
536.154	330.06
536.369	327.06
536.583	341.06
536.797	340.06
537.011	320.06
537.225	332.06
537.44	347.06
537.654	333.06
537.868	331.06
538.082	341.06
538.296	334.06
538.51	327.06
538.724	333.06
538.938	328.06
539.153	329.06
539.367	329.06
539.581	337.06
539.795	334.06
540.009	330.06
540.222	339.06
540.436	317.06
540.65	345.06
540.864	332.06
541.078	309.06
541.292	325.06
541.506	326.06
541.72	326.06
541.934	332.06
542.147	326.06
542.361	331.06
542.575	326.06
542.789	338.06
543.002	313.06
543.216	314.06
543.43	298.06
543.644	323.06
543.857	339.06
544.071	323.06
544.285	348.06
544.498	345.06
544.712	326.06
544.925	328.06
545.139	334.06
545.352	330.06
545.566	326.06
545.779	356.06
545.993	348.06
546.206	322.06
546.42	338.06
546.633	357.06
546.847	330.06
547.06	325.06
547.274	336.06
547.487	339.06
547.7	332.06
547.914	322.06
548.127	335.06
548.34	319.06
548.554	330.06
548.767	352.06
548.98	317.06
549.193	322.06
549.407	326.06
549.62	331.06
549.833	345.06
550.046	329.06
550.259	334.06
550.473	319.06
550.686	334.06
550.899	321.06
551.112	326.06
551.325	317.06
551.538	331.06
551.751	324.06
551.964	325.06
552.177	324.06
552.39	334.06
552.603	347.06
552.816	334.06
553.029	350.06
553.242	347.06
553.455	356.06
553.667	352.06
553.88	328.06
554.093	349.06
554.306	324.06
554.519	318.06
554.732	334.06
554.944	317.06
555.157	323.06
555.37	325.06
555.583	305.06
555.795	322.06
556.008	318.06
556.221	305.06
556.433	305.06
556.646	299.06
556.859	304.06
557.071	288.06
557.284	297.06
557.496	283.06
557.709	293.06
557.921	298.06
558.134	298.06
558.346	290.06
558.559	286.06
558.771	277.06
558.984	273.06
559.196	293.06
559.409	299.06
559.621	287.06
559.833	285.06
560.046	284.06
560.258	286.06
560.47	287.06
560.683	289.06
560.895	272.06
561.107	276.06
561.32	280.06
561.532	294.06
561.744	276.06
561.956	279.06
562.168	301.06
562.381	293.06
562.593	276.06
562.805	276.06
563.017	292.06
563.229	284.06
563.441	261.06
563.653	280.06
563.865	283.06
564.077	283.06
564.289	314.06
564.501	281.06
564.713	304.06
564.925	299.06
565.137	308.06
565.349	311.06
565.561	324.06
565.773	321.06
565.985	311.06
566.197	346.06
566.408	359.06
566.62	387.06
566.832	392.06
567.044	413.06
567.255	424.06
567.467	409.06
567.679	429.06
567.891	446.06
568.102	453.06
568.314	439.06
568.526	402.06
568.737	368.06
568.949	364.06
569.161	344.06
569.372	308.06
569.584	288.06
569.795	308.06
570.007	296.06
570.218	296.06
570.43	289.06
570.641	304.06
570.853	276.06
571.064	272.06
571.276	288.06
571.487	279.06
571.698	270.06
571.91	244.06
572.121	259.06
572.333	244.06
572.544	247.06
572.755	247.06
572.966	249.06
573.178	251.06
573.389	244.06
573.6	264.06
573.811	231.06
574.023	221.06
574.234	256.06
574.445	254.06
574.656	256.06
574.867	244.06
575.078	243.06
575.289	209.06
575.501	225.06
575.712	247.06
575.923	262.06
576.134	243.06
576.345	212.06
576.556	223.06
576.767	211.06
576.978	231.06
577.188	222.06
577.399	236.06
577.61	247.06
577.821	222.06
578.032	213.06
578.243	219.06
578.454	246.06
578.665	218.06
578.875	234.06
579.086	221.06
579.297	203.06
579.508	219.06
579.718	220.06
579.929	214.06
580.14	216.06
580.35	226.06
580.561	217.06
580.772	217.06
580.982	217.06
581.193	217.06
581.403	209.06
581.614	225.06
581.825	224.06
582.035	218.06
582.246	201.06
582.456	207.06
582.667	234.06
582.877	212.06
583.087	197.06
583.298	195.06
583.508	204.06
583.719	208.06
583.929	214.06
584.139	196.06
584.35	222.06
584.56	204.06
584.77	188.06
584.981	203.06
585.191	206.06
585.401	199.06
585.611	202.06
585.821	215.06
586.032	223.06
586.242	199.06
586.452	216.06
586.662	210.06
586.872	195.06
587.082	205.06
587.292	197.06
587.502	211.06
587.713	203.06
587.923	197.06
588.133	213.06
588.343	201.06
588.553	194.06
588.762	229.06
588.972	217.06
589.182	206.06
589.392	205.06
589.602	211.06
589.812	213.06
590.022	205.06
590.232	214.06
590.441	218.06
590.651	205.06
590.861	211.06
591.071	209.06
591.281	214.06
591.49	225.06
591.7	211.06
591.91	212.06
592.119	216.06
592.329	221.06
592.539	220.06
592.748	207.06
592.958	235.06
593.167	218.06
593.377	242.06
593.587	246.06
593.796	242.06
594.006	245.06
594.215	245.06
594.424	249.06
594.634	222.06
594.843	229.06
595.053	227.06
595.262	201.06
595.472	229.06
595.681	213.06
595.89	204.06
596.1	199.06
596.309	202.06
596.518	198.06
596.727	214.06
596.937	195.06
597.146	188.06
597.355	198.06
597.564	196.06
597.774	201.06
597.983	187.06
598.192	192.06
598.401	182.06
598.61	179.06
598.819	194.06
599.028	186.06
599.237	196.06
599.446	188.06
599.655	192.06
599.864	194.06
600.073	178.06
600.282	182.06
600.491	182.06
600.7	171.06
600.909	172.06
601.118	187.06
601.327	190.06
601.536	186.06
601.745	182.06
601.953	190.06
602.162	189.06
602.371	185.06
602.58	174.06
602.789	175.06
602.997	176.06
603.206	190.06
603.415	188.06
603.623	177.06
603.832	174.06
604.041	169.06
604.249	178.06
604.458	181.06
604.666	182.06
604.875	163.06
605.084	168.06
605.292	173.06
605.501	178.06
605.709	160.06
605.918	176.06
606.126	166.06
606.334	179.06
606.543	172.06
606.751	170.06
606.96	168.06
607.168	165.06
607.376	181.06
607.585	178.06
607.793	178.06
608.001	173.06
608.21	174.06
608.418	161.06
608.626	171.06
608.834	153.06
609.043	172.06
609.251	155.06
609.459	170.06
609.667	166.06
609.875	178.06
610.083	182.06
610.291	169.06
610.499	154.06
610.707	155.06
610.916	156.06
611.124	163.06
611.332	169.06
611.54	171.06
611.748	184.06
611.955	162.06
612.163	151.06
612.371	167.06
612.579	155.06
612.787	151.06
612.995	154.06
613.203	170.06
613.411	160.06
613.618	168.06
613.826	166.06
614.034	180.06
614.242	171.06
614.449	169.06
614.657	161.06
614.865	155.06
615.072	168.06
615.28	171.06
615.488	154.06
615.695	150.06
615.903	169.06
616.111	152.06
616.318	170.06
616.526	170.06
616.733	155.06
616.941	175.06
617.148	163.06
617.356	157.06
617.563	165.06
617.771	163.06
617.978	171.06
618.185	164.06
618.393	153.06
618.6	155.06
618.807	172.06
619.015	157.06
619.222	155.06
619.429	171.06
619.637	169.06
619.844	148.06
620.051	156.06
620.258	154.06
620.466	153.06
620.673	153.06
620.88	147.06
621.087	156.06
621.294	158.06
621.501	150.06
621.708	173.06
621.915	146.06
622.122	157.06
622.329	156.06
622.536	161.06
622.743	163.06
622.95	163.06
623.157	155.06
623.364	145.06
623.571	149.06
623.778	164.06
623.985	163.06
624.192	154.06
624.399	171.06
624.606	154.06
624.812	138.06
625.019	142.06
625.226	158.06
625.433	142.06
625.639	167.06
625.846	163.06
626.053	148.06
626.259	150.06
626.466	141.06
626.673	156.06
626.879	161.06
627.086	145.06
627.293	148.06
627.499	143.06
627.706	149.06
627.912	154.06
628.119	135.06
628.325	151.06
628.532	131.06
628.738	137.06
628.945	137.06
629.151	145.06
629.357	136.06
629.564	145.06
629.77	131.06
629.976	152.06
630.183	132.06
630.389	134.06
630.595	151.06
630.802	141.06
631.008	143.06
631.214	146.06
631.42	137.06
631.627	139.06
631.833	141.06
632.039	124.06
632.245	126.06
632.451	132.06
632.657	124.06
632.863	140.06
633.069	138.06
633.275	145.06
633.481	154.06
633.688	152.06
633.893	147.06
634.099	135.06
634.305	134.06
634.511	129.06
634.717	152.06
634.923	136.06
635.129	136.06
635.335	135.06
635.541	130.06
635.747	141.06
635.952	126.06
636.158	132.06
636.364	134.06
636.57	136.06
636.775	136.06
636.981	131.06
637.187	140.06
637.392	120.06
637.598	118.06
637.804	125.06
638.009	130.06
638.215	132.06
638.421	137.06
638.626	124.06
638.832	142.06
639.037	130.06
639.243	118.06
639.448	140.06
639.654	117.06
639.859	134.06
640.065	121.06
640.27	141.06
640.475	129.06
640.681	121.06
640.886	130.06
641.091	121.06
641.297	119.06
641.502	127.06
641.707	127.06
641.913	127.06
642.118	143.06
642.323	125.06
642.528	144.06
642.733	115.06
642.939	136.06
643.144	133.06
643.349	130.06
643.554	118.06
643.759	123.06
643.964	127.06
644.169	129.06
644.374	131.06
644.579	130.06
644.784	138.06
644.989	134.06
645.194	133.06
645.399	129.06
645.604	119.06
645.809	125.06
646.014	123.06
646.219	121.06
646.423	122.06
646.628	129.06
646.833	138.06
647.038	129.06
647.243	125.06
647.447	148.06
647.652	126.06
647.857	125.06
648.062	128.06
648.266	139.06
648.471	137.06
648.676	117.06
648.88	130.06
649.085	136.06
649.289	118.06
649.494	123.06
649.698	125.06
649.903	109.06
650.107	128.06
650.312	134.06
650.516	125.06
650.721	119.06
650.925	126.06
651.13	117.06
651.334	131.06
651.539	109.06
651.743	120.06
651.947	114.06
652.152	127.06
652.356	116.06
652.56	124.06
652.764	111.06
652.969	113.06
653.173	115.06
653.377	102.06
653.581	110.06
653.785	116.06
653.99	108.06
654.194	107.06
654.398	99.06
654.602	92.06
654.806	113.06
655.01	113.06
655.214	109.06
655.418	112.06
655.622	104.06
655.826	111.06
656.03	101.06
656.234	104.06
656.438	118.06
656.642	115.06
656.846	108.06
657.049	119.06
657.253	99.06
657.457	112.06
657.661	106.06
657.865	113.06
658.068	102.06
658.272	92.06
658.476	92.06
658.68	94.06
658.883	89.06
659.087	92.06
659.291	94.06
659.494	94.06
659.698	88.06
659.901	102.06
660.105	100.06
660.309	99.06
660.512	98.06
660.716	85.06
660.919	81.06
661.123	93.06
661.326	88.06
661.53	84.06
661.733	80.06
661.936	80.06
662.14	94.06
662.343	84.06
662.546	90.06
662.75	99.06
662.953	88.06
663.156	84.06
663.36	88.06
663.563	96.06
663.766	80.06
663.969	84.06
664.173	77.06
664.376	78.06
664.579	81.06
664.782	75.06
664.985	99.06
665.188	86.06
665.391	83.06
665.594	79.06
665.797	83.06
666	71.06
666.203	72.06
666.406	93.06
666.609	89.06
666.812	78.06
667.015	86.06
667.218	92.06
667.421	82.06
667.624	94.06
667.827	82.06
668.03	88.06
668.232	74.06
668.435	91.06
668.638	86.06
668.841	86.06
669.043	86.06
669.246	88.06
669.449	83.06
669.651	86.06
669.854	81.06
670.057	83.06
670.259	75.06
670.462	95.06
670.665	67.06
670.867	79.06
671.07	77.06
671.272	90.06
671.475	84.06
671.677	81.06
671.88	94.06
672.082	82.06
672.284	84.06
672.487	88.06
672.689	77.06
672.892	72.06
