Data from Fe(NO3)3@0.025M.TitratingCurve.Agarose3%dH2O.NegLispCup.LampEnergy10.LIBS07252019_HRD10591_16-55-13-335.txt Node
Date: Thu Jul 25 16:55:13 EDT 2019
User: cochatt
Spectrometer: HR+D1059
Trigger mode: 1
Integration Time (sec): 1.000000E-1
Scans to average: 1
Electric dark correction enabled: true
Nonlinearity correction enabled: false
Boxcar width: 0
XAxis mode: Wavelengths
Number of Pixels in Spectrum: 2048
>>>>>Begin Spectral Data<<<<<
223.165	-4.62
223.4	-4.62
223.635	-4.62
223.869	-6.62
224.104	-4.62
224.338	-21.62
224.573	-5.62
224.808	-24.62
225.042	-13.62
225.277	-13.62
225.511	-8.62
225.746	6.38
225.98	18.38
226.215	15.38
226.449	2.38
226.683	18.38
226.918	17.38
227.152	25.38
227.387	45.38
227.621	32.38
227.856	35.38
228.09	37.38
228.324	54.38
228.559	63.38
228.793	74.38
229.027	62.38
229.262	58.38
229.496	81.38
229.73	82.38
229.964	79.38
230.199	88.38
230.433	71.38
230.667	84.38
230.901	93.38
231.136	91.38
231.37	75.38
231.604	86.38
231.838	86.38
232.072	96.38
232.306	90.38
232.541	94.38
232.775	79.38
233.009	93.38
233.243	99.38
233.477	85.38
233.711	94.38
233.945	92.38
234.179	95.38
234.413	94.38
234.647	96.38
234.881	106.38
235.115	88.38
235.349	114.38
235.583	98.38
235.817	92.38
236.051	94.38
236.285	81.38
236.519	84.38
236.753	101.38
236.987	83.38
237.221	88.38
237.455	99.38
237.689	104.38
237.922	83.38
238.156	101.38
238.39	93.38
238.624	104.38
238.858	98.38
239.091	86.38
239.325	107.38
239.559	100.38
239.793	94.38
240.027	98.38
240.26	99.38
240.494	88.38
240.728	85.38
240.961	96.38
241.195	96.38
241.429	98.38
241.662	91.38
241.896	104.38
242.13	112.38
242.363	100.38
242.597	113.38
242.83	109.38
243.064	100.38
243.298	100.38
243.531	102.38
243.765	113.38
243.998	98.38
244.232	92.38
244.465	101.38
244.699	108.38
244.932	100.38
245.166	101.38
245.399	95.38
245.633	97.38
245.866	89.38
246.099	91.38
246.333	104.38
246.566	101.38
246.8	123.38
247.033	110.38
247.266	102.38
247.5	98.38
247.733	99.38
247.966	108.38
248.2	107.38
248.433	91.38
248.666	114.38
248.899	118.38
249.133	110.38
249.366	103.38
249.599	107.38
249.832	119.38
250.066	110.38
250.299	113.38
250.532	131.38
250.765	110.38
250.998	110.38
251.231	95.38
251.465	118.38
251.698	110.38
251.931	106.38
252.164	121.38
252.397	112.38
252.63	110.38
252.863	112.38
253.096	101.38
253.329	117.38
253.562	118.38
253.795	123.38
254.028	136.38
254.261	128.38
254.494	102.38
254.727	125.38
254.96	101.38
255.193	119.38
255.426	116.38
255.659	118.38
255.892	114.38
256.124	107.38
256.357	118.38
256.59	112.38
256.823	128.38
257.056	137.38
257.289	131.38
257.521	125.38
257.754	105.38
257.987	119.38
258.22	126.38
258.452	126.38
258.685	131.38
258.918	108.38
259.151	126.38
259.383	124.38
259.616	115.38
259.849	136.38
260.081	122.38
260.314	126.38
260.547	129.38
260.779	119.38
261.012	130.38
261.244	131.38
261.477	132.38
261.71	139.38
261.942	118.38
262.175	126.38
262.407	124.38
262.64	120.38
262.872	135.38
263.105	131.38
263.337	128.38
263.57	131.38
263.802	133.38
264.035	136.38
264.267	129.38
264.499	144.38
264.732	138.38
264.964	139.38
265.197	135.38
265.429	147.38
265.661	143.38
265.894	135.38
266.126	150.38
266.358	149.38
266.591	148.38
266.823	119.38
267.055	151.38
267.287	130.38
267.52	144.38
267.752	128.38
267.984	138.38
268.216	144.38
268.448	139.38
268.681	126.38
268.913	146.38
269.145	139.38
269.377	142.38
269.609	142.38
269.841	143.38
270.073	120.38
270.306	127.38
270.538	130.38
270.77	156.38
271.002	158.38
271.234	139.38
271.466	143.38
271.698	143.38
271.93	147.38
272.162	155.38
272.394	151.38
272.626	138.38
272.858	138.38
273.09	155.38
273.322	161.38
273.553	135.38
273.785	150.38
274.017	142.38
274.249	161.38
274.481	162.38
274.713	157.38
274.945	170.38
275.176	155.38
275.408	160.38
275.64	163.38
275.872	160.38
276.104	150.38
276.335	136.38
276.567	162.38
276.799	153.38
277.031	160.38
277.262	165.38
277.494	163.38
277.726	155.38
277.957	162.38
278.189	156.38
278.421	156.38
278.652	163.38
278.884	170.38
279.115	168.38
279.347	163.38
279.579	155.38
279.81	160.38
280.042	167.38
280.273	162.38
280.505	176.38
280.736	155.38
280.968	164.38
281.199	148.38
281.431	172.38
281.662	184.38
281.894	172.38
282.125	166.38
282.356	160.38
282.588	160.38
282.819	160.38
283.051	160.38
283.282	184.38
283.513	188.38
283.745	178.38
283.976	174.38
284.207	166.38
284.439	191.38
284.67	179.38
284.901	164.38
285.132	178.38
285.364	184.38
285.595	182.38
285.826	177.38
286.057	182.38
286.288	181.38
286.52	179.38
286.751	178.38
286.982	189.38
287.213	182.38
287.444	175.38
287.675	175.38
287.906	190.38
288.138	198.38
288.369	201.38
288.6	188.38
288.831	190.38
289.062	170.38
289.293	176.38
289.524	193.38
289.755	170.38
289.986	182.38
290.217	199.38
290.448	197.38
290.679	181.38
290.91	181.38
291.141	202.38
291.371	183.38
291.602	187.38
291.833	195.38
292.064	188.38
292.295	188.38
292.526	191.38
292.757	192.38
292.987	189.38
293.218	193.38
293.449	198.38
293.68	199.38
293.91	179.38
294.141	187.38
294.372	190.38
294.603	199.38
294.833	211.38
295.064	178.38
295.295	184.38
295.525	199.38
295.756	200.38
295.987	184.38
296.217	202.38
296.448	197.38
296.679	205.38
296.909	214.38
297.14	183.38
297.37	194.38
297.601	207.38
297.831	214.38
298.062	215.38
298.292	196.38
298.523	216.38
298.753	184.38
298.984	209.38
299.214	223.38
299.445	205.38
299.675	203.38
299.905	207.38
300.136	196.38
300.366	207.38
300.597	209.38
300.827	202.38
301.057	206.38
301.288	210.38
301.518	209.38
301.748	227.38
301.979	217.38
302.209	225.38
302.439	207.38
302.669	197.38
302.9	199.38
303.13	215.38
303.36	220.38
303.59	217.38
303.82	213.38
304.051	204.38
304.281	197.38
304.511	225.38
304.741	223.38
304.971	206.38
305.201	211.38
305.431	228.38
305.661	199.38
305.891	212.38
306.121	211.38
306.352	217.38
306.582	224.38
306.812	215.38
307.042	202.38
307.272	208.38
307.502	221.38
307.731	214.38
307.961	209.38
308.191	221.38
308.421	231.38
308.651	218.38
308.881	215.38
309.111	224.38
309.341	223.38
309.571	223.38
309.8	223.38
310.03	205.38
310.26	215.38
310.49	212.38
310.72	211.38
310.949	227.38
311.179	215.38
311.409	229.38
311.639	228.38
311.868	222.38
312.098	229.38
312.328	220.38
312.557	222.38
312.787	244.38
313.017	218.38
313.246	223.38
313.476	226.38
313.706	238.38
313.935	248.38
314.165	243.38
314.394	246.38
314.624	242.38
314.853	231.38
315.083	234.38
315.312	225.38
315.542	225.38
315.771	252.38
316.001	226.38
316.23	238.38
316.46	232.38
316.689	247.38
316.919	229.38
317.148	224.38
317.377	251.38
317.607	255.38
317.836	234.38
318.065	241.38
318.295	251.38
318.524	227.38
318.753	238.38
318.983	231.38
319.212	247.38
319.441	244.38
319.67	244.38
319.9	248.38
320.129	240.38
320.358	243.38
320.587	258.38
320.816	237.38
321.046	226.38
321.275	257.38
321.504	261.38
321.733	259.38
321.962	266.38
322.191	263.38
322.42	254.38
322.649	237.38
322.878	251.38
323.108	236.38
323.337	243.38
323.566	254.38
323.795	235.38
324.024	232.38
324.253	239.38
324.482	240.38
324.71	240.38
324.939	251.38
325.168	239.38
325.397	239.38
325.626	258.38
325.855	250.38
326.084	261.38
326.313	261.38
326.542	244.38
326.77	251.38
326.999	254.38
327.228	256.38
327.457	275.38
327.686	268.38
327.914	252.38
328.143	257.38
328.372	261.38
328.6	263.38
328.829	266.38
329.058	260.38
329.287	269.38
329.515	272.38
329.744	280.38
329.972	275.38
330.201	257.38
330.43	261.38
330.658	263.38
330.887	275.38
331.115	275.38
331.344	275.38
331.572	277.38
331.801	290.38
332.03	280.38
332.258	290.38
332.486	285.38
332.715	280.38
332.943	288.38
333.172	297.38
333.4	325.38
333.629	297.38
333.857	332.38
334.085	326.38
334.314	306.38
334.542	322.38
334.771	322.38
334.999	305.38
335.227	316.38
335.455	323.38
335.684	315.38
335.912	308.38
336.14	303.38
336.369	278.38
336.597	308.38
336.825	316.38
337.053	292.38
337.281	293.38
337.51	300.38
337.738	304.38
337.966	291.38
338.194	291.38
338.422	287.38
338.65	292.38
338.878	295.38
339.106	282.38
339.334	302.38
339.562	300.38
339.79	288.38
340.018	282.38
340.246	278.38
340.474	295.38
340.702	274.38
340.93	278.38
341.158	277.38
341.386	290.38
341.614	274.38
341.842	280.38
342.07	299.38
342.298	300.38
342.526	275.38
342.754	271.38
342.981	288.38
343.209	299.38
343.437	318.38
343.665	302.38
343.893	326.38
344.12	321.38
344.348	314.38
344.576	321.38
344.804	282.38
345.031	293.38
345.259	278.38
345.487	268.38
345.714	274.38
345.942	260.38
346.17	275.38
346.397	263.38
346.625	270.38
346.853	274.38
347.08	282.38
347.308	259.38
347.535	275.38
347.763	276.38
347.99	284.38
348.218	273.38
348.445	261.38
348.673	259.38
348.9	274.38
349.128	264.38
349.355	284.38
349.583	272.38
349.81	284.38
350.037	272.38
350.265	285.38
350.492	282.38
350.72	259.38
350.947	256.38
351.174	282.38
351.402	273.38
351.629	264.38
351.856	255.38
352.083	271.38
352.311	267.38
352.538	273.38
352.765	279.38
352.992	251.38
353.22	279.38
353.447	276.38
353.674	261.38
353.901	274.38
354.128	282.38
354.355	272.38
354.583	280.38
354.81	257.38
355.037	268.38
355.264	276.38
355.491	261.38
355.718	261.38
355.945	272.38
356.172	260.38
356.399	267.38
356.626	272.38
356.853	289.38
357.08	285.38
357.307	295.38
357.534	296.38
357.761	291.38
357.988	279.38
358.215	269.38
358.441	271.38
358.668	294.38
358.895	286.38
359.122	294.38
359.349	277.38
359.576	274.38
359.802	281.38
360.029	278.38
360.256	277.38
360.483	288.38
360.709	284.38
360.936	285.38
361.163	278.38
361.39	279.38
361.616	261.38
361.843	281.38
362.07	258.38
362.296	284.38
362.523	271.38
362.749	290.38
362.976	283.38
363.203	294.38
363.429	276.38
363.656	272.38
363.882	280.38
364.109	275.38
364.335	273.38
364.562	293.38
364.788	270.38
365.015	281.38
365.241	274.38
365.468	282.38
365.694	291.38
365.92	284.38
366.147	275.38
366.373	283.38
366.599	288.38
366.826	270.38
367.052	280.38
367.278	290.38
367.505	293.38
367.731	263.38
367.957	285.38
368.184	280.38
368.41	279.38
368.636	281.38
368.862	277.38
369.089	293.38
369.315	295.38
369.541	289.38
369.767	306.38
369.993	306.38
370.219	285.38
370.445	302.38
370.672	317.38
370.898	299.38
371.124	307.38
371.35	291.38
371.576	315.38
371.802	304.38
372.028	304.38
372.254	312.38
372.48	313.38
372.706	306.38
372.932	326.38
373.158	326.38
373.384	296.38
373.61	314.38
373.835	306.38
374.061	319.38
374.287	315.38
374.513	314.38
374.739	319.38
374.965	347.38
375.191	316.38
375.416	307.38
375.642	317.38
375.868	321.38
376.094	290.38
376.319	304.38
376.545	316.38
376.771	302.38
376.997	305.38
377.222	307.38
377.448	296.38
377.674	296.38
377.899	290.38
378.125	286.38
378.35	310.38
378.576	297.38
378.802	294.38
379.027	278.38
379.253	316.38
379.478	304.38
379.704	293.38
379.929	315.38
380.155	314.38
380.38	322.38
380.606	310.38
380.831	294.38
381.057	290.38
381.282	298.38
381.507	299.38
381.733	321.38
381.958	315.38
382.184	298.38
382.409	306.38
382.634	315.38
382.86	320.38
383.085	332.38
383.31	303.38
383.535	345.38
383.761	316.38
383.986	316.38
384.211	333.38
384.436	347.38
384.662	342.38
384.887	340.38
385.112	339.38
385.337	344.38
385.562	336.38
385.787	314.38
386.013	342.38
386.238	348.38
386.463	359.38
386.688	345.38
386.913	344.38
387.138	351.38
387.363	338.38
387.588	355.38
387.813	348.38
388.038	351.38
388.263	368.38
388.488	348.38
388.713	359.38
388.938	333.38
389.163	363.38
389.387	350.38
389.612	356.38
389.837	359.38
390.062	348.38
390.287	361.38
390.512	357.38
390.736	351.38
390.961	362.38
391.186	350.38
391.411	367.38
391.636	380.38
391.86	383.38
392.085	377.38
392.31	388.38
392.534	378.38
392.759	391.38
392.984	358.38
393.208	366.38
393.433	364.38
393.658	382.38
393.882	380.38
394.107	375.38
394.331	392.38
394.556	373.38
394.78	347.38
395.005	366.38
395.229	384.38
395.454	378.38
395.678	392.38
395.903	404.38
396.127	375.38
396.352	378.38
396.576	379.38
396.801	384.38
397.025	401.38
397.249	402.38
397.474	392.38
397.698	406.38
397.922	383.38
398.147	400.38
398.371	384.38
398.595	431.38
398.82	441.38
399.044	424.38
399.268	467.38
399.492	486.38
399.717	527.38
399.941	511.38
400.165	501.38
400.389	466.38
400.613	456.38
400.837	462.38
401.062	453.38
401.286	437.38
401.51	446.38
401.734	398.38
401.958	427.38
402.182	433.38
402.406	427.38
402.63	436.38
402.854	417.38
403.078	412.38
403.302	414.38
403.526	436.38
403.75	448.38
403.974	431.38
404.198	439.38
404.422	454.38
404.645	444.38
404.869	442.38
405.093	429.38
405.317	448.38
405.541	442.38
405.765	442.38
405.988	443.38
406.212	440.38
406.436	431.38
406.66	467.38
406.883	463.38
407.107	481.38
407.331	467.38
407.555	478.38
407.778	480.38
408.002	484.38
408.226	472.38
408.449	490.38
408.673	485.38
408.896	457.38
409.12	463.38
409.344	460.38
409.567	441.38
409.791	459.38
410.014	465.38
410.238	459.38
410.461	450.38
410.685	440.38
410.908	455.38
411.132	442.38
411.355	434.38
411.578	443.38
411.802	431.38
412.025	456.38
412.249	446.38
412.472	417.38
412.695	422.38
412.919	414.38
413.142	436.38
413.365	436.38
413.589	422.38
413.812	427.38
414.035	415.38
414.258	435.38
414.482	428.38
414.705	416.38
414.928	422.38
415.151	422.38
415.374	425.38
415.597	430.38
415.821	409.38
416.044	431.38
416.267	399.38
416.49	404.38
416.713	392.38
416.936	394.38
417.159	418.38
417.382	420.38
417.605	416.38
417.828	396.38
418.051	415.38
418.274	410.38
418.497	406.38
418.72	410.38
418.943	404.38
419.166	422.38
419.389	448.38
419.611	432.38
419.834	435.38
420.057	414.38
420.28	408.38
420.503	415.38
420.726	405.38
420.948	396.38
421.171	396.38
421.394	412.38
421.617	378.38
421.839	394.38
422.062	402.38
422.285	383.38
422.507	404.38
422.73	423.38
422.953	419.38
423.175	424.38
423.398	410.38
423.621	388.38
423.843	396.38
424.066	435.38
424.288	404.38
424.511	416.38
424.733	397.38
424.956	402.38
425.178	416.38
425.401	401.38
425.623	389.38
425.846	381.38
426.068	407.38
426.291	404.38
426.513	408.38
426.735	402.38
426.958	407.38
427.18	372.38
427.402	378.38
427.625	380.38
427.847	384.38
428.069	392.38
428.292	390.38
428.514	373.38
428.736	374.38
428.958	356.38
429.181	367.38
429.403	360.38
429.625	402.38
429.847	372.38
430.069	373.38
430.292	376.38
430.514	355.38
430.736	368.38
430.958	368.38
431.18	354.38
431.402	374.38
431.624	389.38
431.846	387.38
432.068	404.38
432.29	382.38
432.512	380.38
432.734	376.38
432.956	391.38
433.178	401.38
433.4	388.38
433.622	390.38
433.844	387.38
434.066	382.38
434.287	388.38
434.509	395.38
434.731	403.38
434.953	404.38
435.175	406.38
435.397	382.38
435.618	394.38
435.84	386.38
436.062	373.38
436.284	374.38
436.505	365.38
436.727	372.38
436.949	394.38
437.17	388.38
437.392	358.38
437.614	360.38
437.835	352.38
438.057	350.38
438.278	367.38
438.5	372.38
438.721	375.38
438.943	355.38
439.165	374.38
439.386	401.38
439.608	387.38
439.829	354.38
440.05	363.38
440.272	376.38
440.493	384.38
440.715	378.38
440.936	369.38
441.158	384.38
441.379	395.38
441.6	407.38
441.822	400.38
442.043	401.38
442.264	390.38
442.486	408.38
442.707	392.38
442.928	392.38
443.149	393.38
443.371	400.38
443.592	408.38
443.813	397.38
444.034	403.38
444.255	420.38
444.476	408.38
444.698	414.38
444.919	421.38
445.14	507.38
445.361	446.38
445.582	404.38
445.803	404.38
446.024	386.38
446.245	392.38
446.466	386.38
446.687	392.38
446.908	377.38
447.129	389.38
447.35	369.38
447.571	362.38
447.792	388.38
448.013	374.38
448.234	358.38
448.455	362.38
448.675	359.38
448.896	352.38
449.117	355.38
449.338	344.38
449.559	344.38
449.779	369.38
450	329.38
450.221	345.38
450.442	356.38
450.662	348.38
450.883	346.38
451.104	343.38
451.324	338.38
451.545	348.38
451.766	350.38
451.986	358.38
452.207	348.38
452.428	343.38
452.648	344.38
452.869	352.38
453.089	346.38
453.31	344.38
453.53	341.38
453.751	354.38
453.971	339.38
454.192	351.38
454.412	339.38
454.633	334.38
454.853	339.38
455.073	341.38
455.294	351.38
455.514	344.38
455.734	315.38
455.955	336.38
456.175	343.38
456.395	345.38
456.616	339.38
456.836	324.38
457.056	335.38
457.276	331.38
457.497	339.38
457.717	351.38
457.937	337.38
458.157	354.38
458.377	356.38
458.598	360.38
458.818	362.38
459.038	352.38
459.258	356.38
459.478	367.38
459.698	374.38
459.918	393.38
460.138	409.38
460.358	414.38
460.578	404.38
460.798	414.38
461.018	438.38
461.238	432.38
461.458	420.38
461.678	439.38
461.898	426.38
462.118	424.38
462.338	430.38
462.558	416.38
462.777	458.38
462.997	456.38
463.217	487.38
463.437	480.38
463.657	473.38
463.876	470.38
464.096	472.38
464.316	470.38
464.536	468.38
464.755	434.38
464.975	433.38
465.195	410.38
465.414	412.38
465.634	387.38
465.854	383.38
466.073	387.38
466.293	380.38
466.512	404.38
466.732	382.38
466.951	366.38
467.171	378.38
467.391	391.38
467.61	372.38
467.829	373.38
468.049	364.38
468.268	357.38
468.488	357.38
468.707	367.38
468.927	364.38
469.146	357.38
469.365	364.38
469.585	361.38
469.804	379.38
470.023	380.38
470.243	370.38
470.462	382.38
470.681	386.38
470.901	388.38
471.12	385.38
471.339	363.38
471.558	363.38
471.777	373.38
471.997	381.38
472.216	367.38
472.435	368.38
472.654	347.38
472.873	338.38
473.092	367.38
473.311	358.38
473.53	371.38
473.749	368.38
473.968	362.38
474.187	355.38
474.406	370.38
474.625	360.38
474.844	380.38
475.063	377.38
475.282	369.38
475.501	379.38
475.72	383.38
475.939	384.38
476.158	380.38
476.377	394.38
476.596	379.38
476.814	407.38
477.033	408.38
477.252	386.38
477.471	392.38
477.69	391.38
477.908	430.38
478.127	408.38
478.346	434.38
478.564	415.38
478.783	422.38
479.002	414.38
479.22	425.38
479.439	406.38
479.658	436.38
479.876	437.38
480.095	456.38
480.313	460.38
480.532	428.38
480.751	440.38
480.969	436.38
481.188	412.38
481.406	435.38
481.624	421.38
481.843	434.38
482.061	425.38
482.28	408.38
482.498	416.38
482.717	403.38
482.935	405.38
483.153	410.38
483.372	418.38
483.59	420.38
483.808	408.38
484.027	434.38
484.245	448.38
484.463	441.38
484.681	430.38
484.9	432.38
485.118	428.38
485.336	438.38
485.554	426.38
485.772	436.38
485.99	422.38
486.209	438.38
486.427	439.38
486.645	426.38
486.863	430.38
487.081	432.38
487.299	418.38
487.517	444.38
487.735	446.38
487.953	421.38
488.171	435.38
488.389	423.38
488.607	417.38
488.825	434.38
489.043	427.38
489.261	422.38
489.479	449.38
489.696	443.38
489.914	427.38
490.132	450.38
490.35	446.38
490.568	439.38
490.786	443.38
491.003	451.38
491.221	425.38
491.439	434.38
491.657	432.38
491.874	440.38
492.092	459.38
492.31	459.38
492.527	437.38
492.745	457.38
492.963	463.38
493.18	458.38
493.398	452.38
493.615	442.38
493.833	458.38
494.05	448.38
494.268	455.38
494.485	443.38
494.703	479.38
494.92	464.38
495.138	482.38
495.355	468.38
495.573	492.38
495.79	485.38
496.008	480.38
496.225	494.38
496.442	472.38
496.66	471.38
496.877	502.38
497.094	517.38
497.312	516.38
497.529	536.38
497.746	521.38
497.963	533.38
498.181	553.38
498.398	577.38
498.615	609.38
498.832	610.38
499.049	628.38
499.267	699.38
499.484	737.38
499.701	770.38
499.918	769.38
500.135	810.38
500.352	854.38
500.569	842.38
500.786	872.38
501.003	844.38
501.22	791.38
501.437	784.38
501.654	732.38
501.871	678.38
502.088	661.38
502.305	622.38
502.522	604.38
502.739	588.38
502.956	553.38
503.172	541.38
503.389	542.38
503.606	527.38
503.823	532.38
504.04	518.38
504.256	526.38
504.473	553.38
504.69	534.38
504.907	515.38
505.123	495.38
505.34	497.38
505.557	465.38
505.773	459.38
505.99	468.38
506.207	449.38
506.423	444.38
506.64	416.38
506.856	430.38
507.073	417.38
507.289	443.38
507.506	402.38
507.722	423.38
507.939	405.38
508.155	424.38
508.372	392.38
508.588	395.38
508.805	412.38
509.021	408.38
509.238	403.38
509.454	411.38
509.67	381.38
509.887	399.38
510.103	402.38
510.319	389.38
510.536	379.38
510.752	394.38
510.968	368.38
511.184	380.38
511.401	390.38
511.617	390.38
511.833	386.38
512.049	370.38
512.265	389.38
512.481	380.38
512.698	404.38
512.914	384.38
513.13	381.38
513.346	381.38
513.562	383.38
513.778	375.38
513.994	378.38
514.21	394.38
514.426	374.38
514.642	387.38
514.858	394.38
515.074	411.38
515.29	423.38
515.506	392.38
515.721	402.38
515.937	390.38
516.153	408.38
516.369	429.38
516.585	455.38
516.801	455.38
517.016	437.38
517.232	446.38
517.448	441.38
517.664	484.38
517.879	457.38
518.095	467.38
518.311	464.38
518.527	427.38
518.742	436.38
518.958	424.38
519.173	411.38
519.389	411.38
519.605	412.38
519.82	420.38
520.036	388.38
520.251	404.38
520.467	391.38
520.682	386.38
520.898	363.38
521.113	377.38
521.329	380.38
521.544	371.38
521.76	380.38
521.975	364.38
522.19	373.38
522.406	340.38
522.621	361.38
522.836	371.38
523.052	366.38
523.267	381.38
523.482	387.38
523.698	368.38
523.913	367.38
524.128	370.38
524.343	361.38
524.559	368.38
524.774	376.38
524.989	359.38
525.204	364.38
525.419	342.38
525.634	368.38
525.849	358.38
526.064	350.38
526.28	363.38
526.495	347.38
526.71	342.38
526.925	353.38
527.14	354.38
527.355	361.38
527.57	347.38
527.785	347.38
527.999	367.38
528.214	363.38
528.429	343.38
528.644	329.38
528.859	364.38
529.074	357.38
529.289	346.38
529.503	357.38
529.718	343.38
529.933	360.38
530.148	354.38
530.363	371.38
530.577	352.38
530.792	352.38
531.007	358.38
531.221	354.38
531.436	363.38
531.651	346.38
531.865	338.38
532.08	356.38
532.295	341.38
532.509	343.38
532.724	333.38
532.938	340.38
533.153	350.38
533.367	367.38
533.582	351.38
533.796	345.38
534.011	361.38
534.225	349.38
534.44	338.38
534.654	332.38
534.868	346.38
535.083	339.38
535.297	368.38
535.511	347.38
535.726	371.38
535.94	339.38
536.154	336.38
536.369	344.38
536.583	328.38
536.797	316.38
537.011	325.38
537.225	340.38
537.44	332.38
537.654	339.38
537.868	311.38
538.082	333.38
538.296	330.38
538.51	331.38
538.724	331.38
538.938	336.38
539.153	338.38
539.367	343.38
539.581	314.38
539.795	327.38
540.009	334.38
540.222	325.38
540.436	327.38
540.65	328.38
540.864	327.38
541.078	332.38
541.292	339.38
541.506	319.38
541.72	341.38
541.934	328.38
542.147	328.38
542.361	327.38
542.575	328.38
542.789	323.38
543.002	309.38
543.216	333.38
543.43	320.38
543.644	340.38
543.857	343.38
544.071	326.38
544.285	334.38
544.498	320.38
544.712	319.38
544.925	328.38
545.139	349.38
545.352	331.38
545.566	342.38
545.779	344.38
545.993	319.38
546.206	333.38
546.42	340.38
546.633	348.38
546.847	331.38
547.06	328.38
547.274	338.38
547.487	319.38
547.7	322.38
547.914	327.38
548.127	311.38
548.34	340.38
548.554	334.38
548.767	345.38
548.98	331.38
549.193	332.38
549.407	336.38
549.62	340.38
549.833	335.38
550.046	309.38
550.259	334.38
550.473	340.38
550.686	354.38
550.899	320.38
551.112	352.38
551.325	325.38
551.538	347.38
551.751	342.38
551.964	333.38
552.177	341.38
552.39	336.38
552.603	346.38
552.816	356.38
553.029	332.38
553.242	334.38
553.455	339.38
553.667	351.38
553.88	322.38
554.093	335.38
554.306	339.38
554.519	328.38
554.732	326.38
554.944	321.38
555.157	307.38
555.37	322.38
555.583	308.38
555.795	315.38
556.008	306.38
556.221	299.38
556.433	308.38
556.646	309.38
556.859	305.38
557.071	311.38
557.284	301.38
557.496	293.38
557.709	313.38
557.921	302.38
558.134	291.38
558.346	292.38
558.559	304.38
558.771	291.38
558.984	293.38
559.196	294.38
559.409	289.38
559.621	306.38
559.833	294.38
560.046	290.38
560.258	292.38
560.47	292.38
560.683	300.38
560.895	294.38
561.107	286.38
561.32	308.38
561.532	297.38
561.744	297.38
561.956	290.38
562.168	304.38
562.381	291.38
562.593	316.38
562.805	309.38
563.017	305.38
563.229	315.38
563.441	310.38
563.653	296.38
563.865	305.38
564.077	284.38
564.289	296.38
564.501	324.38
564.713	294.38
564.925	320.38
565.137	330.38
565.349	337.38
565.561	330.38
565.773	337.38
565.985	345.38
566.197	335.38
566.408	361.38
566.62	374.38
566.832	360.38
567.044	378.38
567.255	399.38
567.467	391.38
567.679	403.38
567.891	403.38
568.102	401.38
568.314	396.38
568.526	373.38
568.737	372.38
568.949	333.38
569.161	328.38
569.372	327.38
569.584	328.38
569.795	320.38
570.007	325.38
570.218	302.38
570.43	287.38
570.641	296.38
570.853	303.38
571.064	296.38
571.276	286.38
571.487	269.38
571.698	308.38
571.91	272.38
572.121	259.38
572.333	266.38
572.544	273.38
572.755	263.38
572.966	266.38
573.178	280.38
573.389	239.38
573.6	260.38
573.811	245.38
574.023	252.38
574.234	269.38
574.445	244.38
574.656	232.38
574.867	262.38
575.078	268.38
575.289	238.38
575.501	240.38
575.712	242.38
575.923	246.38
576.134	242.38
576.345	251.38
576.556	244.38
576.767	262.38
576.978	243.38
577.188	230.38
577.399	227.38
577.61	246.38
577.821	238.38
578.032	234.38
578.243	221.38
578.454	217.38
578.665	248.38
578.875	225.38
579.086	211.38
579.297	227.38
579.508	224.38
579.718	221.38
579.929	234.38
580.14	219.38
580.35	218.38
580.561	232.38
580.772	223.38
580.982	220.38
581.193	221.38
581.403	233.38
581.614	234.38
581.825	214.38
582.035	214.38
582.246	201.38
582.456	225.38
582.667	220.38
582.877	224.38
583.087	217.38
583.298	214.38
583.508	202.38
583.719	229.38
583.929	200.38
584.139	204.38
584.35	205.38
584.56	228.38
584.77	214.38
584.981	224.38
585.191	208.38
585.401	211.38
585.611	215.38
585.821	230.38
586.032	219.38
586.242	215.38
586.452	200.38
586.662	216.38
586.872	236.38
587.082	218.38
587.292	196.38
587.502	215.38
587.713	217.38
587.923	202.38
588.133	218.38
588.343	192.38
588.553	209.38
588.762	225.38
588.972	224.38
589.182	221.38
589.392	228.38
589.602	216.38
589.812	229.38
590.022	226.38
590.232	221.38
590.441	209.38
590.651	206.38
590.861	213.38
591.071	211.38
591.281	224.38
591.49	244.38
591.7	221.38
591.91	228.38
592.119	214.38
592.329	203.38
592.539	217.38
592.748	235.38
592.958	233.38
593.167	217.38
593.377	239.38
593.587	242.38
593.796	231.38
594.006	220.38
594.215	226.38
594.424	233.38
594.634	231.38
594.843	224.38
595.053	235.38
595.262	220.38
595.472	218.38
595.681	230.38
595.89	215.38
596.1	216.38
596.309	216.38
596.518	212.38
596.727	207.38
596.937	195.38
597.146	193.38
597.355	190.38
597.564	207.38
597.774	218.38
597.983	208.38
598.192	191.38
598.401	206.38
598.61	196.38
598.819	208.38
599.028	202.38
599.237	200.38
599.446	191.38
599.655	204.38
599.864	204.38
600.073	180.38
600.282	186.38
600.491	195.38
600.7	184.38
600.909	199.38
601.118	189.38
601.327	174.38
601.536	187.38
601.745	183.38
601.953	187.38
602.162	191.38
602.371	188.38
602.58	183.38
602.789	188.38
602.997	195.38
603.206	199.38
603.415	195.38
603.623	177.38
603.832	184.38
604.041	182.38
604.249	168.38
604.458	174.38
604.666	189.38
604.875	174.38
605.084	180.38
605.292	170.38
605.501	177.38
605.709	191.38
605.918	178.38
606.126	169.38
606.334	171.38
606.543	193.38
606.751	185.38
606.96	186.38
607.168	171.38
607.376	169.38
607.585	178.38
607.793	177.38
608.001	170.38
608.21	178.38
608.418	166.38
608.626	176.38
608.834	179.38
609.043	187.38
609.251	171.38
609.459	181.38
609.667	182.38
609.875	176.38
610.083	169.38
610.291	188.38
610.499	189.38
610.707	181.38
610.916	171.38
611.124	190.38
611.332	161.38
611.54	174.38
611.748	178.38
611.955	171.38
612.163	174.38
612.371	184.38
612.579	166.38
612.787	184.38
612.995	187.38
613.203	182.38
613.411	180.38
613.618	183.38
613.826	179.38
614.034	179.38
614.242	178.38
614.449	185.38
614.657	182.38
614.865	170.38
615.072	175.38
615.28	174.38
615.488	164.38
615.695	180.38
615.903	159.38
616.111	173.38
616.318	166.38
616.526	176.38
616.733	186.38
616.941	177.38
617.148	164.38
617.356	190.38
617.563	185.38
617.771	166.38
617.978	146.38
618.185	182.38
618.393	184.38
618.6	180.38
618.807	165.38
619.015	165.38
619.222	167.38
619.429	183.38
619.637	169.38
619.844	165.38
620.051	159.38
620.258	187.38
620.466	165.38
620.673	152.38
620.88	157.38
621.087	184.38
621.294	174.38
621.501	176.38
621.708	185.38
621.915	168.38
622.122	178.38
622.329	165.38
622.536	163.38
622.743	169.38
622.95	170.38
623.157	163.38
623.364	169.38
623.571	170.38
623.778	179.38
623.985	162.38
624.192	168.38
624.399	178.38
624.606	172.38
624.812	161.38
625.019	174.38
625.226	150.38
625.433	162.38
625.639	157.38
625.846	158.38
626.053	151.38
626.259	168.38
626.466	152.38
626.673	148.38
626.879	156.38
627.086	176.38
627.293	167.38
627.499	163.38
627.706	168.38
627.912	158.38
628.119	168.38
628.325	176.38
628.532	164.38
628.738	158.38
628.945	150.38
629.151	150.38
629.357	164.38
629.564	159.38
629.77	162.38
629.976	167.38
630.183	144.38
630.389	141.38
630.595	142.38
630.802	164.38
631.008	159.38
631.214	147.38
631.42	155.38
631.627	158.38
631.833	161.38
632.039	154.38
632.245	162.38
632.451	167.38
632.657	146.38
632.863	139.38
633.069	142.38
633.275	163.38
633.481	151.38
633.688	152.38
633.893	156.38
634.099	145.38
634.305	152.38
634.511	133.38
634.717	148.38
634.923	147.38
635.129	154.38
635.335	139.38
635.541	138.38
635.747	150.38
635.952	142.38
636.158	149.38
636.364	148.38
636.57	145.38
636.775	149.38
636.981	151.38
637.187	146.38
637.392	150.38
637.598	139.38
637.804	152.38
638.009	132.38
638.215	140.38
638.421	141.38
638.626	141.38
638.832	143.38
639.037	150.38
639.243	145.38
639.448	147.38
639.654	146.38
639.859	153.38
640.065	134.38
640.27	156.38
640.475	131.38
640.681	148.38
640.886	149.38
641.091	141.38
641.297	148.38
641.502	140.38
641.707	154.38
641.913	158.38
642.118	131.38
642.323	146.38
642.528	143.38
642.733	163.38
642.939	153.38
643.144	161.38
643.349	156.38
643.554	152.38
643.759	143.38
643.964	151.38
644.169	137.38
644.374	138.38
644.579	145.38
644.784	138.38
644.989	142.38
645.194	155.38
645.399	148.38
645.604	142.38
645.809	149.38
646.014	154.38
646.219	160.38
646.423	159.38
646.628	139.38
646.833	145.38
647.038	174.38
647.243	151.38
647.447	137.38
647.652	170.38
647.857	146.38
648.062	146.38
648.266	148.38
648.471	152.38
648.676	143.38
648.88	141.38
649.085	157.38
649.289	160.38
649.494	140.38
649.698	152.38
649.903	141.38
650.107	143.38
650.312	146.38
650.516	158.38
650.721	141.38
650.925	148.38
651.13	156.38
651.334	137.38
651.539	160.38
651.743	148.38
651.947	157.38
652.152	140.38
652.356	154.38
652.56	143.38
652.764	154.38
652.969	142.38
653.173	136.38
653.377	142.38
653.581	158.38
653.785	141.38
653.99	150.38
654.194	145.38
654.398	144.38
654.602	149.38
654.806	133.38
655.01	131.38
655.214	139.38
655.418	135.38
655.622	150.38
655.826	149.38
656.03	150.38
656.234	162.38
656.438	159.38
656.642	148.38
656.846	147.38
657.049	152.38
657.253	140.38
657.457	142.38
657.661	140.38
657.865	136.38
658.068	131.38
658.272	122.38
658.476	123.38
658.68	115.38
658.883	123.38
659.087	109.38
659.291	116.38
659.494	116.38
659.698	118.38
659.901	102.38
660.105	94.38
660.309	105.38
660.512	107.38
660.716	94.38
660.919	90.38
661.123	100.38
661.326	94.38
661.53	100.38
661.733	89.38
661.936	92.38
662.14	93.38
662.343	92.38
662.546	86.38
662.75	81.38
662.953	87.38
663.156	79.38
663.36	89.38
663.563	91.38
663.766	88.38
663.969	81.38
664.173	83.38
664.376	99.38
664.579	87.38
664.782	64.38
664.985	68.38
665.188	77.38
665.391	64.38
665.594	80.38
665.797	87.38
666	97.38
666.203	82.38
666.406	77.38
666.609	83.38
666.812	82.38
667.015	78.38
667.218	64.38
667.421	78.38
667.624	83.38
667.827	81.38
668.03	69.38
668.232	80.38
668.435	70.38
668.638	71.38
668.841	75.38
669.043	76.38
669.246	76.38
669.449	86.38
669.651	82.38
669.854	82.38
670.057	79.38
670.259	82.38
670.462	84.38
670.665	84.38
670.867	90.38
671.07	89.38
671.272	88.38
671.475	85.38
671.677	96.38
671.88	82.38
672.082	86.38
672.284	65.38
672.487	91.38
672.689	68.38
672.892	88.38
