Data from Fe(NO3)3@0.0125M.TitratingCurve.Agarose3%dH2O.NegLispCup.LampEnergy10.LIBS07252019_HRD10591_16-59-48-336.txt Node
Date: Thu Jul 25 16:59:48 EDT 2019
User: cochatt
Spectrometer: HR+D1059
Trigger mode: 1
Integration Time (sec): 1.000000E-1
Scans to average: 1
Electric dark correction enabled: true
Nonlinearity correction enabled: false
Boxcar width: 0
XAxis mode: Wavelengths
Number of Pixels in Spectrum: 2048
>>>>>Begin Spectral Data<<<<<
223.165	-29.62
223.4	-29.62
223.635	-29.62
223.869	-11.62
224.104	-18.62
224.338	-28.62
224.573	-12.62
224.808	-9.62
225.042	-6.62
225.277	-1.62
225.511	-16.62
225.746	-3.62
225.98	6.38
226.215	16.38
226.449	29.38
226.683	20.38
226.918	17.38
227.152	49.38
227.387	33.38
227.621	33.38
227.856	42.38
228.09	47.38
228.324	45.38
228.559	50.38
228.793	42.38
229.027	74.38
229.262	84.38
229.496	82.38
229.73	75.38
229.964	88.38
230.199	79.38
230.433	88.38
230.667	95.38
230.901	82.38
231.136	95.38
231.37	104.38
231.604	90.38
231.838	86.38
232.072	89.38
232.306	99.38
232.541	111.38
232.775	92.38
233.009	95.38
233.243	88.38
233.477	85.38
233.711	88.38
233.945	90.38
234.179	89.38
234.413	104.38
234.647	105.38
234.881	97.38
235.115	94.38
235.349	85.38
235.583	96.38
235.817	99.38
236.051	92.38
236.285	95.38
236.519	98.38
236.753	98.38
236.987	106.38
237.221	94.38
237.455	98.38
237.689	113.38
237.922	112.38
238.156	113.38
238.39	110.38
238.624	104.38
238.858	98.38
239.091	96.38
239.325	98.38
239.559	101.38
239.793	96.38
240.027	99.38
240.26	109.38
240.494	117.38
240.728	95.38
240.961	116.38
241.195	96.38
241.429	104.38
241.662	106.38
241.896	106.38
242.13	93.38
242.363	101.38
242.597	114.38
242.83	117.38
243.064	105.38
243.298	106.38
243.531	106.38
243.765	107.38
243.998	107.38
244.232	120.38
244.465	112.38
244.699	118.38
244.932	110.38
245.166	121.38
245.399	108.38
245.633	116.38
245.866	104.38
246.099	122.38
246.333	123.38
246.566	108.38
246.8	110.38
247.033	123.38
247.266	105.38
247.5	111.38
247.733	113.38
247.966	123.38
248.2	119.38
248.433	132.38
248.666	123.38
248.899	121.38
249.133	122.38
249.366	129.38
249.599	127.38
249.832	114.38
250.066	127.38
250.299	129.38
250.532	133.38
250.765	116.38
250.998	113.38
251.231	123.38
251.465	115.38
251.698	126.38
251.931	123.38
252.164	132.38
252.397	141.38
252.63	129.38
252.863	138.38
253.096	135.38
253.329	140.38
253.562	130.38
253.795	139.38
254.028	125.38
254.261	129.38
254.494	136.38
254.727	136.38
254.96	136.38
255.193	129.38
255.426	135.38
255.659	140.38
255.892	142.38
256.124	129.38
256.357	128.38
256.59	127.38
256.823	131.38
257.056	145.38
257.289	120.38
257.521	139.38
257.754	137.38
257.987	152.38
258.22	148.38
258.452	149.38
258.685	139.38
258.918	139.38
259.151	136.38
259.383	146.38
259.616	153.38
259.849	153.38
260.081	160.38
260.314	170.38
260.547	159.38
260.779	138.38
261.012	143.38
261.244	136.38
261.477	146.38
261.71	160.38
261.942	159.38
262.175	153.38
262.407	152.38
262.64	143.38
262.872	146.38
263.105	157.38
263.337	169.38
263.57	157.38
263.802	164.38
264.035	158.38
264.267	151.38
264.499	168.38
264.732	147.38
264.964	145.38
265.197	159.38
265.429	155.38
265.661	153.38
265.894	156.38
266.126	158.38
266.358	149.38
266.591	149.38
266.823	160.38
267.055	155.38
267.287	173.38
267.52	157.38
267.752	162.38
267.984	165.38
268.216	160.38
268.448	161.38
268.681	172.38
268.913	179.38
269.145	157.38
269.377	159.38
269.609	179.38
269.841	156.38
270.073	170.38
270.306	162.38
270.538	168.38
270.77	177.38
271.002	185.38
271.234	156.38
271.466	196.38
271.698	165.38
271.93	163.38
272.162	176.38
272.394	187.38
272.626	177.38
272.858	165.38
273.09	197.38
273.322	175.38
273.553	178.38
273.785	178.38
274.017	189.38
274.249	210.38
274.481	187.38
274.713	196.38
274.945	203.38
275.176	206.38
275.408	203.38
275.64	203.38
275.872	192.38
276.104	192.38
276.335	187.38
276.567	198.38
276.799	180.38
277.031	178.38
277.262	189.38
277.494	203.38
277.726	204.38
277.957	192.38
278.189	206.38
278.421	205.38
278.652	204.38
278.884	208.38
279.115	210.38
279.347	202.38
279.579	200.38
279.81	200.38
280.042	213.38
280.273	190.38
280.505	210.38
280.736	223.38
280.968	212.38
281.199	195.38
281.431	220.38
281.662	211.38
281.894	205.38
282.125	204.38
282.356	214.38
282.588	217.38
282.819	215.38
283.051	205.38
283.282	223.38
283.513	225.38
283.745	227.38
283.976	215.38
284.207	224.38
284.439	236.38
284.67	226.38
284.901	228.38
285.132	246.38
285.364	227.38
285.595	222.38
285.826	219.38
286.057	238.38
286.288	235.38
286.52	243.38
286.751	244.38
286.982	232.38
287.213	241.38
287.444	244.38
287.675	229.38
287.906	232.38
288.138	231.38
288.369	242.38
288.6	248.38
288.831	242.38
289.062	232.38
289.293	259.38
289.524	245.38
289.755	244.38
289.986	252.38
290.217	269.38
290.448	240.38
290.679	249.38
290.91	245.38
291.141	244.38
291.371	247.38
291.602	246.38
291.833	261.38
292.064	250.38
292.295	266.38
292.526	276.38
292.757	253.38
292.987	273.38
293.218	257.38
293.449	265.38
293.68	265.38
293.91	273.38
294.141	263.38
294.372	239.38
294.603	278.38
294.833	270.38
295.064	288.38
295.295	276.38
295.525	282.38
295.756	251.38
295.987	274.38
296.217	281.38
296.448	270.38
296.679	284.38
296.909	291.38
297.14	273.38
297.37	296.38
297.601	283.38
297.831	282.38
298.062	268.38
298.292	243.38
298.523	277.38
298.753	287.38
298.984	289.38
299.214	292.38
299.445	290.38
299.675	295.38
299.905	304.38
300.136	279.38
300.366	305.38
300.597	290.38
300.827	312.38
301.057	309.38
301.288	323.38
301.518	296.38
301.748	297.38
301.979	309.38
302.209	297.38
302.439	317.38
302.669	312.38
302.9	326.38
303.13	304.38
303.36	320.38
303.59	318.38
303.82	324.38
304.051	336.38
304.281	338.38
304.511	321.38
304.741	321.38
304.971	332.38
305.201	335.38
305.431	319.38
305.661	334.38
305.891	318.38
306.121	327.38
306.352	329.38
306.582	323.38
306.812	310.38
307.042	327.38
307.272	322.38
307.502	331.38
307.731	332.38
307.961	330.38
308.191	339.38
308.421	349.38
308.651	323.38
308.881	341.38
309.111	337.38
309.341	340.38
309.571	339.38
309.8	341.38
310.03	354.38
310.26	362.38
310.49	334.38
310.72	362.38
310.949	346.38
311.179	340.38
311.409	336.38
311.639	343.38
311.868	351.38
312.098	375.38
312.328	354.38
312.557	351.38
312.787	370.38
313.017	355.38
313.246	374.38
313.476	361.38
313.706	375.38
313.935	379.38
314.165	373.38
314.394	379.38
314.624	371.38
314.853	381.38
315.083	387.38
315.312	372.38
315.542	372.38
315.771	384.38
316.001	377.38
316.23	362.38
316.46	373.38
316.689	381.38
316.919	376.38
317.148	378.38
317.377	391.38
317.607	393.38
317.836	391.38
318.065	388.38
318.295	388.38
318.524	398.38
318.753	388.38
318.983	409.38
319.212	395.38
319.441	408.38
319.67	385.38
319.9	387.38
320.129	396.38
320.358	396.38
320.587	395.38
320.816	401.38
321.046	383.38
321.275	426.38
321.504	401.38
321.733	396.38
321.962	410.38
322.191	409.38
322.42	405.38
322.649	398.38
322.878	419.38
323.108	400.38
323.337	423.38
323.566	412.38
323.795	419.38
324.024	416.38
324.253	418.38
324.482	400.38
324.71	424.38
324.939	422.38
325.168	422.38
325.397	406.38
325.626	439.38
325.855	417.38
326.084	411.38
326.313	441.38
326.542	419.38
326.77	417.38
326.999	441.38
327.228	425.38
327.457	429.38
327.686	433.38
327.914	410.38
328.143	432.38
328.372	426.38
328.6	419.38
328.829	423.38
329.058	427.38
329.287	434.38
329.515	433.38
329.744	436.38
329.972	428.38
330.201	440.38
330.43	429.38
330.658	422.38
330.887	435.38
331.115	457.38
331.344	442.38
331.572	432.38
331.801	466.38
332.03	451.38
332.258	448.38
332.486	442.38
332.715	448.38
332.943	445.38
333.172	447.38
333.4	448.38
333.629	479.38
333.857	450.38
334.085	456.38
334.314	484.38
334.542	482.38
334.771	456.38
334.999	465.38
335.227	459.38
335.455	473.38
335.684	471.38
335.912	486.38
336.14	479.38
336.369	460.38
336.597	464.38
336.825	483.38
337.053	483.38
337.281	480.38
337.51	478.38
337.738	480.38
337.966	493.38
338.194	462.38
338.422	468.38
338.65	456.38
338.878	474.38
339.106	454.38
339.334	449.38
339.562	459.38
339.79	463.38
340.018	479.38
340.246	473.38
340.474	452.38
340.702	477.38
340.93	464.38
341.158	468.38
341.386	458.38
341.614	466.38
341.842	458.38
342.07	459.38
342.298	464.38
342.526	466.38
342.754	479.38
342.981	449.38
343.209	460.38
343.437	468.38
343.665	465.38
343.893	484.38
344.12	466.38
344.348	482.38
344.576	482.38
344.804	484.38
345.031	468.38
345.259	459.38
345.487	470.38
345.714	484.38
345.942	471.38
346.17	479.38
346.397	474.38
346.625	481.38
346.853	474.38
347.08	448.38
347.308	482.38
347.535	473.38
347.763	471.38
347.99	474.38
348.218	474.38
348.445	454.38
348.673	490.38
348.9	481.38
349.128	492.38
349.355	471.38
349.583	463.38
349.81	466.38
350.037	451.38
350.265	472.38
350.492	472.38
350.72	472.38
350.947	460.38
351.174	467.38
351.402	467.38
351.629	455.38
351.856	466.38
352.083	451.38
352.311	498.38
352.538	473.38
352.765	495.38
352.992	460.38
353.22	472.38
353.447	464.38
353.674	479.38
353.901	492.38
354.128	483.38
354.355	475.38
354.583	493.38
354.81	474.38
355.037	489.38
355.264	486.38
355.491	452.38
355.718	449.38
355.945	481.38
356.172	478.38
356.399	469.38
356.626	461.38
356.853	485.38
357.08	478.38
357.307	481.38
357.534	475.38
357.761	475.38
357.988	500.38
358.215	464.38
358.441	471.38
358.668	489.38
358.895	449.38
359.122	467.38
359.349	512.38
359.576	478.38
359.802	500.38
360.029	481.38
360.256	484.38
360.483	490.38
360.709	486.38
360.936	482.38
361.163	469.38
361.39	507.38
361.616	487.38
361.843	478.38
362.07	504.38
362.296	496.38
362.523	496.38
362.749	484.38
362.976	483.38
363.203	504.38
363.429	475.38
363.656	489.38
363.882	513.38
364.109	508.38
364.335	475.38
364.562	490.38
364.788	495.38
365.015	520.38
365.241	484.38
365.468	514.38
365.694	486.38
365.92	505.38
366.147	500.38
366.373	503.38
366.599	499.38
366.826	485.38
367.052	497.38
367.278	505.38
367.505	516.38
367.731	516.38
367.957	523.38
368.184	511.38
368.41	514.38
368.636	504.38
368.862	501.38
369.089	511.38
369.315	498.38
369.541	525.38
369.767	504.38
369.993	520.38
370.219	503.38
370.445	516.38
370.672	529.38
370.898	517.38
371.124	511.38
371.35	543.38
371.576	539.38
371.802	506.38
372.028	535.38
372.254	524.38
372.48	526.38
372.706	525.38
372.932	527.38
373.158	529.38
373.384	532.38
373.61	543.38
373.835	540.38
374.061	531.38
374.287	549.38
374.513	523.38
374.739	520.38
374.965	544.38
375.191	552.38
375.416	538.38
375.642	529.38
375.868	540.38
376.094	518.38
376.319	520.38
376.545	541.38
376.771	549.38
376.997	519.38
377.222	526.38
377.448	521.38
377.674	536.38
377.899	518.38
378.125	525.38
378.35	548.38
378.576	537.38
378.802	531.38
379.027	539.38
379.253	516.38
379.478	517.38
379.704	531.38
379.929	519.38
380.155	521.38
380.38	540.38
380.606	525.38
380.831	539.38
381.057	530.38
381.282	539.38
381.507	535.38
381.733	560.38
381.958	532.38
382.184	556.38
382.409	544.38
382.634	540.38
382.86	556.38
383.085	552.38
383.31	572.38
383.535	572.38
383.761	540.38
383.986	559.38
384.211	566.38
384.436	570.38
384.662	560.38
384.887	577.38
385.112	571.38
385.337	568.38
385.562	579.38
385.787	573.38
386.013	588.38
386.238	579.38
386.463	557.38
386.688	597.38
386.913	552.38
387.138	564.38
387.363	567.38
387.588	564.38
387.813	573.38
388.038	591.38
388.263	588.38
388.488	567.38
388.713	567.38
388.938	580.38
389.163	567.38
389.387	580.38
389.612	571.38
389.837	576.38
390.062	569.38
390.287	590.38
390.512	583.38
390.736	565.38
390.961	593.38
391.186	549.38
391.411	576.38
391.636	566.38
391.86	589.38
392.085	601.38
392.31	598.38
392.534	588.38
392.759	589.38
392.984	585.38
393.208	595.38
393.433	589.38
393.658	612.38
393.882	594.38
394.107	590.38
394.331	595.38
394.556	585.38
394.78	593.38
395.005	585.38
395.229	582.38
395.454	599.38
395.678	596.38
395.903	594.38
396.127	607.38
396.352	604.38
396.576	596.38
396.801	604.38
397.025	605.38
397.249	598.38
397.474	597.38
397.698	609.38
397.922	632.38
398.147	615.38
398.371	602.38
398.595	617.38
398.82	637.38
399.044	614.38
399.268	628.38
399.492	637.38
399.717	648.38
399.941	652.38
400.165	659.38
400.389	661.38
400.613	652.38
400.837	639.38
401.062	645.38
401.286	620.38
401.51	621.38
401.734	636.38
401.958	641.38
402.182	649.38
402.406	632.38
402.63	634.38
402.854	641.38
403.078	638.38
403.302	633.38
403.526	643.38
403.75	620.38
403.974	659.38
404.198	635.38
404.422	625.38
404.645	628.38
404.869	650.38
405.093	648.38
405.317	636.38
405.541	658.38
405.765	666.38
405.988	664.38
406.212	666.38
406.436	683.38
406.66	664.38
406.883	652.38
407.107	683.38
407.331	681.38
407.555	709.38
407.778	697.38
408.002	687.38
408.226	690.38
408.449	705.38
408.673	682.38
408.896	669.38
409.12	661.38
409.344	680.38
409.567	666.38
409.791	693.38
410.014	656.38
410.238	663.38
410.461	649.38
410.685	653.38
410.908	638.38
411.132	662.38
411.355	639.38
411.578	666.38
411.802	653.38
412.025	660.38
412.249	662.38
412.472	639.38
412.695	651.38
412.919	629.38
413.142	645.38
413.365	644.38
413.589	638.38
413.812	641.38
414.035	630.38
414.258	635.38
414.482	647.38
414.705	646.38
414.928	627.38
415.151	647.38
415.374	651.38
415.597	634.38
415.821	628.38
416.044	617.38
416.267	643.38
416.49	627.38
416.713	635.38
416.936	643.38
417.159	630.38
417.382	615.38
417.605	620.38
417.828	625.38
418.051	621.38
418.274	627.38
418.497	594.38
418.72	608.38
418.943	625.38
419.166	654.38
419.389	688.38
419.611	648.38
419.834	648.38
420.057	638.38
420.28	653.38
420.503	615.38
420.726	587.38
420.948	616.38
421.171	607.38
421.394	632.38
421.617	629.38
421.839	617.38
422.062	628.38
422.285	611.38
422.507	620.38
422.73	626.38
422.953	629.38
423.175	589.38
423.398	644.38
423.621	618.38
423.843	642.38
424.066	625.38
424.288	604.38
424.511	627.38
424.733	623.38
424.956	617.38
425.178	620.38
425.401	603.38
425.623	612.38
425.846	608.38
426.068	612.38
426.291	613.38
426.513	625.38
426.735	603.38
426.958	614.38
427.18	614.38
427.402	636.38
427.625	619.38
427.847	607.38
428.069	590.38
428.292	608.38
428.514	610.38
428.736	607.38
428.958	617.38
429.181	590.38
429.403	610.38
429.625	616.38
429.847	601.38
430.069	618.38
430.292	616.38
430.514	615.38
430.736	629.38
430.958	629.38
431.18	625.38
431.402	600.38
431.624	616.38
431.846	600.38
432.068	598.38
432.29	617.38
432.512	624.38
432.734	604.38
432.956	635.38
433.178	614.38
433.4	612.38
433.622	632.38
433.844	620.38
434.066	590.38
434.287	623.38
434.509	623.38
434.731	623.38
434.953	600.38
435.175	624.38
435.397	626.38
435.618	639.38
435.84	619.38
436.062	608.38
436.284	616.38
436.505	603.38
436.727	620.38
436.949	581.38
437.17	607.38
437.392	616.38
437.614	625.38
437.835	616.38
438.057	605.38
438.278	605.38
438.5	605.38
438.721	595.38
438.943	588.38
439.165	597.38
439.386	616.38
439.608	626.38
439.829	601.38
440.05	604.38
440.272	624.38
440.493	601.38
440.715	624.38
440.936	597.38
441.158	608.38
441.379	614.38
441.6	617.38
441.822	639.38
442.043	613.38
442.264	601.38
442.486	629.38
442.707	611.38
442.928	610.38
443.149	628.38
443.371	617.38
443.592	607.38
443.813	637.38
444.034	623.38
444.255	604.38
444.476	619.38
444.698	642.38
444.919	625.38
445.14	709.38
445.361	644.38
445.582	615.38
445.803	610.38
446.024	613.38
446.245	617.38
446.466	613.38
446.687	603.38
446.908	595.38
447.129	599.38
447.35	590.38
447.571	596.38
447.792	584.38
448.013	598.38
448.234	572.38
448.455	595.38
448.675	575.38
448.896	603.38
449.117	595.38
449.338	594.38
449.559	584.38
449.779	581.38
450	579.38
450.221	576.38
450.442	607.38
450.662	594.38
450.883	577.38
451.104	562.38
451.324	570.38
451.545	584.38
451.766	579.38
451.986	577.38
452.207	580.38
452.428	592.38
452.648	576.38
452.869	566.38
453.089	562.38
453.31	568.38
453.53	584.38
453.751	576.38
453.971	543.38
454.192	553.38
454.412	578.38
454.633	556.38
454.853	570.38
455.073	554.38
455.294	577.38
455.514	561.38
455.734	568.38
455.955	540.38
456.175	552.38
456.395	564.38
456.616	575.38
456.836	567.38
457.056	584.38
457.276	580.38
457.497	570.38
457.717	591.38
457.937	567.38
458.157	571.38
458.377	580.38
458.598	615.38
458.818	598.38
459.038	584.38
459.258	581.38
459.478	611.38
459.698	567.38
459.918	608.38
460.138	602.38
460.358	617.38
460.578	608.38
460.798	629.38
461.018	605.38
461.238	619.38
461.458	642.38
461.678	641.38
461.898	641.38
462.118	592.38
462.338	609.38
462.558	640.38
462.777	665.38
462.997	659.38
463.217	651.38
463.437	658.38
463.657	662.38
463.876	657.38
464.096	685.38
464.316	639.38
464.536	671.38
464.755	650.38
464.975	654.38
465.195	621.38
465.414	645.38
465.634	635.38
465.854	620.38
466.073	615.38
466.293	611.38
466.512	620.38
466.732	636.38
466.951	607.38
467.171	615.38
467.391	596.38
467.61	615.38
467.829	600.38
468.049	636.38
468.268	597.38
468.488	592.38
468.707	597.38
468.927	607.38
469.146	608.38
469.365	632.38
469.585	600.38
469.804	607.38
470.023	603.38
470.243	620.38
470.462	639.38
470.681	633.38
470.901	625.38
471.12	631.38
471.339	614.38
471.558	643.38
471.777	653.38
471.997	629.38
472.216	641.38
472.435	633.38
472.654	651.38
472.873	614.38
473.092	633.38
473.311	633.38
473.53	642.38
473.749	638.38
473.968	638.38
474.187	638.38
474.406	648.38
474.625	652.38
474.844	644.38
475.063	658.38
475.282	644.38
475.501	642.38
475.72	672.38
475.939	665.38
476.158	673.38
476.377	684.38
476.596	667.38
476.814	687.38
477.033	692.38
477.252	689.38
477.471	694.38
477.69	702.38
477.908	698.38
478.127	691.38
478.346	684.38
478.564	707.38
478.783	731.38
479.002	713.38
479.22	753.38
479.439	735.38
479.658	764.38
479.876	739.38
480.095	728.38
480.313	753.38
480.532	751.38
480.751	777.38
480.969	760.38
481.188	740.38
481.406	756.38
481.624	764.38
481.843	741.38
482.061	747.38
482.28	733.38
482.498	738.38
482.717	748.38
482.935	768.38
483.153	778.38
483.372	785.38
483.59	776.38
483.808	755.38
484.027	767.38
484.245	785.38
484.463	787.38
484.681	799.38
484.9	790.38
485.118	785.38
485.336	803.38
485.554	795.38
485.772	792.38
485.99	771.38
486.209	807.38
486.427	787.38
486.645	771.38
486.863	787.38
487.081	797.38
487.299	806.38
487.517	815.38
487.735	816.38
487.953	817.38
488.171	799.38
488.389	815.38
488.607	822.38
488.825	804.38
489.043	785.38
489.261	820.38
489.479	818.38
489.696	823.38
489.914	787.38
490.132	791.38
490.35	792.38
490.568	827.38
490.786	832.38
491.003	793.38
491.221	794.38
491.439	817.38
491.657	812.38
491.874	839.38
492.092	810.38
492.31	824.38
492.527	823.38
492.745	827.38
492.963	846.38
493.18	808.38
493.398	806.38
493.615	837.38
493.833	848.38
494.05	818.38
494.268	819.38
494.485	852.38
494.703	833.38
494.92	825.38
495.138	826.38
495.355	860.38
495.573	837.38
495.79	821.38
496.008	844.38
496.225	855.38
496.442	845.38
496.66	850.38
496.877	852.38
497.094	837.38
497.312	840.38
497.529	861.38
497.746	880.38
497.963	861.38
498.181	869.38
498.398	891.38
498.615	910.38
498.832	905.38
499.049	915.38
499.267	925.38
499.484	944.38
499.701	959.38
499.918	998.38
500.135	999.38
500.352	1029.38
500.569	1007.38
500.786	1019.38
501.003	1018.38
501.22	982.38
501.437	985.38
501.654	967.38
501.871	953.38
502.088	916.38
502.305	907.38
502.522	891.38
502.739	933.38
502.956	908.38
503.172	884.38
503.389	857.38
503.606	857.38
503.823	853.38
504.04	832.38
504.256	854.38
504.473	842.38
504.69	839.38
504.907	836.38
505.123	834.38
505.34	834.38
505.557	821.38
505.773	812.38
505.99	815.38
506.207	813.38
506.423	803.38
506.64	805.38
506.856	795.38
507.073	748.38
507.289	779.38
507.506	777.38
507.722	791.38
507.939	737.38
508.155	768.38
508.372	786.38
508.588	779.38
508.805	752.38
509.021	763.38
509.238	739.38
509.454	752.38
509.67	752.38
509.887	743.38
510.103	747.38
510.319	745.38
510.536	748.38
510.752	725.38
510.968	713.38
511.184	728.38
511.401	743.38
511.617	715.38
511.833	729.38
512.049	700.38
512.265	727.38
512.481	701.38
512.698	711.38
512.914	721.38
513.13	729.38
513.346	728.38
513.562	715.38
513.778	739.38
513.994	744.38
514.21	727.38
514.426	760.38
514.642	714.38
514.858	723.38
515.074	753.38
515.29	736.38
515.506	724.38
515.721	716.38
515.937	732.38
516.153	732.38
516.369	746.38
516.585	728.38
516.801	744.38
517.016	760.38
517.232	768.38
517.448	735.38
517.664	750.38
517.879	749.38
518.095	732.38
518.311	759.38
518.527	733.38
518.742	750.38
518.958	742.38
519.173	754.38
519.389	722.38
519.605	726.38
519.82	730.38
520.036	731.38
520.251	723.38
520.467	728.38
520.682	732.38
520.898	713.38
521.113	711.38
521.329	695.38
521.544	716.38
521.76	721.38
521.975	693.38
522.19	687.38
522.406	684.38
522.621	718.38
522.836	699.38
523.052	702.38
523.267	728.38
523.482	712.38
523.698	705.38
523.913	722.38
524.128	679.38
524.343	699.38
524.559	709.38
524.774	700.38
524.989	707.38
525.204	698.38
525.419	687.38
525.634	701.38
525.849	689.38
526.064	684.38
526.28	689.38
526.495	677.38
526.71	701.38
526.925	678.38
527.14	671.38
527.355	671.38
527.57	683.38
527.785	687.38
527.999	696.38
528.214	672.38
528.429	660.38
528.644	671.38
528.859	676.38
529.074	703.38
529.289	691.38
529.503	673.38
529.718	679.38
529.933	684.38
530.148	670.38
530.363	691.38
530.577	682.38
530.792	679.38
531.007	664.38
531.221	662.38
531.436	654.38
531.651	669.38
531.865	676.38
532.08	666.38
532.295	661.38
532.509	656.38
532.724	694.38
532.938	667.38
533.153	665.38
533.367	674.38
533.582	662.38
533.796	664.38
534.011	666.38
534.225	673.38
534.44	647.38
534.654	660.38
534.868	675.38
535.083	682.38
535.297	618.38
535.511	651.38
535.726	637.38
535.94	661.38
536.154	641.38
536.369	637.38
536.583	628.38
536.797	642.38
537.011	628.38
537.225	620.38
537.44	657.38
537.654	644.38
537.868	626.38
538.082	637.38
538.296	629.38
538.51	636.38
538.724	684.38
538.938	648.38
539.153	619.38
539.367	656.38
539.581	629.38
539.795	598.38
540.009	620.38
540.222	627.38
540.436	616.38
540.65	625.38
540.864	639.38
541.078	621.38
541.292	620.38
541.506	619.38
541.72	644.38
541.934	636.38
542.147	626.38
542.361	648.38
542.575	639.38
542.789	634.38
543.002	642.38
543.216	612.38
543.43	633.38
543.644	614.38
543.857	633.38
544.071	607.38
544.285	600.38
544.498	605.38
544.712	598.38
544.925	613.38
545.139	616.38
545.352	614.38
545.566	607.38
545.779	592.38
545.993	623.38
546.206	599.38
546.42	616.38
546.633	611.38
546.847	640.38
547.06	612.38
547.274	593.38
547.487	632.38
547.7	593.38
547.914	632.38
548.127	629.38
548.34	603.38
548.554	609.38
548.767	603.38
548.98	598.38
549.193	602.38
549.407	594.38
549.62	625.38
549.833	616.38
550.046	605.38
550.259	565.38
550.473	615.38
550.686	609.38
550.899	621.38
551.112	591.38
551.325	609.38
551.538	585.38
551.751	574.38
551.964	598.38
552.177	615.38
552.39	585.38
552.603	590.38
552.816	577.38
553.029	607.38
553.242	570.38
553.455	586.38
553.667	568.38
553.88	575.38
554.093	591.38
554.306	568.38
554.519	561.38
554.732	567.38
554.944	581.38
555.157	569.38
555.37	562.38
555.583	554.38
555.795	581.38
556.008	576.38
556.221	569.38
556.433	545.38
556.646	572.38
556.859	545.38
557.071	534.38
557.284	547.38
557.496	560.38
557.709	546.38
557.921	538.38
558.134	551.38
558.346	541.38
558.559	562.38
558.771	532.38
558.984	527.38
559.196	551.38
559.409	549.38
559.621	542.38
559.833	562.38
560.046	524.38
560.258	542.38
560.47	552.38
560.683	536.38
560.895	536.38
561.107	523.38
561.32	535.38
561.532	519.38
561.744	549.38
561.956	535.38
562.168	531.38
562.381	528.38
562.593	533.38
562.805	537.38
563.017	517.38
563.229	562.38
563.441	523.38
563.653	537.38
563.865	524.38
564.077	523.38
564.289	524.38
564.501	524.38
564.713	517.38
564.925	543.38
565.137	525.38
565.349	533.38
565.561	536.38
565.773	536.38
565.985	532.38
566.197	524.38
566.408	548.38
566.62	549.38
566.832	523.38
567.044	552.38
567.255	550.38
567.467	541.38
567.679	535.38
567.891	566.38
568.102	559.38
568.314	533.38
568.526	543.38
568.737	512.38
568.949	517.38
569.161	508.38
569.372	518.38
569.584	507.38
569.795	503.38
570.007	502.38
570.218	471.38
570.43	503.38
570.641	476.38
570.853	485.38
571.064	481.38
571.276	486.38
571.487	490.38
571.698	449.38
571.91	465.38
572.121	456.38
572.333	465.38
572.544	459.38
572.755	441.38
572.966	456.38
573.178	452.38
573.389	446.38
573.6	452.38
573.811	439.38
574.023	451.38
574.234	468.38
574.445	441.38
574.656	438.38
574.867	439.38
575.078	426.38
575.289	459.38
575.501	447.38
575.712	431.38
575.923	427.38
576.134	441.38
576.345	445.38
576.556	417.38
576.767	411.38
576.978	409.38
577.188	436.38
577.399	446.38
577.61	423.38
577.821	426.38
578.032	413.38
578.243	416.38
578.454	396.38
578.665	419.38
578.875	413.38
579.086	413.38
579.297	389.38
579.508	417.38
579.718	403.38
579.929	397.38
580.14	411.38
580.35	407.38
580.561	390.38
580.772	393.38
580.982	390.38
581.193	405.38
581.403	403.38
581.614	408.38
581.825	414.38
582.035	411.38
582.246	387.38
582.456	386.38
582.667	390.38
582.877	393.38
583.087	377.38
583.298	394.38
583.508	410.38
583.719	392.38
583.929	397.38
584.139	379.38
584.35	373.38
584.56	370.38
584.77	387.38
584.981	368.38
585.191	393.38
585.401	376.38
585.611	372.38
585.821	364.38
586.032	405.38
586.242	371.38
586.452	361.38
586.662	368.38
586.872	374.38
587.082	368.38
587.292	371.38
587.502	357.38
587.713	364.38
587.923	365.38
588.133	373.38
588.343	389.38
588.553	376.38
588.762	367.38
588.972	367.38
589.182	384.38
589.392	398.38
589.602	379.38
589.812	388.38
590.022	377.38
590.232	378.38
590.441	367.38
590.651	371.38
590.861	363.38
591.071	380.38
591.281	355.38
591.49	358.38
591.7	348.38
591.91	338.38
592.119	351.38
592.329	348.38
592.539	349.38
592.748	351.38
592.958	339.38
593.167	358.38
593.377	369.38
593.587	372.38
593.796	364.38
594.006	356.38
594.215	351.38
594.424	339.38
594.634	351.38
594.843	349.38
595.053	352.38
595.262	343.38
595.472	337.38
595.681	322.38
595.89	360.38
596.1	347.38
596.309	336.38
596.518	339.38
596.727	340.38
596.937	342.38
597.146	346.38
597.355	330.38
597.564	333.38
597.774	345.38
597.983	343.38
598.192	339.38
598.401	333.38
598.61	316.38
598.819	324.38
599.028	330.38
599.237	326.38
599.446	326.38
599.655	311.38
599.864	339.38
600.073	330.38
600.282	319.38
600.491	301.38
600.7	309.38
600.909	324.38
601.118	330.38
601.327	326.38
601.536	330.38
601.745	300.38
601.953	321.38
602.162	336.38
602.371	299.38
602.58	311.38
602.789	313.38
602.997	305.38
603.206	300.38
603.415	313.38
603.623	315.38
603.832	311.38
604.041	299.38
604.249	297.38
604.458	292.38
604.666	305.38
604.875	308.38
605.084	303.38
605.292	289.38
605.501	291.38
605.709	297.38
605.918	303.38
606.126	292.38
606.334	311.38
606.543	303.38
606.751	314.38
606.96	297.38
607.168	298.38
607.376	299.38
607.585	282.38
607.793	300.38
608.001	311.38
608.21	297.38
608.418	286.38
608.626	285.38
608.834	294.38
609.043	303.38
609.251	297.38
609.459	292.38
609.667	309.38
609.875	280.38
610.083	290.38
610.291	303.38
610.499	296.38
610.707	305.38
610.916	297.38
611.124	305.38
611.332	280.38
611.54	272.38
611.748	305.38
611.955	282.38
612.163	301.38
612.371	291.38
612.579	296.38
612.787	279.38
612.995	293.38
613.203	292.38
613.411	290.38
613.618	288.38
613.826	294.38
614.034	297.38
614.242	264.38
614.449	265.38
614.657	289.38
614.865	276.38
615.072	279.38
615.28	279.38
615.488	280.38
615.695	291.38
615.903	288.38
616.111	295.38
616.318	296.38
616.526	282.38
616.733	279.38
616.941	280.38
617.148	285.38
617.356	288.38
617.563	288.38
617.771	280.38
617.978	274.38
618.185	268.38
618.393	268.38
618.6	284.38
618.807	265.38
619.015	273.38
619.222	268.38
619.429	271.38
619.637	299.38
619.844	262.38
620.051	267.38
620.258	251.38
620.466	260.38
620.673	273.38
620.88	262.38
621.087	265.38
621.294	275.38
621.501	266.38
621.708	252.38
621.915	260.38
622.122	287.38
622.329	278.38
622.536	264.38
622.743	257.38
622.95	272.38
623.157	273.38
623.364	253.38
623.571	272.38
623.778	265.38
623.985	256.38
624.192	234.38
624.399	264.38
624.606	261.38
624.812	258.38
625.019	255.38
625.226	245.38
625.433	257.38
625.639	235.38
625.846	243.38
626.053	252.38
626.259	255.38
626.466	254.38
626.673	253.38
626.879	255.38
627.086	244.38
627.293	265.38
627.499	255.38
627.706	232.38
627.912	241.38
628.119	239.38
628.325	236.38
628.532	224.38
628.738	249.38
628.945	233.38
629.151	238.38
629.357	232.38
629.564	234.38
629.77	227.38
629.976	252.38
630.183	228.38
630.389	239.38
630.595	247.38
630.802	240.38
631.008	237.38
631.214	228.38
631.42	216.38
631.627	229.38
631.833	216.38
632.039	221.38
632.245	249.38
632.451	230.38
632.657	232.38
632.863	231.38
633.069	231.38
633.275	221.38
633.481	213.38
633.688	228.38
633.893	231.38
634.099	210.38
634.305	231.38
634.511	220.38
634.717	239.38
634.923	213.38
635.129	214.38
635.335	224.38
635.541	214.38
635.747	216.38
635.952	223.38
636.158	239.38
636.364	228.38
636.57	223.38
636.775	221.38
636.981	231.38
637.187	232.38
637.392	195.38
637.598	216.38
637.804	223.38
638.009	221.38
638.215	227.38
638.421	222.38
638.626	210.38
638.832	213.38
639.037	216.38
639.243	211.38
639.448	204.38
639.654	213.38
639.859	222.38
640.065	212.38
640.27	225.38
640.475	212.38
640.681	211.38
640.886	220.38
641.091	215.38
641.297	219.38
641.502	218.38
641.707	209.38
641.913	223.38
642.118	206.38
642.323	216.38
642.528	207.38
642.733	209.38
642.939	205.38
643.144	199.38
643.349	219.38
643.554	211.38
643.759	203.38
643.964	213.38
644.169	217.38
644.374	214.38
644.579	190.38
644.784	208.38
644.989	218.38
645.194	196.38
645.399	206.38
645.604	214.38
645.809	210.38
646.014	190.38
646.219	205.38
646.423	209.38
646.628	212.38
646.833	214.38
647.038	203.38
647.243	212.38
647.447	197.38
647.652	214.38
647.857	205.38
648.062	209.38
648.266	208.38
648.471	197.38
648.676	225.38
648.88	218.38
649.085	204.38
649.289	197.38
649.494	205.38
649.698	209.38
649.903	198.38
650.107	216.38
650.312	216.38
650.516	197.38
650.721	193.38
650.925	197.38
651.13	192.38
651.334	194.38
651.539	204.38
651.743	201.38
651.947	184.38
652.152	199.38
652.356	189.38
652.56	188.38
652.764	178.38
652.969	181.38
653.173	189.38
653.377	191.38
653.581	175.38
653.785	184.38
653.99	173.38
654.194	169.38
654.398	180.38
654.602	183.38
654.806	165.38
655.01	176.38
655.214	171.38
655.418	177.38
655.622	161.38
655.826	171.38
656.03	169.38
656.234	165.38
656.438	152.38
656.642	149.38
656.846	153.38
657.049	156.38
657.253	165.38
657.457	156.38
657.661	132.38
657.865	132.38
658.068	129.38
658.272	137.38
658.476	134.38
658.68	131.38
658.883	125.38
659.087	134.38
659.291	124.38
659.494	116.38
659.698	111.38
659.901	107.38
660.105	111.38
660.309	112.38
660.512	96.38
660.716	84.38
660.919	97.38
661.123	109.38
661.326	103.38
661.53	96.38
661.733	96.38
661.936	96.38
662.14	96.38
662.343	92.38
662.546	90.38
662.75	80.38
662.953	95.38
663.156	95.38
663.36	93.38
663.563	89.38
663.766	80.38
663.969	72.38
664.173	74.38
664.376	96.38
664.579	90.38
664.782	92.38
664.985	92.38
665.188	86.38
665.391	95.38
665.594	76.38
665.797	76.38
666	83.38
666.203	87.38
666.406	73.38
666.609	91.38
666.812	77.38
667.015	81.38
667.218	88.38
667.421	86.38
667.624	68.38
667.827	91.38
668.03	76.38
668.232	78.38
668.435	81.38
668.638	82.38
668.841	73.38
669.043	83.38
669.246	84.38
669.449	90.38
669.651	84.38
669.854	72.38
670.057	78.38
670.259	84.38
670.462	69.38
670.665	91.38
670.867	75.38
671.07	80.38
671.272	80.38
671.475	92.38
671.677	81.38
671.88	75.38
672.082	84.38
672.284	87.38
672.487	71.38
672.689	84.38
672.892	89.38
