Data from Fe(NO3)3@0.05M.TitratingCurve.Agarose3%dH2O.NegLispCup.LampEnergy10.LIBS07252019_HRD10591_16-48-29-334.txt Node
Date: Thu Jul 25 16:48:29 EDT 2019
User: cochatt
Spectrometer: HR+D1059
Trigger mode: 1
Integration Time (sec): 1.000000E-1
Scans to average: 1
Electric dark correction enabled: true
Nonlinearity correction enabled: false
Boxcar width: 0
XAxis mode: Wavelengths
Number of Pixels in Spectrum: 2048
>>>>>Begin Spectral Data<<<<<
223.165	-23.31
223.4	-23.31
223.635	-23.31
223.869	-27.31
224.104	-11.31
224.338	-18.31
224.573	-23.31
224.808	-13.31
225.042	-3.31
225.277	1.69
225.511	0.69
225.746	3.69
225.98	-1.31
226.215	16.69
226.449	20.69
226.683	25.69
226.918	33.69
227.152	18.69
227.387	33.69
227.621	26.69
227.856	25.69
228.09	54.69
228.324	68.69
228.559	46.69
228.793	71.69
229.027	61.69
229.262	72.69
229.496	70.69
229.73	86.69
229.964	83.69
230.199	105.69
230.433	87.69
230.667	105.69
230.901	92.69
231.136	87.69
231.37	102.69
231.604	102.69
231.838	94.69
232.072	118.69
232.306	96.69
232.541	102.69
232.775	93.69
233.009	96.69
233.243	98.69
233.477	111.69
233.711	106.69
233.945	103.69
234.179	101.69
234.413	86.69
234.647	110.69
234.881	113.69
235.115	112.69
235.349	98.69
235.583	104.69
235.817	74.69
236.051	95.69
236.285	87.69
236.519	86.69
236.753	92.69
236.987	102.69
237.221	95.69
237.455	105.69
237.689	106.69
237.922	103.69
238.156	99.69
238.39	97.69
238.624	90.69
238.858	101.69
239.091	95.69
239.325	98.69
239.559	110.69
239.793	119.69
240.027	105.69
240.26	117.69
240.494	102.69
240.728	111.69
240.961	113.69
241.195	123.69
241.429	94.69
241.662	100.69
241.896	103.69
242.13	96.69
242.363	106.69
242.597	112.69
242.83	106.69
243.064	111.69
243.298	117.69
243.531	105.69
243.765	121.69
243.998	129.69
244.232	105.69
244.465	109.69
244.699	115.69
244.932	103.69
245.166	103.69
245.399	97.69
245.633	113.69
245.866	112.69
246.099	115.69
246.333	110.69
246.566	121.69
246.8	127.69
247.033	108.69
247.266	123.69
247.5	107.69
247.733	130.69
247.966	117.69
248.2	118.69
248.433	131.69
248.666	121.69
248.899	122.69
249.133	126.69
249.366	144.69
249.599	143.69
249.832	131.69
250.066	127.69
250.299	123.69
250.532	123.69
250.765	134.69
250.998	139.69
251.231	145.69
251.465	133.69
251.698	129.69
251.931	134.69
252.164	145.69
252.397	132.69
252.63	139.69
252.863	113.69
253.096	140.69
253.329	122.69
253.562	153.69
253.795	144.69
254.028	144.69
254.261	133.69
254.494	145.69
254.727	137.69
254.96	133.69
255.193	138.69
255.426	123.69
255.659	123.69
255.892	138.69
256.124	135.69
256.357	136.69
256.59	161.69
256.823	139.69
257.056	140.69
257.289	137.69
257.521	139.69
257.754	140.69
257.987	137.69
258.22	136.69
258.452	136.69
258.685	146.69
258.918	154.69
259.151	142.69
259.383	155.69
259.616	149.69
259.849	138.69
260.081	163.69
260.314	154.69
260.547	136.69
260.779	153.69
261.012	149.69
261.244	143.69
261.477	146.69
261.71	159.69
261.942	148.69
262.175	151.69
262.407	151.69
262.64	144.69
262.872	149.69
263.105	145.69
263.337	152.69
263.57	157.69
263.802	162.69
264.035	157.69
264.267	153.69
264.499	155.69
264.732	162.69
264.964	163.69
265.197	158.69
265.429	150.69
265.661	146.69
265.894	165.69
266.126	169.69
266.358	142.69
266.591	153.69
266.823	158.69
267.055	147.69
267.287	157.69
267.52	155.69
267.752	166.69
267.984	160.69
268.216	151.69
268.448	158.69
268.681	166.69
268.913	160.69
269.145	166.69
269.377	169.69
269.609	160.69
269.841	164.69
270.073	147.69
270.306	168.69
270.538	161.69
270.77	171.69
271.002	163.69
271.234	177.69
271.466	162.69
271.698	163.69
271.93	178.69
272.162	171.69
272.394	173.69
272.626	166.69
272.858	158.69
273.09	165.69
273.322	180.69
273.553	173.69
273.785	161.69
274.017	164.69
274.249	195.69
274.481	187.69
274.713	183.69
274.945	179.69
275.176	182.69
275.408	184.69
275.64	190.69
275.872	170.69
276.104	168.69
276.335	173.69
276.567	162.69
276.799	180.69
277.031	185.69
277.262	185.69
277.494	166.69
277.726	183.69
277.957	167.69
278.189	192.69
278.421	178.69
278.652	163.69
278.884	177.69
279.115	175.69
279.347	163.69
279.579	174.69
279.81	175.69
280.042	174.69
280.273	176.69
280.505	190.69
280.736	177.69
280.968	192.69
281.199	188.69
281.431	186.69
281.662	181.69
281.894	203.69
282.125	193.69
282.356	198.69
282.588	198.69
282.819	193.69
283.051	167.69
283.282	205.69
283.513	199.69
283.745	190.69
283.976	184.69
284.207	196.69
284.439	199.69
284.67	202.69
284.901	203.69
285.132	191.69
285.364	199.69
285.595	203.69
285.826	202.69
286.057	189.69
286.288	192.69
286.52	168.69
286.751	189.69
286.982	201.69
287.213	203.69
287.444	204.69
287.675	201.69
287.906	196.69
288.138	213.69
288.369	213.69
288.6	206.69
288.831	200.69
289.062	207.69
289.293	193.69
289.524	216.69
289.755	180.69
289.986	191.69
290.217	197.69
290.448	200.69
290.679	192.69
290.91	202.69
291.141	210.69
291.371	217.69
291.602	189.69
291.833	199.69
292.064	211.69
292.295	206.69
292.526	226.69
292.757	195.69
292.987	200.69
293.218	209.69
293.449	197.69
293.68	202.69
293.91	204.69
294.141	193.69
294.372	189.69
294.603	212.69
294.833	213.69
295.064	220.69
295.295	205.69
295.525	215.69
295.756	210.69
295.987	218.69
296.217	201.69
296.448	228.69
296.679	214.69
296.909	216.69
297.14	213.69
297.37	209.69
297.601	203.69
297.831	223.69
298.062	225.69
298.292	210.69
298.523	230.69
298.753	227.69
298.984	211.69
299.214	225.69
299.445	209.69
299.675	232.69
299.905	230.69
300.136	208.69
300.366	210.69
300.597	221.69
300.827	231.69
301.057	207.69
301.288	232.69
301.518	214.69
301.748	229.69
301.979	228.69
302.209	216.69
302.439	229.69
302.669	237.69
302.9	227.69
303.13	217.69
303.36	229.69
303.59	228.69
303.82	220.69
304.051	224.69
304.281	219.69
304.511	229.69
304.741	223.69
304.971	228.69
305.201	213.69
305.431	220.69
305.661	223.69
305.891	232.69
306.121	230.69
306.352	229.69
306.582	250.69
306.812	217.69
307.042	224.69
307.272	218.69
307.502	222.69
307.731	233.69
307.961	225.69
308.191	240.69
308.421	229.69
308.651	197.69
308.881	214.69
309.111	229.69
309.341	231.69
309.571	226.69
309.8	219.69
310.03	231.69
310.26	217.69
310.49	223.69
310.72	231.69
310.949	213.69
311.179	241.69
311.409	228.69
311.639	221.69
311.868	214.69
312.098	240.69
312.328	233.69
312.557	229.69
312.787	233.69
313.017	245.69
313.246	222.69
313.476	235.69
313.706	234.69
313.935	234.69
314.165	232.69
314.394	253.69
314.624	246.69
314.853	235.69
315.083	230.69
315.312	248.69
315.542	255.69
315.771	248.69
316.001	228.69
316.23	239.69
316.46	243.69
316.689	241.69
316.919	216.69
317.148	254.69
317.377	245.69
317.607	230.69
317.836	236.69
318.065	246.69
318.295	239.69
318.524	237.69
318.753	235.69
318.983	232.69
319.212	228.69
319.441	243.69
319.67	251.69
319.9	245.69
320.129	238.69
320.358	234.69
320.587	250.69
320.816	248.69
321.046	237.69
321.275	246.69
321.504	228.69
321.733	251.69
321.962	253.69
322.191	258.69
322.42	243.69
322.649	234.69
322.878	239.69
323.108	253.69
323.337	263.69
323.566	258.69
323.795	264.69
324.024	260.69
324.253	252.69
324.482	242.69
324.71	242.69
324.939	242.69
325.168	257.69
325.397	234.69
325.626	231.69
325.855	253.69
326.084	257.69
326.313	270.69
326.542	254.69
326.77	242.69
326.999	266.69
327.228	243.69
327.457	260.69
327.686	264.69
327.914	248.69
328.143	250.69
328.372	264.69
328.6	273.69
328.829	268.69
329.058	257.69
329.287	245.69
329.515	247.69
329.744	254.69
329.972	261.69
330.201	260.69
330.43	264.69
330.658	277.69
330.887	257.69
331.115	273.69
331.344	297.69
331.572	285.69
331.801	275.69
332.03	281.69
332.258	270.69
332.486	285.69
332.715	291.69
332.943	305.69
333.172	313.69
333.4	297.69
333.629	327.69
333.857	325.69
334.085	323.69
334.314	327.69
334.542	327.69
334.771	317.69
334.999	301.69
335.227	319.69
335.455	307.69
335.684	307.69
335.912	293.69
336.14	293.69
336.369	295.69
336.597	295.69
336.825	307.69
337.053	290.69
337.281	318.69
337.51	295.69
337.738	303.69
337.966	285.69
338.194	276.69
338.422	287.69
338.65	260.69
338.878	307.69
339.106	287.69
339.334	290.69
339.562	270.69
339.79	273.69
340.018	272.69
340.246	261.69
340.474	274.69
340.702	290.69
340.93	282.69
341.158	274.69
341.386	286.69
341.614	276.69
341.842	277.69
342.07	268.69
342.298	263.69
342.526	274.69
342.754	274.69
342.981	274.69
343.209	261.69
343.437	279.69
343.665	301.69
343.893	314.69
344.12	325.69
344.348	321.69
344.576	303.69
344.804	301.69
345.031	267.69
345.259	269.69
345.487	263.69
345.714	278.69
345.942	281.69
346.17	265.69
346.397	268.69
346.625	273.69
346.853	258.69
347.08	250.69
347.308	259.69
347.535	270.69
347.763	261.69
347.99	281.69
348.218	271.69
348.445	279.69
348.673	259.69
348.9	261.69
349.128	248.69
349.355	259.69
349.583	255.69
349.81	255.69
350.037	278.69
350.265	265.69
350.492	263.69
350.72	267.69
350.947	261.69
351.174	253.69
351.402	251.69
351.629	245.69
351.856	257.69
352.083	258.69
352.311	250.69
352.538	269.69
352.765	261.69
352.992	247.69
353.22	252.69
353.447	264.69
353.674	254.69
353.901	262.69
354.128	278.69
354.355	258.69
354.583	268.69
354.81	276.69
355.037	279.69
355.264	253.69
355.491	260.69
355.718	271.69
355.945	266.69
356.172	275.69
356.399	268.69
356.626	249.69
356.853	247.69
357.08	250.69
357.307	250.69
357.534	259.69
357.761	253.69
357.988	267.69
358.215	260.69
358.441	260.69
358.668	264.69
358.895	264.69
359.122	269.69
359.349	264.69
359.576	264.69
359.802	273.69
360.029	263.69
360.256	250.69
360.483	259.69
360.709	263.69
360.936	263.69
361.163	268.69
361.39	272.69
361.616	261.69
361.843	253.69
362.07	263.69
362.296	282.69
362.523	261.69
362.749	250.69
362.976	267.69
363.203	268.69
363.429	290.69
363.656	262.69
363.882	255.69
364.109	281.69
364.335	265.69
364.562	245.69
364.788	256.69
365.015	265.69
365.241	277.69
365.468	271.69
365.694	263.69
365.92	280.69
366.147	280.69
366.373	273.69
366.599	262.69
366.826	271.69
367.052	257.69
367.278	263.69
367.505	266.69
367.731	275.69
367.957	255.69
368.184	270.69
368.41	273.69
368.636	284.69
368.862	264.69
369.089	271.69
369.315	251.69
369.541	268.69
369.767	276.69
369.993	283.69
370.219	275.69
370.445	267.69
370.672	277.69
370.898	277.69
371.124	277.69
371.35	298.69
371.576	289.69
371.802	286.69
372.028	308.69
372.254	317.69
372.48	270.69
372.706	293.69
372.932	297.69
373.158	290.69
373.384	305.69
373.61	316.69
373.835	292.69
374.061	312.69
374.287	304.69
374.513	298.69
374.739	303.69
374.965	303.69
375.191	325.69
375.416	332.69
375.642	309.69
375.868	294.69
376.094	309.69
376.319	307.69
376.545	288.69
376.771	293.69
376.997	272.69
377.222	306.69
377.448	282.69
377.674	287.69
377.899	294.69
378.125	286.69
378.35	271.69
378.576	288.69
378.802	280.69
379.027	292.69
379.253	302.69
379.478	303.69
379.704	297.69
379.929	290.69
380.155	282.69
380.38	275.69
380.606	284.69
380.831	295.69
381.057	290.69
381.282	290.69
381.507	308.69
381.733	283.69
381.958	286.69
382.184	309.69
382.409	305.69
382.634	304.69
382.86	334.69
383.085	311.69
383.31	325.69
383.535	330.69
383.761	323.69
383.986	329.69
384.211	317.69
384.436	331.69
384.662	343.69
384.887	357.69
385.112	341.69
385.337	331.69
385.562	342.69
385.787	336.69
386.013	349.69
386.238	347.69
386.463	350.69
386.688	356.69
386.913	334.69
387.138	326.69
387.363	359.69
387.588	352.69
387.813	335.69
388.038	353.69
388.263	357.69
388.488	345.69
388.713	345.69
388.938	333.69
389.163	346.69
389.387	344.69
389.612	321.69
389.837	346.69
390.062	330.69
390.287	366.69
390.512	335.69
390.736	353.69
390.961	347.69
391.186	353.69
391.411	366.69
391.636	366.69
391.86	384.69
392.085	375.69
392.31	357.69
392.534	355.69
392.759	365.69
392.984	388.69
393.208	381.69
393.433	373.69
393.658	354.69
393.882	365.69
394.107	372.69
394.331	373.69
394.556	373.69
394.78	365.69
395.005	372.69
395.229	347.69
395.454	373.69
395.678	377.69
395.903	367.69
396.127	405.69
396.352	387.69
396.576	353.69
396.801	375.69
397.025	379.69
397.249	383.69
397.474	396.69
397.698	396.69
397.922	379.69
398.147	384.69
398.371	414.69
398.595	410.69
398.82	428.69
399.044	440.69
399.268	497.69
399.492	517.69
399.717	579.69
399.941	559.69
400.165	530.69
400.389	498.69
400.613	452.69
400.837	464.69
401.062	459.69
401.286	451.69
401.51	442.69
401.734	431.69
401.958	426.69
402.182	451.69
402.406	426.69
402.63	437.69
402.854	449.69
403.078	458.69
403.302	451.69
403.526	457.69
403.75	472.69
403.974	473.69
404.198	464.69
404.422	470.69
404.645	464.69
404.869	472.69
405.093	459.69
405.317	456.69
405.541	467.69
405.765	445.69
405.988	458.69
406.212	459.69
406.436	476.69
406.66	469.69
406.883	504.69
407.107	474.69
407.331	511.69
407.555	551.69
407.778	551.69
408.002	518.69
408.226	509.69
408.449	493.69
408.673	477.69
408.896	486.69
409.12	486.69
409.344	487.69
409.567	498.69
409.791	468.69
410.014	479.69
410.238	483.69
410.461	487.69
410.685	465.69
410.908	472.69
411.132	464.69
411.355	446.69
411.578	451.69
411.802	450.69
412.025	456.69
412.249	458.69
412.472	464.69
412.695	433.69
412.919	452.69
413.142	439.69
413.365	425.69
413.589	463.69
413.812	441.69
414.035	462.69
414.258	437.69
414.482	447.69
414.705	451.69
414.928	432.69
415.151	432.69
415.374	422.69
415.597	447.69
415.821	427.69
416.044	424.69
416.267	446.69
416.49	440.69
416.713	426.69
416.936	433.69
417.159	431.69
417.382	429.69
417.605	445.69
417.828	427.69
418.051	437.69
418.274	421.69
418.497	441.69
418.72	422.69
418.943	426.69
419.166	441.69
419.389	516.69
419.611	493.69
419.834	473.69
420.057	472.69
420.28	439.69
420.503	442.69
420.726	410.69
420.948	421.69
421.171	434.69
421.394	455.69
421.617	443.69
421.839	466.69
422.062	440.69
422.285	430.69
422.507	432.69
422.73	449.69
422.953	443.69
423.175	439.69
423.398	453.69
423.621	463.69
423.843	447.69
424.066	453.69
424.288	449.69
424.511	481.69
424.733	443.69
424.956	435.69
425.178	441.69
425.401	441.69
425.623	431.69
425.846	413.69
426.068	442.69
426.291	436.69
426.513	422.69
426.735	417.69
426.958	409.69
427.18	398.69
427.402	419.69
427.625	420.69
427.847	427.69
428.069	408.69
428.292	411.69
428.514	433.69
428.736	393.69
428.958	402.69
429.181	401.69
429.403	396.69
429.625	400.69
429.847	402.69
430.069	405.69
430.292	395.69
430.514	400.69
430.736	385.69
430.958	414.69
431.18	390.69
431.402	390.69
431.624	395.69
431.846	405.69
432.068	411.69
432.29	425.69
432.512	411.69
432.734	413.69
432.956	407.69
433.178	414.69
433.4	392.69
433.622	414.69
433.844	432.69
434.066	409.69
434.287	406.69
434.509	423.69
434.731	419.69
434.953	432.69
435.175	444.69
435.397	442.69
435.618	424.69
435.84	418.69
436.062	417.69
436.284	411.69
436.505	410.69
436.727	415.69
436.949	439.69
437.17	418.69
437.392	391.69
437.614	414.69
437.835	380.69
438.057	392.69
438.278	381.69
438.5	402.69
438.721	407.69
438.943	401.69
439.165	411.69
439.386	399.69
439.608	413.69
439.829	409.69
440.05	404.69
440.272	401.69
440.493	399.69
440.715	410.69
440.936	425.69
441.158	421.69
441.379	430.69
441.6	435.69
441.822	463.69
442.043	433.69
442.264	438.69
442.486	449.69
442.707	444.69
442.928	444.69
443.149	450.69
443.371	451.69
443.592	438.69
443.813	465.69
444.034	447.69
444.255	470.69
444.476	469.69
444.698	480.69
444.919	527.69
445.14	618.69
445.361	509.69
445.582	465.69
445.803	445.69
446.024	442.69
446.245	413.69
446.466	427.69
446.687	437.69
446.908	422.69
447.129	402.69
447.35	417.69
447.571	402.69
447.792	388.69
448.013	399.69
448.234	395.69
448.455	399.69
448.675	392.69
448.896	397.69
449.117	373.69
449.338	391.69
449.559	395.69
449.779	402.69
450	398.69
450.221	389.69
450.442	405.69
450.662	375.69
450.883	394.69
451.104	385.69
451.324	395.69
451.545	381.69
451.766	393.69
451.986	394.69
452.207	379.69
452.428	386.69
452.648	375.69
452.869	363.69
453.089	357.69
453.31	370.69
453.53	380.69
453.751	363.69
453.971	371.69
454.192	359.69
454.412	354.69
454.633	383.69
454.853	377.69
455.073	365.69
455.294	369.69
455.514	347.69
455.734	373.69
455.955	358.69
456.175	361.69
456.395	337.69
456.616	365.69
456.836	357.69
457.056	341.69
457.276	353.69
457.497	355.69
457.717	360.69
457.937	371.69
458.157	367.69
458.377	359.69
458.598	383.69
458.818	370.69
459.038	380.69
459.258	410.69
459.478	401.69
459.698	415.69
459.918	417.69
460.138	434.69
460.358	457.69
460.578	455.69
460.798	456.69
461.018	451.69
461.238	457.69
461.458	459.69
461.678	458.69
461.898	477.69
462.118	476.69
462.338	494.69
462.558	495.69
462.777	505.69
462.997	559.69
463.217	583.69
463.437	577.69
463.657	547.69
463.876	507.69
464.096	510.69
464.316	520.69
464.536	521.69
464.755	505.69
464.975	506.69
465.195	468.69
465.414	442.69
465.634	450.69
465.854	422.69
466.073	426.69
466.293	402.69
466.512	414.69
466.732	399.69
466.951	417.69
467.171	375.69
467.391	408.69
467.61	391.69
467.829	402.69
468.049	383.69
468.268	405.69
468.488	416.69
468.707	408.69
468.927	395.69
469.146	402.69
469.365	399.69
469.585	407.69
469.804	400.69
470.023	409.69
470.243	416.69
470.462	402.69
470.681	422.69
470.901	396.69
471.12	391.69
471.339	408.69
471.558	377.69
471.777	383.69
471.997	390.69
472.216	382.69
472.435	385.69
472.654	395.69
472.873	370.69
473.092	389.69
473.311	388.69
473.53	385.69
473.749	393.69
473.968	393.69
474.187	385.69
474.406	367.69
474.625	374.69
474.844	373.69
475.063	353.69
475.282	381.69
475.501	381.69
475.72	389.69
475.939	409.69
476.158	408.69
476.377	386.69
476.596	389.69
476.814	421.69
477.033	418.69
477.252	409.69
477.471	401.69
477.69	445.69
477.908	408.69
478.127	429.69
478.346	419.69
478.564	409.69
478.783	449.69
479.002	464.69
479.22	447.69
479.439	445.69
479.658	448.69
479.876	440.69
480.095	448.69
480.313	466.69
480.532	478.69
480.751	474.69
480.969	470.69
481.188	444.69
481.406	454.69
481.624	436.69
481.843	423.69
482.061	410.69
482.28	413.69
482.498	413.69
482.717	418.69
482.935	407.69
483.153	435.69
483.372	434.69
483.59	435.69
483.808	425.69
484.027	438.69
484.245	413.69
484.463	415.69
484.681	416.69
484.9	422.69
485.118	453.69
485.336	413.69
485.554	453.69
485.772	444.69
485.99	431.69
486.209	434.69
486.427	421.69
486.645	425.69
486.863	454.69
487.081	441.69
487.299	430.69
487.517	431.69
487.735	433.69
487.953	426.69
488.171	438.69
488.389	446.69
488.607	422.69
488.825	435.69
489.043	429.69
489.261	397.69
489.479	411.69
489.696	435.69
489.914	459.69
490.132	415.69
490.35	441.69
490.568	434.69
490.786	439.69
491.003	453.69
491.221	446.69
491.439	453.69
491.657	439.69
491.874	445.69
492.092	464.69
492.31	482.69
492.527	477.69
492.745	456.69
492.963	450.69
493.18	463.69
493.398	443.69
493.615	443.69
493.833	462.69
494.05	470.69
494.268	448.69
494.485	475.69
494.703	465.69
494.92	465.69
495.138	471.69
495.355	494.69
495.573	477.69
495.79	456.69
496.008	485.69
496.225	470.69
496.442	483.69
496.66	490.69
496.877	473.69
497.094	512.69
497.312	508.69
497.529	538.69
497.746	531.69
497.963	545.69
498.181	537.69
498.398	557.69
498.615	584.69
498.832	637.69
499.049	638.69
499.267	705.69
499.484	750.69
499.701	816.69
499.918	888.69
500.135	967.69
500.352	1052.69
500.569	1087.69
500.786	1101.69
501.003	1026.69
501.22	969.69
501.437	864.69
501.654	787.69
501.871	734.69
502.088	669.69
502.305	650.69
502.522	645.69
502.739	581.69
502.956	567.69
503.172	529.69
503.389	541.69
503.606	529.69
503.823	523.69
504.04	490.69
504.256	486.69
504.473	503.69
504.69	536.69
504.907	516.69
505.123	493.69
505.34	474.69
505.557	457.69
505.773	431.69
505.99	438.69
506.207	447.69
506.423	439.69
506.64	415.69
506.856	420.69
507.073	399.69
507.289	414.69
507.506	433.69
507.722	402.69
507.939	401.69
508.155	400.69
508.372	399.69
508.588	386.69
508.805	383.69
509.021	398.69
509.238	379.69
509.454	366.69
509.67	387.69
509.887	382.69
510.103	375.69
510.319	362.69
510.536	375.69
510.752	387.69
510.968	375.69
511.184	367.69
511.401	368.69
511.617	377.69
511.833	368.69
512.049	370.69
512.265	378.69
512.481	357.69
512.698	367.69
512.914	364.69
513.13	387.69
513.346	362.69
513.562	362.69
513.778	372.69
513.994	391.69
514.21	386.69
514.426	377.69
514.642	371.69
514.858	366.69
515.074	382.69
515.29	384.69
515.506	386.69
515.721	411.69
515.937	406.69
516.153	396.69
516.369	414.69
516.585	416.69
516.801	416.69
517.016	455.69
517.232	472.69
517.448	450.69
517.664	460.69
517.879	468.69
518.095	470.69
518.311	467.69
518.527	441.69
518.742	440.69
518.958	441.69
519.173	414.69
519.389	422.69
519.605	424.69
519.82	416.69
520.036	408.69
520.251	362.69
520.467	364.69
520.682	354.69
520.898	365.69
521.113	366.69
521.329	369.69
521.544	359.69
521.76	369.69
521.975	365.69
522.19	346.69
522.406	359.69
522.621	365.69
522.836	369.69
523.052	353.69
523.267	339.69
523.482	359.69
523.698	361.69
523.913	354.69
524.128	344.69
524.343	343.69
524.559	338.69
524.774	330.69
524.989	337.69
525.204	347.69
525.419	340.69
525.634	327.69
525.849	349.69
526.064	318.69
526.28	339.69
526.495	342.69
526.71	343.69
526.925	336.69
527.14	341.69
527.355	328.69
527.57	327.69
527.785	329.69
527.999	348.69
528.214	349.69
528.429	329.69
528.644	351.69
528.859	335.69
529.074	328.69
529.289	339.69
529.503	371.69
529.718	357.69
529.933	325.69
530.148	334.69
530.363	338.69
530.577	335.69
530.792	327.69
531.007	337.69
531.221	334.69
531.436	341.69
531.651	337.69
531.865	324.69
532.08	318.69
532.295	329.69
532.509	343.69
532.724	330.69
532.938	339.69
533.153	323.69
533.367	351.69
533.582	348.69
533.796	349.69
534.011	322.69
534.225	331.69
534.44	334.69
534.654	325.69
534.868	316.69
535.083	337.69
535.297	326.69
535.511	319.69
535.726	326.69
535.94	318.69
536.154	309.69
536.369	313.69
536.583	330.69
536.797	312.69
537.011	306.69
537.225	334.69
537.44	320.69
537.654	314.69
537.868	308.69
538.082	314.69
538.296	317.69
538.51	326.69
538.724	319.69
538.938	311.69
539.153	321.69
539.367	326.69
539.581	294.69
539.795	285.69
540.009	306.69
540.222	297.69
540.436	319.69
540.65	309.69
540.864	315.69
541.078	331.69
541.292	309.69
541.506	324.69
541.72	320.69
541.934	306.69
542.147	313.69
542.361	314.69
542.575	328.69
542.789	317.69
543.002	303.69
543.216	306.69
543.43	328.69
543.644	315.69
543.857	316.69
544.071	321.69
544.285	313.69
544.498	341.69
544.712	306.69
544.925	317.69
545.139	321.69
545.352	314.69
545.566	329.69
545.779	321.69
545.993	322.69
546.206	317.69
546.42	319.69
546.633	336.69
546.847	295.69
547.06	319.69
547.274	311.69
547.487	320.69
547.7	330.69
547.914	314.69
548.127	334.69
548.34	329.69
548.554	337.69
548.767	316.69
548.98	329.69
549.193	319.69
549.407	338.69
549.62	335.69
549.833	346.69
550.046	319.69
550.259	343.69
550.473	331.69
550.686	329.69
550.899	334.69
551.112	319.69
551.325	322.69
551.538	324.69
551.751	317.69
551.964	311.69
552.177	328.69
552.39	335.69
552.603	319.69
552.816	351.69
553.029	330.69
553.242	352.69
553.455	335.69
553.667	336.69
553.88	339.69
554.093	338.69
554.306	319.69
554.519	322.69
554.732	313.69
554.944	311.69
555.157	310.69
555.37	299.69
555.583	291.69
555.795	279.69
556.008	313.69
556.221	289.69
556.433	292.69
556.646	297.69
556.859	281.69
557.071	288.69
557.284	300.69
557.496	270.69
557.709	278.69
557.921	272.69
558.134	294.69
558.346	282.69
558.559	280.69
558.771	277.69
558.984	282.69
559.196	278.69
559.409	284.69
559.621	271.69
559.833	272.69
560.046	261.69
560.258	279.69
560.47	285.69
560.683	278.69
560.895	274.69
561.107	257.69
561.32	271.69
561.532	287.69
561.744	280.69
561.956	269.69
562.168	278.69
562.381	287.69
562.593	271.69
562.805	288.69
563.017	279.69
563.229	274.69
563.441	266.69
563.653	281.69
563.865	280.69
564.077	282.69
564.289	281.69
564.501	284.69
564.713	280.69
564.925	286.69
565.137	297.69
565.349	312.69
565.561	305.69
565.773	311.69
565.985	327.69
566.197	320.69
566.408	336.69
566.62	350.69
566.832	398.69
567.044	385.69
567.255	385.69
567.467	395.69
567.679	398.69
567.891	431.69
568.102	424.69
568.314	417.69
568.526	391.69
568.737	368.69
568.949	340.69
569.161	317.69
569.372	325.69
569.584	288.69
569.795	292.69
570.007	271.69
570.218	283.69
570.43	265.69
570.641	279.69
570.853	280.69
571.064	273.69
571.276	267.69
571.487	264.69
571.698	256.69
571.91	248.69
572.121	256.69
572.333	244.69
572.544	251.69
572.755	237.69
572.966	253.69
573.178	235.69
573.389	236.69
573.6	238.69
573.811	237.69
574.023	240.69
574.234	229.69
574.445	240.69
574.656	226.69
574.867	211.69
575.078	218.69
575.289	235.69
575.501	225.69
575.712	218.69
575.923	229.69
576.134	230.69
576.345	231.69
576.556	231.69
576.767	221.69
576.978	213.69
577.188	217.69
577.399	224.69
577.61	196.69
577.821	217.69
578.032	203.69
578.243	223.69
578.454	236.69
578.665	217.69
578.875	202.69
579.086	197.69
579.297	205.69
579.508	208.69
579.718	215.69
579.929	197.69
580.14	214.69
580.35	224.69
580.561	209.69
580.772	204.69
580.982	208.69
581.193	199.69
581.403	210.69
581.614	199.69
581.825	203.69
582.035	214.69
582.246	181.69
582.456	200.69
582.667	205.69
582.877	194.69
583.087	198.69
583.298	193.69
583.508	191.69
583.719	208.69
583.929	220.69
584.139	208.69
584.35	184.69
584.56	203.69
584.77	187.69
584.981	188.69
585.191	201.69
585.401	195.69
585.611	200.69
585.821	198.69
586.032	206.69
586.242	203.69
586.452	207.69
586.662	192.69
586.872	181.69
587.082	196.69
587.292	190.69
587.502	195.69
587.713	199.69
587.923	193.69
588.133	175.69
588.343	199.69
588.553	187.69
588.762	208.69
588.972	199.69
589.182	195.69
589.392	205.69
589.602	202.69
589.812	186.69
590.022	184.69
590.232	191.69
590.441	207.69
590.651	193.69
590.861	205.69
591.071	186.69
591.281	203.69
591.49	211.69
591.7	212.69
591.91	196.69
592.119	185.69
592.329	204.69
592.539	212.69
592.748	218.69
592.958	216.69
593.167	214.69
593.377	222.69
593.587	232.69
593.796	230.69
594.006	237.69
594.215	242.69
594.424	226.69
594.634	212.69
594.843	231.69
595.053	224.69
595.262	216.69
595.472	191.69
595.681	192.69
595.89	187.69
596.1	191.69
596.309	194.69
596.518	209.69
596.727	199.69
596.937	192.69
597.146	173.69
597.355	187.69
597.564	195.69
597.774	177.69
597.983	179.69
598.192	184.69
598.401	167.69
598.61	205.69
598.819	191.69
599.028	178.69
599.237	189.69
599.446	177.69
599.655	180.69
599.864	181.69
600.073	187.69
600.282	179.69
600.491	177.69
600.7	175.69
600.909	176.69
601.118	183.69
601.327	176.69
601.536	169.69
601.745	168.69
601.953	181.69
602.162	178.69
602.371	175.69
602.58	166.69
602.789	161.69
602.997	147.69
603.206	170.69
603.415	151.69
603.623	166.69
603.832	178.69
604.041	170.69
604.249	164.69
604.458	179.69
604.666	173.69
604.875	161.69
605.084	177.69
605.292	174.69
605.501	169.69
605.709	177.69
605.918	164.69
606.126	177.69
606.334	158.69
606.543	171.69
606.751	174.69
606.96	159.69
607.168	149.69
607.376	161.69
607.585	164.69
607.793	159.69
608.001	164.69
608.21	163.69
608.418	157.69
608.626	161.69
608.834	166.69
609.043	155.69
609.251	177.69
609.459	147.69
609.667	163.69
609.875	165.69
610.083	173.69
610.291	174.69
610.499	149.69
610.707	162.69
610.916	161.69
611.124	176.69
611.332	152.69
611.54	168.69
611.748	159.69
611.955	167.69
612.163	174.69
612.371	161.69
612.579	154.69
612.787	158.69
612.995	165.69
613.203	172.69
613.411	160.69
613.618	161.69
613.826	159.69
614.034	165.69
614.242	156.69
614.449	154.69
614.657	161.69
614.865	153.69
615.072	157.69
615.28	146.69
615.488	165.69
615.695	163.69
615.903	156.69
616.111	142.69
616.318	166.69
616.526	171.69
616.733	158.69
616.941	165.69
617.148	159.69
617.356	148.69
617.563	178.69
617.771	182.69
617.978	165.69
618.185	160.69
618.393	145.69
618.6	144.69
618.807	163.69
619.015	158.69
619.222	158.69
619.429	148.69
619.637	155.69
619.844	151.69
620.051	155.69
620.258	151.69
620.466	149.69
620.673	144.69
620.88	139.69
621.087	158.69
621.294	171.69
621.501	138.69
621.708	151.69
621.915	158.69
622.122	151.69
622.329	150.69
622.536	139.69
622.743	144.69
622.95	164.69
623.157	151.69
623.364	148.69
623.571	152.69
623.778	150.69
623.985	138.69
624.192	164.69
624.399	140.69
624.606	153.69
624.812	147.69
625.019	144.69
625.226	136.69
625.433	161.69
625.639	159.69
625.846	139.69
626.053	136.69
626.259	136.69
626.466	143.69
626.673	149.69
626.879	133.69
627.086	139.69
627.293	147.69
627.499	136.69
627.706	148.69
627.912	136.69
628.119	155.69
628.325	143.69
628.532	137.69
628.738	139.69
628.945	134.69
629.151	134.69
629.357	136.69
629.564	145.69
629.77	151.69
629.976	147.69
630.183	134.69
630.389	146.69
630.595	122.69
630.802	130.69
631.008	133.69
631.214	145.69
631.42	133.69
631.627	137.69
631.833	154.69
632.039	133.69
632.245	142.69
632.451	132.69
632.657	139.69
632.863	118.69
633.069	137.69
633.275	142.69
633.481	121.69
633.688	121.69
633.893	132.69
634.099	141.69
634.305	135.69
634.511	122.69
634.717	149.69
634.923	122.69
635.129	119.69
635.335	117.69
635.541	127.69
635.747	133.69
635.952	117.69
636.158	134.69
636.364	131.69
636.57	137.69
636.775	129.69
636.981	133.69
637.187	144.69
637.392	140.69
637.598	132.69
637.804	137.69
638.009	128.69
638.215	143.69
638.421	115.69
638.626	120.69
638.832	121.69
639.037	131.69
639.243	129.69
639.448	118.69
639.654	133.69
639.859	128.69
640.065	121.69
640.27	122.69
640.475	106.69
640.681	131.69
640.886	122.69
641.091	123.69
641.297	126.69
641.502	135.69
641.707	122.69
641.913	131.69
642.118	119.69
642.323	122.69
642.528	122.69
642.733	139.69
642.939	144.69
643.144	119.69
643.349	125.69
643.554	129.69
643.759	128.69
643.964	104.69
644.169	113.69
644.374	127.69
644.579	116.69
644.784	133.69
644.989	122.69
645.194	114.69
645.399	125.69
645.604	113.69
645.809	127.69
646.014	116.69
646.219	121.69
646.423	139.69
646.628	127.69
646.833	132.69
647.038	130.69
647.243	125.69
647.447	114.69
647.652	135.69
647.857	131.69
648.062	127.69
648.266	135.69
648.471	123.69
648.676	119.69
648.88	123.69
649.085	134.69
649.289	123.69
649.494	124.69
649.698	117.69
649.903	118.69
650.107	130.69
650.312	130.69
650.516	123.69
650.721	113.69
650.925	123.69
651.13	113.69
651.334	105.69
651.539	114.69
651.743	125.69
651.947	113.69
652.152	104.69
652.356	103.69
652.56	127.69
652.764	119.69
652.969	111.69
653.173	101.69
653.377	121.69
653.581	106.69
653.785	105.69
653.99	120.69
654.194	120.69
654.398	113.69
654.602	102.69
654.806	104.69
655.01	114.69
655.214	111.69
655.418	109.69
655.622	110.69
655.826	117.69
656.03	123.69
656.234	113.69
656.438	111.69
656.642	103.69
656.846	103.69
657.049	101.69
657.253	107.69
657.457	106.69
657.661	106.69
657.865	98.69
658.068	104.69
658.272	87.69
658.476	87.69
658.68	105.69
658.883	86.69
659.087	96.69
659.291	103.69
659.494	90.69
659.698	95.69
659.901	90.69
660.105	82.69
660.309	90.69
660.512	82.69
660.716	90.69
660.919	94.69
661.123	75.69
661.326	84.69
661.53	83.69
661.733	97.69
661.936	88.69
662.14	88.69
662.343	88.69
662.546	89.69
662.75	81.69
662.953	94.69
663.156	89.69
663.36	90.69
663.563	81.69
663.766	86.69
663.969	96.69
664.173	93.69
664.376	79.69
664.579	77.69
664.782	89.69
664.985	93.69
665.188	91.69
665.391	76.69
665.594	74.69
665.797	93.69
666	68.69
666.203	84.69
666.406	66.69
666.609	75.69
666.812	75.69
667.015	85.69
667.218	83.69
667.421	85.69
667.624	72.69
667.827	73.69
668.03	68.69
668.232	60.69
668.435	77.69
668.638	64.69
668.841	77.69
669.043	82.69
669.246	76.69
669.449	78.69
669.651	63.69
669.854	77.69
670.057	72.69
670.259	72.69
670.462	69.69
670.665	98.69
670.867	80.69
671.07	81.69
671.272	91.69
671.475	76.69
671.677	78.69
671.88	72.69
672.082	84.69
672.284	88.69
672.487	70.69
672.689	92.69
672.892	93.69
