Data from Fe(NO3)3@0.05M.TitratingCurve.Agarose3%dH2O.NegLispCup.LampEnergy10.LIBS07252019_HRD10591_16-45-45-333.txt Node
Date: Thu Jul 25 16:45:45 EDT 2019
User: cochatt
Spectrometer: HR+D1059
Trigger mode: 1
Integration Time (sec): 1.000000E-1
Scans to average: 1
Electric dark correction enabled: true
Nonlinearity correction enabled: false
Boxcar width: 0
XAxis mode: Wavelengths
Number of Pixels in Spectrum: 2048
>>>>>Begin Spectral Data<<<<<
223.165	-23.19
223.4	-23.19
223.635	-23.19
223.869	-17.19
224.104	-26.19
224.338	-11.19
224.573	-8.19
224.808	-11.19
225.042	-9.19
225.277	0.81
225.511	3.81
225.746	-1.19
225.98	2.81
226.215	6.81
226.449	25.81
226.683	11.81
226.918	23.81
227.152	31.81
227.387	21.81
227.621	35.81
227.856	35.81
228.09	37.81
228.324	51.81
228.559	54.81
228.793	59.81
229.027	100.81
229.262	104.81
229.496	112.81
229.73	100.81
229.964	107.81
230.199	123.81
230.433	120.81
230.667	124.81
230.901	131.81
231.136	122.81
231.37	142.81
231.604	139.81
231.838	144.81
232.072	125.81
232.306	137.81
232.541	136.81
232.775	144.81
233.009	154.81
233.243	149.81
233.477	144.81
233.711	159.81
233.945	144.81
234.179	163.81
234.413	165.81
234.647	183.81
234.881	183.81
235.115	167.81
235.349	190.81
235.583	170.81
235.817	144.81
236.051	145.81
236.285	156.81
236.519	176.81
236.753	154.81
236.987	176.81
237.221	176.81
237.455	182.81
237.689	182.81
237.922	175.81
238.156	204.81
238.39	217.81
238.624	241.81
238.858	234.81
239.091	211.81
239.325	201.81
239.559	194.81
239.793	216.81
240.027	212.81
240.26	214.81
240.494	215.81
240.728	229.81
240.961	243.81
241.195	223.81
241.429	222.81
241.662	218.81
241.896	196.81
242.13	203.81
242.363	214.81
242.597	210.81
242.83	207.81
243.064	195.81
243.298	225.81
243.531	229.81
243.765	239.81
243.998	230.81
244.232	214.81
244.465	230.81
244.699	227.81
244.932	228.81
245.166	230.81
245.399	234.81
245.633	212.81
245.866	214.81
246.099	236.81
246.333	228.81
246.566	233.81
246.8	256.81
247.033	250.81
247.266	240.81
247.5	228.81
247.733	260.81
247.966	243.81
248.2	272.81
248.433	265.81
248.666	266.81
248.899	271.81
249.133	284.81
249.366	303.81
249.599	309.81
249.832	274.81
250.066	283.81
250.299	281.81
250.532	270.81
250.765	253.81
250.998	284.81
251.231	290.81
251.465	298.81
251.698	290.81
251.931	264.81
252.164	284.81
252.397	292.81
252.63	281.81
252.863	322.81
253.096	336.81
253.329	320.81
253.562	308.81
253.795	330.81
254.028	351.81
254.261	348.81
254.494	328.81
254.727	328.81
254.96	326.81
255.193	318.81
255.426	331.81
255.659	306.81
255.892	297.81
256.124	298.81
256.357	324.81
256.59	333.81
256.823	346.81
257.056	306.81
257.289	331.81
257.521	332.81
257.754	313.81
257.987	320.81
258.22	330.81
258.452	331.81
258.685	343.81
258.918	378.81
259.151	363.81
259.383	348.81
259.616	359.81
259.849	384.81
260.081	460.81
260.314	501.81
260.547	418.81
260.779	371.81
261.012	409.81
261.244	412.81
261.477	428.81
261.71	434.81
261.942	388.81
262.175	368.81
262.407	345.81
262.64	360.81
262.872	394.81
263.105	424.81
263.337	421.81
263.57	432.81
263.802	363.81
264.035	329.81
264.267	347.81
264.499	349.81
264.732	347.81
264.964	343.81
265.197	335.81
265.429	357.81
265.661	333.81
265.894	361.81
266.126	350.81
266.358	366.81
266.591	347.81
266.823	374.81
267.055	368.81
267.287	356.81
267.52	363.81
267.752	368.81
267.984	376.81
268.216	358.81
268.448	382.81
268.681	371.81
268.913	388.81
269.145	383.81
269.377	372.81
269.609	376.81
269.841	372.81
270.073	382.81
270.306	374.81
270.538	370.81
270.77	384.81
271.002	378.81
271.234	392.81
271.466	386.81
271.698	425.81
271.93	426.81
272.162	426.81
272.394	417.81
272.626	419.81
272.858	432.81
273.09	410.81
273.322	429.81
273.553	426.81
273.785	449.81
274.017	501.81
274.249	558.81
274.481	553.81
274.713	555.81
274.945	654.81
275.176	662.81
275.408	588.81
275.64	558.81
275.872	579.81
276.104	530.81
276.335	466.81
276.567	430.81
276.799	451.81
277.031	452.81
277.262	443.81
277.494	429.81
277.726	442.81
277.957	443.81
278.189	439.81
278.421	452.81
278.652	466.81
278.884	458.81
279.115	432.81
279.347	451.81
279.579	451.81
279.81	453.81
280.042	436.81
280.273	442.81
280.505	464.81
280.736	468.81
280.968	447.81
281.199	451.81
281.431	466.81
281.662	458.81
281.894	457.81
282.125	456.81
282.356	460.81
282.588	475.81
282.819	444.81
283.051	453.81
283.282	452.81
283.513	469.81
283.745	474.81
283.976	478.81
284.207	470.81
284.439	488.81
284.67	468.81
284.901	462.81
285.132	480.81
285.364	478.81
285.595	482.81
285.826	498.81
286.057	512.81
286.288	468.81
286.52	497.81
286.751	478.81
286.982	470.81
287.213	483.81
287.444	497.81
287.675	504.81
287.906	491.81
288.138	516.81
288.369	470.81
288.6	502.81
288.831	497.81
289.062	512.81
289.293	494.81
289.524	502.81
289.755	517.81
289.986	502.81
290.217	497.81
290.448	499.81
290.679	507.81
290.91	491.81
291.141	476.81
291.371	490.81
291.602	486.81
291.833	485.81
292.064	480.81
292.295	516.81
292.526	500.81
292.757	492.81
292.987	498.81
293.218	480.81
293.449	505.81
293.68	516.81
293.91	510.81
294.141	507.81
294.372	514.81
294.603	512.81
294.833	523.81
295.064	530.81
295.295	513.81
295.525	519.81
295.756	516.81
295.987	538.81
296.217	512.81
296.448	525.81
296.679	520.81
296.909	523.81
297.14	530.81
297.37	558.81
297.601	545.81
297.831	534.81
298.062	514.81
298.292	534.81
298.523	564.81
298.753	559.81
298.984	538.81
299.214	541.81
299.445	539.81
299.675	536.81
299.905	547.81
300.136	566.81
300.366	572.81
300.597	552.81
300.827	563.81
301.057	561.81
301.288	562.81
301.518	566.81
301.748	558.81
301.979	569.81
302.209	575.81
302.439	618.81
302.669	588.81
302.9	571.81
303.13	551.81
303.36	568.81
303.59	569.81
303.82	559.81
304.051	569.81
304.281	599.81
304.511	555.81
304.741	562.81
304.971	583.81
305.201	572.81
305.431	572.81
305.661	581.81
305.891	583.81
306.121	569.81
306.352	575.81
306.582	602.81
306.812	568.81
307.042	580.81
307.272	596.81
307.502	582.81
307.731	580.81
307.961	580.81
308.191	563.81
308.421	554.81
308.651	578.81
308.881	567.81
309.111	578.81
309.341	563.81
309.571	577.81
309.8	571.81
310.03	567.81
310.26	594.81
310.49	590.81
310.72	586.81
310.949	594.81
311.179	576.81
311.409	569.81
311.639	570.81
311.868	596.81
312.098	577.81
312.328	591.81
312.557	592.81
312.787	613.81
313.017	593.81
313.246	626.81
313.476	593.81
313.706	604.81
313.935	622.81
314.165	638.81
314.394	602.81
314.624	615.81
314.853	624.81
315.083	618.81
315.312	638.81
315.542	610.81
315.771	610.81
316.001	626.81
316.23	612.81
316.46	610.81
316.689	638.81
316.919	643.81
317.148	614.81
317.377	614.81
317.607	658.81
317.836	622.81
318.065	623.81
318.295	632.81
318.524	620.81
318.753	607.81
318.983	627.81
319.212	626.81
319.441	627.81
319.67	610.81
319.9	631.81
320.129	646.81
320.358	648.81
320.587	647.81
320.816	644.81
321.046	633.81
321.275	627.81
321.504	633.81
321.733	627.81
321.962	633.81
322.191	632.81
322.42	646.81
322.649	640.81
322.878	651.81
323.108	630.81
323.337	669.81
323.566	657.81
323.795	699.81
324.024	666.81
324.253	663.81
324.482	645.81
324.71	667.81
324.939	677.81
325.168	658.81
325.397	664.81
325.626	646.81
325.855	678.81
326.084	684.81
326.313	656.81
326.542	713.81
326.77	682.81
326.999	677.81
327.228	675.81
327.457	700.81
327.686	670.81
327.914	690.81
328.143	690.81
328.372	691.81
328.6	668.81
328.829	701.81
329.058	672.81
329.287	671.81
329.515	699.81
329.744	690.81
329.972	713.81
330.201	703.81
330.43	711.81
330.658	675.81
330.887	719.81
331.115	720.81
331.344	701.81
331.572	680.81
331.801	708.81
332.03	696.81
332.258	733.81
332.486	743.81
332.715	751.81
332.943	740.81
333.172	738.81
333.4	729.81
333.629	776.81
333.857	795.81
334.085	782.81
334.314	804.81
334.542	791.81
334.771	788.81
334.999	794.81
335.227	786.81
335.455	790.81
335.684	801.81
335.912	802.81
336.14	773.81
336.369	805.81
336.597	783.81
336.825	772.81
337.053	793.81
337.281	769.81
337.51	790.81
337.738	775.81
337.966	758.81
338.194	751.81
338.422	776.81
338.65	718.81
338.878	774.81
339.106	744.81
339.334	743.81
339.562	747.81
339.79	727.81
340.018	732.81
340.246	720.81
340.474	720.81
340.702	720.81
340.93	733.81
341.158	722.81
341.386	707.81
341.614	736.81
341.842	736.81
342.07	741.81
342.298	719.81
342.526	727.81
342.754	719.81
342.981	734.81
343.209	730.81
343.437	756.81
343.665	763.81
343.893	784.81
344.12	801.81
344.348	812.81
344.576	778.81
344.804	792.81
345.031	771.81
345.259	747.81
345.487	755.81
345.714	754.81
345.942	706.81
346.17	723.81
346.397	733.81
346.625	729.81
346.853	711.81
347.08	699.81
347.308	720.81
347.535	733.81
347.763	704.81
347.99	691.81
348.218	718.81
348.445	681.81
348.673	715.81
348.9	724.81
349.128	723.81
349.355	711.81
349.583	690.81
349.81	680.81
350.037	720.81
350.265	673.81
350.492	700.81
350.72	666.81
350.947	682.81
351.174	690.81
351.402	703.81
351.629	707.81
351.856	700.81
352.083	701.81
352.311	694.81
352.538	701.81
352.765	705.81
352.992	697.81
353.22	675.81
353.447	696.81
353.674	698.81
353.901	700.81
354.128	711.81
354.355	694.81
354.583	673.81
354.81	663.81
355.037	705.81
355.264	660.81
355.491	702.81
355.718	703.81
355.945	702.81
356.172	715.81
356.399	705.81
356.626	705.81
356.853	739.81
357.08	743.81
357.307	742.81
357.534	683.81
357.761	709.81
357.988	710.81
358.215	741.81
358.441	764.81
358.668	708.81
358.895	714.81
359.122	713.81
359.349	702.81
359.576	674.81
359.802	693.81
360.029	699.81
360.256	708.81
360.483	708.81
360.709	730.81
360.936	715.81
361.163	719.81
361.39	693.81
361.616	694.81
361.843	731.81
362.07	739.81
362.296	718.81
362.523	719.81
362.749	710.81
362.976	704.81
363.203	724.81
363.429	737.81
363.656	732.81
363.882	733.81
364.109	709.81
364.335	738.81
364.562	714.81
364.788	704.81
365.015	732.81
365.241	744.81
365.468	722.81
365.694	715.81
365.92	721.81
366.147	733.81
366.373	726.81
366.599	722.81
366.826	714.81
367.052	712.81
367.278	732.81
367.505	714.81
367.731	720.81
367.957	739.81
368.184	732.81
368.41	725.81
368.636	738.81
368.862	744.81
369.089	766.81
369.315	722.81
369.541	747.81
369.767	761.81
369.993	756.81
370.219	772.81
370.445	771.81
370.672	764.81
370.898	755.81
371.124	766.81
371.35	800.81
371.576	772.81
371.802	772.81
372.028	820.81
372.254	810.81
372.48	799.81
372.706	778.81
372.932	798.81
373.158	803.81
373.384	835.81
373.61	848.81
373.835	867.81
374.061	830.81
374.287	823.81
374.513	831.81
374.739	837.81
374.965	847.81
375.191	872.81
375.416	843.81
375.642	816.81
375.868	830.81
376.094	846.81
376.319	808.81
376.545	830.81
376.771	838.81
376.997	817.81
377.222	807.81
377.448	784.81
377.674	759.81
377.899	778.81
378.125	783.81
378.35	796.81
378.576	798.81
378.802	784.81
379.027	798.81
379.253	777.81
379.478	786.81
379.704	826.81
379.929	797.81
380.155	786.81
380.38	786.81
380.606	801.81
380.831	787.81
381.057	795.81
381.282	799.81
381.507	804.81
381.733	871.81
381.958	842.81
382.184	866.81
382.409	891.81
382.634	872.81
382.86	867.81
383.085	874.81
383.31	849.81
383.535	855.81
383.761	869.81
383.986	872.81
384.211	888.81
384.436	870.81
384.662	844.81
384.887	859.81
385.112	894.81
385.337	888.81
385.562	889.81
385.787	907.81
386.013	930.81
386.238	963.81
386.463	928.81
386.688	919.81
386.913	914.81
387.138	908.81
387.363	934.81
387.588	931.81
387.813	927.81
388.038	939.81
388.263	946.81
388.488	943.81
388.713	946.81
388.938	954.81
389.163	932.81
389.387	917.81
389.612	912.81
389.837	984.81
390.062	954.81
390.287	939.81
390.512	930.81
390.736	939.81
390.961	935.81
391.186	931.81
391.411	972.81
391.636	966.81
391.86	988.81
392.085	1001.81
392.31	978.81
392.534	975.81
392.759	978.81
392.984	997.81
393.208	973.81
393.433	982.81
393.658	980.81
393.882	967.81
394.107	985.81
394.331	986.81
394.556	977.81
394.78	1001.81
395.005	988.81
395.229	968.81
395.454	1008.81
395.678	969.81
395.903	1000.81
396.127	1034.81
396.352	1032.81
396.576	971.81
396.801	997.81
397.025	1043.81
397.249	1040.81
397.474	1060.81
397.698	1051.81
397.922	1063.81
398.147	1057.81
398.371	1074.81
398.595	1060.81
398.82	1127.81
399.044	1120.81
399.268	1168.81
399.492	1221.81
399.717	1250.81
399.941	1292.81
400.165	1279.81
400.389	1237.81
400.613	1192.81
400.837	1157.81
401.062	1160.81
401.286	1120.81
401.51	1135.81
401.734	1122.81
401.958	1106.81
402.182	1116.81
402.406	1127.81
402.63	1130.81
402.854	1116.81
403.078	1134.81
403.302	1106.81
403.526	1124.81
403.75	1145.81
403.974	1126.81
404.198	1136.81
404.422	1148.81
404.645	1160.81
404.869	1169.81
405.093	1148.81
405.317	1160.81
405.541	1138.81
405.765	1168.81
405.988	1178.81
406.212	1180.81
406.436	1200.81
406.66	1212.81
406.883	1218.81
407.107	1249.81
407.331	1287.81
407.555	1310.81
407.778	1302.81
408.002	1301.81
408.226	1268.81
408.449	1274.81
408.673	1237.81
408.896	1252.81
409.12	1212.81
409.344	1238.81
409.567	1214.81
409.791	1226.81
410.014	1184.81
410.238	1202.81
410.461	1226.81
410.685	1207.81
410.908	1185.81
411.132	1186.81
411.355	1166.81
411.578	1198.81
411.802	1161.81
412.025	1170.81
412.249	1157.81
412.472	1184.81
412.695	1149.81
412.919	1159.81
413.142	1172.81
413.365	1164.81
413.589	1147.81
413.812	1111.81
414.035	1146.81
414.258	1144.81
414.482	1144.81
414.705	1155.81
414.928	1158.81
415.151	1138.81
415.374	1134.81
415.597	1132.81
415.821	1122.81
416.044	1087.81
416.267	1076.81
416.49	1114.81
416.713	1107.81
416.936	1111.81
417.159	1117.81
417.382	1077.81
417.605	1085.81
417.828	1112.81
418.051	1090.81
418.274	1090.81
418.497	1099.81
418.72	1092.81
418.943	1105.81
419.166	1147.81
419.389	1245.81
419.611	1212.81
419.834	1188.81
420.057	1163.81
420.28	1108.81
420.503	1090.81
420.726	1083.81
420.948	1085.81
421.171	1068.81
421.394	1063.81
421.617	1080.81
421.839	1062.81
422.062	1077.81
422.285	1064.81
422.507	1057.81
422.73	1100.81
422.953	1113.81
423.175	1074.81
423.398	1077.81
423.621	1070.81
423.843	1107.81
424.066	1114.81
424.288	1065.81
424.511	1074.81
424.733	1086.81
424.956	1085.81
425.178	1097.81
425.401	1088.81
425.623	1095.81
425.846	1071.81
426.068	1060.81
426.291	1096.81
426.513	1081.81
426.735	1074.81
426.958	1086.81
427.18	1092.81
427.402	1103.81
427.625	1059.81
427.847	1045.81
428.069	1076.81
428.292	1086.81
428.514	1040.81
428.736	1063.81
428.958	1084.81
429.181	1014.81
429.403	1025.81
429.625	1054.81
429.847	1036.81
430.069	1019.81
430.292	1032.81
430.514	1015.81
430.736	1066.81
430.958	1057.81
431.18	1035.81
431.402	1043.81
431.624	1031.81
431.846	1024.81
432.068	1041.81
432.29	1046.81
432.512	1041.81
432.734	1091.81
432.956	1059.81
433.178	1089.81
433.4	1067.81
433.622	1083.81
433.844	1087.81
434.066	1062.81
434.287	1056.81
434.509	1068.81
434.731	1065.81
434.953	1078.81
435.175	1102.81
435.397	1128.81
435.618	1082.81
435.84	1092.81
436.062	1065.81
436.284	1056.81
436.505	1048.81
436.727	1025.81
436.949	1026.81
437.17	1038.81
437.392	1020.81
437.614	1028.81
437.835	1048.81
438.057	1030.81
438.278	1022.81
438.5	1057.81
438.721	1065.81
438.943	1016.81
439.165	1037.81
439.386	1022.81
439.608	1018.81
439.829	1052.81
440.05	1032.81
440.272	1046.81
440.493	1054.81
440.715	1093.81
440.936	1072.81
441.158	1078.81
441.379	1076.81
441.6	1118.81
441.822	1084.81
442.043	1078.81
442.264	1091.81
442.486	1083.81
442.707	1100.81
442.928	1106.81
443.149	1092.81
443.371	1090.81
443.592	1093.81
443.813	1087.81
444.034	1075.81
444.255	1073.81
444.476	1107.81
444.698	1115.81
444.919	1161.81
445.14	1198.81
445.361	1168.81
445.582	1118.81
445.803	1067.81
446.024	1091.81
446.245	1075.81
446.466	1067.81
446.687	1018.81
446.908	1056.81
447.129	995.81
447.35	1020.81
447.571	1016.81
447.792	1019.81
448.013	998.81
448.234	966.81
448.455	997.81
448.675	1003.81
448.896	1001.81
449.117	938.81
449.338	969.81
449.559	951.81
449.779	961.81
450	948.81
450.221	969.81
450.442	956.81
450.662	960.81
450.883	962.81
451.104	956.81
451.324	979.81
451.545	958.81
451.766	968.81
451.986	959.81
452.207	986.81
452.428	939.81
452.648	932.81
452.869	955.81
453.089	938.81
453.31	939.81
453.53	898.81
453.751	925.81
453.971	918.81
454.192	949.81
454.412	888.81
454.633	940.81
454.853	944.81
455.073	925.81
455.294	945.81
455.514	936.81
455.734	920.81
455.955	879.81
456.175	912.81
456.395	909.81
456.616	904.81
456.836	954.81
457.056	939.81
457.276	928.81
457.497	931.81
457.717	902.81
457.937	924.81
458.157	956.81
458.377	955.81
458.598	963.81
458.818	971.81
459.038	999.81
459.258	1014.81
459.478	1001.81
459.698	1022.81
459.918	1046.81
460.138	1062.81
460.358	1083.81
460.578	1092.81
460.798	1105.81
461.018	1122.81
461.238	1142.81
461.458	1134.81
461.678	1120.81
461.898	1132.81
462.118	1134.81
462.338	1196.81
462.558	1196.81
462.777	1214.81
462.997	1223.81
463.217	1252.81
463.437	1242.81
463.657	1240.81
463.876	1228.81
464.096	1266.81
464.316	1207.81
464.536	1223.81
464.755	1228.81
464.975	1209.81
465.195	1157.81
465.414	1131.81
465.634	1097.81
465.854	1092.81
466.073	1062.81
466.293	1072.81
466.512	1029.81
466.732	1070.81
466.951	1086.81
467.171	1071.81
467.391	1009.81
467.61	1016.81
467.829	1008.81
468.049	1009.81
468.268	985.81
468.488	987.81
468.707	1021.81
468.927	1034.81
469.146	1028.81
469.365	1041.81
469.585	1038.81
469.804	1024.81
470.023	1060.81
470.243	1014.81
470.462	1013.81
470.681	1037.81
470.901	1044.81
471.12	1025.81
471.339	1030.81
471.558	1041.81
471.777	1023.81
471.997	1033.81
472.216	1074.81
472.435	1076.81
472.654	1026.81
472.873	997.81
473.092	1014.81
473.311	1025.81
473.53	1061.81
473.749	991.81
473.968	1014.81
474.187	998.81
474.406	1004.81
474.625	1010.81
474.844	1032.81
475.063	1047.81
475.282	1007.81
475.501	1052.81
475.72	1009.81
475.939	1029.81
476.158	1085.81
476.377	1096.81
476.596	1150.81
476.814	1192.81
477.033	1101.81
477.252	1095.81
477.471	1093.81
477.69	1113.81
477.908	1148.81
478.127	1164.81
478.346	1144.81
478.564	1145.81
478.783	1183.81
479.002	1184.81
479.22	1186.81
479.439	1283.81
479.658	1214.81
479.876	1211.81
480.095	1236.81
480.313	1231.81
480.532	1196.81
480.751	1255.81
480.969	1207.81
481.188	1205.81
481.406	1251.81
481.624	1210.81
481.843	1220.81
482.061	1201.81
482.28	1185.81
482.498	1218.81
482.717	1198.81
482.935	1206.81
483.153	1238.81
483.372	1210.81
483.59	1204.81
483.808	1192.81
484.027	1200.81
484.245	1236.81
484.463	1191.81
484.681	1232.81
484.9	1282.81
485.118	1240.81
485.336	1223.81
485.554	1237.81
485.772	1245.81
485.99	1207.81
486.209	1266.81
486.427	1278.81
486.645	1235.81
486.863	1232.81
487.081	1286.81
487.299	1273.81
487.517	1281.81
487.735	1263.81
487.953	1264.81
488.171	1281.81
488.389	1257.81
488.607	1238.81
488.825	1235.81
489.043	1223.81
489.261	1257.81
489.479	1212.81
489.696	1243.81
489.914	1255.81
490.132	1243.81
490.35	1259.81
490.568	1219.81
490.786	1269.81
491.003	1245.81
491.221	1266.81
491.439	1278.81
491.657	1259.81
491.874	1284.81
492.092	1301.81
492.31	1305.81
492.527	1312.81
492.745	1311.81
492.963	1290.81
493.18	1301.81
493.398	1297.81
493.615	1319.81
493.833	1298.81
494.05	1278.81
494.268	1312.81
494.485	1292.81
494.703	1312.81
494.92	1313.81
495.138	1307.81
495.355	1290.81
495.573	1336.81
495.79	1326.81
496.008	1332.81
496.225	1348.81
496.442	1365.81
496.66	1368.81
496.877	1384.81
497.094	1411.81
497.312	1430.81
497.529	1414.81
497.746	1435.81
497.963	1472.81
498.181	1490.81
498.398	1531.81
498.615	1562.81
498.832	1662.81
499.049	1703.81
499.267	1717.81
499.484	1805.81
499.701	1865.81
499.918	1937.81
500.135	2075.81
500.352	2110.81
500.569	2133.81
500.786	2146.81
501.003	2111.81
501.22	2089.81
501.437	1946.81
501.654	1863.81
501.871	1786.81
502.088	1736.81
502.305	1646.81
502.522	1614.81
502.739	1585.81
502.956	1558.81
503.172	1495.81
503.389	1463.81
503.606	1441.81
503.823	1422.81
504.04	1394.81
504.256	1376.81
504.473	1366.81
504.69	1356.81
504.907	1338.81
505.123	1295.81
505.34	1267.81
505.557	1292.81
505.773	1259.81
505.99	1222.81
506.207	1232.81
506.423	1193.81
506.64	1168.81
506.856	1166.81
507.073	1182.81
507.289	1130.81
507.506	1156.81
507.722	1146.81
507.939	1165.81
508.155	1151.81
508.372	1102.81
508.588	1086.81
508.805	1090.81
509.021	1103.81
509.238	1085.81
509.454	1057.81
509.67	1070.81
509.887	1059.81
510.103	1074.81
510.319	1078.81
510.536	1044.81
510.752	1024.81
510.968	1028.81
511.184	1012.81
511.401	1048.81
511.617	1003.81
511.833	984.81
512.049	1022.81
512.265	1032.81
512.481	996.81
512.698	1012.81
512.914	1050.81
513.13	1010.81
513.346	1011.81
513.562	1004.81
513.778	1000.81
513.994	1040.81
514.21	1011.81
514.426	1016.81
514.642	1022.81
514.858	996.81
515.074	1047.81
515.29	998.81
515.506	1058.81
515.721	1048.81
515.937	1070.81
516.153	1059.81
516.369	1086.81
516.585	1086.81
516.801	1111.81
517.016	1125.81
517.232	1146.81
517.448	1160.81
517.664	1144.81
517.879	1135.81
518.095	1103.81
518.311	1116.81
518.527	1125.81
518.742	1084.81
518.958	1091.81
519.173	1070.81
519.389	1098.81
519.605	1082.81
519.82	1098.81
520.036	1122.81
520.251	1135.81
520.467	1010.81
520.682	1018.81
520.898	988.81
521.113	971.81
521.329	989.81
521.544	1000.81
521.76	1010.81
521.975	970.81
522.19	954.81
522.406	963.81
522.621	958.81
522.836	969.81
523.052	982.81
523.267	956.81
523.482	947.81
523.698	967.81
523.913	926.81
524.128	935.81
524.343	939.81
524.559	911.81
524.774	906.81
524.989	891.81
525.204	931.81
525.419	934.81
525.634	930.81
525.849	920.81
526.064	914.81
526.28	923.81
526.495	952.81
526.71	935.81
526.925	924.81
527.14	955.81
527.355	912.81
527.57	873.81
527.785	866.81
527.999	893.81
528.214	867.81
528.429	896.81
528.644	865.81
528.859	882.81
529.074	897.81
529.289	896.81
529.503	910.81
529.718	868.81
529.933	876.81
530.148	903.81
530.363	866.81
530.577	865.81
530.792	868.81
531.007	879.81
531.221	884.81
531.436	868.81
531.651	874.81
531.865	871.81
532.08	864.81
532.295	876.81
532.509	891.81
532.724	857.81
532.938	890.81
533.153	886.81
533.367	881.81
533.582	890.81
533.796	871.81
534.011	874.81
534.225	839.81
534.44	816.81
534.654	858.81
534.868	840.81
535.083	854.81
535.297	830.81
535.511	836.81
535.726	831.81
535.94	818.81
536.154	835.81
536.369	815.81
536.583	813.81
536.797	837.81
537.011	795.81
537.225	809.81
537.44	816.81
537.654	833.81
537.868	802.81
538.082	805.81
538.296	806.81
538.51	801.81
538.724	827.81
538.938	814.81
539.153	816.81
539.367	789.81
539.581	808.81
539.795	800.81
540.009	799.81
540.222	795.81
540.436	796.81
540.65	790.81
540.864	820.81
541.078	795.81
541.292	815.81
541.506	825.81
541.72	786.81
541.934	785.81
542.147	785.81
542.361	760.81
542.575	813.81
542.789	772.81
543.002	780.81
543.216	784.81
543.43	778.81
543.644	769.81
543.857	784.81
544.071	784.81
544.285	819.81
544.498	777.81
544.712	780.81
544.925	818.81
545.139	809.81
545.352	774.81
545.566	795.81
545.779	823.81
545.993	791.81
546.206	780.81
546.42	803.81
546.633	800.81
546.847	792.81
547.06	802.81
547.274	788.81
547.487	795.81
547.7	810.81
547.914	762.81
548.127	815.81
548.34	840.81
548.554	787.81
548.767	786.81
548.98	784.81
549.193	783.81
549.407	805.81
549.62	826.81
549.833	824.81
550.046	787.81
550.259	831.81
550.473	808.81
550.686	785.81
550.899	788.81
551.112	793.81
551.325	795.81
551.538	805.81
551.751	767.81
551.964	768.81
552.177	802.81
552.39	753.81
552.603	771.81
552.816	770.81
553.029	804.81
553.242	794.81
553.455	791.81
553.667	799.81
553.88	818.81
554.093	803.81
554.306	768.81
554.519	768.81
554.732	772.81
554.944	736.81
555.157	764.81
555.37	745.81
555.583	730.81
555.795	745.81
556.008	716.81
556.221	735.81
556.433	696.81
556.646	692.81
556.859	708.81
557.071	717.81
557.284	695.81
557.496	690.81
557.709	677.81
557.921	694.81
558.134	675.81
558.346	666.81
558.559	682.81
558.771	664.81
558.984	688.81
559.196	681.81
559.409	682.81
559.621	652.81
559.833	675.81
560.046	681.81
560.258	653.81
560.47	672.81
560.683	660.81
560.895	642.81
561.107	635.81
561.32	664.81
561.532	695.81
561.744	679.81
561.956	649.81
562.168	649.81
562.381	653.81
562.593	667.81
562.805	683.81
563.017	683.81
563.229	676.81
563.441	656.81
563.653	689.81
563.865	664.81
564.077	682.81
564.289	688.81
564.501	658.81
564.713	682.81
564.925	681.81
565.137	703.81
565.349	695.81
565.561	715.81
565.773	751.81
565.985	752.81
566.197	757.81
566.408	770.81
566.62	804.81
566.832	826.81
567.044	840.81
567.255	819.81
567.467	815.81
567.679	831.81
567.891	826.81
568.102	816.81
568.314	811.81
568.526	786.81
568.737	762.81
568.949	761.81
569.161	714.81
569.372	681.81
569.584	692.81
569.795	715.81
570.007	690.81
570.218	667.81
570.43	652.81
570.641	630.81
570.853	620.81
571.064	643.81
571.276	628.81
571.487	614.81
571.698	614.81
571.91	584.81
572.121	591.81
572.333	579.81
572.544	582.81
572.755	584.81
572.966	578.81
573.178	589.81
573.389	555.81
573.6	555.81
573.811	529.81
574.023	544.81
574.234	558.81
574.445	555.81
574.656	560.81
574.867	528.81
575.078	526.81
575.289	523.81
575.501	538.81
575.712	522.81
575.923	528.81
576.134	505.81
576.345	522.81
576.556	520.81
576.767	510.81
576.978	511.81
577.188	527.81
577.399	494.81
577.61	504.81
577.821	491.81
578.032	507.81
578.243	487.81
578.454	503.81
578.665	489.81
578.875	496.81
579.086	482.81
579.297	484.81
579.508	499.81
579.718	482.81
579.929	480.81
580.14	477.81
580.35	473.81
580.561	481.81
580.772	482.81
580.982	482.81
581.193	455.81
581.403	466.81
581.614	490.81
581.825	464.81
582.035	433.81
582.246	472.81
582.456	442.81
582.667	442.81
582.877	438.81
583.087	467.81
583.298	467.81
583.508	463.81
583.719	473.81
583.929	446.81
584.139	436.81
584.35	448.81
584.56	427.81
584.77	456.81
584.981	432.81
585.191	439.81
585.401	433.81
585.611	420.81
585.821	453.81
586.032	456.81
586.242	447.81
586.452	452.81
586.662	434.81
586.872	424.81
587.082	451.81
587.292	436.81
587.502	432.81
587.713	424.81
587.923	452.81
588.133	433.81
588.343	407.81
588.553	424.81
588.762	453.81
588.972	434.81
589.182	482.81
589.392	442.81
589.602	430.81
589.812	458.81
590.022	461.81
590.232	448.81
590.441	427.81
590.651	444.81
590.861	426.81
591.071	449.81
591.281	433.81
591.49	444.81
591.7	445.81
591.91	437.81
592.119	431.81
592.329	444.81
592.539	446.81
592.748	456.81
592.958	458.81
593.167	463.81
593.377	454.81
593.587	470.81
593.796	450.81
594.006	449.81
594.215	468.81
594.424	439.81
594.634	432.81
594.843	453.81
595.053	465.81
595.262	454.81
595.472	451.81
595.681	417.81
595.89	430.81
596.1	414.81
596.309	422.81
596.518	402.81
596.727	402.81
596.937	409.81
597.146	394.81
597.355	396.81
597.564	380.81
597.774	392.81
597.983	391.81
598.192	378.81
598.401	382.81
598.61	385.81
598.819	380.81
599.028	374.81
599.237	379.81
599.446	360.81
599.655	393.81
599.864	378.81
600.073	363.81
600.282	357.81
600.491	376.81
600.7	370.81
600.909	357.81
601.118	352.81
601.327	354.81
601.536	367.81
601.745	366.81
601.953	378.81
602.162	372.81
602.371	350.81
602.58	368.81
602.789	352.81
602.997	364.81
603.206	336.81
603.415	360.81
603.623	340.81
603.832	349.81
604.041	355.81
604.249	340.81
604.458	366.81
604.666	335.81
604.875	336.81
605.084	318.81
605.292	352.81
605.501	343.81
605.709	349.81
605.918	329.81
606.126	332.81
606.334	353.81
606.543	351.81
606.751	340.81
606.96	312.81
607.168	348.81
607.376	330.81
607.585	337.81
607.793	338.81
608.001	330.81
608.21	325.81
608.418	324.81
608.626	324.81
608.834	340.81
609.043	323.81
609.251	329.81
609.459	321.81
609.667	325.81
609.875	336.81
610.083	326.81
610.291	324.81
610.499	332.81
610.707	323.81
610.916	325.81
611.124	314.81
611.332	326.81
611.54	317.81
611.748	336.81
611.955	314.81
612.163	322.81
612.371	305.81
612.579	327.81
612.787	312.81
612.995	311.81
613.203	339.81
613.411	329.81
613.618	318.81
613.826	311.81
614.034	314.81
614.242	322.81
614.449	317.81
614.657	319.81
614.865	312.81
615.072	309.81
615.28	314.81
615.488	323.81
615.695	309.81
615.903	319.81
616.111	308.81
616.318	322.81
616.526	319.81
616.733	308.81
616.941	306.81
617.148	316.81
617.356	316.81
617.563	291.81
617.771	303.81
617.978	315.81
618.185	308.81
618.393	318.81
618.6	323.81
618.807	297.81
619.015	312.81
619.222	302.81
619.429	292.81
619.637	307.81
619.844	300.81
620.051	286.81
620.258	298.81
620.466	270.81
620.673	298.81
620.88	273.81
621.087	273.81
621.294	284.81
621.501	304.81
621.708	293.81
621.915	282.81
622.122	286.81
622.329	286.81
622.536	292.81
622.743	288.81
622.95	283.81
623.157	278.81
623.364	310.81
623.571	281.81
623.778	290.81
623.985	275.81
624.192	280.81
624.399	274.81
624.606	294.81
624.812	284.81
625.019	279.81
625.226	271.81
625.433	282.81
625.639	274.81
625.846	264.81
626.053	267.81
626.259	291.81
626.466	272.81
626.673	259.81
626.879	249.81
627.086	272.81
627.293	270.81
627.499	266.81
627.706	268.81
627.912	243.81
628.119	266.81
628.325	257.81
628.532	262.81
628.738	271.81
628.945	241.81
629.151	250.81
629.357	256.81
629.564	242.81
629.77	249.81
629.976	259.81
630.183	254.81
630.389	247.81
630.595	249.81
630.802	252.81
631.008	262.81
631.214	254.81
631.42	270.81
631.627	251.81
631.833	254.81
632.039	255.81
632.245	238.81
632.451	244.81
632.657	245.81
632.863	245.81
633.069	279.81
633.275	248.81
633.481	243.81
633.688	242.81
633.893	218.81
634.099	243.81
634.305	248.81
634.511	238.81
634.717	227.81
634.923	240.81
635.129	238.81
635.335	228.81
635.541	230.81
635.747	240.81
635.952	247.81
636.158	218.81
636.364	231.81
636.57	223.81
636.775	240.81
636.981	227.81
637.187	251.81
637.392	239.81
637.598	242.81
637.804	230.81
638.009	242.81
638.215	253.81
638.421	223.81
638.626	231.81
638.832	236.81
639.037	231.81
639.243	218.81
639.448	223.81
639.654	225.81
639.859	242.81
640.065	235.81
640.27	242.81
640.475	233.81
640.681	246.81
640.886	223.81
641.091	223.81
641.297	209.81
641.502	234.81
641.707	224.81
641.913	236.81
642.118	226.81
642.323	220.81
642.528	244.81
642.733	213.81
642.939	243.81
643.144	228.81
643.349	246.81
643.554	224.81
643.759	219.81
643.964	227.81
644.169	229.81
644.374	232.81
644.579	214.81
644.784	231.81
644.989	221.81
645.194	211.81
645.399	226.81
645.604	226.81
645.809	228.81
646.014	219.81
646.219	221.81
646.423	232.81
646.628	232.81
646.833	227.81
647.038	220.81
647.243	231.81
647.447	230.81
647.652	234.81
647.857	220.81
648.062	247.81
648.266	224.81
648.471	244.81
648.676	263.81
648.88	236.81
649.085	231.81
649.289	241.81
649.494	239.81
649.698	231.81
649.903	252.81
650.107	224.81
650.312	225.81
650.516	234.81
650.721	225.81
650.925	213.81
651.13	216.81
651.334	220.81
651.539	225.81
651.743	246.81
651.947	205.81
652.152	212.81
652.356	223.81
652.56	215.81
652.764	220.81
652.969	211.81
653.173	213.81
653.377	219.81
653.581	228.81
653.785	211.81
653.99	206.81
654.194	228.81
654.398	203.81
654.602	209.81
654.806	204.81
655.01	223.81
655.214	196.81
655.418	210.81
655.622	196.81
655.826	238.81
656.03	214.81
656.234	219.81
656.438	217.81
656.642	233.81
656.846	227.81
657.049	208.81
657.253	218.81
657.457	189.81
657.661	180.81
657.865	181.81
658.068	158.81
658.272	155.81
658.476	165.81
658.68	150.81
658.883	140.81
659.087	147.81
659.291	132.81
659.494	129.81
659.698	127.81
659.901	123.81
660.105	101.81
660.309	121.81
660.512	127.81
660.716	115.81
660.919	108.81
661.123	106.81
661.326	84.81
661.53	103.81
661.733	98.81
661.936	94.81
662.14	99.81
662.343	93.81
662.546	81.81
662.75	91.81
662.953	78.81
663.156	80.81
663.36	87.81
663.563	81.81
663.766	83.81
663.969	85.81
664.173	86.81
664.376	90.81
664.579	80.81
664.782	69.81
664.985	77.81
665.188	86.81
665.391	75.81
665.594	81.81
665.797	84.81
666	84.81
666.203	68.81
666.406	70.81
666.609	80.81
666.812	88.81
667.015	78.81
667.218	87.81
667.421	75.81
667.624	89.81
667.827	87.81
668.03	81.81
668.232	84.81
668.435	86.81
668.638	88.81
668.841	88.81
669.043	81.81
669.246	80.81
669.449	80.81
669.651	98.81
669.854	85.81
670.057	68.81
670.259	84.81
670.462	76.81
670.665	83.81
670.867	79.81
671.07	83.81
671.272	87.81
671.475	83.81
671.677	92.81
671.88	83.81
672.082	74.81
672.284	89.81
672.487	100.81
672.689	87.81
672.892	91.81
