Data from Fe(NO3)3@0.0125M.TitratingCurve.Agarose3%dH2O.NegLispCup.LampEnergy10.LIBS07252019_HRD10591_17-00-00-340.txt Node
Date: Thu Jul 25 17:00:00 EDT 2019
User: cochatt
Spectrometer: HR+D1059
Trigger mode: 1
Integration Time (sec): 1.000000E-1
Scans to average: 1
Electric dark correction enabled: true
Nonlinearity correction enabled: false
Boxcar width: 0
XAxis mode: Wavelengths
Number of Pixels in Spectrum: 2048
>>>>>Begin Spectral Data<<<<<
223.165	-22.12
223.4	-22.12
223.635	-22.12
223.869	-1.12
224.104	-27.12
224.338	-15.12
224.573	-9.12
224.808	-10.12
225.042	-15.12
225.277	-17.12
225.511	-8.12
225.746	14.88
225.98	11.88
226.215	9.88
226.449	11.88
226.683	25.88
226.918	36.88
227.152	13.88
227.387	32.88
227.621	39.88
227.856	50.88
228.09	42.88
228.324	41.88
228.559	66.88
228.793	57.88
229.027	69.88
229.262	83.88
229.496	75.88
229.73	92.88
229.964	87.88
230.199	78.88
230.433	96.88
230.667	96.88
230.901	89.88
231.136	89.88
231.37	91.88
231.604	112.88
231.838	110.88
232.072	98.88
232.306	91.88
232.541	115.88
232.775	97.88
233.009	93.88
233.243	103.88
233.477	116.88
233.711	112.88
233.945	102.88
234.179	109.88
234.413	114.88
234.647	107.88
234.881	107.88
235.115	122.88
235.349	106.88
235.583	121.88
235.817	105.88
236.051	113.88
236.285	110.88
236.519	92.88
236.753	94.88
236.987	95.88
237.221	102.88
237.455	106.88
237.689	108.88
237.922	116.88
238.156	104.88
238.39	102.88
238.624	127.88
238.858	94.88
239.091	127.88
239.325	122.88
239.559	108.88
239.793	127.88
240.027	122.88
240.26	107.88
240.494	107.88
240.728	109.88
240.961	116.88
241.195	127.88
241.429	130.88
241.662	116.88
241.896	109.88
242.13	130.88
242.363	124.88
242.597	111.88
242.83	131.88
243.064	128.88
243.298	116.88
243.531	115.88
243.765	109.88
243.998	123.88
244.232	112.88
244.465	118.88
244.699	108.88
244.932	117.88
245.166	112.88
245.399	119.88
245.633	125.88
245.866	132.88
246.099	124.88
246.333	130.88
246.566	124.88
246.8	134.88
247.033	136.88
247.266	124.88
247.5	120.88
247.733	126.88
247.966	137.88
248.2	123.88
248.433	133.88
248.666	130.88
248.899	137.88
249.133	139.88
249.366	137.88
249.599	148.88
249.832	128.88
250.066	140.88
250.299	119.88
250.532	152.88
250.765	123.88
250.998	128.88
251.231	142.88
251.465	130.88
251.698	136.88
251.931	126.88
252.164	139.88
252.397	147.88
252.63	158.88
252.863	151.88
253.096	147.88
253.329	137.88
253.562	130.88
253.795	140.88
254.028	148.88
254.261	149.88
254.494	153.88
254.727	153.88
254.96	142.88
255.193	132.88
255.426	144.88
255.659	133.88
255.892	141.88
256.124	162.88
256.357	148.88
256.59	148.88
256.823	151.88
257.056	140.88
257.289	149.88
257.521	158.88
257.754	142.88
257.987	161.88
258.22	151.88
258.452	150.88
258.685	156.88
258.918	153.88
259.151	157.88
259.383	151.88
259.616	157.88
259.849	161.88
260.081	197.88
260.314	181.88
260.547	184.88
260.779	158.88
261.012	156.88
261.244	173.88
261.477	188.88
261.71	168.88
261.942	162.88
262.175	177.88
262.407	148.88
262.64	166.88
262.872	182.88
263.105	169.88
263.337	150.88
263.57	179.88
263.802	157.88
264.035	168.88
264.267	165.88
264.499	174.88
264.732	180.88
264.964	178.88
265.197	171.88
265.429	157.88
265.661	168.88
265.894	163.88
266.126	169.88
266.358	173.88
266.591	177.88
266.823	165.88
267.055	186.88
267.287	187.88
267.52	180.88
267.752	171.88
267.984	176.88
268.216	183.88
268.448	187.88
268.681	185.88
268.913	178.88
269.145	192.88
269.377	182.88
269.609	170.88
269.841	183.88
270.073	189.88
270.306	191.88
270.538	175.88
270.77	189.88
271.002	181.88
271.234	185.88
271.466	189.88
271.698	176.88
271.93	196.88
272.162	197.88
272.394	192.88
272.626	184.88
272.858	204.88
273.09	194.88
273.322	192.88
273.553	196.88
273.785	191.88
274.017	208.88
274.249	210.88
274.481	208.88
274.713	238.88
274.945	233.88
275.176	222.88
275.408	218.88
275.64	218.88
275.872	200.88
276.104	208.88
276.335	214.88
276.567	206.88
276.799	195.88
277.031	208.88
277.262	221.88
277.494	218.88
277.726	212.88
277.957	203.88
278.189	207.88
278.421	207.88
278.652	200.88
278.884	227.88
279.115	209.88
279.347	212.88
279.579	223.88
279.81	213.88
280.042	195.88
280.273	197.88
280.505	219.88
280.736	214.88
280.968	233.88
281.199	224.88
281.431	213.88
281.662	232.88
281.894	212.88
282.125	221.88
282.356	224.88
282.588	216.88
282.819	211.88
283.051	227.88
283.282	220.88
283.513	226.88
283.745	201.88
283.976	214.88
284.207	216.88
284.439	233.88
284.67	227.88
284.901	219.88
285.132	222.88
285.364	242.88
285.595	214.88
285.826	237.88
286.057	256.88
286.288	225.88
286.52	240.88
286.751	236.88
286.982	217.88
287.213	240.88
287.444	233.88
287.675	252.88
287.906	225.88
288.138	240.88
288.369	218.88
288.6	244.88
288.831	246.88
289.062	247.88
289.293	239.88
289.524	248.88
289.755	242.88
289.986	258.88
290.217	245.88
290.448	247.88
290.679	256.88
290.91	253.88
291.141	260.88
291.371	253.88
291.602	256.88
291.833	240.88
292.064	260.88
292.295	254.88
292.526	252.88
292.757	253.88
292.987	261.88
293.218	256.88
293.449	231.88
293.68	255.88
293.91	266.88
294.141	243.88
294.372	265.88
294.603	266.88
294.833	236.88
295.064	260.88
295.295	265.88
295.525	246.88
295.756	269.88
295.987	260.88
296.217	245.88
296.448	255.88
296.679	262.88
296.909	258.88
297.14	252.88
297.37	258.88
297.601	265.88
297.831	277.88
298.062	266.88
298.292	272.88
298.523	290.88
298.753	279.88
298.984	270.88
299.214	289.88
299.445	279.88
299.675	279.88
299.905	269.88
300.136	267.88
300.366	269.88
300.597	286.88
300.827	288.88
301.057	285.88
301.288	276.88
301.518	287.88
301.748	281.88
301.979	290.88
302.209	298.88
302.439	292.88
302.669	293.88
302.9	279.88
303.13	292.88
303.36	286.88
303.59	274.88
303.82	273.88
304.051	282.88
304.281	272.88
304.511	289.88
304.741	287.88
304.971	293.88
305.201	293.88
305.431	303.88
305.661	298.88
305.891	292.88
306.121	277.88
306.352	309.88
306.582	282.88
306.812	286.88
307.042	298.88
307.272	312.88
307.502	287.88
307.731	285.88
307.961	285.88
308.191	293.88
308.421	308.88
308.651	300.88
308.881	314.88
309.111	299.88
309.341	285.88
309.571	290.88
309.8	294.88
310.03	292.88
310.26	290.88
310.49	297.88
310.72	290.88
310.949	317.88
311.179	307.88
311.409	316.88
311.639	320.88
311.868	297.88
312.098	308.88
312.328	321.88
312.557	289.88
312.787	313.88
313.017	311.88
313.246	313.88
313.476	302.88
313.706	320.88
313.935	320.88
314.165	313.88
314.394	324.88
314.624	296.88
314.853	316.88
315.083	318.88
315.312	337.88
315.542	342.88
315.771	308.88
316.001	319.88
316.23	332.88
316.46	320.88
316.689	329.88
316.919	326.88
317.148	330.88
317.377	321.88
317.607	327.88
317.836	340.88
318.065	336.88
318.295	345.88
318.524	322.88
318.753	329.88
318.983	339.88
319.212	317.88
319.441	345.88
319.67	328.88
319.9	318.88
320.129	337.88
320.358	341.88
320.587	338.88
320.816	316.88
321.046	325.88
321.275	351.88
321.504	334.88
321.733	334.88
321.962	320.88
322.191	349.88
322.42	338.88
322.649	350.88
322.878	334.88
323.108	330.88
323.337	341.88
323.566	331.88
323.795	349.88
324.024	347.88
324.253	346.88
324.482	357.88
324.71	343.88
324.939	342.88
325.168	335.88
325.397	345.88
325.626	357.88
325.855	345.88
326.084	354.88
326.313	352.88
326.542	341.88
326.77	366.88
326.999	363.88
327.228	340.88
327.457	348.88
327.686	340.88
327.914	359.88
328.143	352.88
328.372	380.88
328.6	368.88
328.829	357.88
329.058	360.88
329.287	368.88
329.515	360.88
329.744	347.88
329.972	356.88
330.201	354.88
330.43	365.88
330.658	376.88
330.887	368.88
331.115	369.88
331.344	380.88
331.572	392.88
331.801	381.88
332.03	386.88
332.258	381.88
332.486	372.88
332.715	388.88
332.943	377.88
333.172	386.88
333.4	383.88
333.629	379.88
333.857	396.88
334.085	408.88
334.314	405.88
334.542	388.88
334.771	409.88
334.999	423.88
335.227	402.88
335.455	395.88
335.684	394.88
335.912	421.88
336.14	409.88
336.369	412.88
336.597	409.88
336.825	393.88
337.053	404.88
337.281	417.88
337.51	385.88
337.738	408.88
337.966	407.88
338.194	382.88
338.422	387.88
338.65	382.88
338.878	384.88
339.106	387.88
339.334	399.88
339.562	396.88
339.79	388.88
340.018	383.88
340.246	384.88
340.474	387.88
340.702	381.88
340.93	386.88
341.158	394.88
341.386	371.88
341.614	395.88
341.842	377.88
342.07	379.88
342.298	380.88
342.526	392.88
342.754	396.88
342.981	402.88
343.209	382.88
343.437	397.88
343.665	388.88
343.893	404.88
344.12	413.88
344.348	420.88
344.576	427.88
344.804	413.88
345.031	404.88
345.259	384.88
345.487	408.88
345.714	401.88
345.942	398.88
346.17	392.88
346.397	372.88
346.625	397.88
346.853	387.88
347.08	376.88
347.308	376.88
347.535	372.88
347.763	381.88
347.99	377.88
348.218	378.88
348.445	394.88
348.673	390.88
348.9	384.88
349.128	386.88
349.355	398.88
349.583	371.88
349.81	384.88
350.037	376.88
350.265	365.88
350.492	376.88
350.72	366.88
350.947	400.88
351.174	364.88
351.402	365.88
351.629	380.88
351.856	373.88
352.083	378.88
352.311	386.88
352.538	374.88
352.765	371.88
352.992	387.88
353.22	361.88
353.447	393.88
353.674	357.88
353.901	396.88
354.128	374.88
354.355	376.88
354.583	368.88
354.81	382.88
355.037	361.88
355.264	402.88
355.491	373.88
355.718	369.88
355.945	377.88
356.172	380.88
356.399	369.88
356.626	382.88
356.853	385.88
357.08	389.88
357.307	389.88
357.534	390.88
357.761	384.88
357.988	382.88
358.215	394.88
358.441	404.88
358.668	396.88
358.895	372.88
359.122	391.88
359.349	384.88
359.576	389.88
359.802	366.88
360.029	372.88
360.256	376.88
360.483	380.88
360.709	387.88
360.936	382.88
361.163	380.88
361.39	373.88
361.616	374.88
361.843	390.88
362.07	382.88
362.296	392.88
362.523	406.88
362.749	378.88
362.976	398.88
363.203	390.88
363.429	394.88
363.656	394.88
363.882	403.88
364.109	388.88
364.335	384.88
364.562	394.88
364.788	401.88
365.015	407.88
365.241	405.88
365.468	387.88
365.694	384.88
365.92	393.88
366.147	393.88
366.373	397.88
366.599	386.88
366.826	380.88
367.052	416.88
367.278	412.88
367.505	394.88
367.731	396.88
367.957	402.88
368.184	374.88
368.41	393.88
368.636	401.88
368.862	402.88
369.089	436.88
369.315	385.88
369.541	409.88
369.767	407.88
369.993	426.88
370.219	409.88
370.445	408.88
370.672	429.88
370.898	419.88
371.124	396.88
371.35	426.88
371.576	420.88
371.802	429.88
372.028	399.88
372.254	428.88
372.48	418.88
372.706	406.88
372.932	422.88
373.158	404.88
373.384	424.88
373.61	446.88
373.835	450.88
374.061	424.88
374.287	403.88
374.513	429.88
374.739	448.88
374.965	454.88
375.191	419.88
375.416	441.88
375.642	432.88
375.868	424.88
376.094	419.88
376.319	405.88
376.545	426.88
376.771	417.88
376.997	426.88
377.222	423.88
377.448	430.88
377.674	402.88
377.899	422.88
378.125	428.88
378.35	420.88
378.576	418.88
378.802	402.88
379.027	419.88
379.253	412.88
379.478	418.88
379.704	429.88
379.929	414.88
380.155	428.88
380.38	433.88
380.606	424.88
380.831	428.88
381.057	422.88
381.282	432.88
381.507	444.88
381.733	440.88
381.958	418.88
382.184	428.88
382.409	435.88
382.634	469.88
382.86	439.88
383.085	449.88
383.31	440.88
383.535	445.88
383.761	438.88
383.986	462.88
384.211	448.88
384.436	440.88
384.662	435.88
384.887	458.88
385.112	443.88
385.337	470.88
385.562	454.88
385.787	470.88
386.013	477.88
386.238	456.88
386.463	476.88
386.688	467.88
386.913	474.88
387.138	451.88
387.363	474.88
387.588	458.88
387.813	485.88
388.038	473.88
388.263	489.88
388.488	471.88
388.713	478.88
388.938	480.88
389.163	474.88
389.387	480.88
389.612	466.88
389.837	488.88
390.062	479.88
390.287	469.88
390.512	491.88
390.736	487.88
390.961	505.88
391.186	468.88
391.411	486.88
391.636	482.88
391.86	490.88
392.085	483.88
392.31	480.88
392.534	492.88
392.759	502.88
392.984	504.88
393.208	491.88
393.433	537.88
393.658	504.88
393.882	510.88
394.107	497.88
394.331	500.88
394.556	484.88
394.78	478.88
395.005	521.88
395.229	505.88
395.454	504.88
395.678	501.88
395.903	507.88
396.127	525.88
396.352	520.88
396.576	519.88
396.801	517.88
397.025	553.88
397.249	516.88
397.474	524.88
397.698	489.88
397.922	521.88
398.147	538.88
398.371	532.88
398.595	542.88
398.82	552.88
399.044	552.88
399.268	564.88
399.492	597.88
399.717	574.88
399.941	598.88
400.165	585.88
400.389	588.88
400.613	569.88
400.837	548.88
401.062	584.88
401.286	547.88
401.51	554.88
401.734	564.88
401.958	576.88
402.182	571.88
402.406	553.88
402.63	536.88
402.854	556.88
403.078	533.88
403.302	556.88
403.526	550.88
403.75	548.88
403.974	556.88
404.198	546.88
404.422	564.88
404.645	578.88
404.869	553.88
405.093	556.88
405.317	571.88
405.541	588.88
405.765	563.88
405.988	555.88
406.212	588.88
406.436	572.88
406.66	606.88
406.883	583.88
407.107	592.88
407.331	609.88
407.555	586.88
407.778	599.88
408.002	634.88
408.226	613.88
408.449	631.88
408.673	599.88
408.896	590.88
409.12	597.88
409.344	609.88
409.567	607.88
409.791	597.88
410.014	592.88
410.238	588.88
410.461	587.88
410.685	605.88
410.908	580.88
411.132	571.88
411.355	566.88
411.578	577.88
411.802	564.88
412.025	587.88
412.249	565.88
412.472	564.88
412.695	576.88
412.919	572.88
413.142	572.88
413.365	553.88
413.589	553.88
413.812	556.88
414.035	556.88
414.258	556.88
414.482	561.88
414.705	554.88
414.928	553.88
415.151	552.88
415.374	569.88
415.597	557.88
415.821	534.88
416.044	541.88
416.267	528.88
416.49	510.88
416.713	524.88
416.936	552.88
417.159	529.88
417.382	524.88
417.605	538.88
417.828	515.88
418.051	568.88
418.274	551.88
418.497	516.88
418.72	528.88
418.943	533.88
419.166	565.88
419.389	593.88
419.611	591.88
419.834	557.88
420.057	541.88
420.28	547.88
420.503	520.88
420.726	522.88
420.948	524.88
421.171	534.88
421.394	510.88
421.617	518.88
421.839	541.88
422.062	522.88
422.285	524.88
422.507	524.88
422.73	531.88
422.953	558.88
423.175	517.88
423.398	524.88
423.621	526.88
423.843	523.88
424.066	531.88
424.288	527.88
424.511	524.88
424.733	524.88
424.956	536.88
425.178	512.88
425.401	532.88
425.623	521.88
425.846	508.88
426.068	510.88
426.291	535.88
426.513	498.88
426.735	540.88
426.958	524.88
427.18	521.88
427.402	519.88
427.625	521.88
427.847	511.88
428.069	493.88
428.292	506.88
428.514	514.88
428.736	518.88
428.958	485.88
429.181	514.88
429.403	512.88
429.625	504.88
429.847	494.88
430.069	520.88
430.292	536.88
430.514	506.88
430.736	500.88
430.958	503.88
431.18	503.88
431.402	533.88
431.624	484.88
431.846	500.88
432.068	509.88
432.29	527.88
432.512	514.88
432.734	519.88
432.956	528.88
433.178	532.88
433.4	522.88
433.622	542.88
433.844	532.88
434.066	530.88
434.287	534.88
434.509	504.88
434.731	522.88
434.953	524.88
435.175	528.88
435.397	552.88
435.618	546.88
435.84	521.88
436.062	492.88
436.284	529.88
436.505	523.88
436.727	534.88
436.949	521.88
437.17	501.88
437.392	507.88
437.614	512.88
437.835	520.88
438.057	516.88
438.278	503.88
438.5	497.88
438.721	519.88
438.943	497.88
439.165	481.88
439.386	490.88
439.608	486.88
439.829	500.88
440.05	507.88
440.272	530.88
440.493	503.88
440.715	493.88
440.936	524.88
441.158	521.88
441.379	516.88
441.6	537.88
441.822	517.88
442.043	529.88
442.264	540.88
442.486	529.88
442.707	537.88
442.928	530.88
443.149	553.88
443.371	524.88
443.592	539.88
443.813	524.88
444.034	515.88
444.255	538.88
444.476	534.88
444.698	537.88
444.919	530.88
445.14	625.88
445.361	587.88
445.582	543.88
445.803	518.88
446.024	502.88
446.245	544.88
446.466	511.88
446.687	512.88
446.908	528.88
447.129	508.88
447.35	495.88
447.571	501.88
447.792	489.88
448.013	501.88
448.234	484.88
448.455	497.88
448.675	481.88
448.896	471.88
449.117	480.88
449.338	490.88
449.559	477.88
449.779	491.88
450	490.88
450.221	473.88
450.442	496.88
450.662	482.88
450.883	478.88
451.104	468.88
451.324	458.88
451.545	486.88
451.766	496.88
451.986	483.88
452.207	489.88
452.428	465.88
452.648	470.88
452.869	480.88
453.089	449.88
453.31	459.88
453.53	467.88
453.751	473.88
453.971	468.88
454.192	460.88
454.412	456.88
454.633	459.88
454.853	464.88
455.073	469.88
455.294	453.88
455.514	468.88
455.734	456.88
455.955	449.88
456.175	474.88
456.395	452.88
456.616	445.88
456.836	477.88
457.056	460.88
457.276	480.88
457.497	496.88
457.717	461.88
457.937	456.88
458.157	472.88
458.377	496.88
458.598	489.88
458.818	493.88
459.038	497.88
459.258	499.88
459.478	505.88
459.698	507.88
459.918	504.88
460.138	528.88
460.358	552.88
460.578	516.88
460.798	544.88
461.018	523.88
461.238	545.88
461.458	556.88
461.678	528.88
461.898	571.88
462.118	564.88
462.338	558.88
462.558	568.88
462.777	571.88
462.997	602.88
463.217	601.88
463.437	592.88
463.657	595.88
463.876	596.88
464.096	595.88
464.316	569.88
464.536	557.88
464.755	547.88
464.975	537.88
465.195	557.88
465.414	557.88
465.634	520.88
465.854	535.88
466.073	535.88
466.293	539.88
466.512	508.88
466.732	534.88
466.951	525.88
467.171	519.88
467.391	509.88
467.61	518.88
467.829	525.88
468.049	495.88
468.268	512.88
468.488	492.88
468.707	511.88
468.927	525.88
469.146	497.88
469.365	530.88
469.585	499.88
469.804	526.88
470.023	530.88
470.243	507.88
470.462	542.88
470.681	532.88
470.901	529.88
471.12	510.88
471.339	527.88
471.558	524.88
471.777	533.88
471.997	516.88
472.216	526.88
472.435	517.88
472.654	524.88
472.873	519.88
473.092	536.88
473.311	538.88
473.53	521.88
473.749	524.88
473.968	538.88
474.187	516.88
474.406	532.88
474.625	517.88
474.844	564.88
475.063	538.88
475.282	518.88
475.501	538.88
475.72	541.88
475.939	547.88
476.158	561.88
476.377	551.88
476.596	574.88
476.814	548.88
477.033	546.88
477.252	546.88
477.471	580.88
477.69	593.88
477.908	554.88
478.127	570.88
478.346	580.88
478.564	569.88
478.783	583.88
479.002	592.88
479.22	617.88
479.439	621.88
479.658	600.88
479.876	577.88
480.095	608.88
480.313	618.88
480.532	604.88
480.751	613.88
480.969	622.88
481.188	622.88
481.406	606.88
481.624	622.88
481.843	598.88
482.061	606.88
482.28	605.88
482.498	617.88
482.717	605.88
482.935	613.88
483.153	625.88
483.372	648.88
483.59	648.88
483.808	628.88
484.027	632.88
484.245	651.88
484.463	612.88
484.681	642.88
484.9	624.88
485.118	625.88
485.336	624.88
485.554	634.88
485.772	656.88
485.99	637.88
486.209	613.88
486.427	617.88
486.645	625.88
486.863	650.88
487.081	635.88
487.299	623.88
487.517	638.88
487.735	638.88
487.953	636.88
488.171	638.88
488.389	640.88
488.607	626.88
488.825	630.88
489.043	640.88
489.261	626.88
489.479	628.88
489.696	636.88
489.914	637.88
490.132	636.88
490.35	642.88
490.568	625.88
490.786	657.88
491.003	641.88
491.221	640.88
491.439	661.88
491.657	652.88
491.874	660.88
492.092	644.88
492.31	677.88
492.527	653.88
492.745	664.88
492.963	674.88
493.18	650.88
493.398	672.88
493.615	662.88
493.833	658.88
494.05	683.88
494.268	661.88
494.485	664.88
494.703	657.88
494.92	674.88
495.138	655.88
495.355	681.88
495.573	683.88
495.79	687.88
496.008	728.88
496.225	696.88
496.442	692.88
496.66	711.88
496.877	719.88
497.094	702.88
497.312	718.88
497.529	747.88
497.746	739.88
497.963	746.88
498.181	758.88
498.398	768.88
498.615	768.88
498.832	788.88
499.049	804.88
499.267	825.88
499.484	845.88
499.701	912.88
499.918	926.88
500.135	950.88
500.352	932.88
500.569	980.88
500.786	962.88
501.003	955.88
501.22	973.88
501.437	914.88
501.654	898.88
501.871	857.88
502.088	816.88
502.305	825.88
502.522	800.88
502.739	811.88
502.956	761.88
503.172	747.88
503.389	713.88
503.606	736.88
503.823	722.88
504.04	701.88
504.256	716.88
504.473	698.88
504.69	685.88
504.907	698.88
505.123	664.88
505.34	669.88
505.557	650.88
505.773	646.88
505.99	675.88
506.207	648.88
506.423	648.88
506.64	634.88
506.856	652.88
507.073	637.88
507.289	629.88
507.506	619.88
507.722	625.88
507.939	615.88
508.155	609.88
508.372	595.88
508.588	588.88
508.805	608.88
509.021	601.88
509.238	584.88
509.454	558.88
509.67	569.88
509.887	599.88
510.103	578.88
510.319	571.88
510.536	562.88
510.752	578.88
510.968	573.88
511.184	573.88
511.401	562.88
511.617	598.88
511.833	557.88
512.049	560.88
512.265	552.88
512.481	586.88
512.698	554.88
512.914	566.88
513.13	588.88
513.346	579.88
513.562	550.88
513.778	551.88
513.994	581.88
514.21	578.88
514.426	592.88
514.642	559.88
514.858	571.88
515.074	598.88
515.29	575.88
515.506	560.88
515.721	568.88
515.937	584.88
516.153	568.88
516.369	590.88
516.585	585.88
516.801	608.88
517.016	592.88
517.232	595.88
517.448	614.88
517.664	612.88
517.879	599.88
518.095	608.88
518.311	597.88
518.527	597.88
518.742	589.88
518.958	589.88
519.173	598.88
519.389	590.88
519.605	575.88
519.82	564.88
520.036	594.88
520.251	585.88
520.467	556.88
520.682	592.88
520.898	578.88
521.113	528.88
521.329	531.88
521.544	540.88
521.76	542.88
521.975	551.88
522.19	549.88
522.406	544.88
522.621	545.88
522.836	520.88
523.052	552.88
523.267	551.88
523.482	535.88
523.698	550.88
523.913	532.88
524.128	526.88
524.343	508.88
524.559	534.88
524.774	543.88
524.989	523.88
525.204	532.88
525.419	508.88
525.634	525.88
525.849	512.88
526.064	496.88
526.28	530.88
526.495	498.88
526.71	513.88
526.925	517.88
527.14	510.88
527.355	513.88
527.57	508.88
527.785	518.88
527.999	497.88
528.214	506.88
528.429	517.88
528.644	520.88
528.859	518.88
529.074	512.88
529.289	530.88
529.503	515.88
529.718	536.88
529.933	501.88
530.148	518.88
530.363	517.88
530.577	504.88
530.792	512.88
531.007	504.88
531.221	530.88
531.436	510.88
531.651	519.88
531.865	497.88
532.08	489.88
532.295	520.88
532.509	484.88
532.724	512.88
532.938	523.88
533.153	492.88
533.367	491.88
533.582	474.88
533.796	490.88
534.011	476.88
534.225	500.88
534.44	498.88
534.654	493.88
534.868	520.88
535.083	486.88
535.297	492.88
535.511	501.88
535.726	459.88
535.94	478.88
536.154	492.88
536.369	501.88
536.583	492.88
536.797	502.88
537.011	476.88
537.225	495.88
537.44	470.88
537.654	481.88
537.868	487.88
538.082	486.88
538.296	471.88
538.51	483.88
538.724	503.88
538.938	501.88
539.153	480.88
539.367	477.88
539.581	489.88
539.795	450.88
540.009	487.88
540.222	475.88
540.436	460.88
540.65	452.88
540.864	481.88
541.078	480.88
541.292	491.88
541.506	471.88
541.72	473.88
541.934	477.88
542.147	489.88
542.361	479.88
542.575	486.88
542.789	488.88
543.002	459.88
543.216	477.88
543.43	480.88
543.644	456.88
543.857	478.88
544.071	456.88
544.285	468.88
544.498	456.88
544.712	485.88
544.925	481.88
545.139	481.88
545.352	465.88
545.566	481.88
545.779	488.88
545.993	489.88
546.206	492.88
546.42	472.88
546.633	474.88
546.847	482.88
547.06	471.88
547.274	457.88
547.487	488.88
547.7	483.88
547.914	482.88
548.127	470.88
548.34	471.88
548.554	458.88
548.767	477.88
548.98	490.88
549.193	486.88
549.407	480.88
549.62	471.88
549.833	466.88
550.046	486.88
550.259	470.88
550.473	457.88
550.686	470.88
550.899	480.88
551.112	470.88
551.325	476.88
551.538	481.88
551.751	470.88
551.964	462.88
552.177	483.88
552.39	468.88
552.603	478.88
552.816	461.88
553.029	463.88
553.242	493.88
553.455	480.88
553.667	492.88
553.88	466.88
554.093	473.88
554.306	448.88
554.519	468.88
554.732	459.88
554.944	441.88
555.157	426.88
555.37	446.88
555.583	441.88
555.795	434.88
556.008	449.88
556.221	424.88
556.433	426.88
556.646	420.88
556.859	440.88
557.071	428.88
557.284	403.88
557.496	413.88
557.709	419.88
557.921	432.88
558.134	442.88
558.346	460.88
558.559	412.88
558.771	435.88
558.984	444.88
559.196	414.88
559.409	404.88
559.621	414.88
559.833	416.88
560.046	410.88
560.258	416.88
560.47	411.88
560.683	417.88
560.895	406.88
561.107	410.88
561.32	392.88
561.532	412.88
561.744	440.88
561.956	417.88
562.168	399.88
562.381	397.88
562.593	397.88
562.805	411.88
563.017	412.88
563.229	413.88
563.441	399.88
563.653	408.88
563.865	400.88
564.077	408.88
564.289	428.88
564.501	430.88
564.713	430.88
564.925	412.88
565.137	420.88
565.349	404.88
565.561	424.88
565.773	470.88
565.985	440.88
566.197	449.88
566.408	441.88
566.62	458.88
566.832	446.88
567.044	474.88
567.255	458.88
567.467	470.88
567.679	465.88
567.891	488.88
568.102	477.88
568.314	461.88
568.526	452.88
568.737	448.88
568.949	437.88
569.161	434.88
569.372	418.88
569.584	404.88
569.795	412.88
570.007	401.88
570.218	394.88
570.43	393.88
570.641	383.88
570.853	385.88
571.064	385.88
571.276	380.88
571.487	375.88
571.698	386.88
571.91	380.88
572.121	361.88
572.333	349.88
572.544	360.88
572.755	367.88
572.966	352.88
573.178	362.88
573.389	333.88
573.6	344.88
573.811	348.88
574.023	337.88
574.234	341.88
574.445	349.88
574.656	344.88
574.867	316.88
575.078	344.88
575.289	333.88
575.501	344.88
575.712	340.88
575.923	313.88
576.134	320.88
576.345	356.88
576.556	323.88
576.767	318.88
576.978	329.88
577.188	331.88
577.399	330.88
577.61	310.88
577.821	320.88
578.032	322.88
578.243	327.88
578.454	301.88
578.665	317.88
578.875	323.88
579.086	316.88
579.297	334.88
579.508	329.88
579.718	302.88
579.929	294.88
580.14	293.88
580.35	323.88
580.561	304.88
580.772	307.88
580.982	305.88
581.193	311.88
581.403	309.88
581.614	300.88
581.825	312.88
582.035	299.88
582.246	315.88
582.456	295.88
582.667	324.88
582.877	301.88
583.087	296.88
583.298	304.88
583.508	304.88
583.719	303.88
583.929	309.88
584.139	301.88
584.35	300.88
584.56	303.88
584.77	294.88
584.981	294.88
585.191	297.88
585.401	280.88
585.611	281.88
585.821	295.88
586.032	299.88
586.242	273.88
586.452	284.88
586.662	291.88
586.872	294.88
587.082	289.88
587.292	282.88
587.502	296.88
587.713	288.88
587.923	287.88
588.133	287.88
588.343	290.88
588.553	280.88
588.762	285.88
588.972	293.88
589.182	332.88
589.392	358.88
589.602	304.88
589.812	341.88
590.022	312.88
590.232	277.88
590.441	272.88
590.651	280.88
590.861	285.88
591.071	285.88
591.281	285.88
591.49	276.88
591.7	284.88
591.91	286.88
592.119	286.88
592.329	296.88
592.539	289.88
592.748	292.88
592.958	283.88
593.167	295.88
593.377	292.88
593.587	291.88
593.796	295.88
594.006	293.88
594.215	295.88
594.424	276.88
594.634	285.88
594.843	273.88
595.053	275.88
595.262	275.88
595.472	283.88
595.681	286.88
595.89	284.88
596.1	260.88
596.309	266.88
596.518	274.88
596.727	267.88
596.937	261.88
597.146	266.88
597.355	272.88
597.564	266.88
597.774	262.88
597.983	261.88
598.192	259.88
598.401	255.88
598.61	264.88
598.819	278.88
599.028	254.88
599.237	244.88
599.446	261.88
599.655	256.88
599.864	259.88
600.073	243.88
600.282	250.88
600.491	236.88
600.7	237.88
600.909	253.88
601.118	240.88
601.327	236.88
601.536	240.88
601.745	258.88
601.953	244.88
602.162	242.88
602.371	235.88
602.58	233.88
602.789	249.88
602.997	247.88
603.206	227.88
603.415	229.88
603.623	267.88
603.832	240.88
604.041	240.88
604.249	231.88
604.458	225.88
604.666	246.88
604.875	219.88
605.084	248.88
605.292	226.88
605.501	240.88
605.709	228.88
605.918	235.88
606.126	242.88
606.334	237.88
606.543	230.88
606.751	227.88
606.96	236.88
607.168	236.88
607.376	220.88
607.585	219.88
607.793	238.88
608.001	228.88
608.21	228.88
608.418	236.88
608.626	226.88
608.834	225.88
609.043	218.88
609.251	225.88
609.459	222.88
609.667	234.88
609.875	235.88
610.083	241.88
610.291	229.88
610.499	219.88
610.707	224.88
610.916	206.88
611.124	220.88
611.332	234.88
611.54	215.88
611.748	223.88
611.955	239.88
612.163	232.88
612.371	228.88
612.579	224.88
612.787	246.88
612.995	233.88
613.203	223.88
613.411	219.88
613.618	226.88
613.826	215.88
614.034	224.88
614.242	226.88
614.449	196.88
614.657	233.88
614.865	223.88
615.072	228.88
615.28	215.88
615.488	227.88
615.695	217.88
615.903	230.88
616.111	217.88
616.318	223.88
616.526	228.88
616.733	216.88
616.941	210.88
617.148	233.88
617.356	225.88
617.563	217.88
617.771	206.88
617.978	203.88
618.185	235.88
618.393	211.88
618.6	231.88
618.807	233.88
619.015	215.88
619.222	209.88
619.429	216.88
619.637	205.88
619.844	210.88
620.051	221.88
620.258	201.88
620.466	212.88
620.673	209.88
620.88	210.88
621.087	199.88
621.294	211.88
621.501	197.88
621.708	210.88
621.915	205.88
622.122	219.88
622.329	209.88
622.536	200.88
622.743	204.88
622.95	193.88
623.157	201.88
623.364	197.88
623.571	215.88
623.778	204.88
623.985	200.88
624.192	220.88
624.399	201.88
624.606	213.88
624.812	209.88
625.019	186.88
625.226	202.88
625.433	206.88
625.639	197.88
625.846	189.88
626.053	209.88
626.259	209.88
626.466	189.88
626.673	182.88
626.879	201.88
627.086	180.88
627.293	184.88
627.499	215.88
627.706	201.88
627.912	194.88
628.119	202.88
628.325	199.88
628.532	206.88
628.738	204.88
628.945	199.88
629.151	194.88
629.357	200.88
629.564	200.88
629.77	197.88
629.976	199.88
630.183	181.88
630.389	180.88
630.595	184.88
630.802	192.88
631.008	172.88
631.214	169.88
631.42	182.88
631.627	184.88
631.833	182.88
632.039	197.88
632.245	191.88
632.451	191.88
632.657	188.88
632.863	184.88
633.069	168.88
633.275	173.88
633.481	178.88
633.688	176.88
633.893	200.88
634.099	191.88
634.305	174.88
634.511	180.88
634.717	178.88
634.923	169.88
635.129	173.88
635.335	176.88
635.541	188.88
635.747	174.88
635.952	180.88
636.158	182.88
636.364	179.88
636.57	183.88
636.775	179.88
636.981	190.88
637.187	186.88
637.392	189.88
637.598	189.88
637.804	165.88
638.009	180.88
638.215	180.88
638.421	155.88
638.626	173.88
638.832	177.88
639.037	185.88
639.243	177.88
639.448	178.88
639.654	184.88
639.859	164.88
640.065	170.88
640.27	156.88
640.475	186.88
640.681	168.88
640.886	195.88
641.091	170.88
641.297	179.88
641.502	183.88
641.707	167.88
641.913	171.88
642.118	172.88
642.323	181.88
642.528	160.88
642.733	169.88
642.939	166.88
643.144	189.88
643.349	170.88
643.554	178.88
643.759	180.88
643.964	165.88
644.169	167.88
644.374	188.88
644.579	173.88
644.784	156.88
644.989	165.88
645.194	162.88
645.399	173.88
645.604	172.88
645.809	172.88
646.014	165.88
646.219	175.88
646.423	176.88
646.628	162.88
646.833	170.88
647.038	171.88
647.243	185.88
647.447	165.88
647.652	166.88
647.857	151.88
648.062	160.88
648.266	162.88
648.471	177.88
648.676	164.88
648.88	176.88
649.085	169.88
649.289	165.88
649.494	166.88
649.698	174.88
649.903	176.88
650.107	176.88
650.312	165.88
650.516	160.88
650.721	173.88
650.925	172.88
651.13	173.88
651.334	189.88
651.539	186.88
651.743	170.88
651.947	171.88
652.152	171.88
652.356	177.88
652.56	162.88
652.764	179.88
652.969	181.88
653.173	160.88
653.377	157.88
653.581	160.88
653.785	167.88
653.99	151.88
654.194	142.88
654.398	153.88
654.602	140.88
654.806	131.88
655.01	156.88
655.214	148.88
655.418	158.88
655.622	164.88
655.826	154.88
656.03	164.88
656.234	159.88
656.438	139.88
656.642	142.88
656.846	147.88
657.049	150.88
657.253	147.88
657.457	125.88
657.661	133.88
657.865	134.88
658.068	125.88
658.272	128.88
658.476	130.88
658.68	133.88
658.883	126.88
659.087	132.88
659.291	109.88
659.494	105.88
659.698	109.88
659.901	119.88
660.105	106.88
660.309	112.88
660.512	109.88
660.716	83.88
660.919	93.88
661.123	109.88
661.326	91.88
661.53	86.88
661.733	93.88
661.936	69.88
662.14	84.88
662.343	85.88
662.546	79.88
662.75	96.88
662.953	88.88
663.156	100.88
663.36	70.88
663.563	88.88
663.766	83.88
663.969	73.88
664.173	89.88
664.376	87.88
664.579	94.88
664.782	84.88
664.985	77.88
665.188	83.88
665.391	72.88
665.594	72.88
665.797	86.88
666	89.88
666.203	74.88
666.406	86.88
666.609	87.88
666.812	71.88
667.015	86.88
667.218	92.88
667.421	91.88
667.624	74.88
667.827	89.88
668.03	78.88
668.232	97.88
668.435	75.88
668.638	79.88
668.841	74.88
669.043	84.88
669.246	70.88
669.449	78.88
669.651	83.88
669.854	86.88
670.057	69.88
670.259	75.88
670.462	87.88
670.665	84.88
670.867	73.88
671.07	82.88
671.272	84.88
671.475	95.88
671.677	92.88
671.88	93.88
672.082	76.88
672.284	75.88
672.487	66.88
672.689	87.88
672.892	84.88
