Data from Fe(NO3)3@0.05M.TitratingCurve.Agarose3%dH2O.NegLispCup.LampEnergy10.LIBS07252019_HRD10591_16-48-28-334.txt Node
Date: Thu Jul 25 16:48:28 EDT 2019
User: cochatt
Spectrometer: HR+D1059
Trigger mode: 1
Integration Time (sec): 1.000000E-1
Scans to average: 1
Electric dark correction enabled: true
Nonlinearity correction enabled: false
Boxcar width: 0
XAxis mode: Wavelengths
Number of Pixels in Spectrum: 2048
>>>>>Begin Spectral Data<<<<<
223.165	-10.94
223.4	-10.94
223.635	-10.94
223.869	-21.94
224.104	-14.94
224.338	-20.94
224.573	-21.94
224.808	-9.94
225.042	-16.94
225.277	0.06
225.511	4.06
225.746	4.06
225.98	11.06
226.215	9.06
226.449	7.06
226.683	21.06
226.918	31.06
227.152	30.06
227.387	40.06
227.621	58.06
227.856	44.06
228.09	39.06
228.324	34.06
228.559	60.06
228.793	46.06
229.027	68.06
229.262	75.06
229.496	72.06
229.73	85.06
229.964	85.06
230.199	90.06
230.433	88.06
230.667	82.06
230.901	84.06
231.136	86.06
231.37	86.06
231.604	79.06
231.838	87.06
232.072	90.06
232.306	89.06
232.541	96.06
232.775	110.06
233.009	96.06
233.243	94.06
233.477	109.06
233.711	98.06
233.945	105.06
234.179	88.06
234.413	90.06
234.647	106.06
234.881	104.06
235.115	113.06
235.349	100.06
235.583	90.06
235.817	94.06
236.051	97.06
236.285	93.06
236.519	108.06
236.753	103.06
236.987	91.06
237.221	83.06
237.455	90.06
237.689	87.06
237.922	94.06
238.156	86.06
238.39	89.06
238.624	100.06
238.858	105.06
239.091	93.06
239.325	93.06
239.559	96.06
239.793	90.06
240.027	92.06
240.26	71.06
240.494	116.06
240.728	94.06
240.961	90.06
241.195	99.06
241.429	100.06
241.662	98.06
241.896	93.06
242.13	92.06
242.363	97.06
242.597	88.06
242.83	104.06
243.064	98.06
243.298	89.06
243.531	100.06
243.765	122.06
243.998	104.06
244.232	92.06
244.465	99.06
244.699	105.06
244.932	105.06
245.166	108.06
245.399	98.06
245.633	111.06
245.866	100.06
246.099	116.06
246.333	116.06
246.566	95.06
246.8	95.06
247.033	94.06
247.266	88.06
247.5	95.06
247.733	102.06
247.966	106.06
248.2	102.06
248.433	101.06
248.666	86.06
248.899	121.06
249.133	101.06
249.366	116.06
249.599	112.06
249.832	116.06
250.066	115.06
250.299	112.06
250.532	103.06
250.765	93.06
250.998	114.06
251.231	120.06
251.465	104.06
251.698	94.06
251.931	101.06
252.164	107.06
252.397	101.06
252.63	119.06
252.863	118.06
253.096	124.06
253.329	107.06
253.562	120.06
253.795	117.06
254.028	103.06
254.261	113.06
254.494	124.06
254.727	101.06
254.96	100.06
255.193	111.06
255.426	109.06
255.659	99.06
255.892	125.06
256.124	110.06
256.357	106.06
256.59	102.06
256.823	106.06
257.056	122.06
257.289	116.06
257.521	122.06
257.754	122.06
257.987	119.06
258.22	127.06
258.452	108.06
258.685	123.06
258.918	124.06
259.151	112.06
259.383	124.06
259.616	123.06
259.849	114.06
260.081	109.06
260.314	115.06
260.547	126.06
260.779	114.06
261.012	142.06
261.244	134.06
261.477	102.06
261.71	108.06
261.942	153.06
262.175	126.06
262.407	132.06
262.64	131.06
262.872	122.06
263.105	135.06
263.337	128.06
263.57	116.06
263.802	109.06
264.035	112.06
264.267	114.06
264.499	133.06
264.732	125.06
264.964	124.06
265.197	114.06
265.429	119.06
265.661	111.06
265.894	136.06
266.126	124.06
266.358	127.06
266.591	123.06
266.823	131.06
267.055	120.06
267.287	140.06
267.52	113.06
267.752	139.06
267.984	134.06
268.216	132.06
268.448	127.06
268.681	119.06
268.913	128.06
269.145	133.06
269.377	142.06
269.609	126.06
269.841	137.06
270.073	117.06
270.306	113.06
270.538	134.06
270.77	129.06
271.002	118.06
271.234	130.06
271.466	139.06
271.698	125.06
271.93	138.06
272.162	132.06
272.394	140.06
272.626	138.06
272.858	130.06
273.09	133.06
273.322	130.06
273.553	124.06
273.785	132.06
274.017	131.06
274.249	135.06
274.481	139.06
274.713	142.06
274.945	152.06
275.176	121.06
275.408	153.06
275.64	141.06
275.872	136.06
276.104	135.06
276.335	121.06
276.567	137.06
276.799	125.06
277.031	136.06
277.262	148.06
277.494	144.06
277.726	159.06
277.957	120.06
278.189	139.06
278.421	138.06
278.652	130.06
278.884	145.06
279.115	140.06
279.347	140.06
279.579	134.06
279.81	136.06
280.042	136.06
280.273	134.06
280.505	139.06
280.736	133.06
280.968	147.06
281.199	131.06
281.431	155.06
281.662	150.06
281.894	146.06
282.125	145.06
282.356	136.06
282.588	145.06
282.819	139.06
283.051	154.06
283.282	142.06
283.513	139.06
283.745	147.06
283.976	145.06
284.207	154.06
284.439	148.06
284.67	139.06
284.901	128.06
285.132	164.06
285.364	156.06
285.595	150.06
285.826	144.06
286.057	144.06
286.288	156.06
286.52	136.06
286.751	141.06
286.982	142.06
287.213	149.06
287.444	154.06
287.675	149.06
287.906	152.06
288.138	150.06
288.369	148.06
288.6	147.06
288.831	151.06
289.062	149.06
289.293	148.06
289.524	152.06
289.755	156.06
289.986	145.06
290.217	147.06
290.448	147.06
290.679	147.06
290.91	166.06
291.141	150.06
291.371	140.06
291.602	164.06
291.833	150.06
292.064	137.06
292.295	147.06
292.526	148.06
292.757	158.06
292.987	156.06
293.218	156.06
293.449	154.06
293.68	169.06
293.91	146.06
294.141	154.06
294.372	145.06
294.603	151.06
294.833	142.06
295.064	164.06
295.295	152.06
295.525	151.06
295.756	149.06
295.987	145.06
296.217	169.06
296.448	157.06
296.679	135.06
296.909	155.06
297.14	160.06
297.37	161.06
297.601	163.06
297.831	152.06
298.062	153.06
298.292	166.06
298.523	155.06
298.753	148.06
298.984	161.06
299.214	168.06
299.445	162.06
299.675	164.06
299.905	152.06
300.136	149.06
300.366	157.06
300.597	171.06
300.827	164.06
301.057	158.06
301.288	152.06
301.518	170.06
301.748	161.06
301.979	157.06
302.209	175.06
302.439	169.06
302.669	161.06
302.9	165.06
303.13	169.06
303.36	182.06
303.59	166.06
303.82	150.06
304.051	174.06
304.281	170.06
304.511	158.06
304.741	148.06
304.971	163.06
305.201	158.06
305.431	150.06
305.661	164.06
305.891	153.06
306.121	164.06
306.352	162.06
306.582	163.06
306.812	165.06
307.042	172.06
307.272	160.06
307.502	164.06
307.731	166.06
307.961	150.06
308.191	167.06
308.421	145.06
308.651	160.06
308.881	156.06
309.111	146.06
309.341	160.06
309.571	159.06
309.8	157.06
310.03	165.06
310.26	152.06
310.49	164.06
310.72	166.06
310.949	164.06
311.179	172.06
311.409	170.06
311.639	162.06
311.868	166.06
312.098	174.06
312.328	157.06
312.557	159.06
312.787	162.06
313.017	168.06
313.246	174.06
313.476	156.06
313.706	181.06
313.935	170.06
314.165	174.06
314.394	164.06
314.624	175.06
314.853	180.06
315.083	166.06
315.312	170.06
315.542	151.06
315.771	172.06
316.001	156.06
316.23	174.06
316.46	176.06
316.689	176.06
316.919	177.06
317.148	164.06
317.377	169.06
317.607	168.06
317.836	160.06
318.065	162.06
318.295	173.06
318.524	161.06
318.753	160.06
318.983	167.06
319.212	177.06
319.441	171.06
319.67	160.06
319.9	183.06
320.129	176.06
320.358	172.06
320.587	163.06
320.816	165.06
321.046	169.06
321.275	157.06
321.504	153.06
321.733	180.06
321.962	173.06
322.191	173.06
322.42	163.06
322.649	165.06
322.878	168.06
323.108	166.06
323.337	179.06
323.566	171.06
323.795	173.06
324.024	178.06
324.253	158.06
324.482	168.06
324.71	165.06
324.939	180.06
325.168	180.06
325.397	160.06
325.626	161.06
325.855	170.06
326.084	189.06
326.313	174.06
326.542	185.06
326.77	172.06
326.999	176.06
327.228	176.06
327.457	192.06
327.686	185.06
327.914	174.06
328.143	172.06
328.372	163.06
328.6	168.06
328.829	174.06
329.058	177.06
329.287	182.06
329.515	175.06
329.744	174.06
329.972	176.06
330.201	183.06
330.43	191.06
330.658	172.06
330.887	177.06
331.115	181.06
331.344	198.06
331.572	178.06
331.801	184.06
332.03	199.06
332.258	188.06
332.486	190.06
332.715	189.06
332.943	206.06
333.172	205.06
333.4	222.06
333.629	212.06
333.857	207.06
334.085	204.06
334.314	200.06
334.542	211.06
334.771	205.06
334.999	202.06
335.227	202.06
335.455	202.06
335.684	198.06
335.912	207.06
336.14	221.06
336.369	183.06
336.597	209.06
336.825	214.06
337.053	189.06
337.281	182.06
337.51	204.06
337.738	202.06
337.966	181.06
338.194	190.06
338.422	180.06
338.65	184.06
338.878	200.06
339.106	182.06
339.334	198.06
339.562	181.06
339.79	189.06
340.018	189.06
340.246	167.06
340.474	180.06
340.702	164.06
340.93	207.06
341.158	182.06
341.386	196.06
341.614	190.06
341.842	181.06
342.07	188.06
342.298	188.06
342.526	189.06
342.754	197.06
342.981	185.06
343.209	174.06
343.437	201.06
343.665	217.06
343.893	213.06
344.12	217.06
344.348	202.06
344.576	204.06
344.804	214.06
345.031	190.06
345.259	197.06
345.487	178.06
345.714	172.06
345.942	185.06
346.17	190.06
346.397	186.06
346.625	182.06
346.853	204.06
347.08	184.06
347.308	189.06
347.535	182.06
347.763	184.06
347.99	189.06
348.218	190.06
348.445	180.06
348.673	182.06
348.9	169.06
349.128	177.06
349.355	171.06
349.583	169.06
349.81	169.06
350.037	176.06
350.265	177.06
350.492	184.06
350.72	190.06
350.947	183.06
351.174	178.06
351.402	173.06
351.629	184.06
351.856	198.06
352.083	184.06
352.311	184.06
352.538	176.06
352.765	172.06
352.992	186.06
353.22	186.06
353.447	168.06
353.674	161.06
353.901	166.06
354.128	170.06
354.355	163.06
354.583	175.06
354.81	181.06
355.037	173.06
355.264	175.06
355.491	176.06
355.718	166.06
355.945	182.06
356.172	168.06
356.399	178.06
356.626	180.06
356.853	177.06
357.08	170.06
357.307	180.06
357.534	165.06
357.761	170.06
357.988	173.06
358.215	176.06
358.441	169.06
358.668	185.06
358.895	188.06
359.122	181.06
359.349	184.06
359.576	175.06
359.802	169.06
360.029	169.06
360.256	191.06
360.483	191.06
360.709	183.06
360.936	193.06
361.163	177.06
361.39	188.06
361.616	184.06
361.843	181.06
362.07	183.06
362.296	182.06
362.523	168.06
362.749	180.06
362.976	182.06
363.203	186.06
363.429	159.06
363.656	178.06
363.882	191.06
364.109	174.06
364.335	163.06
364.562	178.06
364.788	178.06
365.015	198.06
365.241	173.06
365.468	184.06
365.694	176.06
365.92	185.06
366.147	189.06
366.373	182.06
366.599	181.06
366.826	192.06
367.052	180.06
367.278	203.06
367.505	184.06
367.731	181.06
367.957	175.06
368.184	198.06
368.41	182.06
368.636	185.06
368.862	179.06
369.089	196.06
369.315	185.06
369.541	185.06
369.767	199.06
369.993	182.06
370.219	196.06
370.445	192.06
370.672	174.06
370.898	188.06
371.124	202.06
371.35	196.06
371.576	193.06
371.802	210.06
372.028	207.06
372.254	188.06
372.48	209.06
372.706	190.06
372.932	215.06
373.158	197.06
373.384	197.06
373.61	213.06
373.835	196.06
374.061	202.06
374.287	201.06
374.513	212.06
374.739	202.06
374.965	221.06
375.191	220.06
375.416	218.06
375.642	201.06
375.868	213.06
376.094	225.06
376.319	212.06
376.545	210.06
376.771	214.06
376.997	201.06
377.222	234.06
377.448	195.06
377.674	204.06
377.899	193.06
378.125	216.06
378.35	192.06
378.576	198.06
378.802	216.06
379.027	193.06
379.253	189.06
379.478	209.06
379.704	204.06
379.929	217.06
380.155	216.06
380.38	205.06
380.606	194.06
380.831	193.06
381.057	201.06
381.282	205.06
381.507	195.06
381.733	222.06
381.958	203.06
382.184	212.06
382.409	214.06
382.634	245.06
382.86	216.06
383.085	212.06
383.31	228.06
383.535	224.06
383.761	214.06
383.986	224.06
384.211	224.06
384.436	236.06
384.662	220.06
384.887	237.06
385.112	234.06
385.337	212.06
385.562	224.06
385.787	222.06
386.013	241.06
386.238	232.06
386.463	232.06
386.688	250.06
386.913	239.06
387.138	253.06
387.363	216.06
387.588	231.06
387.813	247.06
388.038	232.06
388.263	234.06
388.488	212.06
388.713	245.06
388.938	223.06
389.163	216.06
389.387	241.06
389.612	233.06
389.837	211.06
390.062	228.06
390.287	228.06
390.512	235.06
390.736	244.06
390.961	240.06
391.186	223.06
391.411	225.06
391.636	248.06
391.86	276.06
392.085	246.06
392.31	246.06
392.534	250.06
392.759	250.06
392.984	261.06
393.208	247.06
393.433	250.06
393.658	244.06
393.882	261.06
394.107	235.06
394.331	238.06
394.556	241.06
394.78	251.06
395.005	260.06
395.229	238.06
395.454	262.06
395.678	273.06
395.903	245.06
396.127	263.06
396.352	235.06
396.576	252.06
396.801	244.06
397.025	256.06
397.249	258.06
397.474	269.06
397.698	275.06
397.922	254.06
398.147	266.06
398.371	250.06
398.595	261.06
398.82	264.06
399.044	301.06
399.268	330.06
399.492	344.06
399.717	379.06
399.941	369.06
400.165	351.06
400.389	321.06
400.613	298.06
400.837	301.06
401.062	284.06
401.286	280.06
401.51	265.06
401.734	290.06
401.958	279.06
402.182	281.06
402.406	275.06
402.63	293.06
402.854	301.06
403.078	309.06
403.302	316.06
403.526	300.06
403.75	321.06
403.974	325.06
404.198	319.06
404.422	329.06
404.645	313.06
404.869	316.06
405.093	290.06
405.317	290.06
405.541	310.06
405.765	295.06
405.988	292.06
406.212	326.06
406.436	301.06
406.66	317.06
406.883	315.06
407.107	307.06
407.331	343.06
407.555	330.06
407.778	338.06
408.002	335.06
408.226	332.06
408.449	326.06
408.673	323.06
408.896	308.06
409.12	321.06
409.344	314.06
409.567	313.06
409.791	324.06
410.014	310.06
410.238	315.06
410.461	304.06
410.685	320.06
410.908	318.06
411.132	318.06
411.355	285.06
411.578	304.06
411.802	305.06
412.025	305.06
412.249	306.06
412.472	321.06
412.695	292.06
412.919	292.06
413.142	292.06
413.365	295.06
413.589	298.06
413.812	295.06
414.035	304.06
414.258	305.06
414.482	292.06
414.705	298.06
414.928	290.06
415.151	297.06
415.374	325.06
415.597	294.06
415.821	296.06
416.044	282.06
416.267	302.06
416.49	279.06
416.713	280.06
416.936	289.06
417.159	301.06
417.382	282.06
417.605	273.06
417.828	294.06
418.051	292.06
418.274	285.06
418.497	307.06
418.72	297.06
418.943	285.06
419.166	317.06
419.389	337.06
419.611	317.06
419.834	304.06
420.057	304.06
420.28	297.06
420.503	293.06
420.726	290.06
420.948	301.06
421.171	293.06
421.394	307.06
421.617	286.06
421.839	305.06
422.062	296.06
422.285	297.06
422.507	302.06
422.73	294.06
422.953	299.06
423.175	305.06
423.398	315.06
423.621	304.06
423.843	317.06
424.066	296.06
424.288	325.06
424.511	311.06
424.733	303.06
424.956	311.06
425.178	315.06
425.401	297.06
425.623	289.06
425.846	288.06
426.068	292.06
426.291	282.06
426.513	296.06
426.735	297.06
426.958	295.06
427.18	285.06
427.402	286.06
427.625	275.06
427.847	287.06
428.069	282.06
428.292	269.06
428.514	275.06
428.736	284.06
428.958	277.06
429.181	262.06
429.403	268.06
429.625	275.06
429.847	274.06
430.069	298.06
430.292	286.06
430.514	271.06
430.736	267.06
430.958	272.06
431.18	294.06
431.402	296.06
431.624	292.06
431.846	293.06
432.068	282.06
432.29	278.06
432.512	260.06
432.734	290.06
432.956	297.06
433.178	278.06
433.4	292.06
433.622	274.06
433.844	294.06
434.066	299.06
434.287	293.06
434.509	288.06
434.731	306.06
434.953	306.06
435.175	302.06
435.397	305.06
435.618	292.06
435.84	286.06
436.062	291.06
436.284	299.06
436.505	314.06
436.727	280.06
436.949	288.06
437.17	287.06
437.392	287.06
437.614	283.06
437.835	272.06
438.057	272.06
438.278	272.06
438.5	259.06
438.721	288.06
438.943	281.06
439.165	271.06
439.386	274.06
439.608	302.06
439.829	282.06
440.05	285.06
440.272	301.06
440.493	282.06
440.715	320.06
440.936	309.06
441.158	288.06
441.379	289.06
441.6	308.06
441.822	312.06
442.043	338.06
442.264	324.06
442.486	308.06
442.707	330.06
442.928	327.06
443.149	314.06
443.371	305.06
443.592	318.06
443.813	295.06
444.034	322.06
444.255	333.06
444.476	335.06
444.698	350.06
444.919	359.06
445.14	475.06
445.361	409.06
445.582	335.06
445.803	305.06
446.024	296.06
446.245	318.06
446.466	294.06
446.687	301.06
446.908	295.06
447.129	317.06
447.35	288.06
447.571	290.06
447.792	285.06
448.013	284.06
448.234	285.06
448.455	278.06
448.675	276.06
448.896	288.06
449.117	272.06
449.338	300.06
449.559	282.06
449.779	262.06
450	273.06
450.221	274.06
450.442	288.06
450.662	274.06
450.883	272.06
451.104	277.06
451.324	280.06
451.545	288.06
451.766	294.06
451.986	284.06
452.207	280.06
452.428	260.06
452.648	268.06
452.869	260.06
453.089	268.06
453.31	262.06
453.53	277.06
453.751	270.06
453.971	269.06
454.192	268.06
454.412	244.06
454.633	264.06
454.853	295.06
455.073	273.06
455.294	260.06
455.514	269.06
455.734	265.06
455.955	245.06
456.175	265.06
456.395	257.06
456.616	262.06
456.836	264.06
457.056	257.06
457.276	264.06
457.497	259.06
457.717	239.06
457.937	265.06
458.157	281.06
458.377	265.06
458.598	271.06
458.818	264.06
459.038	261.06
459.258	284.06
459.478	286.06
459.698	293.06
459.918	288.06
460.138	309.06
460.358	308.06
460.578	315.06
460.798	327.06
461.018	336.06
461.238	335.06
461.458	340.06
461.678	331.06
461.898	317.06
462.118	326.06
462.338	335.06
462.558	357.06
462.777	359.06
462.997	385.06
463.217	380.06
463.437	395.06
463.657	360.06
463.876	356.06
464.096	372.06
464.316	343.06
464.536	336.06
464.755	345.06
464.975	343.06
465.195	336.06
465.414	329.06
465.634	297.06
465.854	299.06
466.073	296.06
466.293	289.06
466.512	304.06
466.732	307.06
466.951	290.06
467.171	306.06
467.391	282.06
467.61	290.06
467.829	299.06
468.049	290.06
468.268	281.06
468.488	264.06
468.707	289.06
468.927	287.06
469.146	275.06
469.365	294.06
469.585	287.06
469.804	310.06
470.023	304.06
470.243	302.06
470.462	298.06
470.681	299.06
470.901	315.06
471.12	321.06
471.339	306.06
471.558	284.06
471.777	280.06
471.997	284.06
472.216	297.06
472.435	280.06
472.654	260.06
472.873	266.06
473.092	294.06
473.311	277.06
473.53	284.06
473.749	280.06
473.968	271.06
474.187	290.06
474.406	264.06
474.625	266.06
474.844	262.06
475.063	274.06
475.282	282.06
475.501	279.06
475.72	293.06
475.939	295.06
476.158	281.06
476.377	293.06
476.596	285.06
476.814	300.06
477.033	289.06
477.252	294.06
477.471	275.06
477.69	287.06
477.908	310.06
478.127	312.06
478.346	305.06
478.564	312.06
478.783	327.06
479.002	314.06
479.22	320.06
479.439	324.06
479.658	308.06
479.876	305.06
480.095	328.06
480.313	326.06
480.532	349.06
480.751	329.06
480.969	308.06
481.188	310.06
481.406	316.06
481.624	320.06
481.843	296.06
482.061	294.06
482.28	300.06
482.498	310.06
482.717	288.06
482.935	301.06
483.153	308.06
483.372	294.06
483.59	313.06
483.808	313.06
484.027	299.06
484.245	324.06
484.463	342.06
484.681	313.06
484.9	336.06
485.118	314.06
485.336	304.06
485.554	312.06
485.772	319.06
485.99	330.06
486.209	296.06
486.427	314.06
486.645	299.06
486.863	289.06
487.081	303.06
487.299	328.06
487.517	317.06
487.735	314.06
487.953	339.06
488.171	317.06
488.389	330.06
488.607	322.06
488.825	312.06
489.043	315.06
489.261	325.06
489.479	317.06
489.696	314.06
489.914	343.06
490.132	303.06
490.35	301.06
490.568	322.06
490.786	322.06
491.003	341.06
491.221	335.06
491.439	334.06
491.657	337.06
491.874	337.06
492.092	354.06
492.31	361.06
492.527	337.06
492.745	322.06
492.963	339.06
493.18	340.06
493.398	332.06
493.615	337.06
493.833	342.06
494.05	338.06
494.268	328.06
494.485	328.06
494.703	350.06
494.92	344.06
495.138	336.06
495.355	340.06
495.573	344.06
495.79	329.06
496.008	322.06
496.225	354.06
496.442	331.06
496.66	343.06
496.877	358.06
497.094	363.06
497.312	334.06
497.529	331.06
497.746	361.06
497.963	348.06
498.181	372.06
498.398	381.06
498.615	400.06
498.832	422.06
499.049	429.06
499.267	466.06
499.484	489.06
499.701	545.06
499.918	581.06
500.135	658.06
500.352	717.06
500.569	716.06
500.786	733.06
501.003	667.06
501.22	610.06
501.437	576.06
501.654	527.06
501.871	469.06
502.088	457.06
502.305	420.06
502.522	434.06
502.739	401.06
502.956	408.06
503.172	372.06
503.389	383.06
503.606	368.06
503.823	360.06
504.04	350.06
504.256	338.06
504.473	380.06
504.69	377.06
504.907	361.06
505.123	344.06
505.34	344.06
505.557	314.06
505.773	319.06
505.99	295.06
506.207	301.06
506.423	318.06
506.64	316.06
506.856	290.06
507.073	297.06
507.289	313.06
507.506	296.06
507.722	286.06
507.939	300.06
508.155	303.06
508.372	284.06
508.588	283.06
508.805	287.06
509.021	292.06
509.238	292.06
509.454	282.06
509.67	280.06
509.887	284.06
510.103	284.06
510.319	290.06
510.536	276.06
510.752	281.06
510.968	272.06
511.184	274.06
511.401	271.06
511.617	280.06
511.833	276.06
512.049	253.06
512.265	278.06
512.481	266.06
512.698	264.06
512.914	274.06
513.13	278.06
513.346	282.06
513.562	268.06
513.778	279.06
513.994	281.06
514.21	287.06
514.426	272.06
514.642	290.06
514.858	299.06
515.074	290.06
515.29	297.06
515.506	262.06
515.721	278.06
515.937	287.06
516.153	296.06
516.369	292.06
516.585	294.06
516.801	303.06
517.016	319.06
517.232	329.06
517.448	321.06
517.664	328.06
517.879	344.06
518.095	330.06
518.311	321.06
518.527	343.06
518.742	324.06
518.958	312.06
519.173	289.06
519.389	301.06
519.605	287.06
519.82	306.06
520.036	295.06
520.251	278.06
520.467	265.06
520.682	274.06
520.898	267.06
521.113	270.06
521.329	265.06
521.544	273.06
521.76	264.06
521.975	268.06
522.19	272.06
522.406	250.06
522.621	253.06
522.836	260.06
523.052	247.06
523.267	264.06
523.482	261.06
523.698	261.06
523.913	267.06
524.128	272.06
524.343	271.06
524.559	271.06
524.774	266.06
524.989	266.06
525.204	261.06
525.419	278.06
525.634	252.06
525.849	258.06
526.064	260.06
526.28	269.06
526.495	254.06
526.71	232.06
526.925	244.06
527.14	263.06
527.355	255.06
527.57	258.06
527.785	239.06
527.999	247.06
528.214	250.06
528.429	262.06
528.644	252.06
528.859	266.06
529.074	280.06
529.289	267.06
529.503	264.06
529.718	265.06
529.933	268.06
530.148	284.06
530.363	281.06
530.577	254.06
530.792	245.06
531.007	231.06
531.221	254.06
531.436	274.06
531.651	244.06
531.865	257.06
532.08	259.06
532.295	257.06
532.509	250.06
532.724	269.06
532.938	260.06
533.153	244.06
533.367	262.06
533.582	254.06
533.796	264.06
534.011	246.06
534.225	246.06
534.44	249.06
534.654	248.06
534.868	246.06
535.083	246.06
535.297	250.06
535.511	260.06
535.726	258.06
535.94	265.06
536.154	246.06
536.369	223.06
536.583	229.06
536.797	253.06
537.011	230.06
537.225	230.06
537.44	244.06
537.654	233.06
537.868	254.06
538.082	256.06
538.296	264.06
538.51	244.06
538.724	231.06
538.938	235.06
539.153	250.06
539.367	233.06
539.581	223.06
539.795	244.06
540.009	248.06
540.222	245.06
540.436	246.06
540.65	243.06
540.864	247.06
541.078	247.06
541.292	248.06
541.506	232.06
541.72	246.06
541.934	251.06
542.147	234.06
542.361	244.06
542.575	226.06
542.789	257.06
543.002	242.06
543.216	241.06
543.43	241.06
543.644	232.06
543.857	238.06
544.071	250.06
544.285	244.06
544.498	239.06
544.712	262.06
544.925	266.06
545.139	247.06
545.352	241.06
545.566	248.06
545.779	254.06
545.993	255.06
546.206	246.06
546.42	278.06
546.633	252.06
546.847	266.06
547.06	241.06
547.274	250.06
547.487	245.06
547.7	255.06
547.914	252.06
548.127	258.06
548.34	264.06
548.554	247.06
548.767	247.06
548.98	255.06
549.193	236.06
549.407	258.06
549.62	251.06
549.833	260.06
550.046	248.06
550.259	247.06
550.473	245.06
550.686	227.06
550.899	232.06
551.112	238.06
551.325	237.06
551.538	253.06
551.751	246.06
551.964	232.06
552.177	250.06
552.39	254.06
552.603	243.06
552.816	246.06
553.029	240.06
553.242	242.06
553.455	260.06
553.667	271.06
553.88	255.06
554.093	252.06
554.306	247.06
554.519	252.06
554.732	240.06
554.944	236.06
555.157	231.06
555.37	230.06
555.583	241.06
555.795	236.06
556.008	226.06
556.221	228.06
556.433	230.06
556.646	228.06
556.859	223.06
557.071	246.06
557.284	237.06
557.496	237.06
557.709	233.06
557.921	234.06
558.134	230.06
558.346	225.06
558.559	221.06
558.771	223.06
558.984	226.06
559.196	230.06
559.409	229.06
559.621	226.06
559.833	218.06
560.046	207.06
560.258	240.06
560.47	215.06
560.683	218.06
560.895	218.06
561.107	228.06
561.32	206.06
561.532	213.06
561.744	220.06
561.956	231.06
562.168	212.06
562.381	217.06
562.593	220.06
562.805	224.06
563.017	218.06
563.229	222.06
563.441	222.06
563.653	209.06
563.865	217.06
564.077	212.06
564.289	218.06
564.501	221.06
564.713	222.06
564.925	229.06
565.137	227.06
565.349	224.06
565.561	226.06
565.773	231.06
565.985	250.06
566.197	249.06
566.408	250.06
566.62	268.06
566.832	298.06
567.044	302.06
567.255	271.06
567.467	288.06
567.679	294.06
567.891	326.06
568.102	319.06
568.314	305.06
568.526	290.06
568.737	280.06
568.949	260.06
569.161	257.06
569.372	237.06
569.584	239.06
569.795	227.06
570.007	217.06
570.218	224.06
570.43	212.06
570.641	217.06
570.853	215.06
571.064	214.06
571.276	209.06
571.487	212.06
571.698	212.06
571.91	192.06
572.121	194.06
572.333	196.06
572.544	206.06
572.755	181.06
572.966	189.06
573.178	198.06
573.389	198.06
573.6	192.06
573.811	184.06
574.023	196.06
574.234	192.06
574.445	168.06
574.656	190.06
574.867	198.06
575.078	193.06
575.289	189.06
575.501	173.06
575.712	184.06
575.923	172.06
576.134	164.06
576.345	180.06
576.556	200.06
576.767	183.06
576.978	175.06
577.188	180.06
577.399	165.06
577.61	176.06
577.821	168.06
578.032	201.06
578.243	168.06
578.454	197.06
578.665	162.06
578.875	176.06
579.086	177.06
579.297	176.06
579.508	172.06
579.718	171.06
579.929	169.06
580.14	175.06
580.35	159.06
580.561	173.06
580.772	188.06
580.982	165.06
581.193	156.06
581.403	175.06
581.614	181.06
581.825	172.06
582.035	173.06
582.246	167.06
582.456	190.06
582.667	172.06
582.877	177.06
583.087	165.06
583.298	155.06
583.508	170.06
583.719	184.06
583.929	160.06
584.139	168.06
584.35	160.06
584.56	163.06
584.77	170.06
584.981	171.06
585.191	164.06
585.401	155.06
585.611	156.06
585.821	159.06
586.032	162.06
586.242	176.06
586.452	165.06
586.662	152.06
586.872	160.06
587.082	166.06
587.292	156.06
587.502	166.06
587.713	174.06
587.923	184.06
588.133	165.06
588.343	166.06
588.553	173.06
588.762	168.06
588.972	166.06
589.182	178.06
589.392	193.06
589.602	176.06
589.812	173.06
590.022	184.06
590.232	170.06
590.441	170.06
590.651	154.06
590.861	167.06
591.071	176.06
591.281	157.06
591.49	183.06
591.7	168.06
591.91	174.06
592.119	176.06
592.329	195.06
592.539	164.06
592.748	183.06
592.958	161.06
593.167	187.06
593.377	184.06
593.587	169.06
593.796	190.06
594.006	196.06
594.215	182.06
594.424	184.06
594.634	160.06
594.843	176.06
595.053	176.06
595.262	184.06
595.472	175.06
595.681	166.06
595.89	171.06
596.1	184.06
596.309	160.06
596.518	166.06
596.727	162.06
596.937	162.06
597.146	154.06
597.355	160.06
597.564	152.06
597.774	162.06
597.983	156.06
598.192	145.06
598.401	148.06
598.61	157.06
598.819	157.06
599.028	165.06
599.237	162.06
599.446	156.06
599.655	159.06
599.864	155.06
600.073	148.06
600.282	147.06
600.491	161.06
600.7	150.06
600.909	152.06
601.118	140.06
601.327	144.06
601.536	155.06
601.745	146.06
601.953	165.06
602.162	146.06
602.371	141.06
602.58	151.06
602.789	152.06
602.997	160.06
603.206	143.06
603.415	164.06
603.623	131.06
603.832	150.06
604.041	136.06
604.249	148.06
604.458	142.06
604.666	146.06
604.875	146.06
605.084	142.06
605.292	160.06
605.501	153.06
605.709	142.06
605.918	153.06
606.126	138.06
606.334	152.06
606.543	157.06
606.751	140.06
606.96	133.06
607.168	141.06
607.376	159.06
607.585	150.06
607.793	138.06
608.001	134.06
608.21	137.06
608.418	140.06
608.626	146.06
608.834	143.06
609.043	143.06
609.251	151.06
609.459	158.06
609.667	160.06
609.875	147.06
610.083	141.06
610.291	141.06
610.499	136.06
610.707	142.06
610.916	144.06
611.124	124.06
611.332	130.06
611.54	140.06
611.748	141.06
611.955	145.06
612.163	142.06
612.371	157.06
612.579	164.06
612.787	141.06
612.995	148.06
613.203	143.06
613.411	152.06
613.618	157.06
613.826	151.06
614.034	147.06
614.242	135.06
614.449	140.06
614.657	139.06
614.865	128.06
615.072	131.06
615.28	135.06
615.488	158.06
615.695	143.06
615.903	146.06
616.111	136.06
616.318	145.06
616.526	146.06
616.733	150.06
616.941	147.06
617.148	143.06
617.356	148.06
617.563	133.06
617.771	140.06
617.978	132.06
618.185	131.06
618.393	139.06
618.6	151.06
618.807	135.06
619.015	142.06
619.222	142.06
619.429	137.06
619.637	144.06
619.844	141.06
620.051	128.06
620.258	131.06
620.466	120.06
620.673	129.06
620.88	139.06
621.087	154.06
621.294	124.06
621.501	145.06
621.708	140.06
621.915	122.06
622.122	138.06
622.329	138.06
622.536	128.06
622.743	146.06
622.95	141.06
623.157	129.06
623.364	143.06
623.571	137.06
623.778	129.06
623.985	141.06
624.192	125.06
624.399	131.06
624.606	146.06
624.812	136.06
625.019	140.06
625.226	137.06
625.433	131.06
625.639	131.06
625.846	133.06
626.053	114.06
626.259	120.06
626.466	132.06
626.673	123.06
626.879	135.06
627.086	135.06
627.293	141.06
627.499	126.06
627.706	127.06
627.912	134.06
628.119	118.06
628.325	143.06
628.532	134.06
628.738	130.06
628.945	130.06
629.151	136.06
629.357	129.06
629.564	127.06
629.77	122.06
629.976	137.06
630.183	131.06
630.389	132.06
630.595	127.06
630.802	111.06
631.008	138.06
631.214	123.06
631.42	110.06
631.627	123.06
631.833	137.06
632.039	123.06
632.245	135.06
632.451	112.06
632.657	127.06
632.863	134.06
633.069	122.06
633.275	124.06
633.481	125.06
633.688	126.06
633.893	121.06
634.099	125.06
634.305	132.06
634.511	129.06
634.717	138.06
634.923	127.06
635.129	128.06
635.335	127.06
635.541	132.06
635.747	130.06
635.952	125.06
636.158	118.06
636.364	136.06
636.57	116.06
636.775	110.06
636.981	125.06
637.187	125.06
637.392	123.06
637.598	114.06
637.804	119.06
638.009	125.06
638.215	125.06
638.421	130.06
638.626	125.06
638.832	117.06
639.037	119.06
639.243	118.06
639.448	121.06
639.654	122.06
639.859	120.06
640.065	119.06
640.27	130.06
640.475	124.06
640.681	125.06
640.886	115.06
641.091	104.06
641.297	116.06
641.502	123.06
641.707	117.06
641.913	129.06
642.118	109.06
642.323	90.06
642.528	120.06
642.733	109.06
642.939	123.06
643.144	118.06
643.349	120.06
643.554	118.06
643.759	119.06
643.964	122.06
644.169	123.06
644.374	109.06
644.579	126.06
644.784	109.06
644.989	125.06
645.194	105.06
645.399	113.06
645.604	141.06
645.809	120.06
646.014	119.06
646.219	111.06
646.423	110.06
646.628	120.06
646.833	117.06
647.038	112.06
647.243	114.06
647.447	111.06
647.652	123.06
647.857	122.06
648.062	105.06
648.266	122.06
648.471	127.06
648.676	125.06
648.88	118.06
649.085	134.06
649.289	124.06
649.494	112.06
649.698	96.06
649.903	120.06
650.107	117.06
650.312	129.06
650.516	107.06
650.721	128.06
650.925	112.06
651.13	116.06
651.334	98.06
651.539	107.06
651.743	109.06
651.947	105.06
652.152	111.06
652.356	100.06
652.56	116.06
652.764	111.06
652.969	103.06
653.173	112.06
653.377	104.06
653.581	104.06
653.785	112.06
653.99	111.06
654.194	120.06
654.398	111.06
654.602	101.06
654.806	103.06
655.01	117.06
655.214	98.06
655.418	108.06
655.622	119.06
655.826	107.06
656.03	105.06
656.234	97.06
656.438	109.06
656.642	107.06
656.846	107.06
657.049	100.06
657.253	109.06
657.457	103.06
657.661	116.06
657.865	97.06
658.068	104.06
658.272	107.06
658.476	93.06
658.68	99.06
658.883	88.06
659.087	98.06
659.291	97.06
659.494	92.06
659.698	89.06
659.901	97.06
660.105	84.06
660.309	87.06
660.512	100.06
660.716	97.06
660.919	90.06
661.123	107.06
661.326	108.06
661.53	100.06
661.733	96.06
661.936	103.06
662.14	93.06
662.343	109.06
662.546	72.06
662.75	83.06
662.953	81.06
663.156	97.06
663.36	84.06
663.563	98.06
663.766	80.06
663.969	72.06
664.173	84.06
664.376	89.06
664.579	86.06
664.782	79.06
664.985	84.06
665.188	88.06
665.391	96.06
665.594	86.06
665.797	77.06
666	89.06
666.203	84.06
666.406	96.06
666.609	85.06
666.812	83.06
667.015	95.06
667.218	94.06
667.421	82.06
667.624	85.06
667.827	106.06
668.03	81.06
668.232	67.06
668.435	96.06
668.638	94.06
668.841	89.06
669.043	89.06
669.246	108.06
669.449	76.06
669.651	88.06
669.854	94.06
670.057	96.06
670.259	82.06
670.462	79.06
670.665	88.06
670.867	84.06
671.07	74.06
671.272	94.06
671.475	84.06
671.677	88.06
671.88	89.06
672.082	86.06
672.284	94.06
672.487	93.06
672.689	109.06
672.892	71.06
