Data from Fe(NO3)3@0.0125M.TitratingCurve.Agarose3%dH2O.NegLispCup.LampEnergy10.LIBS07252019_HRD10591_16-59-50-340.txt Node
Date: Thu Jul 25 16:59:50 EDT 2019
User: cochatt
Spectrometer: HR+D1059
Trigger mode: 1
Integration Time (sec): 1.000000E-1
Scans to average: 1
Electric dark correction enabled: true
Nonlinearity correction enabled: false
Boxcar width: 0
XAxis mode: Wavelengths
Number of Pixels in Spectrum: 2048
>>>>>Begin Spectral Data<<<<<
223.165	-13.31
223.4	-13.31
223.635	-13.31
223.869	-14.31
224.104	-23.31
224.338	-14.31
224.573	-16.31
224.808	-31.31
225.042	-9.31
225.277	11.69
225.511	-0.31
225.746	9.69
225.98	6.69
226.215	7.69
226.449	18.69
226.683	22.69
226.918	22.69
227.152	22.69
227.387	34.69
227.621	48.69
227.856	45.69
228.09	45.69
228.324	52.69
228.559	69.69
228.793	58.69
229.027	82.69
229.262	71.69
229.496	84.69
229.73	79.69
229.964	85.69
230.199	70.69
230.433	87.69
230.667	93.69
230.901	75.69
231.136	81.69
231.37	80.69
231.604	91.69
231.838	71.69
232.072	92.69
232.306	90.69
232.541	93.69
232.775	93.69
233.009	106.69
233.243	99.69
233.477	85.69
233.711	87.69
233.945	93.69
234.179	81.69
234.413	102.69
234.647	98.69
234.881	96.69
235.115	89.69
235.349	97.69
235.583	100.69
235.817	89.69
236.051	78.69
236.285	97.69
236.519	94.69
236.753	103.69
236.987	98.69
237.221	98.69
237.455	94.69
237.689	102.69
237.922	93.69
238.156	84.69
238.39	97.69
238.624	95.69
238.858	97.69
239.091	90.69
239.325	109.69
239.559	96.69
239.793	89.69
240.027	95.69
240.26	95.69
240.494	82.69
240.728	103.69
240.961	110.69
241.195	97.69
241.429	92.69
241.662	92.69
241.896	81.69
242.13	89.69
242.363	102.69
242.597	102.69
242.83	98.69
243.064	103.69
243.298	102.69
243.531	97.69
243.765	98.69
243.998	117.69
244.232	102.69
244.465	109.69
244.699	113.69
244.932	101.69
245.166	104.69
245.399	99.69
245.633	85.69
245.866	97.69
246.099	113.69
246.333	117.69
246.566	106.69
246.8	116.69
247.033	102.69
247.266	99.69
247.5	114.69
247.733	103.69
247.966	100.69
248.2	105.69
248.433	111.69
248.666	119.69
248.899	113.69
249.133	105.69
249.366	99.69
249.599	118.69
249.832	103.69
250.066	126.69
250.299	102.69
250.532	113.69
250.765	101.69
250.998	114.69
251.231	114.69
251.465	126.69
251.698	122.69
251.931	110.69
252.164	124.69
252.397	95.69
252.63	110.69
252.863	127.69
253.096	103.69
253.329	106.69
253.562	113.69
253.795	125.69
254.028	131.69
254.261	133.69
254.494	119.69
254.727	113.69
254.96	107.69
255.193	118.69
255.426	133.69
255.659	131.69
255.892	118.69
256.124	121.69
256.357	119.69
256.59	111.69
256.823	127.69
257.056	117.69
257.289	114.69
257.521	113.69
257.754	123.69
257.987	123.69
258.22	121.69
258.452	130.69
258.685	125.69
258.918	127.69
259.151	134.69
259.383	121.69
259.616	131.69
259.849	138.69
260.081	141.69
260.314	135.69
260.547	121.69
260.779	118.69
261.012	126.69
261.244	130.69
261.477	139.69
261.71	136.69
261.942	128.69
262.175	127.69
262.407	126.69
262.64	122.69
262.872	145.69
263.105	147.69
263.337	138.69
263.57	151.69
263.802	145.69
264.035	129.69
264.267	136.69
264.499	132.69
264.732	121.69
264.964	144.69
265.197	130.69
265.429	139.69
265.661	132.69
265.894	139.69
266.126	126.69
266.358	137.69
266.591	133.69
266.823	146.69
267.055	129.69
267.287	125.69
267.52	145.69
267.752	135.69
267.984	129.69
268.216	138.69
268.448	121.69
268.681	135.69
268.913	139.69
269.145	136.69
269.377	126.69
269.609	141.69
269.841	133.69
270.073	134.69
270.306	149.69
270.538	143.69
270.77	142.69
271.002	150.69
271.234	150.69
271.466	152.69
271.698	158.69
271.93	146.69
272.162	155.69
272.394	151.69
272.626	152.69
272.858	141.69
273.09	155.69
273.322	165.69
273.553	154.69
273.785	155.69
274.017	166.69
274.249	152.69
274.481	175.69
274.713	167.69
274.945	179.69
275.176	180.69
275.408	154.69
275.64	167.69
275.872	171.69
276.104	178.69
276.335	169.69
276.567	165.69
276.799	175.69
277.031	166.69
277.262	167.69
277.494	168.69
277.726	163.69
277.957	174.69
278.189	168.69
278.421	166.69
278.652	163.69
278.884	189.69
279.115	167.69
279.347	176.69
279.579	177.69
279.81	165.69
280.042	162.69
280.273	177.69
280.505	170.69
280.736	164.69
280.968	182.69
281.199	177.69
281.431	181.69
281.662	176.69
281.894	181.69
282.125	175.69
282.356	191.69
282.588	178.69
282.819	181.69
283.051	192.69
283.282	162.69
283.513	191.69
283.745	188.69
283.976	179.69
284.207	181.69
284.439	206.69
284.67	187.69
284.901	185.69
285.132	187.69
285.364	179.69
285.595	190.69
285.826	183.69
286.057	185.69
286.288	180.69
286.52	194.69
286.751	195.69
286.982	197.69
287.213	206.69
287.444	214.69
287.675	199.69
287.906	213.69
288.138	193.69
288.369	208.69
288.6	218.69
288.831	210.69
289.062	210.69
289.293	218.69
289.524	203.69
289.755	215.69
289.986	203.69
290.217	230.69
290.448	213.69
290.679	230.69
290.91	205.69
291.141	217.69
291.371	199.69
291.602	212.69
291.833	209.69
292.064	217.69
292.295	221.69
292.526	226.69
292.757	222.69
292.987	201.69
293.218	211.69
293.449	205.69
293.68	200.69
293.91	208.69
294.141	209.69
294.372	224.69
294.603	215.69
294.833	223.69
295.064	217.69
295.295	221.69
295.525	221.69
295.756	217.69
295.987	221.69
296.217	224.69
296.448	230.69
296.679	237.69
296.909	228.69
297.14	240.69
297.37	216.69
297.601	249.69
297.831	247.69
298.062	230.69
298.292	237.69
298.523	247.69
298.753	246.69
298.984	238.69
299.214	242.69
299.445	228.69
299.675	251.69
299.905	244.69
300.136	235.69
300.366	234.69
300.597	240.69
300.827	257.69
301.057	254.69
301.288	244.69
301.518	264.69
301.748	241.69
301.979	239.69
302.209	258.69
302.439	265.69
302.669	245.69
302.9	239.69
303.13	256.69
303.36	241.69
303.59	267.69
303.82	275.69
304.051	249.69
304.281	283.69
304.511	255.69
304.741	277.69
304.971	249.69
305.201	273.69
305.431	262.69
305.661	265.69
305.891	283.69
306.121	275.69
306.352	260.69
306.582	251.69
306.812	266.69
307.042	279.69
307.272	265.69
307.502	263.69
307.731	288.69
307.961	289.69
308.191	289.69
308.421	277.69
308.651	283.69
308.881	267.69
309.111	267.69
309.341	280.69
309.571	277.69
309.8	272.69
310.03	275.69
310.26	258.69
310.49	263.69
310.72	288.69
310.949	297.69
311.179	268.69
311.409	298.69
311.639	301.69
311.868	287.69
312.098	295.69
312.328	287.69
312.557	289.69
312.787	286.69
313.017	302.69
313.246	301.69
313.476	292.69
313.706	287.69
313.935	282.69
314.165	297.69
314.394	307.69
314.624	309.69
314.853	311.69
315.083	298.69
315.312	312.69
315.542	306.69
315.771	303.69
316.001	305.69
316.23	306.69
316.46	309.69
316.689	317.69
316.919	290.69
317.148	303.69
317.377	313.69
317.607	328.69
317.836	330.69
318.065	310.69
318.295	309.69
318.524	309.69
318.753	314.69
318.983	325.69
319.212	323.69
319.441	336.69
319.67	317.69
319.9	329.69
320.129	309.69
320.358	321.69
320.587	341.69
320.816	309.69
321.046	320.69
321.275	316.69
321.504	328.69
321.733	319.69
321.962	329.69
322.191	327.69
322.42	317.69
322.649	330.69
322.878	331.69
323.108	337.69
323.337	337.69
323.566	331.69
323.795	329.69
324.024	339.69
324.253	331.69
324.482	343.69
324.71	325.69
324.939	323.69
325.168	344.69
325.397	333.69
325.626	353.69
325.855	342.69
326.084	358.69
326.313	359.69
326.542	361.69
326.77	341.69
326.999	339.69
327.228	335.69
327.457	362.69
327.686	343.69
327.914	344.69
328.143	352.69
328.372	344.69
328.6	352.69
328.829	365.69
329.058	357.69
329.287	340.69
329.515	358.69
329.744	358.69
329.972	342.69
330.201	349.69
330.43	376.69
330.658	373.69
330.887	373.69
331.115	372.69
331.344	374.69
331.572	355.69
331.801	356.69
332.03	377.69
332.258	330.69
332.486	357.69
332.715	356.69
332.943	383.69
333.172	356.69
333.4	365.69
333.629	372.69
333.857	366.69
334.085	385.69
334.314	372.69
334.542	377.69
334.771	382.69
334.999	378.69
335.227	376.69
335.455	381.69
335.684	371.69
335.912	402.69
336.14	364.69
336.369	385.69
336.597	388.69
336.825	389.69
337.053	385.69
337.281	391.69
337.51	377.69
337.738	379.69
337.966	390.69
338.194	374.69
338.422	380.69
338.65	367.69
338.878	381.69
339.106	383.69
339.334	389.69
339.562	402.69
339.79	395.69
340.018	378.69
340.246	389.69
340.474	377.69
340.702	393.69
340.93	385.69
341.158	382.69
341.386	378.69
341.614	390.69
341.842	372.69
342.07	386.69
342.298	385.69
342.526	364.69
342.754	375.69
342.981	354.69
343.209	389.69
343.437	390.69
343.665	394.69
343.893	389.69
344.12	403.69
344.348	395.69
344.576	427.69
344.804	405.69
345.031	384.69
345.259	397.69
345.487	387.69
345.714	395.69
345.942	389.69
346.17	374.69
346.397	367.69
346.625	380.69
346.853	375.69
347.08	387.69
347.308	381.69
347.535	393.69
347.763	385.69
347.99	400.69
348.218	401.69
348.445	354.69
348.673	365.69
348.9	385.69
349.128	382.69
349.355	383.69
349.583	382.69
349.81	393.69
350.037	373.69
350.265	370.69
350.492	378.69
350.72	380.69
350.947	390.69
351.174	379.69
351.402	388.69
351.629	410.69
351.856	383.69
352.083	379.69
352.311	376.69
352.538	378.69
352.765	390.69
352.992	378.69
353.22	399.69
353.447	368.69
353.674	403.69
353.901	382.69
354.128	397.69
354.355	384.69
354.583	388.69
354.81	399.69
355.037	389.69
355.264	383.69
355.491	391.69
355.718	397.69
355.945	400.69
356.172	390.69
356.399	396.69
356.626	399.69
356.853	395.69
357.08	407.69
357.307	378.69
357.534	383.69
357.761	390.69
357.988	392.69
358.215	381.69
358.441	391.69
358.668	385.69
358.895	409.69
359.122	378.69
359.349	379.69
359.576	395.69
359.802	381.69
360.029	404.69
360.256	393.69
360.483	403.69
360.709	409.69
360.936	405.69
361.163	404.69
361.39	393.69
361.616	381.69
361.843	383.69
362.07	405.69
362.296	396.69
362.523	400.69
362.749	394.69
362.976	426.69
363.203	421.69
363.429	400.69
363.656	396.69
363.882	406.69
364.109	400.69
364.335	406.69
364.562	411.69
364.788	410.69
365.015	386.69
365.241	407.69
365.468	429.69
365.694	425.69
365.92	406.69
366.147	418.69
366.373	409.69
366.599	408.69
366.826	396.69
367.052	410.69
367.278	406.69
367.505	411.69
367.731	412.69
367.957	405.69
368.184	436.69
368.41	433.69
368.636	411.69
368.862	425.69
369.089	429.69
369.315	427.69
369.541	429.69
369.767	422.69
369.993	400.69
370.219	414.69
370.445	445.69
370.672	410.69
370.898	409.69
371.124	425.69
371.35	437.69
371.576	419.69
371.802	424.69
372.028	423.69
372.254	452.69
372.48	425.69
372.706	426.69
372.932	439.69
373.158	423.69
373.384	413.69
373.61	447.69
373.835	439.69
374.061	438.69
374.287	444.69
374.513	427.69
374.739	456.69
374.965	431.69
375.191	464.69
375.416	427.69
375.642	447.69
375.868	441.69
376.094	454.69
376.319	453.69
376.545	417.69
376.771	425.69
376.997	449.69
377.222	436.69
377.448	435.69
377.674	418.69
377.899	445.69
378.125	435.69
378.35	430.69
378.576	439.69
378.802	427.69
379.027	431.69
379.253	443.69
379.478	434.69
379.704	425.69
379.929	447.69
380.155	449.69
380.38	431.69
380.606	444.69
380.831	433.69
381.057	459.69
381.282	430.69
381.507	421.69
381.733	463.69
381.958	441.69
382.184	444.69
382.409	447.69
382.634	433.69
382.86	447.69
383.085	449.69
383.31	434.69
383.535	456.69
383.761	438.69
383.986	455.69
384.211	440.69
384.436	452.69
384.662	453.69
384.887	480.69
385.112	472.69
385.337	467.69
385.562	463.69
385.787	472.69
386.013	481.69
386.238	478.69
386.463	490.69
386.688	473.69
386.913	456.69
387.138	489.69
387.363	490.69
387.588	464.69
387.813	466.69
388.038	464.69
388.263	467.69
388.488	474.69
388.713	470.69
388.938	478.69
389.163	498.69
389.387	477.69
389.612	479.69
389.837	496.69
390.062	493.69
390.287	475.69
390.512	467.69
390.736	485.69
390.961	488.69
391.186	480.69
391.411	497.69
391.636	471.69
391.86	481.69
392.085	480.69
392.31	484.69
392.534	495.69
392.759	495.69
392.984	489.69
393.208	484.69
393.433	495.69
393.658	507.69
393.882	486.69
394.107	477.69
394.331	506.69
394.556	487.69
394.78	509.69
395.005	475.69
395.229	477.69
395.454	509.69
395.678	520.69
395.903	512.69
396.127	481.69
396.352	515.69
396.576	505.69
396.801	470.69
397.025	484.69
397.249	507.69
397.474	501.69
397.698	514.69
397.922	515.69
398.147	530.69
398.371	493.69
398.595	503.69
398.82	518.69
399.044	528.69
399.268	516.69
399.492	557.69
399.717	559.69
399.941	539.69
400.165	545.69
400.389	565.69
400.613	525.69
400.837	535.69
401.062	522.69
401.286	534.69
401.51	539.69
401.734	558.69
401.958	525.69
402.182	553.69
402.406	546.69
402.63	533.69
402.854	521.69
403.078	528.69
403.302	549.69
403.526	522.69
403.75	526.69
403.974	557.69
404.198	535.69
404.422	549.69
404.645	552.69
404.869	569.69
405.093	531.69
405.317	543.69
405.541	545.69
405.765	547.69
405.988	562.69
406.212	566.69
406.436	555.69
406.66	558.69
406.883	565.69
407.107	566.69
407.331	589.69
407.555	582.69
407.778	574.69
408.002	594.69
408.226	577.69
408.449	580.69
408.673	561.69
408.896	559.69
409.12	557.69
409.344	563.69
409.567	579.69
409.791	569.69
410.014	535.69
410.238	547.69
410.461	564.69
410.685	541.69
410.908	573.69
411.132	548.69
411.355	550.69
411.578	538.69
411.802	537.69
412.025	546.69
412.249	562.69
412.472	542.69
412.695	517.69
412.919	537.69
413.142	535.69
413.365	538.69
413.589	565.69
413.812	537.69
414.035	549.69
414.258	507.69
414.482	552.69
414.705	561.69
414.928	559.69
415.151	524.69
415.374	531.69
415.597	523.69
415.821	517.69
416.044	533.69
416.267	514.69
416.49	541.69
416.713	546.69
416.936	519.69
417.159	549.69
417.382	518.69
417.605	517.69
417.828	523.69
418.051	518.69
418.274	535.69
418.497	525.69
418.72	518.69
418.943	511.69
419.166	543.69
419.389	570.69
419.611	554.69
419.834	547.69
420.057	541.69
420.28	534.69
420.503	493.69
420.726	519.69
420.948	510.69
421.171	502.69
421.394	537.69
421.617	528.69
421.839	506.69
422.062	511.69
422.285	496.69
422.507	511.69
422.73	511.69
422.953	514.69
423.175	501.69
423.398	509.69
423.621	522.69
423.843	521.69
424.066	523.69
424.288	509.69
424.511	497.69
424.733	509.69
424.956	524.69
425.178	519.69
425.401	536.69
425.623	537.69
425.846	517.69
426.068	512.69
426.291	507.69
426.513	513.69
426.735	521.69
426.958	523.69
427.18	521.69
427.402	522.69
427.625	526.69
427.847	509.69
428.069	495.69
428.292	531.69
428.514	504.69
428.736	510.69
428.958	519.69
429.181	505.69
429.403	522.69
429.625	495.69
429.847	509.69
430.069	519.69
430.292	523.69
430.514	529.69
430.736	511.69
430.958	545.69
431.18	525.69
431.402	516.69
431.624	501.69
431.846	506.69
432.068	498.69
432.29	516.69
432.512	520.69
432.734	530.69
432.956	496.69
433.178	523.69
433.4	523.69
433.622	523.69
433.844	514.69
434.066	524.69
434.287	517.69
434.509	503.69
434.731	543.69
434.953	499.69
435.175	513.69
435.397	532.69
435.618	506.69
435.84	525.69
436.062	515.69
436.284	509.69
436.505	515.69
436.727	528.69
436.949	515.69
437.17	500.69
437.392	515.69
437.614	514.69
437.835	483.69
438.057	522.69
438.278	513.69
438.5	517.69
438.721	505.69
438.943	545.69
439.165	505.69
439.386	515.69
439.608	510.69
439.829	527.69
440.05	497.69
440.272	499.69
440.493	535.69
440.715	531.69
440.936	518.69
441.158	515.69
441.379	522.69
441.6	522.69
441.822	488.69
442.043	528.69
442.264	518.69
442.486	502.69
442.707	506.69
442.928	540.69
443.149	514.69
443.371	510.69
443.592	496.69
443.813	519.69
444.034	539.69
444.255	523.69
444.476	529.69
444.698	519.69
444.919	541.69
445.14	607.69
445.361	561.69
445.582	517.69
445.803	519.69
446.024	517.69
446.245	523.69
446.466	510.69
446.687	512.69
446.908	533.69
447.129	511.69
447.35	501.69
447.571	505.69
447.792	495.69
448.013	494.69
448.234	509.69
448.455	484.69
448.675	496.69
448.896	501.69
449.117	499.69
449.338	520.69
449.559	498.69
449.779	496.69
450	493.69
450.221	483.69
450.442	489.69
450.662	476.69
450.883	498.69
451.104	484.69
451.324	493.69
451.545	487.69
451.766	481.69
451.986	497.69
452.207	486.69
452.428	494.69
452.648	493.69
452.869	472.69
453.089	480.69
453.31	498.69
453.53	490.69
453.751	471.69
453.971	476.69
454.192	485.69
454.412	489.69
454.633	481.69
454.853	494.69
455.073	477.69
455.294	481.69
455.514	483.69
455.734	496.69
455.955	477.69
456.175	477.69
456.395	480.69
456.616	467.69
456.836	480.69
457.056	468.69
457.276	473.69
457.497	473.69
457.717	475.69
457.937	469.69
458.157	508.69
458.377	470.69
458.598	484.69
458.818	473.69
459.038	518.69
459.258	495.69
459.478	489.69
459.698	499.69
459.918	516.69
460.138	507.69
460.358	523.69
460.578	503.69
460.798	536.69
461.018	507.69
461.238	543.69
461.458	542.69
461.678	524.69
461.898	545.69
462.118	548.69
462.338	531.69
462.558	550.69
462.777	546.69
462.997	557.69
463.217	539.69
463.437	555.69
463.657	569.69
463.876	560.69
464.096	560.69
464.316	550.69
464.536	539.69
464.755	529.69
464.975	557.69
465.195	553.69
465.414	553.69
465.634	541.69
465.854	533.69
466.073	532.69
466.293	516.69
466.512	529.69
466.732	517.69
466.951	523.69
467.171	530.69
467.391	529.69
467.61	504.69
467.829	518.69
468.049	526.69
468.268	514.69
468.488	534.69
468.707	524.69
468.927	527.69
469.146	521.69
469.365	522.69
469.585	544.69
469.804	545.69
470.023	534.69
470.243	526.69
470.462	536.69
470.681	546.69
470.901	497.69
471.12	554.69
471.339	553.69
471.558	513.69
471.777	556.69
471.997	541.69
472.216	550.69
472.435	532.69
472.654	536.69
472.873	536.69
473.092	557.69
473.311	551.69
473.53	554.69
473.749	573.69
473.968	557.69
474.187	535.69
474.406	533.69
474.625	562.69
474.844	570.69
475.063	558.69
475.282	573.69
475.501	574.69
475.72	571.69
475.939	561.69
476.158	578.69
476.377	567.69
476.596	586.69
476.814	579.69
477.033	572.69
477.252	607.69
477.471	579.69
477.69	615.69
477.908	599.69
478.127	588.69
478.346	602.69
478.564	611.69
478.783	609.69
479.002	610.69
479.22	624.69
479.439	643.69
479.658	639.69
479.876	629.69
480.095	633.69
480.313	624.69
480.532	618.69
480.751	647.69
480.969	645.69
481.188	650.69
481.406	647.69
481.624	654.69
481.843	641.69
482.061	643.69
482.28	614.69
482.498	649.69
482.717	627.69
482.935	657.69
483.153	655.69
483.372	646.69
483.59	655.69
483.808	643.69
484.027	659.69
484.245	666.69
484.463	645.69
484.681	670.69
484.9	690.69
485.118	660.69
485.336	666.69
485.554	647.69
485.772	659.69
485.99	671.69
486.209	665.69
486.427	659.69
486.645	689.69
486.863	683.69
487.081	693.69
487.299	675.69
487.517	666.69
487.735	662.69
487.953	657.69
488.171	698.69
488.389	695.69
488.607	702.69
488.825	676.69
489.043	679.69
489.261	705.69
489.479	689.69
489.696	677.69
489.914	690.69
490.132	697.69
490.35	689.69
490.568	690.69
490.786	705.69
491.003	694.69
491.221	685.69
491.439	686.69
491.657	684.69
491.874	702.69
492.092	703.69
492.31	694.69
492.527	721.69
492.745	729.69
492.963	705.69
493.18	707.69
493.398	741.69
493.615	711.69
493.833	712.69
494.05	738.69
494.268	711.69
494.485	729.69
494.703	727.69
494.92	699.69
495.138	712.69
495.355	737.69
495.573	721.69
495.79	701.69
496.008	727.69
496.225	732.69
496.442	737.69
496.66	739.69
496.877	729.69
497.094	725.69
497.312	727.69
497.529	753.69
497.746	755.69
497.963	741.69
498.181	783.69
498.398	773.69
498.615	776.69
498.832	790.69
499.049	806.69
499.267	818.69
499.484	796.69
499.701	827.69
499.918	861.69
500.135	870.69
500.352	907.69
500.569	870.69
500.786	863.69
501.003	875.69
501.22	864.69
501.437	869.69
501.654	805.69
501.871	854.69
502.088	807.69
502.305	794.69
502.522	787.69
502.739	792.69
502.956	783.69
503.172	746.69
503.389	753.69
503.606	773.69
503.823	764.69
504.04	736.69
504.256	744.69
504.473	750.69
504.69	714.69
504.907	720.69
505.123	708.69
505.34	735.69
505.557	699.69
505.773	695.69
505.99	717.69
506.207	687.69
506.423	698.69
506.64	685.69
506.856	694.69
507.073	675.69
507.289	674.69
507.506	648.69
507.722	669.69
507.939	663.69
508.155	659.69
508.372	665.69
508.588	642.69
508.805	637.69
509.021	652.69
509.238	640.69
509.454	652.69
509.67	635.69
509.887	619.69
510.103	645.69
510.319	637.69
510.536	635.69
510.752	618.69
510.968	642.69
511.184	633.69
511.401	630.69
511.617	616.69
511.833	641.69
512.049	621.69
512.265	654.69
512.481	619.69
512.698	621.69
512.914	628.69
513.13	648.69
513.346	625.69
513.562	635.69
513.778	614.69
513.994	611.69
514.21	630.69
514.426	616.69
514.642	612.69
514.858	630.69
515.074	635.69
515.29	630.69
515.506	641.69
515.721	634.69
515.937	622.69
516.153	628.69
516.369	648.69
516.585	626.69
516.801	612.69
517.016	639.69
517.232	637.69
517.448	650.69
517.664	639.69
517.879	640.69
518.095	630.69
518.311	630.69
518.527	634.69
518.742	637.69
518.958	613.69
519.173	617.69
519.389	633.69
519.605	632.69
519.82	641.69
520.036	615.69
520.251	600.69
520.467	613.69
520.682	610.69
520.898	601.69
521.113	614.69
521.329	617.69
521.544	601.69
521.76	623.69
521.975	611.69
522.19	603.69
522.406	603.69
522.621	605.69
522.836	601.69
523.052	618.69
523.267	591.69
523.482	604.69
523.698	605.69
523.913	581.69
524.128	605.69
524.343	583.69
524.559	591.69
524.774	608.69
524.989	621.69
525.204	575.69
525.419	589.69
525.634	593.69
525.849	599.69
526.064	616.69
526.28	598.69
526.495	602.69
526.71	578.69
526.925	610.69
527.14	581.69
527.355	589.69
527.57	578.69
527.785	584.69
527.999	582.69
528.214	576.69
528.429	594.69
528.644	588.69
528.859	599.69
529.074	579.69
529.289	576.69
529.503	593.69
529.718	591.69
529.933	594.69
530.148	578.69
530.363	591.69
530.577	572.69
530.792	557.69
531.007	563.69
531.221	544.69
531.436	583.69
531.651	570.69
531.865	580.69
532.08	569.69
532.295	579.69
532.509	563.69
532.724	559.69
532.938	559.69
533.153	583.69
533.367	571.69
533.582	590.69
533.796	559.69
534.011	550.69
534.225	554.69
534.44	549.69
534.654	558.69
534.868	539.69
535.083	557.69
535.297	557.69
535.511	576.69
535.726	588.69
535.94	571.69
536.154	543.69
536.369	552.69
536.583	546.69
536.797	561.69
537.011	554.69
537.225	543.69
537.44	541.69
537.654	545.69
537.868	558.69
538.082	533.69
538.296	516.69
538.51	543.69
538.724	529.69
538.938	533.69
539.153	534.69
539.367	555.69
539.581	563.69
539.795	531.69
540.009	536.69
540.222	543.69
540.436	528.69
540.65	534.69
540.864	561.69
541.078	539.69
541.292	545.69
541.506	559.69
541.72	556.69
541.934	532.69
542.147	548.69
542.361	520.69
542.575	549.69
542.789	532.69
543.002	545.69
543.216	546.69
543.43	531.69
543.644	520.69
543.857	531.69
544.071	544.69
544.285	517.69
544.498	551.69
544.712	530.69
544.925	558.69
545.139	559.69
545.352	550.69
545.566	551.69
545.779	530.69
545.993	541.69
546.206	526.69
546.42	527.69
546.633	536.69
546.847	531.69
547.06	538.69
547.274	531.69
547.487	524.69
547.7	524.69
547.914	544.69
548.127	524.69
548.34	529.69
548.554	527.69
548.767	522.69
548.98	537.69
549.193	549.69
549.407	526.69
549.62	529.69
549.833	525.69
550.046	527.69
550.259	519.69
550.473	530.69
550.686	523.69
550.899	509.69
551.112	531.69
551.325	539.69
551.538	512.69
551.751	509.69
551.964	497.69
552.177	503.69
552.39	527.69
552.603	525.69
552.816	522.69
553.029	491.69
553.242	517.69
553.455	511.69
553.667	515.69
553.88	523.69
554.093	513.69
554.306	506.69
554.519	500.69
554.732	496.69
554.944	502.69
555.157	496.69
555.37	515.69
555.583	494.69
555.795	503.69
556.008	488.69
556.221	480.69
556.433	494.69
556.646	472.69
556.859	502.69
557.071	478.69
557.284	495.69
557.496	471.69
557.709	481.69
557.921	457.69
558.134	467.69
558.346	486.69
558.559	482.69
558.771	490.69
558.984	482.69
559.196	473.69
559.409	490.69
559.621	493.69
559.833	461.69
560.046	455.69
560.258	451.69
560.47	445.69
560.683	464.69
560.895	461.69
561.107	452.69
561.32	472.69
561.532	447.69
561.744	477.69
561.956	470.69
562.168	432.69
562.381	453.69
562.593	460.69
562.805	473.69
563.017	455.69
563.229	442.69
563.441	468.69
563.653	480.69
563.865	451.69
564.077	454.69
564.289	466.69
564.501	485.69
564.713	484.69
564.925	454.69
565.137	446.69
565.349	481.69
565.561	456.69
565.773	478.69
565.985	485.69
566.197	460.69
566.408	473.69
566.62	488.69
566.832	465.69
567.044	485.69
567.255	462.69
567.467	486.69
567.679	480.69
567.891	468.69
568.102	456.69
568.314	468.69
568.526	453.69
568.737	453.69
568.949	453.69
569.161	461.69
569.372	433.69
569.584	424.69
569.795	423.69
570.007	441.69
570.218	417.69
570.43	445.69
570.641	433.69
570.853	410.69
571.064	423.69
571.276	412.69
571.487	441.69
571.698	401.69
571.91	416.69
572.121	399.69
572.333	420.69
572.544	395.69
572.755	394.69
572.966	400.69
573.178	395.69
573.389	395.69
573.6	419.69
573.811	420.69
574.023	382.69
574.234	387.69
574.445	390.69
574.656	383.69
574.867	390.69
575.078	391.69
575.289	386.69
575.501	384.69
575.712	374.69
575.923	378.69
576.134	385.69
576.345	380.69
576.556	374.69
576.767	372.69
576.978	367.69
577.188	379.69
577.399	372.69
577.61	372.69
577.821	378.69
578.032	365.69
578.243	362.69
578.454	379.69
578.665	374.69
578.875	374.69
579.086	357.69
579.297	372.69
579.508	367.69
579.718	374.69
579.929	339.69
580.14	355.69
580.35	351.69
580.561	368.69
580.772	366.69
580.982	351.69
581.193	355.69
581.403	366.69
581.614	357.69
581.825	351.69
582.035	336.69
582.246	330.69
582.456	374.69
582.667	356.69
582.877	354.69
583.087	346.69
583.298	350.69
583.508	342.69
583.719	357.69
583.929	367.69
584.139	339.69
584.35	321.69
584.56	339.69
584.77	307.69
584.981	346.69
585.191	336.69
585.401	337.69
585.611	332.69
585.821	341.69
586.032	359.69
586.242	332.69
586.452	338.69
586.662	338.69
586.872	336.69
587.082	312.69
587.292	337.69
587.502	311.69
587.713	333.69
587.923	328.69
588.133	330.69
588.343	335.69
588.553	322.69
588.762	319.69
588.972	340.69
589.182	335.69
589.392	368.69
589.602	339.69
589.812	344.69
590.022	330.69
590.232	321.69
590.441	322.69
590.651	341.69
590.861	332.69
591.071	322.69
591.281	321.69
591.49	319.69
591.7	342.69
591.91	313.69
592.119	312.69
592.329	327.69
592.539	306.69
592.748	319.69
592.958	326.69
593.167	335.69
593.377	328.69
593.587	315.69
593.796	327.69
594.006	313.69
594.215	303.69
594.424	320.69
594.634	307.69
594.843	308.69
595.053	317.69
595.262	320.69
595.472	318.69
595.681	298.69
595.89	289.69
596.1	304.69
596.309	311.69
596.518	314.69
596.727	289.69
596.937	303.69
597.146	301.69
597.355	302.69
597.564	287.69
597.774	298.69
597.983	293.69
598.192	300.69
598.401	287.69
598.61	309.69
598.819	297.69
599.028	296.69
599.237	284.69
599.446	285.69
599.655	289.69
599.864	278.69
600.073	274.69
600.282	288.69
600.491	306.69
600.7	281.69
600.909	285.69
601.118	289.69
601.327	270.69
601.536	273.69
601.745	280.69
601.953	297.69
602.162	275.69
602.371	263.69
602.58	268.69
602.789	271.69
602.997	276.69
603.206	273.69
603.415	286.69
603.623	259.69
603.832	272.69
604.041	262.69
604.249	262.69
604.458	281.69
604.666	283.69
604.875	259.69
605.084	266.69
605.292	275.69
605.501	258.69
605.709	270.69
605.918	270.69
606.126	281.69
606.334	247.69
606.543	281.69
606.751	267.69
606.96	290.69
607.168	265.69
607.376	259.69
607.585	267.69
607.793	265.69
608.001	271.69
608.21	272.69
608.418	266.69
608.626	271.69
608.834	252.69
609.043	270.69
609.251	281.69
609.459	266.69
609.667	241.69
609.875	256.69
610.083	257.69
610.291	256.69
610.499	259.69
610.707	259.69
610.916	262.69
611.124	258.69
611.332	249.69
611.54	247.69
611.748	267.69
611.955	264.69
612.163	243.69
612.371	243.69
612.579	258.69
612.787	250.69
612.995	267.69
613.203	263.69
613.411	245.69
613.618	240.69
613.826	244.69
614.034	262.69
614.242	251.69
614.449	265.69
614.657	249.69
614.865	271.69
615.072	242.69
615.28	248.69
615.488	257.69
615.695	249.69
615.903	244.69
616.111	248.69
616.318	243.69
616.526	251.69
616.733	256.69
616.941	239.69
617.148	238.69
617.356	246.69
617.563	245.69
617.771	239.69
617.978	222.69
618.185	256.69
618.393	247.69
618.6	259.69
618.807	228.69
619.015	246.69
619.222	243.69
619.429	231.69
619.637	246.69
619.844	254.69
620.051	238.69
620.258	226.69
620.466	228.69
620.673	242.69
620.88	230.69
621.087	223.69
621.294	244.69
621.501	234.69
621.708	244.69
621.915	237.69
622.122	239.69
622.329	232.69
622.536	253.69
622.743	233.69
622.95	237.69
623.157	225.69
623.364	226.69
623.571	241.69
623.778	235.69
623.985	240.69
624.192	227.69
624.399	229.69
624.606	232.69
624.812	218.69
625.019	223.69
625.226	215.69
625.433	225.69
625.639	218.69
625.846	225.69
626.053	227.69
626.259	204.69
626.466	220.69
626.673	220.69
626.879	223.69
627.086	227.69
627.293	234.69
627.499	231.69
627.706	228.69
627.912	213.69
628.119	214.69
628.325	222.69
628.532	225.69
628.738	224.69
628.945	209.69
629.151	216.69
629.357	205.69
629.564	199.69
629.77	231.69
629.976	214.69
630.183	211.69
630.389	210.69
630.595	213.69
630.802	205.69
631.008	199.69
631.214	194.69
631.42	224.69
631.627	204.69
631.833	217.69
632.039	224.69
632.245	214.69
632.451	202.69
632.657	190.69
632.863	202.69
633.069	209.69
633.275	217.69
633.481	222.69
633.688	221.69
633.893	203.69
634.099	206.69
634.305	200.69
634.511	193.69
634.717	203.69
634.923	207.69
635.129	213.69
635.335	185.69
635.541	202.69
635.747	189.69
635.952	208.69
636.158	196.69
636.364	189.69
636.57	201.69
636.775	179.69
636.981	203.69
637.187	196.69
637.392	199.69
637.598	204.69
637.804	216.69
638.009	200.69
638.215	182.69
638.421	205.69
638.626	207.69
638.832	193.69
639.037	189.69
639.243	186.69
639.448	224.69
639.654	213.69
639.859	193.69
640.065	196.69
640.27	203.69
640.475	205.69
640.681	194.69
640.886	186.69
641.091	198.69
641.297	203.69
641.502	211.69
641.707	185.69
641.913	183.69
642.118	194.69
642.323	205.69
642.528	207.69
642.733	193.69
642.939	191.69
643.144	196.69
643.349	193.69
643.554	190.69
643.759	179.69
643.964	187.69
644.169	184.69
644.374	192.69
644.579	198.69
644.784	198.69
644.989	186.69
645.194	177.69
645.399	198.69
645.604	195.69
645.809	193.69
646.014	199.69
646.219	184.69
646.423	208.69
646.628	200.69
646.833	176.69
647.038	192.69
647.243	167.69
647.447	189.69
647.652	196.69
647.857	190.69
648.062	202.69
648.266	177.69
648.471	196.69
648.676	176.69
648.88	186.69
649.085	180.69
649.289	180.69
649.494	206.69
649.698	191.69
649.903	187.69
650.107	176.69
650.312	193.69
650.516	183.69
650.721	173.69
650.925	185.69
651.13	190.69
651.334	182.69
651.539	197.69
651.743	201.69
651.947	189.69
652.152	170.69
652.356	152.69
652.56	184.69
652.764	181.69
652.969	180.69
653.173	167.69
653.377	173.69
653.581	164.69
653.785	175.69
653.99	162.69
654.194	174.69
654.398	168.69
654.602	171.69
654.806	149.69
655.01	160.69
655.214	153.69
655.418	162.69
655.622	164.69
655.826	155.69
656.03	144.69
656.234	154.69
656.438	147.69
656.642	151.69
656.846	152.69
657.049	144.69
657.253	155.69
657.457	146.69
657.661	144.69
657.865	130.69
658.068	114.69
658.272	110.69
658.476	122.69
658.68	114.69
658.883	111.69
659.087	115.69
659.291	109.69
659.494	122.69
659.698	109.69
659.901	116.69
660.105	99.69
660.309	109.69
660.512	111.69
660.716	104.69
660.919	94.69
661.123	97.69
661.326	99.69
661.53	99.69
661.733	93.69
661.936	96.69
662.14	92.69
662.343	97.69
662.546	84.69
662.75	99.69
662.953	94.69
663.156	74.69
663.36	88.69
663.563	83.69
663.766	89.69
663.969	90.69
664.173	83.69
664.376	83.69
664.579	89.69
664.782	73.69
664.985	74.69
665.188	90.69
665.391	87.69
665.594	80.69
665.797	70.69
666	89.69
666.203	87.69
666.406	100.69
666.609	86.69
666.812	90.69
667.015	85.69
667.218	65.69
667.421	77.69
667.624	71.69
667.827	87.69
668.03	74.69
668.232	94.69
668.435	84.69
668.638	69.69
668.841	85.69
669.043	83.69
669.246	85.69
669.449	84.69
669.651	85.69
669.854	75.69
670.057	78.69
670.259	75.69
670.462	88.69
670.665	80.69
670.867	86.69
671.07	78.69
671.272	85.69
671.475	75.69
671.677	94.69
671.88	85.69
672.082	78.69
672.284	84.69
672.487	81.69
672.689	67.69
672.892	81.69
