Data from Fe(NO3)3@0.025M.TitratingCurve.Agarose3%dH2O.NegLispCup.LampEnergy10.LIBS07252019_HRD10591_16-55-48-335.txt Node
Date: Thu Jul 25 16:55:48 EDT 2019
User: cochatt
Spectrometer: HR+D1059
Trigger mode: 1
Integration Time (sec): 1.000000E-1
Scans to average: 1
Electric dark correction enabled: true
Nonlinearity correction enabled: false
Boxcar width: 0
XAxis mode: Wavelengths
Number of Pixels in Spectrum: 2048
>>>>>Begin Spectral Data<<<<<
223.165	-21.62
223.4	-21.62
223.635	-21.62
223.869	-20.62
224.104	-23.62
224.338	-3.62
224.573	-4.62
224.808	-12.62
225.042	-19.62
225.277	2.38
225.511	-19.62
225.746	10.38
225.98	21.38
226.215	9.38
226.449	3.38
226.683	19.38
226.918	28.38
227.152	31.38
227.387	34.38
227.621	23.38
227.856	26.38
228.09	31.38
228.324	59.38
228.559	53.38
228.793	57.38
229.027	68.38
229.262	80.38
229.496	78.38
229.73	71.38
229.964	89.38
230.199	83.38
230.433	103.38
230.667	89.38
230.901	87.38
231.136	96.38
231.37	95.38
231.604	98.38
231.838	90.38
232.072	104.38
232.306	105.38
232.541	97.38
232.775	106.38
233.009	94.38
233.243	112.38
233.477	95.38
233.711	104.38
233.945	123.38
234.179	100.38
234.413	111.38
234.647	109.38
234.881	99.38
235.115	111.38
235.349	102.38
235.583	95.38
235.817	105.38
236.051	101.38
236.285	96.38
236.519	98.38
236.753	100.38
236.987	107.38
237.221	115.38
237.455	88.38
237.689	94.38
237.922	99.38
238.156	90.38
238.39	108.38
238.624	104.38
238.858	105.38
239.091	102.38
239.325	115.38
239.559	113.38
239.793	107.38
240.027	104.38
240.26	114.38
240.494	111.38
240.728	109.38
240.961	127.38
241.195	113.38
241.429	106.38
241.662	113.38
241.896	118.38
242.13	99.38
242.363	111.38
242.597	111.38
242.83	95.38
243.064	112.38
243.298	106.38
243.531	116.38
243.765	107.38
243.998	117.38
244.232	113.38
244.465	106.38
244.699	117.38
244.932	135.38
245.166	136.38
245.399	119.38
245.633	123.38
245.866	122.38
246.099	126.38
246.333	121.38
246.566	123.38
246.8	132.38
247.033	133.38
247.266	117.38
247.5	115.38
247.733	120.38
247.966	111.38
248.2	121.38
248.433	124.38
248.666	138.38
248.899	140.38
249.133	129.38
249.366	122.38
249.599	145.38
249.832	139.38
250.066	131.38
250.299	125.38
250.532	121.38
250.765	136.38
250.998	136.38
251.231	121.38
251.465	140.38
251.698	133.38
251.931	148.38
252.164	140.38
252.397	140.38
252.63	154.38
252.863	129.38
253.096	145.38
253.329	135.38
253.562	131.38
253.795	137.38
254.028	152.38
254.261	140.38
254.494	143.38
254.727	140.38
254.96	137.38
255.193	138.38
255.426	135.38
255.659	138.38
255.892	139.38
256.124	135.38
256.357	140.38
256.59	149.38
256.823	139.38
257.056	145.38
257.289	129.38
257.521	138.38
257.754	148.38
257.987	154.38
258.22	144.38
258.452	134.38
258.685	151.38
258.918	135.38
259.151	144.38
259.383	159.38
259.616	133.38
259.849	167.38
260.081	148.38
260.314	145.38
260.547	154.38
260.779	141.38
261.012	150.38
261.244	143.38
261.477	147.38
261.71	148.38
261.942	144.38
262.175	147.38
262.407	167.38
262.64	137.38
262.872	150.38
263.105	155.38
263.337	156.38
263.57	150.38
263.802	164.38
264.035	161.38
264.267	168.38
264.499	164.38
264.732	164.38
264.964	161.38
265.197	160.38
265.429	169.38
265.661	160.38
265.894	163.38
266.126	168.38
266.358	150.38
266.591	145.38
266.823	161.38
267.055	161.38
267.287	176.38
267.52	162.38
267.752	176.38
267.984	172.38
268.216	164.38
268.448	178.38
268.681	181.38
268.913	157.38
269.145	173.38
269.377	178.38
269.609	171.38
269.841	161.38
270.073	159.38
270.306	164.38
270.538	162.38
270.77	165.38
271.002	168.38
271.234	167.38
271.466	161.38
271.698	168.38
271.93	175.38
272.162	193.38
272.394	177.38
272.626	177.38
272.858	180.38
273.09	205.38
273.322	171.38
273.553	183.38
273.785	162.38
274.017	183.38
274.249	177.38
274.481	189.38
274.713	192.38
274.945	194.38
275.176	206.38
275.408	191.38
275.64	181.38
275.872	192.38
276.104	191.38
276.335	183.38
276.567	188.38
276.799	200.38
277.031	193.38
277.262	198.38
277.494	188.38
277.726	202.38
277.957	199.38
278.189	187.38
278.421	182.38
278.652	177.38
278.884	188.38
279.115	202.38
279.347	206.38
279.579	195.38
279.81	207.38
280.042	216.38
280.273	200.38
280.505	202.38
280.736	198.38
280.968	197.38
281.199	199.38
281.431	206.38
281.662	220.38
281.894	202.38
282.125	209.38
282.356	204.38
282.588	202.38
282.819	185.38
283.051	196.38
283.282	215.38
283.513	223.38
283.745	209.38
283.976	217.38
284.207	221.38
284.439	205.38
284.67	205.38
284.901	215.38
285.132	221.38
285.364	225.38
285.595	229.38
285.826	224.38
286.057	211.38
286.288	213.38
286.52	214.38
286.751	209.38
286.982	210.38
287.213	219.38
287.444	214.38
287.675	220.38
287.906	220.38
288.138	241.38
288.369	226.38
288.6	230.38
288.831	219.38
289.062	215.38
289.293	230.38
289.524	231.38
289.755	223.38
289.986	232.38
290.217	207.38
290.448	228.38
290.679	228.38
290.91	239.38
291.141	217.38
291.371	229.38
291.602	235.38
291.833	251.38
292.064	237.38
292.295	239.38
292.526	233.38
292.757	218.38
292.987	213.38
293.218	235.38
293.449	232.38
293.68	250.38
293.91	246.38
294.141	240.38
294.372	227.38
294.603	223.38
294.833	228.38
295.064	229.38
295.295	217.38
295.525	233.38
295.756	247.38
295.987	234.38
296.217	238.38
296.448	263.38
296.679	251.38
296.909	233.38
297.14	242.38
297.37	239.38
297.601	254.38
297.831	255.38
298.062	264.38
298.292	244.38
298.523	266.38
298.753	243.38
298.984	239.38
299.214	232.38
299.445	263.38
299.675	248.38
299.905	256.38
300.136	254.38
300.366	253.38
300.597	260.38
300.827	246.38
301.057	255.38
301.288	253.38
301.518	275.38
301.748	268.38
301.979	254.38
302.209	253.38
302.439	265.38
302.669	283.38
302.9	263.38
303.13	280.38
303.36	275.38
303.59	279.38
303.82	260.38
304.051	280.38
304.281	267.38
304.511	265.38
304.741	281.38
304.971	263.38
305.201	273.38
305.431	280.38
305.661	274.38
305.891	282.38
306.121	265.38
306.352	259.38
306.582	273.38
306.812	264.38
307.042	285.38
307.272	261.38
307.502	276.38
307.731	262.38
307.961	278.38
308.191	292.38
308.421	263.38
308.651	263.38
308.881	265.38
309.111	267.38
309.341	257.38
309.571	283.38
309.8	259.38
310.03	265.38
310.26	276.38
310.49	277.38
310.72	262.38
310.949	285.38
311.179	295.38
311.409	279.38
311.639	283.38
311.868	277.38
312.098	275.38
312.328	291.38
312.557	287.38
312.787	290.38
313.017	286.38
313.246	291.38
313.476	278.38
313.706	303.38
313.935	294.38
314.165	298.38
314.394	292.38
314.624	305.38
314.853	283.38
315.083	308.38
315.312	281.38
315.542	300.38
315.771	280.38
316.001	302.38
316.23	285.38
316.46	281.38
316.689	283.38
316.919	291.38
317.148	300.38
317.377	297.38
317.607	281.38
317.836	303.38
318.065	300.38
318.295	300.38
318.524	286.38
318.753	285.38
318.983	300.38
319.212	288.38
319.441	287.38
319.67	296.38
319.9	312.38
320.129	290.38
320.358	297.38
320.587	298.38
320.816	296.38
321.046	300.38
321.275	303.38
321.504	305.38
321.733	300.38
321.962	298.38
322.191	316.38
322.42	326.38
322.649	304.38
322.878	300.38
323.108	307.38
323.337	297.38
323.566	300.38
323.795	294.38
324.024	309.38
324.253	292.38
324.482	329.38
324.71	315.38
324.939	321.38
325.168	323.38
325.397	304.38
325.626	321.38
325.855	314.38
326.084	309.38
326.313	322.38
326.542	310.38
326.77	318.38
326.999	323.38
327.228	324.38
327.457	333.38
327.686	310.38
327.914	320.38
328.143	333.38
328.372	330.38
328.6	331.38
328.829	342.38
329.058	329.38
329.287	322.38
329.515	339.38
329.744	333.38
329.972	345.38
330.201	345.38
330.43	340.38
330.658	330.38
330.887	359.38
331.115	357.38
331.344	349.38
331.572	344.38
331.801	354.38
332.03	351.38
332.258	362.38
332.486	381.38
332.715	371.38
332.943	398.38
333.172	377.38
333.4	369.38
333.629	389.38
333.857	388.38
334.085	375.38
334.314	390.38
334.542	385.38
334.771	382.38
334.999	369.38
335.227	375.38
335.455	398.38
335.684	378.38
335.912	389.38
336.14	382.38
336.369	374.38
336.597	371.38
336.825	376.38
337.053	384.38
337.281	379.38
337.51	370.38
337.738	376.38
337.966	368.38
338.194	367.38
338.422	361.38
338.65	367.38
338.878	348.38
339.106	357.38
339.334	354.38
339.562	364.38
339.79	349.38
340.018	348.38
340.246	347.38
340.474	347.38
340.702	363.38
340.93	356.38
341.158	357.38
341.386	371.38
341.614	352.38
341.842	345.38
342.07	351.38
342.298	341.38
342.526	362.38
342.754	340.38
342.981	353.38
343.209	359.38
343.437	370.38
343.665	390.38
343.893	376.38
344.12	389.38
344.348	369.38
344.576	377.38
344.804	376.38
345.031	352.38
345.259	362.38
345.487	348.38
345.714	341.38
345.942	346.38
346.17	344.38
346.397	334.38
346.625	328.38
346.853	327.38
347.08	336.38
347.308	329.38
347.535	335.38
347.763	343.38
347.99	321.38
348.218	311.38
348.445	329.38
348.673	351.38
348.9	324.38
349.128	351.38
349.355	341.38
349.583	325.38
349.81	348.38
350.037	339.38
350.265	325.38
350.492	332.38
350.72	332.38
350.947	342.38
351.174	341.38
351.402	363.38
351.629	345.38
351.856	344.38
352.083	343.38
352.311	334.38
352.538	322.38
352.765	345.38
352.992	331.38
353.22	313.38
353.447	344.38
353.674	345.38
353.901	329.38
354.128	342.38
354.355	330.38
354.583	332.38
354.81	335.38
355.037	330.38
355.264	332.38
355.491	334.38
355.718	319.38
355.945	322.38
356.172	323.38
356.399	352.38
356.626	330.38
356.853	351.38
357.08	337.38
357.307	337.38
357.534	322.38
357.761	343.38
357.988	346.38
358.215	351.38
358.441	351.38
358.668	358.38
358.895	354.38
359.122	333.38
359.349	358.38
359.576	339.38
359.802	356.38
360.029	351.38
360.256	338.38
360.483	349.38
360.709	338.38
360.936	362.38
361.163	345.38
361.39	343.38
361.616	343.38
361.843	348.38
362.07	360.38
362.296	344.38
362.523	370.38
362.749	332.38
362.976	343.38
363.203	339.38
363.429	353.38
363.656	350.38
363.882	332.38
364.109	337.38
364.335	341.38
364.562	337.38
364.788	341.38
365.015	369.38
365.241	347.38
365.468	364.38
365.694	340.38
365.92	341.38
366.147	344.38
366.373	364.38
366.599	353.38
366.826	341.38
367.052	341.38
367.278	336.38
367.505	345.38
367.731	340.38
367.957	344.38
368.184	351.38
368.41	346.38
368.636	339.38
368.862	345.38
369.089	352.38
369.315	339.38
369.541	351.38
369.767	351.38
369.993	363.38
370.219	355.38
370.445	384.38
370.672	369.38
370.898	343.38
371.124	354.38
371.35	369.38
371.576	362.38
371.802	373.38
372.028	358.38
372.254	371.38
372.48	374.38
372.706	371.38
372.932	393.38
373.158	373.38
373.384	396.38
373.61	398.38
373.835	379.38
374.061	391.38
374.287	382.38
374.513	389.38
374.739	396.38
374.965	401.38
375.191	387.38
375.416	384.38
375.642	389.38
375.868	399.38
376.094	383.38
376.319	362.38
376.545	363.38
376.771	382.38
376.997	377.38
377.222	373.38
377.448	376.38
377.674	373.38
377.899	382.38
378.125	373.38
378.35	370.38
378.576	373.38
378.802	379.38
379.027	371.38
379.253	369.38
379.478	378.38
379.704	367.38
379.929	395.38
380.155	368.38
380.38	363.38
380.606	362.38
380.831	364.38
381.057	380.38
381.282	373.38
381.507	356.38
381.733	374.38
381.958	385.38
382.184	407.38
382.409	380.38
382.634	364.38
382.86	367.38
383.085	415.38
383.31	400.38
383.535	386.38
383.761	405.38
383.986	418.38
384.211	427.38
384.436	407.38
384.662	425.38
384.887	409.38
385.112	411.38
385.337	431.38
385.562	432.38
385.787	420.38
386.013	430.38
386.238	453.38
386.463	404.38
386.688	419.38
386.913	412.38
387.138	410.38
387.363	435.38
387.588	427.38
387.813	435.38
388.038	431.38
388.263	413.38
388.488	438.38
388.713	442.38
388.938	437.38
389.163	440.38
389.387	421.38
389.612	421.38
389.837	422.38
390.062	429.38
390.287	428.38
390.512	431.38
390.736	444.38
390.961	437.38
391.186	432.38
391.411	463.38
391.636	460.38
391.86	475.38
392.085	459.38
392.31	455.38
392.534	475.38
392.759	447.38
392.984	459.38
393.208	447.38
393.433	461.38
393.658	451.38
393.882	458.38
394.107	461.38
394.331	452.38
394.556	461.38
394.78	467.38
395.005	459.38
395.229	457.38
395.454	482.38
395.678	482.38
395.903	475.38
396.127	468.38
396.352	472.38
396.576	456.38
396.801	482.38
397.025	480.38
397.249	479.38
397.474	455.38
397.698	488.38
397.922	465.38
398.147	478.38
398.371	485.38
398.595	506.38
398.82	488.38
399.044	550.38
399.268	573.38
399.492	627.38
399.717	663.38
399.941	661.38
400.165	607.38
400.389	604.38
400.613	561.38
400.837	560.38
401.062	537.38
401.286	536.38
401.51	519.38
401.734	533.38
401.958	540.38
402.182	539.38
402.406	542.38
402.63	534.38
402.854	514.38
403.078	537.38
403.302	535.38
403.526	554.38
403.75	541.38
403.974	529.38
404.198	551.38
404.422	548.38
404.645	561.38
404.869	544.38
405.093	553.38
405.317	530.38
405.541	564.38
405.765	552.38
405.988	542.38
406.212	539.38
406.436	572.38
406.66	568.38
406.883	574.38
407.107	576.38
407.331	581.38
407.555	625.38
407.778	597.38
408.002	603.38
408.226	594.38
408.449	582.38
408.673	567.38
408.896	585.38
409.12	552.38
409.344	543.38
409.567	563.38
409.791	567.38
410.014	543.38
410.238	535.38
410.461	565.38
410.685	555.38
410.908	531.38
411.132	545.38
411.355	536.38
411.578	538.38
411.802	532.38
412.025	547.38
412.249	541.38
412.472	529.38
412.695	529.38
412.919	508.38
413.142	521.38
413.365	515.38
413.589	511.38
413.812	493.38
414.035	528.38
414.258	520.38
414.482	525.38
414.705	511.38
414.928	509.38
415.151	529.38
415.374	516.38
415.597	515.38
415.821	511.38
416.044	521.38
416.267	521.38
416.49	495.38
416.713	498.38
416.936	525.38
417.159	485.38
417.382	536.38
417.605	496.38
417.828	487.38
418.051	518.38
418.274	497.38
418.497	499.38
418.72	523.38
418.943	498.38
419.166	532.38
419.389	546.38
419.611	525.38
419.834	531.38
420.057	505.38
420.28	491.38
420.503	483.38
420.726	485.38
420.948	512.38
421.171	509.38
421.394	515.38
421.617	496.38
421.839	506.38
422.062	501.38
422.285	476.38
422.507	494.38
422.73	492.38
422.953	499.38
423.175	507.38
423.398	521.38
423.621	504.38
423.843	497.38
424.066	517.38
424.288	521.38
424.511	488.38
424.733	501.38
424.956	485.38
425.178	502.38
425.401	487.38
425.623	497.38
425.846	488.38
426.068	473.38
426.291	502.38
426.513	491.38
426.735	474.38
426.958	481.38
427.18	467.38
427.402	461.38
427.625	477.38
427.847	452.38
428.069	456.38
428.292	470.38
428.514	448.38
428.736	444.38
428.958	458.38
429.181	458.38
429.403	448.38
429.625	458.38
429.847	449.38
430.069	474.38
430.292	452.38
430.514	427.38
430.736	478.38
430.958	472.38
431.18	449.38
431.402	451.38
431.624	472.38
431.846	472.38
432.068	460.38
432.29	463.38
432.512	440.38
432.734	457.38
432.956	473.38
433.178	449.38
433.4	458.38
433.622	480.38
433.844	473.38
434.066	466.38
434.287	454.38
434.509	480.38
434.731	490.38
434.953	499.38
435.175	503.38
435.397	483.38
435.618	492.38
435.84	466.38
436.062	466.38
436.284	454.38
436.505	461.38
436.727	447.38
436.949	436.38
437.17	449.38
437.392	454.38
437.614	467.38
437.835	439.38
438.057	432.38
438.278	439.38
438.5	449.38
438.721	434.38
438.943	449.38
439.165	428.38
439.386	430.38
439.608	456.38
439.829	467.38
440.05	464.38
440.272	450.38
440.493	460.38
440.715	472.38
440.936	463.38
441.158	470.38
441.379	471.38
441.6	479.38
441.822	490.38
442.043	510.38
442.264	487.38
442.486	458.38
442.707	473.38
442.928	486.38
443.149	475.38
443.371	495.38
443.592	481.38
443.813	480.38
444.034	492.38
444.255	489.38
444.476	500.38
444.698	520.38
444.919	538.38
445.14	594.38
445.361	545.38
445.582	499.38
445.803	487.38
446.024	462.38
446.245	484.38
446.466	452.38
446.687	467.38
446.908	449.38
447.129	438.38
447.35	443.38
447.571	444.38
447.792	429.38
448.013	441.38
448.234	443.38
448.455	425.38
448.675	417.38
448.896	415.38
449.117	421.38
449.338	413.38
449.559	419.38
449.779	416.38
450	411.38
450.221	417.38
450.442	417.38
450.662	434.38
450.883	406.38
451.104	426.38
451.324	412.38
451.545	423.38
451.766	415.38
451.986	413.38
452.207	419.38
452.428	403.38
452.648	422.38
452.869	392.38
453.089	417.38
453.31	419.38
453.53	402.38
453.751	402.38
453.971	408.38
454.192	409.38
454.412	394.38
454.633	405.38
454.853	378.38
455.073	408.38
455.294	411.38
455.514	409.38
455.734	424.38
455.955	389.38
456.175	393.38
456.395	405.38
456.616	396.38
456.836	397.38
457.056	408.38
457.276	394.38
457.497	397.38
457.717	417.38
457.937	413.38
458.157	391.38
458.377	423.38
458.598	409.38
458.818	438.38
459.038	421.38
459.258	471.38
459.478	470.38
459.698	463.38
459.918	472.38
460.138	462.38
460.358	498.38
460.578	505.38
460.798	479.38
461.018	505.38
461.238	520.38
461.458	511.38
461.678	520.38
461.898	497.38
462.118	515.38
462.338	551.38
462.558	553.38
462.777	560.38
462.997	588.38
463.217	595.38
463.437	590.38
463.657	576.38
463.876	581.38
464.096	587.38
464.316	576.38
464.536	559.38
464.755	544.38
464.975	503.38
465.195	500.38
465.414	496.38
465.634	497.38
465.854	457.38
466.073	481.38
466.293	456.38
466.512	459.38
466.732	432.38
466.951	453.38
467.171	444.38
467.391	465.38
467.61	435.38
467.829	453.38
468.049	436.38
468.268	423.38
468.488	424.38
468.707	435.38
468.927	429.38
469.146	421.38
469.365	453.38
469.585	425.38
469.804	453.38
470.023	434.38
470.243	454.38
470.462	459.38
470.681	433.38
470.901	459.38
471.12	467.38
471.339	435.38
471.558	456.38
471.777	454.38
471.997	443.38
472.216	458.38
472.435	415.38
472.654	428.38
472.873	421.38
473.092	439.38
473.311	441.38
473.53	443.38
473.749	439.38
473.968	444.38
474.187	442.38
474.406	440.38
474.625	436.38
474.844	445.38
475.063	444.38
475.282	437.38
475.501	456.38
475.72	452.38
475.939	424.38
476.158	470.38
476.377	465.38
476.596	450.38
476.814	440.38
477.033	462.38
477.252	451.38
477.471	476.38
477.69	479.38
477.908	492.38
478.127	512.38
478.346	509.38
478.564	504.38
478.783	518.38
479.002	504.38
479.22	507.38
479.439	535.38
479.658	559.38
479.876	531.38
480.095	533.38
480.313	525.38
480.532	529.38
480.751	514.38
480.969	526.38
481.188	534.38
481.406	514.38
481.624	527.38
481.843	511.38
482.061	506.38
482.28	537.38
482.498	504.38
482.717	492.38
482.935	502.38
483.153	516.38
483.372	495.38
483.59	525.38
483.808	513.38
484.027	504.38
484.245	536.38
484.463	515.38
484.681	513.38
484.9	516.38
485.118	517.38
485.336	511.38
485.554	507.38
485.772	521.38
485.99	544.38
486.209	518.38
486.427	516.38
486.645	505.38
486.863	508.38
487.081	521.38
487.299	536.38
487.517	506.38
487.735	520.38
487.953	524.38
488.171	533.38
488.389	507.38
488.607	504.38
488.825	515.38
489.043	543.38
489.261	522.38
489.479	544.38
489.696	523.38
489.914	529.38
490.132	504.38
490.35	533.38
490.568	518.38
490.786	543.38
491.003	512.38
491.221	557.38
491.439	528.38
491.657	537.38
491.874	541.38
492.092	517.38
492.31	521.38
492.527	524.38
492.745	525.38
492.963	552.38
493.18	543.38
493.398	539.38
493.615	532.38
493.833	545.38
494.05	553.38
494.268	529.38
494.485	534.38
494.703	549.38
494.92	565.38
495.138	545.38
495.355	562.38
495.573	561.38
495.79	555.38
496.008	571.38
496.225	574.38
496.442	574.38
496.66	616.38
496.877	592.38
497.094	616.38
497.312	608.38
497.529	611.38
497.746	633.38
497.963	633.38
498.181	640.38
498.398	691.38
498.615	697.38
498.832	737.38
499.049	788.38
499.267	837.38
499.484	849.38
499.701	919.38
499.918	964.38
500.135	1041.38
500.352	1108.38
500.569	1122.38
500.786	1101.38
501.003	1051.38
501.22	999.38
501.437	935.38
501.654	855.38
501.871	841.38
502.088	779.38
502.305	754.38
502.522	731.38
502.739	726.38
502.956	715.38
503.172	659.38
503.389	649.38
503.606	630.38
503.823	618.38
504.04	594.38
504.256	597.38
504.473	624.38
504.69	611.38
504.907	593.38
505.123	595.38
505.34	559.38
505.557	559.38
505.773	544.38
505.99	545.38
506.207	531.38
506.423	511.38
506.64	507.38
506.856	507.38
507.073	496.38
507.289	496.38
507.506	498.38
507.722	476.38
507.939	501.38
508.155	485.38
508.372	482.38
508.588	473.38
508.805	465.38
509.021	446.38
509.238	471.38
509.454	473.38
509.67	457.38
509.887	448.38
510.103	462.38
510.319	442.38
510.536	448.38
510.752	451.38
510.968	466.38
511.184	446.38
511.401	445.38
511.617	453.38
511.833	451.38
512.049	435.38
512.265	448.38
512.481	460.38
512.698	448.38
512.914	468.38
513.13	443.38
513.346	432.38
513.562	437.38
513.778	461.38
513.994	453.38
514.21	462.38
514.426	455.38
514.642	466.38
514.858	471.38
515.074	449.38
515.29	479.38
515.506	474.38
515.721	497.38
515.937	494.38
516.153	507.38
516.369	478.38
516.585	516.38
516.801	510.38
517.016	522.38
517.232	538.38
517.448	551.38
517.664	550.38
517.879	559.38
518.095	539.38
518.311	550.38
518.527	518.38
518.742	539.38
518.958	514.38
519.173	481.38
519.389	470.38
519.605	465.38
519.82	485.38
520.036	474.38
520.251	474.38
520.467	459.38
520.682	438.38
520.898	455.38
521.113	458.38
521.329	437.38
521.544	423.38
521.76	420.38
521.975	428.38
522.19	444.38
522.406	435.38
522.621	450.38
522.836	417.38
523.052	418.38
523.267	432.38
523.482	435.38
523.698	415.38
523.913	406.38
524.128	415.38
524.343	412.38
524.559	419.38
524.774	407.38
524.989	425.38
525.204	425.38
525.419	409.38
525.634	415.38
525.849	426.38
526.064	431.38
526.28	409.38
526.495	411.38
526.71	415.38
526.925	420.38
527.14	401.38
527.355	419.38
527.57	415.38
527.785	431.38
527.999	411.38
528.214	406.38
528.429	407.38
528.644	428.38
528.859	397.38
529.074	405.38
529.289	438.38
529.503	435.38
529.718	441.38
529.933	414.38
530.148	397.38
530.363	393.38
530.577	392.38
530.792	407.38
531.007	398.38
531.221	406.38
531.436	417.38
531.651	413.38
531.865	396.38
532.08	412.38
532.295	391.38
532.509	400.38
532.724	405.38
532.938	420.38
533.153	403.38
533.367	407.38
533.582	417.38
533.796	416.38
534.011	399.38
534.225	404.38
534.44	397.38
534.654	401.38
534.868	406.38
535.083	403.38
535.297	395.38
535.511	391.38
535.726	406.38
535.94	381.38
536.154	403.38
536.369	386.38
536.583	394.38
536.797	415.38
537.011	389.38
537.225	401.38
537.44	381.38
537.654	385.38
537.868	376.38
538.082	390.38
538.296	397.38
538.51	381.38
538.724	395.38
538.938	414.38
539.153	356.38
539.367	389.38
539.581	394.38
539.795	376.38
540.009	379.38
540.222	386.38
540.436	359.38
540.65	385.38
540.864	364.38
541.078	383.38
541.292	357.38
541.506	383.38
541.72	391.38
541.934	364.38
542.147	383.38
542.361	372.38
542.575	384.38
542.789	388.38
543.002	379.38
543.216	371.38
543.43	376.38
543.644	375.38
543.857	369.38
544.071	398.38
544.285	378.38
544.498	356.38
544.712	387.38
544.925	370.38
545.139	406.38
545.352	409.38
545.566	367.38
545.779	388.38
545.993	396.38
546.206	372.38
546.42	373.38
546.633	400.38
546.847	379.38
547.06	385.38
547.274	362.38
547.487	383.38
547.7	388.38
547.914	397.38
548.127	386.38
548.34	376.38
548.554	383.38
548.767	387.38
548.98	383.38
549.193	371.38
549.407	370.38
549.62	393.38
549.833	403.38
550.046	396.38
550.259	388.38
550.473	384.38
550.686	382.38
550.899	378.38
551.112	370.38
551.325	396.38
551.538	385.38
551.751	380.38
551.964	411.38
552.177	387.38
552.39	382.38
552.603	405.38
552.816	380.38
553.029	391.38
553.242	387.38
553.455	397.38
553.667	401.38
553.88	394.38
554.093	385.38
554.306	377.38
554.519	374.38
554.732	383.38
554.944	373.38
555.157	355.38
555.37	347.38
555.583	356.38
555.795	360.38
556.008	360.38
556.221	363.38
556.433	353.38
556.646	361.38
556.859	340.38
557.071	337.38
557.284	342.38
557.496	317.38
557.709	336.38
557.921	337.38
558.134	324.38
558.346	344.38
558.559	341.38
558.771	331.38
558.984	343.38
559.196	324.38
559.409	331.38
559.621	338.38
559.833	318.38
560.046	323.38
560.258	323.38
560.47	338.38
560.683	326.38
560.895	326.38
561.107	334.38
561.32	343.38
561.532	322.38
561.744	333.38
561.956	306.38
562.168	320.38
562.381	315.38
562.593	333.38
562.805	340.38
563.017	314.38
563.229	331.38
563.441	339.38
563.653	351.38
563.865	337.38
564.077	356.38
564.289	354.38
564.501	360.38
564.713	359.38
564.925	352.38
565.137	365.38
565.349	356.38
565.561	357.38
565.773	377.38
565.985	387.38
566.197	389.38
566.408	421.38
566.62	416.38
566.832	428.38
567.044	439.38
567.255	445.38
567.467	458.38
567.679	461.38
567.891	476.38
568.102	461.38
568.314	457.38
568.526	445.38
568.737	431.38
568.949	406.38
569.161	385.38
569.372	358.38
569.584	354.38
569.795	357.38
570.007	348.38
570.218	346.38
570.43	328.38
570.641	333.38
570.853	339.38
571.064	313.38
571.276	310.38
571.487	334.38
571.698	316.38
571.91	307.38
572.121	299.38
572.333	284.38
572.544	306.38
572.755	305.38
572.966	278.38
573.178	289.38
573.389	283.38
573.6	293.38
573.811	287.38
574.023	295.38
574.234	277.38
574.445	277.38
574.656	277.38
574.867	279.38
575.078	288.38
575.289	277.38
575.501	276.38
575.712	282.38
575.923	276.38
576.134	273.38
576.345	272.38
576.556	264.38
576.767	252.38
576.978	243.38
577.188	271.38
577.399	278.38
577.61	266.38
577.821	255.38
578.032	262.38
578.243	271.38
578.454	272.38
578.665	246.38
578.875	263.38
579.086	262.38
579.297	253.38
579.508	261.38
579.718	236.38
579.929	257.38
580.14	257.38
580.35	261.38
580.561	256.38
580.772	252.38
580.982	240.38
581.193	255.38
581.403	269.38
581.614	264.38
581.825	247.38
582.035	228.38
582.246	246.38
582.456	248.38
582.667	226.38
582.877	234.38
583.087	230.38
583.298	234.38
583.508	232.38
583.719	261.38
583.929	246.38
584.139	245.38
584.35	241.38
584.56	240.38
584.77	239.38
584.981	231.38
585.191	241.38
585.401	231.38
585.611	244.38
585.821	235.38
586.032	245.38
586.242	234.38
586.452	239.38
586.662	243.38
586.872	243.38
587.082	223.38
587.292	248.38
587.502	241.38
587.713	244.38
587.923	247.38
588.133	243.38
588.343	235.38
588.553	235.38
588.762	225.38
588.972	217.38
589.182	255.38
589.392	252.38
589.602	237.38
589.812	246.38
590.022	243.38
590.232	232.38
590.441	233.38
590.651	223.38
590.861	245.38
591.071	236.38
591.281	232.38
591.49	240.38
591.7	251.38
591.91	239.38
592.119	255.38
592.329	243.38
592.539	254.38
592.748	250.38
592.958	293.38
593.167	249.38
593.377	253.38
593.587	271.38
593.796	268.38
594.006	246.38
594.215	283.38
594.424	255.38
594.634	262.38
594.843	256.38
595.053	261.38
595.262	245.38
595.472	243.38
595.681	218.38
595.89	233.38
596.1	247.38
596.309	239.38
596.518	230.38
596.727	211.38
596.937	226.38
597.146	228.38
597.355	220.38
597.564	227.38
597.774	225.38
597.983	207.38
598.192	219.38
598.401	213.38
598.61	216.38
598.819	213.38
599.028	218.38
599.237	202.38
599.446	202.38
599.655	205.38
599.864	196.38
600.073	224.38
600.282	214.38
600.491	210.38
600.7	191.38
600.909	203.38
601.118	193.38
601.327	213.38
601.536	200.38
601.745	223.38
601.953	211.38
602.162	186.38
602.371	196.38
602.58	194.38
602.789	207.38
602.997	218.38
603.206	197.38
603.415	195.38
603.623	215.38
603.832	177.38
604.041	178.38
604.249	204.38
604.458	209.38
604.666	199.38
604.875	183.38
605.084	194.38
605.292	186.38
605.501	189.38
605.709	191.38
605.918	204.38
606.126	188.38
606.334	174.38
606.543	200.38
606.751	181.38
606.96	193.38
607.168	200.38
607.376	199.38
607.585	189.38
607.793	185.38
608.001	197.38
608.21	197.38
608.418	177.38
608.626	178.38
608.834	199.38
609.043	189.38
609.251	197.38
609.459	181.38
609.667	186.38
609.875	203.38
610.083	185.38
610.291	179.38
610.499	208.38
610.707	201.38
610.916	211.38
611.124	189.38
611.332	197.38
611.54	200.38
611.748	196.38
611.955	205.38
612.163	187.38
612.371	182.38
612.579	181.38
612.787	188.38
612.995	190.38
613.203	194.38
613.411	185.38
613.618	191.38
613.826	188.38
614.034	184.38
614.242	178.38
614.449	185.38
614.657	184.38
614.865	176.38
615.072	208.38
615.28	186.38
615.488	170.38
615.695	185.38
615.903	191.38
616.111	189.38
616.318	186.38
616.526	200.38
616.733	202.38
616.941	172.38
617.148	199.38
617.356	192.38
617.563	196.38
617.771	188.38
617.978	192.38
618.185	193.38
618.393	191.38
618.6	205.38
618.807	181.38
619.015	163.38
619.222	171.38
619.429	187.38
619.637	188.38
619.844	176.38
620.051	181.38
620.258	180.38
620.466	180.38
620.673	186.38
620.88	180.38
621.087	181.38
621.294	183.38
621.501	189.38
621.708	176.38
621.915	187.38
622.122	177.38
622.329	180.38
622.536	165.38
622.743	172.38
622.95	164.38
623.157	181.38
623.364	164.38
623.571	178.38
623.778	174.38
623.985	183.38
624.192	163.38
624.399	160.38
624.606	177.38
624.812	159.38
625.019	180.38
625.226	176.38
625.433	165.38
625.639	178.38
625.846	175.38
626.053	159.38
626.259	164.38
626.466	184.38
626.673	184.38
626.879	165.38
627.086	167.38
627.293	181.38
627.499	184.38
627.706	177.38
627.912	163.38
628.119	158.38
628.325	165.38
628.532	156.38
628.738	139.38
628.945	164.38
629.151	157.38
629.357	149.38
629.564	168.38
629.77	164.38
629.976	171.38
630.183	179.38
630.389	161.38
630.595	166.38
630.802	161.38
631.008	168.38
631.214	150.38
631.42	165.38
631.627	162.38
631.833	163.38
632.039	160.38
632.245	167.38
632.451	165.38
632.657	178.38
632.863	160.38
633.069	154.38
633.275	151.38
633.481	165.38
633.688	169.38
633.893	161.38
634.099	153.38
634.305	164.38
634.511	176.38
634.717	159.38
634.923	150.38
635.129	159.38
635.335	156.38
635.541	165.38
635.747	163.38
635.952	160.38
636.158	161.38
636.364	151.38
636.57	164.38
636.775	151.38
636.981	156.38
637.187	156.38
637.392	150.38
637.598	163.38
637.804	153.38
638.009	155.38
638.215	159.38
638.421	151.38
638.626	165.38
638.832	165.38
639.037	155.38
639.243	149.38
639.448	150.38
639.654	182.38
639.859	155.38
640.065	151.38
640.27	141.38
640.475	153.38
640.681	154.38
640.886	164.38
641.091	159.38
641.297	162.38
641.502	153.38
641.707	161.38
641.913	169.38
642.118	163.38
642.323	145.38
642.528	157.38
642.733	162.38
642.939	157.38
643.144	148.38
643.349	168.38
643.554	162.38
643.759	152.38
643.964	147.38
644.169	153.38
644.374	163.38
644.579	162.38
644.784	152.38
644.989	142.38
645.194	145.38
645.399	156.38
645.604	146.38
645.809	147.38
646.014	156.38
646.219	148.38
646.423	168.38
646.628	160.38
646.833	163.38
647.038	150.38
647.243	162.38
647.447	150.38
647.652	169.38
647.857	171.38
648.062	170.38
648.266	182.38
648.471	177.38
648.676	160.38
648.88	152.38
649.085	178.38
649.289	156.38
649.494	161.38
649.698	155.38
649.903	163.38
650.107	168.38
650.312	163.38
650.516	168.38
650.721	155.38
650.925	149.38
651.13	145.38
651.334	158.38
651.539	151.38
651.743	159.38
651.947	155.38
652.152	158.38
652.356	168.38
652.56	163.38
652.764	158.38
652.969	140.38
653.173	155.38
653.377	155.38
653.581	173.38
653.785	157.38
653.99	162.38
654.194	159.38
654.398	183.38
654.602	153.38
654.806	155.38
655.01	165.38
655.214	171.38
655.418	150.38
655.622	157.38
655.826	158.38
656.03	165.38
656.234	160.38
656.438	178.38
656.642	159.38
656.846	172.38
657.049	149.38
657.253	151.38
657.457	153.38
657.661	144.38
657.865	136.38
658.068	147.38
658.272	127.38
658.476	130.38
658.68	135.38
658.883	109.38
659.087	116.38
659.291	127.38
659.494	106.38
659.698	109.38
659.901	118.38
660.105	115.38
660.309	108.38
660.512	108.38
660.716	107.38
660.919	107.38
661.123	102.38
661.326	103.38
661.53	98.38
661.733	90.38
661.936	100.38
662.14	87.38
662.343	83.38
662.546	88.38
662.75	93.38
662.953	76.38
663.156	89.38
663.36	98.38
663.563	93.38
663.766	85.38
663.969	85.38
664.173	78.38
664.376	83.38
664.579	86.38
664.782	92.38
664.985	73.38
665.188	89.38
665.391	87.38
665.594	80.38
665.797	94.38
666	86.38
666.203	89.38
666.406	81.38
666.609	71.38
666.812	86.38
667.015	80.38
667.218	90.38
667.421	70.38
667.624	72.38
667.827	83.38
668.03	70.38
668.232	91.38
668.435	84.38
668.638	79.38
668.841	84.38
669.043	81.38
669.246	97.38
669.449	81.38
669.651	87.38
669.854	69.38
670.057	73.38
670.259	82.38
670.462	90.38
670.665	81.38
670.867	92.38
671.07	87.38
671.272	71.38
671.475	79.38
671.677	71.38
671.88	77.38
672.082	81.38
672.284	74.38
672.487	88.38
672.689	72.38
672.892	82.38
