Data from Fe(NO3)3@0.0125M.TitratingCurve.Agarose3%dH2O.NegLispCup.LampEnergy10.LIBS07252019_HRD10591_16-58-55-342.txt Node
Date: Thu Jul 25 16:58:55 EDT 2019
User: cochatt
Spectrometer: HR+D1059
Trigger mode: 1
Integration Time (sec): 1.000000E-1
Scans to average: 1
Electric dark correction enabled: true
Nonlinearity correction enabled: false
Boxcar width: 0
XAxis mode: Wavelengths
Number of Pixels in Spectrum: 2048
>>>>>Begin Spectral Data<<<<<
223.165	-17.75
223.4	-17.75
223.635	-17.75
223.869	-22.75
224.104	-17.75
224.338	-5.75
224.573	-7.75
224.808	-17.75
225.042	-14.75
225.277	-16.75
225.511	-1.75
225.746	7.25
225.98	14.25
226.215	20.25
226.449	14.25
226.683	20.25
226.918	15.25
227.152	31.25
227.387	43.25
227.621	40.25
227.856	55.25
228.09	53.25
228.324	39.25
228.559	65.25
228.793	74.25
229.027	100.25
229.262	123.25
229.496	104.25
229.73	115.25
229.964	122.25
230.199	115.25
230.433	129.25
230.667	123.25
230.901	127.25
231.136	128.25
231.37	127.25
231.604	134.25
231.838	129.25
232.072	133.25
232.306	129.25
232.541	141.25
232.775	147.25
233.009	154.25
233.243	136.25
233.477	139.25
233.711	154.25
233.945	155.25
234.179	155.25
234.413	146.25
234.647	159.25
234.881	142.25
235.115	155.25
235.349	147.25
235.583	141.25
235.817	158.25
236.051	155.25
236.285	161.25
236.519	162.25
236.753	166.25
236.987	158.25
237.221	155.25
237.455	159.25
237.689	159.25
237.922	149.25
238.156	155.25
238.39	161.25
238.624	165.25
238.858	158.25
239.091	171.25
239.325	169.25
239.559	179.25
239.793	180.25
240.027	182.25
240.26	172.25
240.494	179.25
240.728	185.25
240.961	192.25
241.195	183.25
241.429	195.25
241.662	181.25
241.896	187.25
242.13	187.25
242.363	191.25
242.597	204.25
242.83	186.25
243.064	187.25
243.298	186.25
243.531	179.25
243.765	181.25
243.998	199.25
244.232	208.25
244.465	195.25
244.699	189.25
244.932	197.25
245.166	198.25
245.399	203.25
245.633	193.25
245.866	209.25
246.099	203.25
246.333	214.25
246.566	217.25
246.8	223.25
247.033	221.25
247.266	224.25
247.5	220.25
247.733	228.25
247.966	210.25
248.2	231.25
248.433	218.25
248.666	213.25
248.899	241.25
249.133	242.25
249.366	229.25
249.599	236.25
249.832	228.25
250.066	225.25
250.299	228.25
250.532	229.25
250.765	224.25
250.998	247.25
251.231	247.25
251.465	252.25
251.698	257.25
251.931	249.25
252.164	248.25
252.397	244.25
252.63	250.25
252.863	252.25
253.096	257.25
253.329	267.25
253.562	259.25
253.795	258.25
254.028	283.25
254.261	281.25
254.494	269.25
254.727	265.25
254.96	234.25
255.193	277.25
255.426	289.25
255.659	264.25
255.892	278.25
256.124	275.25
256.357	274.25
256.59	281.25
256.823	261.25
257.056	289.25
257.289	289.25
257.521	306.25
257.754	292.25
257.987	281.25
258.22	295.25
258.452	312.25
258.685	300.25
258.918	294.25
259.151	306.25
259.383	307.25
259.616	300.25
259.849	333.25
260.081	324.25
260.314	333.25
260.547	305.25
260.779	323.25
261.012	311.25
261.244	324.25
261.477	327.25
261.71	334.25
261.942	317.25
262.175	330.25
262.407	336.25
262.64	325.25
262.872	346.25
263.105	335.25
263.337	299.25
263.57	341.25
263.802	330.25
264.035	333.25
264.267	334.25
264.499	338.25
264.732	319.25
264.964	344.25
265.197	330.25
265.429	318.25
265.661	320.25
265.894	364.25
266.126	331.25
266.358	339.25
266.591	337.25
266.823	365.25
267.055	351.25
267.287	346.25
267.52	361.25
267.752	345.25
267.984	351.25
268.216	360.25
268.448	348.25
268.681	359.25
268.913	359.25
269.145	381.25
269.377	349.25
269.609	359.25
269.841	359.25
270.073	371.25
270.306	347.25
270.538	373.25
270.77	382.25
271.002	371.25
271.234	371.25
271.466	398.25
271.698	379.25
271.93	380.25
272.162	377.25
272.394	384.25
272.626	393.25
272.858	412.25
273.09	395.25
273.322	400.25
273.553	402.25
273.785	410.25
274.017	426.25
274.249	421.25
274.481	401.25
274.713	411.25
274.945	440.25
275.176	439.25
275.408	431.25
275.64	431.25
275.872	436.25
276.104	449.25
276.335	439.25
276.567	413.25
276.799	429.25
277.031	428.25
277.262	415.25
277.494	425.25
277.726	440.25
277.957	429.25
278.189	439.25
278.421	438.25
278.652	449.25
278.884	437.25
279.115	430.25
279.347	453.25
279.579	463.25
279.81	447.25
280.042	442.25
280.273	443.25
280.505	458.25
280.736	446.25
280.968	450.25
281.199	430.25
281.431	463.25
281.662	449.25
281.894	466.25
282.125	470.25
282.356	450.25
282.588	457.25
282.819	456.25
283.051	487.25
283.282	477.25
283.513	479.25
283.745	474.25
283.976	455.25
284.207	483.25
284.439	481.25
284.67	467.25
284.901	496.25
285.132	490.25
285.364	519.25
285.595	488.25
285.826	477.25
286.057	495.25
286.288	488.25
286.52	515.25
286.751	487.25
286.982	492.25
287.213	494.25
287.444	498.25
287.675	507.25
287.906	507.25
288.138	525.25
288.369	515.25
288.6	527.25
288.831	521.25
289.062	495.25
289.293	515.25
289.524	502.25
289.755	512.25
289.986	503.25
290.217	521.25
290.448	531.25
290.679	516.25
290.91	524.25
291.141	538.25
291.371	523.25
291.602	519.25
291.833	513.25
292.064	510.25
292.295	506.25
292.526	530.25
292.757	534.25
292.987	527.25
293.218	513.25
293.449	531.25
293.68	524.25
293.91	557.25
294.141	522.25
294.372	543.25
294.603	538.25
294.833	519.25
295.064	536.25
295.295	570.25
295.525	538.25
295.756	553.25
295.987	546.25
296.217	574.25
296.448	556.25
296.679	571.25
296.909	541.25
297.14	583.25
297.37	547.25
297.601	567.25
297.831	575.25
298.062	564.25
298.292	546.25
298.523	558.25
298.753	592.25
298.984	577.25
299.214	574.25
299.445	569.25
299.675	582.25
299.905	563.25
300.136	580.25
300.366	588.25
300.597	601.25
300.827	592.25
301.057	571.25
301.288	585.25
301.518	590.25
301.748	593.25
301.979	629.25
302.209	607.25
302.439	618.25
302.669	602.25
302.9	607.25
303.13	606.25
303.36	615.25
303.59	607.25
303.82	603.25
304.051	649.25
304.281	618.25
304.511	610.25
304.741	608.25
304.971	619.25
305.201	625.25
305.431	616.25
305.661	614.25
305.891	630.25
306.121	617.25
306.352	635.25
306.582	625.25
306.812	635.25
307.042	616.25
307.272	614.25
307.502	638.25
307.731	635.25
307.961	610.25
308.191	633.25
308.421	627.25
308.651	632.25
308.881	630.25
309.111	639.25
309.341	616.25
309.571	639.25
309.8	619.25
310.03	652.25
310.26	656.25
310.49	653.25
310.72	639.25
310.949	631.25
311.179	648.25
311.409	655.25
311.639	666.25
311.868	664.25
312.098	665.25
312.328	647.25
312.557	680.25
312.787	686.25
313.017	693.25
313.246	685.25
313.476	656.25
313.706	674.25
313.935	691.25
314.165	668.25
314.394	665.25
314.624	693.25
314.853	697.25
315.083	707.25
315.312	711.25
315.542	678.25
315.771	689.25
316.001	694.25
316.23	676.25
316.46	701.25
316.689	698.25
316.919	706.25
317.148	700.25
317.377	681.25
317.607	733.25
317.836	686.25
318.065	682.25
318.295	734.25
318.524	730.25
318.753	730.25
318.983	692.25
319.212	703.25
319.441	682.25
319.67	727.25
319.9	723.25
320.129	712.25
320.358	742.25
320.587	701.25
320.816	689.25
321.046	727.25
321.275	731.25
321.504	724.25
321.733	716.25
321.962	718.25
322.191	719.25
322.42	717.25
322.649	711.25
322.878	755.25
323.108	729.25
323.337	735.25
323.566	745.25
323.795	771.25
324.024	753.25
324.253	743.25
324.482	784.25
324.71	769.25
324.939	765.25
325.168	742.25
325.397	733.25
325.626	738.25
325.855	763.25
326.084	766.25
326.313	775.25
326.542	769.25
326.77	771.25
326.999	760.25
327.228	771.25
327.457	796.25
327.686	826.25
327.914	765.25
328.143	769.25
328.372	776.25
328.6	799.25
328.829	763.25
329.058	761.25
329.287	756.25
329.515	793.25
329.744	776.25
329.972	789.25
330.201	801.25
330.43	800.25
330.658	778.25
330.887	792.25
331.115	781.25
331.344	808.25
331.572	792.25
331.801	797.25
332.03	807.25
332.258	786.25
332.486	811.25
332.715	833.25
332.943	813.25
333.172	814.25
333.4	845.25
333.629	811.25
333.857	833.25
334.085	870.25
334.314	849.25
334.542	861.25
334.771	862.25
334.999	856.25
335.227	831.25
335.455	855.25
335.684	851.25
335.912	841.25
336.14	843.25
336.369	838.25
336.597	863.25
336.825	853.25
337.053	854.25
337.281	842.25
337.51	854.25
337.738	829.25
337.966	831.25
338.194	841.25
338.422	851.25
338.65	841.25
338.878	847.25
339.106	840.25
339.334	817.25
339.562	847.25
339.79	848.25
340.018	836.25
340.246	838.25
340.474	828.25
340.702	812.25
340.93	861.25
341.158	823.25
341.386	847.25
341.614	821.25
341.842	794.25
342.07	845.25
342.298	835.25
342.526	809.25
342.754	811.25
342.981	835.25
343.209	823.25
343.437	836.25
343.665	856.25
343.893	856.25
344.12	871.25
344.348	857.25
344.576	863.25
344.804	847.25
345.031	839.25
345.259	854.25
345.487	819.25
345.714	828.25
345.942	831.25
346.17	834.25
346.397	818.25
346.625	808.25
346.853	822.25
347.08	793.25
347.308	809.25
347.535	808.25
347.763	814.25
347.99	800.25
348.218	818.25
348.445	825.25
348.673	784.25
348.9	817.25
349.128	805.25
349.355	814.25
349.583	776.25
349.81	790.25
350.037	798.25
350.265	778.25
350.492	792.25
350.72	818.25
350.947	796.25
351.174	811.25
351.402	796.25
351.629	757.25
351.856	807.25
352.083	797.25
352.311	806.25
352.538	796.25
352.765	804.25
352.992	809.25
353.22	798.25
353.447	808.25
353.674	799.25
353.901	777.25
354.128	791.25
354.355	795.25
354.583	809.25
354.81	812.25
355.037	803.25
355.264	806.25
355.491	791.25
355.718	812.25
355.945	799.25
356.172	789.25
356.399	789.25
356.626	798.25
356.853	808.25
357.08	781.25
357.307	807.25
357.534	789.25
357.761	798.25
357.988	804.25
358.215	803.25
358.441	807.25
358.668	766.25
358.895	795.25
359.122	792.25
359.349	807.25
359.576	821.25
359.802	780.25
360.029	814.25
360.256	802.25
360.483	803.25
360.709	796.25
360.936	817.25
361.163	845.25
361.39	805.25
361.616	823.25
361.843	794.25
362.07	811.25
362.296	820.25
362.523	793.25
362.749	825.25
362.976	789.25
363.203	822.25
363.429	814.25
363.656	802.25
363.882	804.25
364.109	819.25
364.335	817.25
364.562	807.25
364.788	837.25
365.015	810.25
365.241	827.25
365.468	829.25
365.694	813.25
365.92	821.25
366.147	801.25
366.373	798.25
366.599	847.25
366.826	833.25
367.052	825.25
367.278	831.25
367.505	845.25
367.731	832.25
367.957	823.25
368.184	855.25
368.41	857.25
368.636	825.25
368.862	882.25
369.089	847.25
369.315	859.25
369.541	841.25
369.767	847.25
369.993	852.25
370.219	844.25
370.445	876.25
370.672	868.25
370.898	867.25
371.124	881.25
371.35	866.25
371.576	873.25
371.802	860.25
372.028	832.25
372.254	843.25
372.48	884.25
372.706	887.25
372.932	901.25
373.158	892.25
373.384	864.25
373.61	877.25
373.835	869.25
374.061	892.25
374.287	867.25
374.513	874.25
374.739	893.25
374.965	881.25
375.191	896.25
375.416	872.25
375.642	873.25
375.868	906.25
376.094	881.25
376.319	876.25
376.545	874.25
376.771	905.25
376.997	877.25
377.222	842.25
377.448	855.25
377.674	859.25
377.899	870.25
378.125	859.25
378.35	876.25
378.576	869.25
378.802	839.25
379.027	872.25
379.253	875.25
379.478	864.25
379.704	851.25
379.929	874.25
380.155	862.25
380.38	876.25
380.606	880.25
380.831	857.25
381.057	841.25
381.282	863.25
381.507	866.25
381.733	882.25
381.958	871.25
382.184	909.25
382.409	905.25
382.634	879.25
382.86	885.25
383.085	873.25
383.31	892.25
383.535	891.25
383.761	889.25
383.986	879.25
384.211	925.25
384.436	905.25
384.662	901.25
384.887	921.25
385.112	917.25
385.337	926.25
385.562	917.25
385.787	929.25
386.013	920.25
386.238	937.25
386.463	961.25
386.688	941.25
386.913	950.25
387.138	955.25
387.363	929.25
387.588	966.25
387.813	963.25
388.038	932.25
388.263	973.25
388.488	953.25
388.713	963.25
388.938	962.25
389.163	976.25
389.387	957.25
389.612	913.25
389.837	911.25
390.062	954.25
390.287	962.25
390.512	959.25
390.736	950.25
390.961	970.25
391.186	966.25
391.411	964.25
391.636	977.25
391.86	993.25
392.085	978.25
392.31	938.25
392.534	966.25
392.759	970.25
392.984	988.25
393.208	983.25
393.433	988.25
393.658	979.25
393.882	989.25
394.107	985.25
394.331	978.25
394.556	993.25
394.78	979.25
395.005	974.25
395.229	963.25
395.454	979.25
395.678	973.25
395.903	974.25
396.127	978.25
396.352	989.25
396.576	994.25
396.801	994.25
397.025	1009.25
397.249	977.25
397.474	1026.25
397.698	1022.25
397.922	1025.25
398.147	1019.25
398.371	1054.25
398.595	1037.25
398.82	1064.25
399.044	1050.25
399.268	1085.25
399.492	1133.25
399.717	1133.25
399.941	1109.25
400.165	1142.25
400.389	1126.25
400.613	1113.25
400.837	1089.25
401.062	1101.25
401.286	1081.25
401.51	1092.25
401.734	1069.25
401.958	1050.25
402.182	1054.25
402.406	1075.25
402.63	1057.25
402.854	1079.25
403.078	1066.25
403.302	1061.25
403.526	1077.25
403.75	1099.25
403.974	1047.25
404.198	1055.25
404.422	1054.25
404.645	1089.25
404.869	1056.25
405.093	1073.25
405.317	1023.25
405.541	1067.25
405.765	1085.25
405.988	1075.25
406.212	1100.25
406.436	1107.25
406.66	1107.25
406.883	1091.25
407.107	1129.25
407.331	1141.25
407.555	1125.25
407.778	1128.25
408.002	1163.25
408.226	1143.25
408.449	1134.25
408.673	1151.25
408.896	1146.25
409.12	1095.25
409.344	1126.25
409.567	1103.25
409.791	1101.25
410.014	1104.25
410.238	1132.25
410.461	1084.25
410.685	1092.25
410.908	1086.25
411.132	1076.25
411.355	1041.25
411.578	1086.25
411.802	1087.25
412.025	1117.25
412.249	1064.25
412.472	1067.25
412.695	1068.25
412.919	1078.25
413.142	1103.25
413.365	1074.25
413.589	1089.25
413.812	1045.25
414.035	1043.25
414.258	1055.25
414.482	1052.25
414.705	1059.25
414.928	1059.25
415.151	1042.25
415.374	1034.25
415.597	1040.25
415.821	1043.25
416.044	1032.25
416.267	1017.25
416.49	998.25
416.713	1009.25
416.936	1033.25
417.159	996.25
417.382	1001.25
417.605	1018.25
417.828	1026.25
418.051	999.25
418.274	1012.25
418.497	1010.25
418.72	1004.25
418.943	980.25
419.166	1035.25
419.389	1095.25
419.611	1066.25
419.834	1049.25
420.057	1044.25
420.28	1021.25
420.503	981.25
420.726	975.25
420.948	962.25
421.171	968.25
421.394	993.25
421.617	996.25
421.839	959.25
422.062	987.25
422.285	973.25
422.507	973.25
422.73	978.25
422.953	986.25
423.175	963.25
423.398	996.25
423.621	1006.25
423.843	983.25
424.066	975.25
424.288	969.25
424.511	991.25
424.733	986.25
424.956	990.25
425.178	989.25
425.401	973.25
425.623	969.25
425.846	979.25
426.068	971.25
426.291	1001.25
426.513	984.25
426.735	1005.25
426.958	976.25
427.18	948.25
427.402	978.25
427.625	990.25
427.847	950.25
428.069	954.25
428.292	988.25
428.514	969.25
428.736	949.25
428.958	969.25
429.181	969.25
429.403	996.25
429.625	967.25
429.847	938.25
430.069	949.25
430.292	946.25
430.514	955.25
430.736	950.25
430.958	974.25
431.18	949.25
431.402	971.25
431.624	936.25
431.846	983.25
432.068	955.25
432.29	977.25
432.512	962.25
432.734	961.25
432.956	926.25
433.178	966.25
433.4	961.25
433.622	971.25
433.844	962.25
434.066	951.25
434.287	966.25
434.509	986.25
434.731	973.25
434.953	948.25
435.175	976.25
435.397	984.25
435.618	975.25
435.84	978.25
436.062	951.25
436.284	934.25
436.505	929.25
436.727	948.25
436.949	963.25
437.17	939.25
437.392	933.25
437.614	943.25
437.835	922.25
438.057	937.25
438.278	918.25
438.5	918.25
438.721	940.25
438.943	950.25
439.165	915.25
439.386	899.25
439.608	956.25
439.829	942.25
440.05	915.25
440.272	938.25
440.493	939.25
440.715	943.25
440.936	950.25
441.158	929.25
441.379	951.25
441.6	955.25
441.822	963.25
442.043	974.25
442.264	949.25
442.486	923.25
442.707	969.25
442.928	962.25
443.149	969.25
443.371	946.25
443.592	973.25
443.813	929.25
444.034	942.25
444.255	963.25
444.476	959.25
444.698	981.25
444.919	964.25
445.14	1046.25
445.361	1005.25
445.582	964.25
445.803	932.25
446.024	943.25
446.245	950.25
446.466	952.25
446.687	917.25
446.908	931.25
447.129	931.25
447.35	920.25
447.571	918.25
447.792	894.25
448.013	898.25
448.234	888.25
448.455	862.25
448.675	889.25
448.896	901.25
449.117	886.25
449.338	889.25
449.559	901.25
449.779	875.25
450	871.25
450.221	885.25
450.442	889.25
450.662	836.25
450.883	857.25
451.104	865.25
451.324	886.25
451.545	862.25
451.766	873.25
451.986	857.25
452.207	885.25
452.428	886.25
452.648	865.25
452.869	874.25
453.089	840.25
453.31	871.25
453.53	857.25
453.751	867.25
453.971	837.25
454.192	853.25
454.412	852.25
454.633	859.25
454.853	843.25
455.073	855.25
455.294	860.25
455.514	872.25
455.734	828.25
455.955	833.25
456.175	849.25
456.395	834.25
456.616	841.25
456.836	841.25
457.056	866.25
457.276	837.25
457.497	853.25
457.717	862.25
457.937	869.25
458.157	864.25
458.377	876.25
458.598	885.25
458.818	889.25
459.038	873.25
459.258	899.25
459.478	931.25
459.698	930.25
459.918	934.25
460.138	935.25
460.358	963.25
460.578	947.25
460.798	948.25
461.018	937.25
461.238	944.25
461.458	966.25
461.678	948.25
461.898	974.25
462.118	963.25
462.338	968.25
462.558	1010.25
462.777	991.25
462.997	1014.25
463.217	1015.25
463.437	1054.25
463.657	1046.25
463.876	1026.25
464.096	1051.25
464.316	1001.25
464.536	1017.25
464.755	979.25
464.975	985.25
465.195	996.25
465.414	981.25
465.634	924.25
465.854	925.25
466.073	946.25
466.293	909.25
466.512	882.25
466.732	910.25
466.951	936.25
467.171	917.25
467.391	911.25
467.61	911.25
467.829	914.25
468.049	905.25
468.268	915.25
468.488	902.25
468.707	885.25
468.927	924.25
469.146	921.25
469.365	899.25
469.585	905.25
469.804	907.25
470.023	919.25
470.243	936.25
470.462	920.25
470.681	909.25
470.901	905.25
471.12	923.25
471.339	925.25
471.558	960.25
471.777	956.25
471.997	928.25
472.216	919.25
472.435	939.25
472.654	912.25
472.873	959.25
473.092	942.25
473.311	931.25
473.53	959.25
473.749	940.25
473.968	926.25
474.187	940.25
474.406	931.25
474.625	940.25
474.844	943.25
475.063	951.25
475.282	951.25
475.501	974.25
475.72	997.25
475.939	966.25
476.158	986.25
476.377	1001.25
476.596	1003.25
476.814	1001.25
477.033	1021.25
477.252	1011.25
477.471	992.25
477.69	1013.25
477.908	1034.25
478.127	1022.25
478.346	1045.25
478.564	1050.25
478.783	1073.25
479.002	1045.25
479.22	1097.25
479.439	1094.25
479.658	1083.25
479.876	1097.25
480.095	1109.25
480.313	1102.25
480.532	1100.25
480.751	1093.25
480.969	1117.25
481.188	1137.25
481.406	1114.25
481.624	1110.25
481.843	1096.25
482.061	1102.25
482.28	1113.25
482.498	1103.25
482.717	1095.25
482.935	1114.25
483.153	1133.25
483.372	1105.25
483.59	1118.25
483.808	1114.25
484.027	1116.25
484.245	1146.25
484.463	1108.25
484.681	1137.25
484.9	1136.25
485.118	1107.25
485.336	1149.25
485.554	1142.25
485.772	1148.25
485.99	1150.25
486.209	1101.25
486.427	1123.25
486.645	1118.25
486.863	1149.25
487.081	1129.25
487.299	1146.25
487.517	1162.25
487.735	1136.25
487.953	1151.25
488.171	1157.25
488.389	1142.25
488.607	1143.25
488.825	1135.25
489.043	1126.25
489.261	1144.25
489.479	1156.25
489.696	1140.25
489.914	1142.25
490.132	1141.25
490.35	1144.25
490.568	1141.25
490.786	1149.25
491.003	1175.25
491.221	1158.25
491.439	1164.25
491.657	1124.25
491.874	1203.25
492.092	1167.25
492.31	1165.25
492.527	1130.25
492.745	1156.25
492.963	1183.25
493.18	1187.25
493.398	1179.25
493.615	1170.25
493.833	1143.25
494.05	1197.25
494.268	1159.25
494.485	1195.25
494.703	1178.25
494.92	1177.25
495.138	1207.25
495.355	1196.25
495.573	1231.25
495.79	1195.25
496.008	1226.25
496.225	1241.25
496.442	1254.25
496.66	1252.25
496.877	1262.25
497.094	1274.25
497.312	1296.25
497.529	1291.25
497.746	1315.25
497.963	1354.25
498.181	1347.25
498.398	1360.25
498.615	1371.25
498.832	1395.25
499.049	1405.25
499.267	1498.25
499.484	1501.25
499.701	1506.25
499.918	1565.25
500.135	1598.25
500.352	1594.25
500.569	1618.25
500.786	1659.25
501.003	1635.25
501.22	1605.25
501.437	1575.25
501.654	1510.25
501.871	1440.25
502.088	1431.25
502.305	1449.25
502.522	1397.25
502.739	1390.25
502.956	1318.25
503.172	1314.25
503.389	1331.25
503.606	1248.25
503.823	1264.25
504.04	1262.25
504.256	1231.25
504.473	1228.25
504.69	1207.25
504.907	1212.25
505.123	1182.25
505.34	1173.25
505.557	1146.25
505.773	1165.25
505.99	1156.25
506.207	1115.25
506.423	1139.25
506.64	1107.25
506.856	1103.25
507.073	1095.25
507.289	1096.25
507.506	1089.25
507.722	1093.25
507.939	1078.25
508.155	1060.25
508.372	1039.25
508.588	1075.25
508.805	1041.25
509.021	1042.25
509.238	1051.25
509.454	1011.25
509.67	1022.25
509.887	1021.25
510.103	1002.25
510.319	1003.25
510.536	1016.25
510.752	986.25
510.968	1006.25
511.184	979.25
511.401	978.25
511.617	1001.25
511.833	1029.25
512.049	961.25
512.265	966.25
512.481	968.25
512.698	985.25
512.914	1000.25
513.13	958.25
513.346	988.25
513.562	1001.25
513.778	986.25
513.994	1011.25
514.21	982.25
514.426	994.25
514.642	988.25
514.858	990.25
515.074	1000.25
515.29	977.25
515.506	981.25
515.721	982.25
515.937	995.25
516.153	1009.25
516.369	1014.25
516.585	1027.25
516.801	1021.25
517.016	1002.25
517.232	1031.25
517.448	1047.25
517.664	1050.25
517.879	1058.25
518.095	1031.25
518.311	1029.25
518.527	997.25
518.742	1023.25
518.958	1011.25
519.173	1052.25
519.389	983.25
519.605	1006.25
519.82	973.25
520.036	1001.25
520.251	984.25
520.467	971.25
520.682	957.25
520.898	959.25
521.113	935.25
521.329	963.25
521.544	959.25
521.76	950.25
521.975	911.25
522.19	932.25
522.406	953.25
522.621	919.25
522.836	933.25
523.052	932.25
523.267	915.25
523.482	933.25
523.698	905.25
523.913	902.25
524.128	952.25
524.343	933.25
524.559	919.25
524.774	891.25
524.989	891.25
525.204	916.25
525.419	921.25
525.634	906.25
525.849	916.25
526.064	905.25
526.28	911.25
526.495	882.25
526.71	886.25
526.925	888.25
527.14	873.25
527.355	903.25
527.57	886.25
527.785	907.25
527.999	903.25
528.214	901.25
528.429	905.25
528.644	875.25
528.859	885.25
529.074	889.25
529.289	894.25
529.503	876.25
529.718	893.25
529.933	867.25
530.148	905.25
530.363	862.25
530.577	862.25
530.792	870.25
531.007	881.25
531.221	878.25
531.436	881.25
531.651	854.25
531.865	834.25
532.08	854.25
532.295	859.25
532.509	854.25
532.724	859.25
532.938	866.25
533.153	824.25
533.367	849.25
533.582	878.25
533.796	845.25
534.011	855.25
534.225	841.25
534.44	852.25
534.654	859.25
534.868	823.25
535.083	833.25
535.297	821.25
535.511	834.25
535.726	825.25
535.94	839.25
536.154	830.25
536.369	820.25
536.583	823.25
536.797	841.25
537.011	806.25
537.225	823.25
537.44	833.25
537.654	841.25
537.868	809.25
538.082	793.25
538.296	781.25
538.51	807.25
538.724	826.25
538.938	833.25
539.153	803.25
539.367	801.25
539.581	799.25
539.795	798.25
540.009	795.25
540.222	774.25
540.436	798.25
540.65	772.25
540.864	775.25
541.078	787.25
541.292	774.25
541.506	779.25
541.72	804.25
541.934	781.25
542.147	772.25
542.361	781.25
542.575	782.25
542.789	800.25
543.002	765.25
543.216	791.25
543.43	805.25
543.644	787.25
543.857	781.25
544.071	764.25
544.285	770.25
544.498	767.25
544.712	778.25
544.925	773.25
545.139	789.25
545.352	776.25
545.566	783.25
545.779	755.25
545.993	759.25
546.206	770.25
546.42	777.25
546.633	783.25
546.847	796.25
547.06	753.25
547.274	761.25
547.487	787.25
547.7	762.25
547.914	755.25
548.127	767.25
548.34	782.25
548.554	767.25
548.767	771.25
548.98	786.25
549.193	774.25
549.407	768.25
549.62	786.25
549.833	746.25
550.046	741.25
550.259	795.25
550.473	761.25
550.686	758.25
550.899	756.25
551.112	742.25
551.325	749.25
551.538	740.25
551.751	760.25
551.964	743.25
552.177	727.25
552.39	760.25
552.603	752.25
552.816	719.25
553.029	753.25
553.242	767.25
553.455	738.25
553.667	761.25
553.88	769.25
554.093	727.25
554.306	726.25
554.519	759.25
554.732	744.25
554.944	745.25
555.157	718.25
555.37	710.25
555.583	719.25
555.795	709.25
556.008	712.25
556.221	683.25
556.433	676.25
556.646	686.25
556.859	684.25
557.071	692.25
557.284	682.25
557.496	675.25
557.709	680.25
557.921	689.25
558.134	665.25
558.346	656.25
558.559	669.25
558.771	651.25
558.984	677.25
559.196	660.25
559.409	667.25
559.621	659.25
559.833	648.25
560.046	628.25
560.258	661.25
560.47	655.25
560.683	661.25
560.895	639.25
561.107	673.25
561.32	652.25
561.532	651.25
561.744	661.25
561.956	619.25
562.168	663.25
562.381	658.25
562.593	653.25
562.805	645.25
563.017	649.25
563.229	657.25
563.441	667.25
563.653	679.25
563.865	649.25
564.077	648.25
564.289	645.25
564.501	643.25
564.713	665.25
564.925	665.25
565.137	687.25
565.349	655.25
565.561	682.25
565.773	681.25
565.985	690.25
566.197	719.25
566.408	677.25
566.62	729.25
566.832	725.25
567.044	734.25
567.255	735.25
567.467	729.25
567.679	714.25
567.891	709.25
568.102	711.25
568.314	708.25
568.526	681.25
568.737	695.25
568.949	679.25
569.161	642.25
569.372	636.25
569.584	649.25
569.795	653.25
570.007	613.25
570.218	607.25
570.43	589.25
570.641	612.25
570.853	600.25
571.064	605.25
571.276	589.25
571.487	592.25
571.698	574.25
571.91	576.25
572.121	578.25
572.333	579.25
572.544	558.25
572.755	553.25
572.966	539.25
573.178	546.25
573.389	539.25
573.6	557.25
573.811	540.25
574.023	561.25
574.234	550.25
574.445	540.25
574.656	537.25
574.867	528.25
575.078	514.25
575.289	521.25
575.501	521.25
575.712	492.25
575.923	516.25
576.134	514.25
576.345	533.25
576.556	501.25
576.767	519.25
576.978	510.25
577.188	506.25
577.399	498.25
577.61	498.25
577.821	501.25
578.032	515.25
578.243	476.25
578.454	486.25
578.665	478.25
578.875	491.25
579.086	494.25
579.297	472.25
579.508	475.25
579.718	470.25
579.929	459.25
580.14	470.25
580.35	458.25
580.561	472.25
580.772	445.25
580.982	454.25
581.193	461.25
581.403	474.25
581.614	462.25
581.825	482.25
582.035	478.25
582.246	441.25
582.456	459.25
582.667	448.25
582.877	456.25
583.087	469.25
583.298	448.25
583.508	451.25
583.719	465.25
583.929	457.25
584.139	433.25
584.35	460.25
584.56	446.25
584.77	438.25
584.981	463.25
585.191	446.25
585.401	456.25
585.611	431.25
585.821	439.25
586.032	455.25
586.242	440.25
586.452	443.25
586.662	444.25
586.872	438.25
587.082	438.25
587.292	435.25
587.502	441.25
587.713	434.25
587.923	443.25
588.133	438.25
588.343	422.25
588.553	441.25
588.762	427.25
588.972	442.25
589.182	426.25
589.392	435.25
589.602	392.25
589.812	448.25
590.022	456.25
590.232	423.25
590.441	431.25
590.651	422.25
590.861	422.25
591.071	431.25
591.281	405.25
591.49	407.25
591.7	437.25
591.91	415.25
592.119	419.25
592.329	423.25
592.539	421.25
592.748	426.25
592.958	433.25
593.167	435.25
593.377	417.25
593.587	437.25
593.796	419.25
594.006	413.25
594.215	419.25
594.424	434.25
594.634	419.25
594.843	421.25
595.053	427.25
595.262	422.25
595.472	401.25
595.681	412.25
595.89	389.25
596.1	400.25
596.309	402.25
596.518	384.25
596.727	385.25
596.937	383.25
597.146	390.25
597.355	389.25
597.564	389.25
597.774	391.25
597.983	394.25
598.192	386.25
598.401	372.25
598.61	354.25
598.819	383.25
599.028	371.25
599.237	362.25
599.446	385.25
599.655	367.25
599.864	369.25
600.073	379.25
600.282	375.25
600.491	362.25
600.7	367.25
600.909	366.25
601.118	369.25
601.327	365.25
601.536	369.25
601.745	349.25
601.953	341.25
602.162	353.25
602.371	345.25
602.58	351.25
602.789	343.25
602.997	343.25
603.206	335.25
603.415	354.25
603.623	343.25
603.832	355.25
604.041	340.25
604.249	323.25
604.458	348.25
604.666	341.25
604.875	331.25
605.084	330.25
605.292	332.25
605.501	348.25
605.709	338.25
605.918	333.25
606.126	331.25
606.334	331.25
606.543	333.25
606.751	320.25
606.96	340.25
607.168	337.25
607.376	325.25
607.585	351.25
607.793	324.25
608.001	331.25
608.21	328.25
608.418	335.25
608.626	330.25
608.834	330.25
609.043	330.25
609.251	330.25
609.459	323.25
609.667	335.25
609.875	308.25
610.083	311.25
610.291	329.25
610.499	340.25
610.707	337.25
610.916	314.25
611.124	309.25
611.332	318.25
611.54	321.25
611.748	322.25
611.955	329.25
612.163	305.25
612.371	324.25
612.579	321.25
612.787	321.25
612.995	318.25
613.203	333.25
613.411	312.25
613.618	325.25
613.826	301.25
614.034	309.25
614.242	293.25
614.449	335.25
614.657	309.25
614.865	295.25
615.072	311.25
615.28	312.25
615.488	314.25
615.695	308.25
615.903	305.25
616.111	319.25
616.318	305.25
616.526	310.25
616.733	314.25
616.941	298.25
617.148	299.25
617.356	311.25
617.563	307.25
617.771	315.25
617.978	297.25
618.185	296.25
618.393	284.25
618.6	286.25
618.807	297.25
619.015	278.25
619.222	294.25
619.429	294.25
619.637	290.25
619.844	295.25
620.051	311.25
620.258	306.25
620.466	292.25
620.673	281.25
620.88	275.25
621.087	273.25
621.294	297.25
621.501	293.25
621.708	291.25
621.915	300.25
622.122	270.25
622.329	266.25
622.536	290.25
622.743	288.25
622.95	274.25
623.157	278.25
623.364	283.25
623.571	270.25
623.778	267.25
623.985	287.25
624.192	276.25
624.399	284.25
624.606	272.25
624.812	267.25
625.019	252.25
625.226	271.25
625.433	262.25
625.639	267.25
625.846	273.25
626.053	259.25
626.259	277.25
626.466	251.25
626.673	249.25
626.879	277.25
627.086	286.25
627.293	288.25
627.499	257.25
627.706	258.25
627.912	281.25
628.119	277.25
628.325	257.25
628.532	270.25
628.738	272.25
628.945	269.25
629.151	246.25
629.357	237.25
629.564	247.25
629.77	254.25
629.976	242.25
630.183	254.25
630.389	246.25
630.595	244.25
630.802	252.25
631.008	246.25
631.214	263.25
631.42	263.25
631.627	250.25
631.833	235.25
632.039	240.25
632.245	261.25
632.451	257.25
632.657	249.25
632.863	242.25
633.069	244.25
633.275	251.25
633.481	256.25
633.688	229.25
633.893	246.25
634.099	232.25
634.305	233.25
634.511	257.25
634.717	245.25
634.923	246.25
635.129	229.25
635.335	245.25
635.541	243.25
635.747	241.25
635.952	232.25
636.158	221.25
636.364	232.25
636.57	226.25
636.775	256.25
636.981	218.25
637.187	225.25
637.392	228.25
637.598	227.25
637.804	236.25
638.009	238.25
638.215	246.25
638.421	217.25
638.626	229.25
638.832	237.25
639.037	232.25
639.243	201.25
639.448	231.25
639.654	235.25
639.859	219.25
640.065	233.25
640.27	231.25
640.475	238.25
640.681	212.25
640.886	230.25
641.091	212.25
641.297	212.25
641.502	227.25
641.707	231.25
641.913	215.25
642.118	240.25
642.323	208.25
642.528	221.25
642.733	205.25
642.939	218.25
643.144	225.25
643.349	228.25
643.554	201.25
643.759	206.25
643.964	207.25
644.169	217.25
644.374	220.25
644.579	223.25
644.784	215.25
644.989	198.25
645.194	202.25
645.399	218.25
645.604	230.25
645.809	197.25
646.014	218.25
646.219	221.25
646.423	225.25
646.628	226.25
646.833	216.25
647.038	222.25
647.243	223.25
647.447	219.25
647.652	214.25
647.857	214.25
648.062	225.25
648.266	220.25
648.471	204.25
648.676	221.25
648.88	220.25
649.085	220.25
649.289	226.25
649.494	221.25
649.698	224.25
649.903	224.25
650.107	221.25
650.312	216.25
650.516	222.25
650.721	218.25
650.925	215.25
651.13	204.25
651.334	213.25
651.539	209.25
651.743	216.25
651.947	214.25
652.152	196.25
652.356	188.25
652.56	192.25
652.764	205.25
652.969	202.25
653.173	211.25
653.377	198.25
653.581	200.25
653.785	204.25
653.99	191.25
654.194	203.25
654.398	187.25
654.602	202.25
654.806	198.25
655.01	211.25
655.214	209.25
655.418	205.25
655.622	213.25
655.826	189.25
656.03	210.25
656.234	211.25
656.438	185.25
656.642	204.25
656.846	193.25
657.049	200.25
657.253	181.25
657.457	185.25
657.661	185.25
657.865	163.25
658.068	159.25
658.272	154.25
658.476	131.25
658.68	147.25
658.883	131.25
659.087	136.25
659.291	123.25
659.494	123.25
659.698	122.25
659.901	117.25
660.105	120.25
660.309	115.25
660.512	118.25
660.716	107.25
660.919	118.25
661.123	105.25
661.326	111.25
661.53	104.25
661.733	98.25
661.936	109.25
662.14	90.25
662.343	97.25
662.546	98.25
662.75	86.25
662.953	93.25
663.156	86.25
663.36	68.25
663.563	85.25
663.766	92.25
663.969	98.25
664.173	84.25
664.376	71.25
664.579	79.25
664.782	85.25
664.985	80.25
665.188	83.25
665.391	92.25
665.594	75.25
665.797	85.25
666	81.25
666.203	92.25
666.406	78.25
666.609	82.25
666.812	83.25
667.015	97.25
667.218	80.25
667.421	77.25
667.624	83.25
667.827	85.25
668.03	84.25
668.232	78.25
668.435	81.25
668.638	85.25
668.841	89.25
669.043	90.25
669.246	81.25
669.449	79.25
669.651	88.25
669.854	85.25
670.057	86.25
670.259	77.25
670.462	72.25
670.665	83.25
670.867	68.25
671.07	92.25
671.272	72.25
671.475	78.25
671.677	94.25
671.88	86.25
672.082	82.25
672.284	88.25
672.487	91.25
672.689	85.25
672.892	88.25
