Data from Fe(NO3)3@0.05M.TitratingCurve.Agarose3%dH2O.NegLispCup.LampEnergy10.LIBS07252019_HRD10591_16-47-16-334.txt Node
Date: Thu Jul 25 16:47:16 EDT 2019
User: cochatt
Spectrometer: HR+D1059
Trigger mode: 1
Integration Time (sec): 1.000000E-1
Scans to average: 1
Electric dark correction enabled: true
Nonlinearity correction enabled: false
Boxcar width: 0
XAxis mode: Wavelengths
Number of Pixels in Spectrum: 2048
>>>>>Begin Spectral Data<<<<<
223.165	-14.12
223.4	-14.12
223.635	-14.12
223.869	-21.12
224.104	-5.12
224.338	-27.12
224.573	-12.12
224.808	-16.12
225.042	-8.12
225.277	3.88
225.511	-11.12
225.746	1.88
225.98	17.88
226.215	8.88
226.449	3.88
226.683	25.88
226.918	35.88
227.152	16.88
227.387	28.88
227.621	38.88
227.856	46.88
228.09	53.88
228.324	48.88
228.559	54.88
228.793	58.88
229.027	83.88
229.262	91.88
229.496	82.88
229.73	90.88
229.964	107.88
230.199	113.88
230.433	111.88
230.667	98.88
230.901	118.88
231.136	118.88
231.37	110.88
231.604	118.88
231.838	118.88
232.072	121.88
232.306	117.88
232.541	123.88
232.775	121.88
233.009	117.88
233.243	121.88
233.477	128.88
233.711	131.88
233.945	118.88
234.179	111.88
234.413	121.88
234.647	131.88
234.881	136.88
235.115	133.88
235.349	130.88
235.583	133.88
235.817	115.88
236.051	134.88
236.285	133.88
236.519	133.88
236.753	132.88
236.987	121.88
237.221	124.88
237.455	122.88
237.689	133.88
237.922	134.88
238.156	130.88
238.39	131.88
238.624	142.88
238.858	130.88
239.091	138.88
239.325	139.88
239.559	133.88
239.793	144.88
240.027	146.88
240.26	150.88
240.494	135.88
240.728	151.88
240.961	136.88
241.195	158.88
241.429	146.88
241.662	145.88
241.896	145.88
242.13	143.88
242.363	143.88
242.597	149.88
242.83	156.88
243.064	143.88
243.298	142.88
243.531	156.88
243.765	157.88
243.998	163.88
244.232	156.88
244.465	151.88
244.699	146.88
244.932	156.88
245.166	168.88
245.399	170.88
245.633	166.88
245.866	159.88
246.099	153.88
246.333	160.88
246.566	173.88
246.8	177.88
247.033	153.88
247.266	158.88
247.5	154.88
247.733	169.88
247.966	167.88
248.2	171.88
248.433	175.88
248.666	177.88
248.899	190.88
249.133	173.88
249.366	179.88
249.599	191.88
249.832	171.88
250.066	179.88
250.299	183.88
250.532	169.88
250.765	177.88
250.998	193.88
251.231	176.88
251.465	195.88
251.698	176.88
251.931	190.88
252.164	180.88
252.397	172.88
252.63	203.88
252.863	196.88
253.096	207.88
253.329	206.88
253.562	203.88
253.795	209.88
254.028	205.88
254.261	214.88
254.494	223.88
254.727	205.88
254.96	195.88
255.193	204.88
255.426	191.88
255.659	212.88
255.892	214.88
256.124	189.88
256.357	218.88
256.59	219.88
256.823	197.88
257.056	206.88
257.289	208.88
257.521	217.88
257.754	211.88
257.987	230.88
258.22	207.88
258.452	211.88
258.685	227.88
258.918	218.88
259.151	225.88
259.383	227.88
259.616	230.88
259.849	223.88
260.081	252.88
260.314	261.88
260.547	217.88
260.779	233.88
261.012	237.88
261.244	241.88
261.477	235.88
261.71	255.88
261.942	236.88
262.175	217.88
262.407	237.88
262.64	247.88
262.872	245.88
263.105	258.88
263.337	251.88
263.57	265.88
263.802	235.88
264.035	239.88
264.267	227.88
264.499	218.88
264.732	253.88
264.964	241.88
265.197	233.88
265.429	221.88
265.661	235.88
265.894	254.88
266.126	246.88
266.358	255.88
266.591	241.88
266.823	264.88
267.055	260.88
267.287	255.88
267.52	254.88
267.752	248.88
267.984	262.88
268.216	245.88
268.448	266.88
268.681	250.88
268.913	267.88
269.145	252.88
269.377	239.88
269.609	260.88
269.841	263.88
270.073	263.88
270.306	270.88
270.538	272.88
270.77	277.88
271.002	271.88
271.234	251.88
271.466	271.88
271.698	274.88
271.93	259.88
272.162	269.88
272.394	271.88
272.626	263.88
272.858	277.88
273.09	289.88
273.322	273.88
273.553	265.88
273.785	280.88
274.017	292.88
274.249	301.88
274.481	303.88
274.713	310.88
274.945	329.88
275.176	329.88
275.408	309.88
275.64	322.88
275.872	301.88
276.104	281.88
276.335	303.88
276.567	266.88
276.799	309.88
277.031	288.88
277.262	285.88
277.494	305.88
277.726	275.88
277.957	289.88
278.189	302.88
278.421	302.88
278.652	304.88
278.884	306.88
279.115	314.88
279.347	283.88
279.579	283.88
279.81	304.88
280.042	290.88
280.273	299.88
280.505	296.88
280.736	328.88
280.968	310.88
281.199	306.88
281.431	317.88
281.662	302.88
281.894	321.88
282.125	323.88
282.356	308.88
282.588	321.88
282.819	319.88
283.051	325.88
283.282	313.88
283.513	319.88
283.745	328.88
283.976	301.88
284.207	320.88
284.439	329.88
284.67	342.88
284.901	325.88
285.132	318.88
285.364	327.88
285.595	337.88
285.826	331.88
286.057	325.88
286.288	328.88
286.52	327.88
286.751	338.88
286.982	343.88
287.213	349.88
287.444	338.88
287.675	340.88
287.906	344.88
288.138	341.88
288.369	336.88
288.6	356.88
288.831	338.88
289.062	346.88
289.293	330.88
289.524	331.88
289.755	325.88
289.986	328.88
290.217	343.88
290.448	349.88
290.679	346.88
290.91	327.88
291.141	350.88
291.371	351.88
291.602	352.88
291.833	351.88
292.064	349.88
292.295	352.88
292.526	345.88
292.757	374.88
292.987	335.88
293.218	346.88
293.449	376.88
293.68	342.88
293.91	331.88
294.141	367.88
294.372	349.88
294.603	354.88
294.833	358.88
295.064	368.88
295.295	355.88
295.525	356.88
295.756	352.88
295.987	359.88
296.217	381.88
296.448	369.88
296.679	362.88
296.909	355.88
297.14	372.88
297.37	343.88
297.601	373.88
297.831	363.88
298.062	388.88
298.292	363.88
298.523	373.88
298.753	361.88
298.984	368.88
299.214	351.88
299.445	370.88
299.675	387.88
299.905	378.88
300.136	367.88
300.366	369.88
300.597	375.88
300.827	386.88
301.057	406.88
301.288	391.88
301.518	395.88
301.748	403.88
301.979	425.88
302.209	426.88
302.439	396.88
302.669	379.88
302.9	378.88
303.13	395.88
303.36	390.88
303.59	388.88
303.82	396.88
304.051	417.88
304.281	413.88
304.511	398.88
304.741	393.88
304.971	389.88
305.201	412.88
305.431	423.88
305.661	404.88
305.891	417.88
306.121	399.88
306.352	392.88
306.582	401.88
306.812	397.88
307.042	399.88
307.272	414.88
307.502	394.88
307.731	400.88
307.961	391.88
308.191	410.88
308.421	388.88
308.651	393.88
308.881	406.88
309.111	378.88
309.341	382.88
309.571	396.88
309.8	387.88
310.03	405.88
310.26	387.88
310.49	405.88
310.72	409.88
310.949	394.88
311.179	403.88
311.409	409.88
311.639	397.88
311.868	413.88
312.098	414.88
312.328	418.88
312.557	413.88
312.787	406.88
313.017	404.88
313.246	431.88
313.476	403.88
313.706	413.88
313.935	408.88
314.165	424.88
314.394	413.88
314.624	426.88
314.853	403.88
315.083	441.88
315.312	437.88
315.542	439.88
315.771	426.88
316.001	431.88
316.23	436.88
316.46	405.88
316.689	414.88
316.919	433.88
317.148	420.88
317.377	415.88
317.607	438.88
317.836	423.88
318.065	416.88
318.295	431.88
318.524	401.88
318.753	427.88
318.983	424.88
319.212	438.88
319.441	419.88
319.67	401.88
319.9	443.88
320.129	435.88
320.358	447.88
320.587	429.88
320.816	421.88
321.046	417.88
321.275	431.88
321.504	418.88
321.733	409.88
321.962	420.88
322.191	441.88
322.42	429.88
322.649	438.88
322.878	456.88
323.108	447.88
323.337	455.88
323.566	449.88
323.795	445.88
324.024	459.88
324.253	453.88
324.482	450.88
324.71	459.88
324.939	440.88
325.168	434.88
325.397	445.88
325.626	468.88
325.855	456.88
326.084	468.88
326.313	462.88
326.542	460.88
326.77	469.88
326.999	471.88
327.228	479.88
327.457	481.88
327.686	470.88
327.914	479.88
328.143	462.88
328.372	470.88
328.6	481.88
328.829	465.88
329.058	470.88
329.287	473.88
329.515	458.88
329.744	447.88
329.972	483.88
330.201	475.88
330.43	468.88
330.658	454.88
330.887	476.88
331.115	490.88
331.344	478.88
331.572	479.88
331.801	495.88
332.03	490.88
332.258	509.88
332.486	520.88
332.715	511.88
332.943	562.88
333.172	545.88
333.4	573.88
333.629	579.88
333.857	557.88
334.085	606.88
334.314	586.88
334.542	587.88
334.771	571.88
334.999	563.88
335.227	571.88
335.455	571.88
335.684	561.88
335.912	550.88
336.14	570.88
336.369	539.88
336.597	548.88
336.825	534.88
337.053	553.88
337.281	544.88
337.51	526.88
337.738	521.88
337.966	546.88
338.194	494.88
338.422	519.88
338.65	504.88
338.878	514.88
339.106	515.88
339.334	532.88
339.562	503.88
339.79	489.88
340.018	496.88
340.246	500.88
340.474	514.88
340.702	484.88
340.93	501.88
341.158	486.88
341.386	482.88
341.614	499.88
341.842	488.88
342.07	523.88
342.298	482.88
342.526	482.88
342.754	489.88
342.981	502.88
343.209	506.88
343.437	524.88
343.665	519.88
343.893	551.88
344.12	572.88
344.348	555.88
344.576	537.88
344.804	533.88
345.031	531.88
345.259	496.88
345.487	497.88
345.714	511.88
345.942	501.88
346.17	477.88
346.397	496.88
346.625	483.88
346.853	487.88
347.08	488.88
347.308	482.88
347.535	470.88
347.763	498.88
347.99	492.88
348.218	489.88
348.445	517.88
348.673	469.88
348.9	472.88
349.128	494.88
349.355	475.88
349.583	451.88
349.81	479.88
350.037	487.88
350.265	463.88
350.492	511.88
350.72	482.88
350.947	477.88
351.174	480.88
351.402	471.88
351.629	467.88
351.856	475.88
352.083	473.88
352.311	483.88
352.538	457.88
352.765	464.88
352.992	460.88
353.22	466.88
353.447	467.88
353.674	448.88
353.901	454.88
354.128	455.88
354.355	459.88
354.583	476.88
354.81	484.88
355.037	481.88
355.264	461.88
355.491	469.88
355.718	477.88
355.945	481.88
356.172	490.88
356.399	474.88
356.626	483.88
356.853	469.88
357.08	490.88
357.307	479.88
357.534	485.88
357.761	471.88
357.988	486.88
358.215	487.88
358.441	504.88
358.668	474.88
358.895	486.88
359.122	469.88
359.349	468.88
359.576	475.88
359.802	467.88
360.029	473.88
360.256	494.88
360.483	476.88
360.709	464.88
360.936	470.88
361.163	485.88
361.39	466.88
361.616	469.88
361.843	472.88
362.07	481.88
362.296	473.88
362.523	490.88
362.749	473.88
362.976	479.88
363.203	495.88
363.429	491.88
363.656	488.88
363.882	477.88
364.109	477.88
364.335	490.88
364.562	497.88
364.788	481.88
365.015	498.88
365.241	474.88
365.468	469.88
365.694	469.88
365.92	476.88
366.147	521.88
366.373	467.88
366.599	491.88
366.826	485.88
367.052	486.88
367.278	482.88
367.505	490.88
367.731	441.88
367.957	486.88
368.184	496.88
368.41	487.88
368.636	507.88
368.862	500.88
369.089	500.88
369.315	479.88
369.541	497.88
369.767	497.88
369.993	489.88
370.219	481.88
370.445	500.88
370.672	519.88
370.898	515.88
371.124	525.88
371.35	541.88
371.576	519.88
371.802	515.88
372.028	523.88
372.254	536.88
372.48	547.88
372.706	559.88
372.932	543.88
373.158	546.88
373.384	547.88
373.61	562.88
373.835	571.88
374.061	553.88
374.287	535.88
374.513	561.88
374.739	548.88
374.965	565.88
375.191	597.88
375.416	567.88
375.642	557.88
375.868	567.88
376.094	557.88
376.319	553.88
376.545	530.88
376.771	551.88
376.997	527.88
377.222	495.88
377.448	522.88
377.674	539.88
377.899	506.88
378.125	544.88
378.35	536.88
378.576	531.88
378.802	547.88
379.027	534.88
379.253	519.88
379.478	514.88
379.704	534.88
379.929	525.88
380.155	525.88
380.38	536.88
380.606	536.88
380.831	535.88
381.057	538.88
381.282	550.88
381.507	536.88
381.733	567.88
381.958	536.88
382.184	557.88
382.409	576.88
382.634	559.88
382.86	604.88
383.085	586.88
383.31	585.88
383.535	618.88
383.761	581.88
383.986	600.88
384.211	590.88
384.436	588.88
384.662	586.88
384.887	612.88
385.112	624.88
385.337	619.88
385.562	613.88
385.787	636.88
386.013	632.88
386.238	617.88
386.463	649.88
386.688	627.88
386.913	619.88
387.138	633.88
387.363	637.88
387.588	637.88
387.813	635.88
388.038	633.88
388.263	619.88
388.488	637.88
388.713	631.88
388.938	628.88
389.163	633.88
389.387	617.88
389.612	616.88
389.837	632.88
390.062	618.88
390.287	628.88
390.512	639.88
390.736	631.88
390.961	641.88
391.186	647.88
391.411	673.88
391.636	647.88
391.86	680.88
392.085	711.88
392.31	693.88
392.534	682.88
392.759	685.88
392.984	671.88
393.208	694.88
393.433	650.88
393.658	671.88
393.882	663.88
394.107	677.88
394.331	666.88
394.556	668.88
394.78	675.88
395.005	681.88
395.229	672.88
395.454	700.88
395.678	680.88
395.903	704.88
396.127	699.88
396.352	682.88
396.576	702.88
396.801	695.88
397.025	688.88
397.249	710.88
397.474	719.88
397.698	693.88
397.922	727.88
398.147	728.88
398.371	737.88
398.595	762.88
398.82	782.88
399.044	833.88
399.268	859.88
399.492	930.88
399.717	981.88
399.941	1009.88
400.165	961.88
400.389	892.88
400.613	869.88
400.837	799.88
401.062	810.88
401.286	794.88
401.51	801.88
401.734	783.88
401.958	824.88
402.182	781.88
402.406	779.88
402.63	785.88
402.854	822.88
403.078	811.88
403.302	815.88
403.526	803.88
403.75	817.88
403.974	807.88
404.198	825.88
404.422	848.88
404.645	845.88
404.869	840.88
405.093	823.88
405.317	809.88
405.541	851.88
405.765	836.88
405.988	848.88
406.212	816.88
406.436	858.88
406.66	884.88
406.883	872.88
407.107	883.88
407.331	913.88
407.555	964.88
407.778	951.88
408.002	942.88
408.226	918.88
408.449	938.88
408.673	894.88
408.896	897.88
409.12	861.88
409.344	873.88
409.567	880.88
409.791	875.88
410.014	865.88
410.238	859.88
410.461	838.88
410.685	851.88
410.908	863.88
411.132	837.88
411.355	817.88
411.578	836.88
411.802	819.88
412.025	830.88
412.249	864.88
412.472	822.88
412.695	808.88
412.919	773.88
413.142	805.88
413.365	806.88
413.589	797.88
413.812	792.88
414.035	804.88
414.258	806.88
414.482	799.88
414.705	814.88
414.928	811.88
415.151	796.88
415.374	808.88
415.597	804.88
415.821	800.88
416.044	786.88
416.267	774.88
416.49	751.88
416.713	785.88
416.936	802.88
417.159	781.88
417.382	761.88
417.605	752.88
417.828	769.88
418.051	754.88
418.274	778.88
418.497	770.88
418.72	783.88
418.943	780.88
419.166	863.88
419.389	862.88
419.611	867.88
419.834	832.88
420.057	796.88
420.28	789.88
420.503	776.88
420.726	753.88
420.948	754.88
421.171	780.88
421.394	750.88
421.617	759.88
421.839	786.88
422.062	773.88
422.285	767.88
422.507	768.88
422.73	778.88
422.953	793.88
423.175	794.88
423.398	775.88
423.621	776.88
423.843	801.88
424.066	799.88
424.288	799.88
424.511	758.88
424.733	777.88
424.956	777.88
425.178	752.88
425.401	738.88
425.623	773.88
425.846	775.88
426.068	746.88
426.291	765.88
426.513	743.88
426.735	755.88
426.958	780.88
427.18	746.88
427.402	744.88
427.625	737.88
427.847	718.88
428.069	728.88
428.292	737.88
428.514	720.88
428.736	704.88
428.958	757.88
429.181	714.88
429.403	672.88
429.625	696.88
429.847	709.88
430.069	693.88
430.292	705.88
430.514	682.88
430.736	702.88
430.958	719.88
431.18	722.88
431.402	698.88
431.624	685.88
431.846	709.88
432.068	717.88
432.29	726.88
432.512	701.88
432.734	724.88
432.956	738.88
433.178	730.88
433.4	755.88
433.622	750.88
433.844	739.88
434.066	742.88
434.287	739.88
434.509	761.88
434.731	741.88
434.953	768.88
435.175	793.88
435.397	770.88
435.618	766.88
435.84	760.88
436.062	712.88
436.284	726.88
436.505	725.88
436.727	723.88
436.949	732.88
437.17	729.88
437.392	711.88
437.614	713.88
437.835	717.88
438.057	707.88
438.278	700.88
438.5	704.88
438.721	713.88
438.943	683.88
439.165	682.88
439.386	696.88
439.608	706.88
439.829	737.88
440.05	739.88
440.272	736.88
440.493	735.88
440.715	736.88
440.936	741.88
441.158	737.88
441.379	756.88
441.6	777.88
441.822	792.88
442.043	778.88
442.264	765.88
442.486	746.88
442.707	769.88
442.928	785.88
443.149	759.88
443.371	775.88
443.592	784.88
443.813	787.88
444.034	816.88
444.255	793.88
444.476	816.88
444.698	831.88
444.919	864.88
445.14	921.88
445.361	851.88
445.582	808.88
445.803	788.88
446.024	765.88
446.245	777.88
446.466	749.88
446.687	749.88
446.908	746.88
447.129	734.88
447.35	702.88
447.571	733.88
447.792	681.88
448.013	702.88
448.234	709.88
448.455	705.88
448.675	694.88
448.896	672.88
449.117	671.88
449.338	663.88
449.559	671.88
449.779	692.88
450	659.88
450.221	669.88
450.442	685.88
450.662	681.88
450.883	683.88
451.104	697.88
451.324	685.88
451.545	693.88
451.766	691.88
451.986	657.88
452.207	671.88
452.428	678.88
452.648	679.88
452.869	630.88
453.089	627.88
453.31	634.88
453.53	643.88
453.751	634.88
453.971	626.88
454.192	635.88
454.412	633.88
454.633	624.88
454.853	612.88
455.073	633.88
455.294	621.88
455.514	637.88
455.734	632.88
455.955	633.88
456.175	632.88
456.395	662.88
456.616	637.88
456.836	633.88
457.056	643.88
457.276	632.88
457.497	647.88
457.717	631.88
457.937	674.88
458.157	647.88
458.377	639.88
458.598	665.88
458.818	667.88
459.038	682.88
459.258	667.88
459.478	711.88
459.698	717.88
459.918	768.88
460.138	748.88
460.358	778.88
460.578	817.88
460.798	822.88
461.018	819.88
461.238	832.88
461.458	821.88
461.678	797.88
461.898	823.88
462.118	836.88
462.338	866.88
462.558	886.88
462.777	898.88
462.997	923.88
463.217	973.88
463.437	991.88
463.657	931.88
463.876	929.88
464.096	944.88
464.316	919.88
464.536	907.88
464.755	899.88
464.975	851.88
465.195	846.88
465.414	799.88
465.634	781.88
465.854	770.88
466.073	758.88
466.293	755.88
466.512	723.88
466.732	710.88
466.951	714.88
467.171	697.88
467.391	697.88
467.61	694.88
467.829	704.88
468.049	719.88
468.268	689.88
468.488	688.88
468.707	649.88
468.927	730.88
469.146	708.88
469.365	706.88
469.585	695.88
469.804	711.88
470.023	736.88
470.243	709.88
470.462	740.88
470.681	741.88
470.901	736.88
471.12	726.88
471.339	716.88
471.558	705.88
471.777	702.88
471.997	688.88
472.216	700.88
472.435	677.88
472.654	657.88
472.873	679.88
473.092	675.88
473.311	673.88
473.53	660.88
473.749	662.88
473.968	688.88
474.187	651.88
474.406	685.88
474.625	688.88
474.844	683.88
475.063	664.88
475.282	691.88
475.501	692.88
475.72	686.88
475.939	717.88
476.158	710.88
476.377	702.88
476.596	720.88
476.814	735.88
477.033	712.88
477.252	734.88
477.471	729.88
477.69	767.88
477.908	752.88
478.127	793.88
478.346	773.88
478.564	774.88
478.783	803.88
479.002	830.88
479.22	817.88
479.439	852.88
479.658	840.88
479.876	801.88
480.095	839.88
480.313	866.88
480.532	825.88
480.751	842.88
480.969	831.88
481.188	840.88
481.406	823.88
481.624	801.88
481.843	773.88
482.061	779.88
482.28	790.88
482.498	801.88
482.717	769.88
482.935	779.88
483.153	772.88
483.372	771.88
483.59	789.88
483.808	811.88
484.027	783.88
484.245	791.88
484.463	803.88
484.681	787.88
484.9	804.88
485.118	781.88
485.336	808.88
485.554	819.88
485.772	798.88
485.99	817.88
486.209	805.88
486.427	801.88
486.645	813.88
486.863	838.88
487.081	795.88
487.299	801.88
487.517	816.88
487.735	805.88
487.953	816.88
488.171	823.88
488.389	827.88
488.607	810.88
488.825	794.88
489.043	802.88
489.261	795.88
489.479	817.88
489.696	830.88
489.914	811.88
490.132	804.88
490.35	813.88
490.568	832.88
490.786	836.88
491.003	848.88
491.221	831.88
491.439	803.88
491.657	820.88
491.874	856.88
492.092	840.88
492.31	867.88
492.527	841.88
492.745	836.88
492.963	851.88
493.18	843.88
493.398	836.88
493.615	839.88
493.833	846.88
494.05	834.88
494.268	883.88
494.485	850.88
494.703	868.88
494.92	866.88
495.138	866.88
495.355	861.88
495.573	850.88
495.79	879.88
496.008	903.88
496.225	911.88
496.442	935.88
496.66	918.88
496.877	899.88
497.094	909.88
497.312	936.88
497.529	931.88
497.746	970.88
497.963	1003.88
498.181	1002.88
498.398	1037.88
498.615	1152.88
498.832	1164.88
499.049	1217.88
499.267	1275.88
499.484	1371.88
499.701	1472.88
499.918	1567.88
500.135	1679.88
500.352	1827.88
500.569	1871.88
500.786	1834.88
501.003	1758.88
501.22	1687.88
501.437	1550.88
501.654	1411.88
501.871	1325.88
502.088	1247.88
502.305	1177.88
502.522	1161.88
502.739	1109.88
502.956	1078.88
503.172	1044.88
503.389	1015.88
503.606	995.88
503.823	979.88
504.04	947.88
504.256	965.88
504.473	963.88
504.69	951.88
504.907	946.88
505.123	898.88
505.34	861.88
505.557	845.88
505.773	832.88
505.99	809.88
506.207	798.88
506.423	792.88
506.64	804.88
506.856	793.88
507.073	765.88
507.289	776.88
507.506	750.88
507.722	734.88
507.939	743.88
508.155	720.88
508.372	743.88
508.588	739.88
508.805	724.88
509.021	741.88
509.238	708.88
509.454	711.88
509.67	713.88
509.887	706.88
510.103	701.88
510.319	713.88
510.536	712.88
510.752	678.88
510.968	706.88
511.184	706.88
511.401	703.88
511.617	677.88
511.833	699.88
512.049	656.88
512.265	717.88
512.481	694.88
512.698	677.88
512.914	693.88
513.13	692.88
513.346	696.88
513.562	689.88
513.778	694.88
513.994	687.88
514.21	716.88
514.426	720.88
514.642	707.88
514.858	725.88
515.074	718.88
515.29	718.88
515.506	701.88
515.721	722.88
515.937	715.88
516.153	735.88
516.369	746.88
516.585	778.88
516.801	791.88
517.016	779.88
517.232	825.88
517.448	824.88
517.664	826.88
517.879	848.88
518.095	846.88
518.311	828.88
518.527	825.88
518.742	774.88
518.958	771.88
519.173	764.88
519.389	735.88
519.605	755.88
519.82	742.88
520.036	746.88
520.251	736.88
520.467	708.88
520.682	684.88
520.898	667.88
521.113	697.88
521.329	676.88
521.544	665.88
521.76	680.88
521.975	663.88
522.19	671.88
522.406	649.88
522.621	677.88
522.836	628.88
523.052	637.88
523.267	626.88
523.482	653.88
523.698	629.88
523.913	641.88
524.128	645.88
524.343	631.88
524.559	627.88
524.774	649.88
524.989	619.88
525.204	623.88
525.419	632.88
525.634	625.88
525.849	643.88
526.064	642.88
526.28	623.88
526.495	618.88
526.71	608.88
526.925	642.88
527.14	616.88
527.355	639.88
527.57	628.88
527.785	615.88
527.999	621.88
528.214	621.88
528.429	599.88
528.644	626.88
528.859	637.88
529.074	637.88
529.289	633.88
529.503	602.88
529.718	609.88
529.933	621.88
530.148	606.88
530.363	613.88
530.577	625.88
530.792	616.88
531.007	602.88
531.221	608.88
531.436	615.88
531.651	621.88
531.865	608.88
532.08	599.88
532.295	604.88
532.509	619.88
532.724	606.88
532.938	594.88
533.153	585.88
533.367	614.88
533.582	612.88
533.796	617.88
534.011	611.88
534.225	608.88
534.44	578.88
534.654	592.88
534.868	618.88
535.083	610.88
535.297	589.88
535.511	600.88
535.726	593.88
535.94	593.88
536.154	596.88
536.369	569.88
536.583	563.88
536.797	578.88
537.011	595.88
537.225	588.88
537.44	584.88
537.654	584.88
537.868	573.88
538.082	545.88
538.296	557.88
538.51	573.88
538.724	562.88
538.938	577.88
539.153	567.88
539.367	549.88
539.581	555.88
539.795	566.88
540.009	548.88
540.222	580.88
540.436	553.88
540.65	563.88
540.864	574.88
541.078	581.88
541.292	568.88
541.506	552.88
541.72	559.88
541.934	544.88
542.147	559.88
542.361	577.88
542.575	549.88
542.789	573.88
543.002	552.88
543.216	548.88
543.43	544.88
543.644	560.88
543.857	543.88
544.071	547.88
544.285	563.88
544.498	562.88
544.712	564.88
544.925	573.88
545.139	541.88
545.352	545.88
545.566	554.88
545.779	565.88
545.993	580.88
546.206	557.88
546.42	571.88
546.633	575.88
546.847	577.88
547.06	576.88
547.274	555.88
547.487	561.88
547.7	568.88
547.914	574.88
548.127	587.88
548.34	580.88
548.554	570.88
548.767	590.88
548.98	558.88
549.193	563.88
549.407	573.88
549.62	586.88
549.833	577.88
550.046	593.88
550.259	569.88
550.473	570.88
550.686	562.88
550.899	578.88
551.112	540.88
551.325	563.88
551.538	554.88
551.751	568.88
551.964	563.88
552.177	555.88
552.39	559.88
552.603	557.88
552.816	590.88
553.029	582.88
553.242	579.88
553.455	589.88
553.667	598.88
553.88	591.88
554.093	542.88
554.306	559.88
554.519	567.88
554.732	548.88
554.944	537.88
555.157	513.88
555.37	541.88
555.583	522.88
555.795	522.88
556.008	512.88
556.221	504.88
556.433	515.88
556.646	505.88
556.859	484.88
557.071	527.88
557.284	495.88
557.496	477.88
557.709	489.88
557.921	498.88
558.134	500.88
558.346	507.88
558.559	507.88
558.771	495.88
558.984	489.88
559.196	462.88
559.409	485.88
559.621	481.88
559.833	475.88
560.046	465.88
560.258	472.88
560.47	473.88
560.683	477.88
560.895	482.88
561.107	469.88
561.32	477.88
561.532	471.88
561.744	458.88
561.956	487.88
562.168	470.88
562.381	485.88
562.593	497.88
562.805	502.88
563.017	476.88
563.229	504.88
563.441	493.88
563.653	500.88
563.865	470.88
564.077	505.88
564.289	490.88
564.501	495.88
564.713	494.88
564.925	501.88
565.137	521.88
565.349	547.88
565.561	547.88
565.773	558.88
565.985	583.88
566.197	581.88
566.408	581.88
566.62	629.88
566.832	656.88
567.044	681.88
567.255	706.88
567.467	679.88
567.679	683.88
567.891	736.88
568.102	703.88
568.314	703.88
568.526	664.88
568.737	602.88
568.949	574.88
569.161	548.88
569.372	516.88
569.584	526.88
569.795	533.88
570.007	502.88
570.218	484.88
570.43	515.88
570.641	471.88
570.853	505.88
571.064	479.88
571.276	477.88
571.487	458.88
571.698	442.88
571.91	467.88
572.121	417.88
572.333	445.88
572.544	416.88
572.755	409.88
572.966	414.88
573.178	408.88
573.389	401.88
573.6	403.88
573.811	398.88
574.023	386.88
574.234	394.88
574.445	408.88
574.656	395.88
574.867	371.88
575.078	391.88
575.289	376.88
575.501	389.88
575.712	391.88
575.923	382.88
576.134	379.88
576.345	365.88
576.556	377.88
576.767	355.88
576.978	357.88
577.188	374.88
577.399	363.88
577.61	359.88
577.821	374.88
578.032	371.88
578.243	346.88
578.454	346.88
578.665	368.88
578.875	378.88
579.086	361.88
579.297	381.88
579.508	343.88
579.718	359.88
579.929	351.88
580.14	345.88
580.35	354.88
580.561	351.88
580.772	348.88
580.982	341.88
581.193	337.88
581.403	348.88
581.614	345.88
581.825	354.88
582.035	355.88
582.246	347.88
582.456	341.88
582.667	331.88
582.877	356.88
583.087	329.88
583.298	343.88
583.508	328.88
583.719	337.88
583.929	339.88
584.139	337.88
584.35	317.88
584.56	315.88
584.77	329.88
584.981	335.88
585.191	328.88
585.401	324.88
585.611	315.88
585.821	344.88
586.032	341.88
586.242	327.88
586.452	329.88
586.662	323.88
586.872	319.88
587.082	308.88
587.292	320.88
587.502	317.88
587.713	326.88
587.923	330.88
588.133	325.88
588.343	336.88
588.553	330.88
588.762	334.88
588.972	329.88
589.182	335.88
589.392	337.88
589.602	339.88
589.812	330.88
590.022	329.88
590.232	341.88
590.441	314.88
590.651	325.88
590.861	338.88
591.071	319.88
591.281	341.88
591.49	345.88
591.7	324.88
591.91	330.88
592.119	336.88
592.329	344.88
592.539	344.88
592.748	360.88
592.958	353.88
593.167	355.88
593.377	354.88
593.587	365.88
593.796	349.88
594.006	390.88
594.215	371.88
594.424	381.88
594.634	360.88
594.843	369.88
595.053	343.88
595.262	365.88
595.472	331.88
595.681	317.88
595.89	326.88
596.1	323.88
596.309	333.88
596.518	317.88
596.727	310.88
596.937	312.88
597.146	292.88
597.355	301.88
597.564	273.88
597.774	309.88
597.983	290.88
598.192	303.88
598.401	286.88
598.61	282.88
598.819	287.88
599.028	283.88
599.237	279.88
599.446	274.88
599.655	297.88
599.864	267.88
600.073	270.88
600.282	297.88
600.491	257.88
600.7	265.88
600.909	288.88
601.118	273.88
601.327	287.88
601.536	273.88
601.745	270.88
601.953	264.88
602.162	271.88
602.371	268.88
602.58	277.88
602.789	290.88
602.997	273.88
603.206	273.88
603.415	264.88
603.623	266.88
603.832	258.88
604.041	263.88
604.249	264.88
604.458	276.88
604.666	264.88
604.875	247.88
605.084	263.88
605.292	250.88
605.501	262.88
605.709	259.88
605.918	253.88
606.126	240.88
606.334	258.88
606.543	263.88
606.751	261.88
606.96	262.88
607.168	247.88
607.376	257.88
607.585	282.88
607.793	249.88
608.001	264.88
608.21	257.88
608.418	243.88
608.626	244.88
608.834	238.88
609.043	215.88
609.251	245.88
609.459	247.88
609.667	243.88
609.875	244.88
610.083	260.88
610.291	258.88
610.499	261.88
610.707	237.88
610.916	256.88
611.124	263.88
611.332	245.88
611.54	242.88
611.748	243.88
611.955	242.88
612.163	267.88
612.371	239.88
612.579	253.88
612.787	228.88
612.995	242.88
613.203	238.88
613.411	246.88
613.618	256.88
613.826	240.88
614.034	254.88
614.242	237.88
614.449	224.88
614.657	241.88
614.865	240.88
615.072	242.88
615.28	234.88
615.488	242.88
615.695	259.88
615.903	234.88
616.111	246.88
616.318	245.88
616.526	256.88
616.733	242.88
616.941	234.88
617.148	238.88
617.356	245.88
617.563	226.88
617.771	257.88
617.978	231.88
618.185	230.88
618.393	237.88
618.6	233.88
618.807	232.88
619.015	231.88
619.222	239.88
619.429	217.88
619.637	239.88
619.844	228.88
620.051	218.88
620.258	230.88
620.466	231.88
620.673	218.88
620.88	227.88
621.087	221.88
621.294	214.88
621.501	233.88
621.708	219.88
621.915	231.88
622.122	230.88
622.329	220.88
622.536	211.88
622.743	232.88
622.95	227.88
623.157	220.88
623.364	219.88
623.571	224.88
623.778	220.88
623.985	209.88
624.192	210.88
624.399	231.88
624.606	231.88
624.812	215.88
625.019	218.88
625.226	218.88
625.433	217.88
625.639	213.88
625.846	188.88
626.053	210.88
626.259	198.88
626.466	215.88
626.673	208.88
626.879	210.88
627.086	199.88
627.293	199.88
627.499	202.88
627.706	203.88
627.912	198.88
628.119	203.88
628.325	207.88
628.532	197.88
628.738	209.88
628.945	208.88
629.151	207.88
629.357	200.88
629.564	200.88
629.77	216.88
629.976	195.88
630.183	201.88
630.389	195.88
630.595	200.88
630.802	197.88
631.008	209.88
631.214	185.88
631.42	200.88
631.627	205.88
631.833	212.88
632.039	212.88
632.245	189.88
632.451	189.88
632.657	189.88
632.863	202.88
633.069	199.88
633.275	167.88
633.481	174.88
633.688	181.88
633.893	176.88
634.099	193.88
634.305	189.88
634.511	196.88
634.717	191.88
634.923	186.88
635.129	182.88
635.335	190.88
635.541	185.88
635.747	191.88
635.952	189.88
636.158	190.88
636.364	185.88
636.57	192.88
636.775	199.88
636.981	183.88
637.187	184.88
637.392	169.88
637.598	177.88
637.804	181.88
638.009	183.88
638.215	185.88
638.421	175.88
638.626	175.88
638.832	182.88
639.037	167.88
639.243	170.88
639.448	167.88
639.654	176.88
639.859	168.88
640.065	167.88
640.27	183.88
640.475	190.88
640.681	179.88
640.886	178.88
641.091	182.88
641.297	184.88
641.502	192.88
641.707	185.88
641.913	186.88
642.118	189.88
642.323	175.88
642.528	180.88
642.733	164.88
642.939	180.88
643.144	183.88
643.349	176.88
643.554	178.88
643.759	182.88
643.964	162.88
644.169	173.88
644.374	196.88
644.579	170.88
644.784	182.88
644.989	168.88
645.194	177.88
645.399	186.88
645.604	174.88
645.809	179.88
646.014	181.88
646.219	158.88
646.423	177.88
646.628	177.88
646.833	183.88
647.038	180.88
647.243	176.88
647.447	176.88
647.652	178.88
647.857	186.88
648.062	182.88
648.266	185.88
648.471	166.88
648.676	184.88
648.88	186.88
649.085	184.88
649.289	190.88
649.494	178.88
649.698	181.88
649.903	175.88
650.107	183.88
650.312	170.88
650.516	167.88
650.721	178.88
650.925	164.88
651.13	160.88
651.334	173.88
651.539	157.88
651.743	164.88
651.947	163.88
652.152	178.88
652.356	171.88
652.56	158.88
652.764	159.88
652.969	157.88
653.173	157.88
653.377	166.88
653.581	161.88
653.785	164.88
653.99	158.88
654.194	157.88
654.398	143.88
654.602	151.88
654.806	166.88
655.01	170.88
655.214	146.88
655.418	164.88
655.622	153.88
655.826	153.88
656.03	155.88
656.234	153.88
656.438	151.88
656.642	139.88
656.846	117.88
657.049	135.88
657.253	142.88
657.457	135.88
657.661	127.88
657.865	120.88
658.068	111.88
658.272	113.88
658.476	117.88
658.68	112.88
658.883	130.88
659.087	109.88
659.291	103.88
659.494	110.88
659.698	92.88
659.901	112.88
660.105	101.88
660.309	89.88
660.512	94.88
660.716	93.88
660.919	76.88
661.123	103.88
661.326	84.88
661.53	92.88
661.733	92.88
661.936	92.88
662.14	80.88
662.343	87.88
662.546	80.88
662.75	89.88
662.953	93.88
663.156	86.88
663.36	76.88
663.563	94.88
663.766	84.88
663.969	84.88
664.173	65.88
664.376	76.88
664.579	81.88
664.782	76.88
664.985	75.88
665.188	78.88
665.391	81.88
665.594	88.88
665.797	70.88
666	64.88
666.203	87.88
666.406	81.88
666.609	67.88
666.812	94.88
667.015	75.88
667.218	82.88
667.421	87.88
667.624	75.88
667.827	87.88
668.03	75.88
668.232	75.88
668.435	84.88
668.638	85.88
668.841	84.88
669.043	91.88
669.246	81.88
669.449	92.88
669.651	81.88
669.854	89.88
670.057	63.88
670.259	85.88
670.462	88.88
670.665	65.88
670.867	81.88
671.07	72.88
671.272	70.88
671.475	95.88
671.677	88.88
671.88	93.88
672.082	63.88
672.284	72.88
672.487	80.88
672.689	78.88
672.892	93.88
