Data from Fe(NO3)3@0.05M.TitratingCurve.Agarose3%dH2O.NegLispCup.LampEnergy10.LIBS07252019_HRD10591_16-48-15-334.txt Node
Date: Thu Jul 25 16:48:15 EDT 2019
User: cochatt
Spectrometer: HR+D1059
Trigger mode: 1
Integration Time (sec): 1.000000E-1
Scans to average: 1
Electric dark correction enabled: true
Nonlinearity correction enabled: false
Boxcar width: 0
XAxis mode: Wavelengths
Number of Pixels in Spectrum: 2048
>>>>>Begin Spectral Data<<<<<
223.165	-34.62
223.4	-34.62
223.635	-34.62
223.869	-26.62
224.104	-18.62
224.338	-7.62
224.573	-9.62
224.808	-13.62
225.042	-12.62
225.277	-12.62
225.511	-4.62
225.746	2.38
225.98	17.38
226.215	11.38
226.449	19.38
226.683	24.38
226.918	27.38
227.152	38.38
227.387	38.38
227.621	46.38
227.856	55.38
228.09	52.38
228.324	50.38
228.559	56.38
228.793	63.38
229.027	72.38
229.262	66.38
229.496	68.38
229.73	79.38
229.964	70.38
230.199	96.38
230.433	93.38
230.667	84.38
230.901	106.38
231.136	79.38
231.37	106.38
231.604	93.38
231.838	101.38
232.072	99.38
232.306	95.38
232.541	104.38
232.775	94.38
233.009	101.38
233.243	95.38
233.477	98.38
233.711	104.38
233.945	109.38
234.179	102.38
234.413	100.38
234.647	115.38
234.881	98.38
235.115	106.38
235.349	99.38
235.583	98.38
235.817	107.38
236.051	95.38
236.285	96.38
236.519	110.38
236.753	112.38
236.987	96.38
237.221	98.38
237.455	94.38
237.689	105.38
237.922	99.38
238.156	102.38
238.39	90.38
238.624	119.38
238.858	108.38
239.091	102.38
239.325	99.38
239.559	97.38
239.793	108.38
240.027	110.38
240.26	101.38
240.494	110.38
240.728	106.38
240.961	110.38
241.195	111.38
241.429	113.38
241.662	112.38
241.896	123.38
242.13	114.38
242.363	102.38
242.597	121.38
242.83	101.38
243.064	105.38
243.298	106.38
243.531	125.38
243.765	106.38
243.998	128.38
244.232	111.38
244.465	116.38
244.699	112.38
244.932	128.38
245.166	118.38
245.399	130.38
245.633	114.38
245.866	134.38
246.099	119.38
246.333	123.38
246.566	112.38
246.8	111.38
247.033	113.38
247.266	126.38
247.5	108.38
247.733	122.38
247.966	126.38
248.2	126.38
248.433	120.38
248.666	130.38
248.899	120.38
249.133	126.38
249.366	119.38
249.599	142.38
249.832	140.38
250.066	120.38
250.299	111.38
250.532	124.38
250.765	122.38
250.998	116.38
251.231	130.38
251.465	123.38
251.698	106.38
251.931	121.38
252.164	117.38
252.397	122.38
252.63	135.38
252.863	127.38
253.096	135.38
253.329	143.38
253.562	136.38
253.795	134.38
254.028	131.38
254.261	138.38
254.494	141.38
254.727	135.38
254.96	145.38
255.193	114.38
255.426	131.38
255.659	124.38
255.892	121.38
256.124	144.38
256.357	124.38
256.59	127.38
256.823	151.38
257.056	137.38
257.289	128.38
257.521	130.38
257.754	126.38
257.987	135.38
258.22	132.38
258.452	130.38
258.685	126.38
258.918	140.38
259.151	148.38
259.383	152.38
259.616	135.38
259.849	140.38
260.081	165.38
260.314	152.38
260.547	148.38
260.779	146.38
261.012	157.38
261.244	151.38
261.477	150.38
261.71	153.38
261.942	144.38
262.175	143.38
262.407	138.38
262.64	141.38
262.872	139.38
263.105	145.38
263.337	161.38
263.57	157.38
263.802	157.38
264.035	147.38
264.267	140.38
264.499	141.38
264.732	140.38
264.964	153.38
265.197	154.38
265.429	142.38
265.661	152.38
265.894	142.38
266.126	154.38
266.358	155.38
266.591	142.38
266.823	168.38
267.055	146.38
267.287	148.38
267.52	139.38
267.752	161.38
267.984	162.38
268.216	155.38
268.448	147.38
268.681	163.38
268.913	153.38
269.145	148.38
269.377	161.38
269.609	146.38
269.841	142.38
270.073	153.38
270.306	148.38
270.538	164.38
270.77	132.38
271.002	155.38
271.234	156.38
271.466	162.38
271.698	148.38
271.93	164.38
272.162	148.38
272.394	149.38
272.626	163.38
272.858	159.38
273.09	159.38
273.322	161.38
273.553	154.38
273.785	162.38
274.017	184.38
274.249	180.38
274.481	193.38
274.713	202.38
274.945	191.38
275.176	186.38
275.408	198.38
275.64	192.38
275.872	189.38
276.104	184.38
276.335	175.38
276.567	180.38
276.799	179.38
277.031	157.38
277.262	164.38
277.494	178.38
277.726	178.38
277.957	159.38
278.189	179.38
278.421	167.38
278.652	172.38
278.884	170.38
279.115	176.38
279.347	173.38
279.579	158.38
279.81	175.38
280.042	184.38
280.273	179.38
280.505	168.38
280.736	178.38
280.968	164.38
281.199	187.38
281.431	180.38
281.662	158.38
281.894	166.38
282.125	177.38
282.356	169.38
282.588	190.38
282.819	169.38
283.051	168.38
283.282	180.38
283.513	170.38
283.745	173.38
283.976	192.38
284.207	165.38
284.439	181.38
284.67	178.38
284.901	193.38
285.132	167.38
285.364	178.38
285.595	188.38
285.826	175.38
286.057	186.38
286.288	189.38
286.52	182.38
286.751	189.38
286.982	189.38
287.213	187.38
287.444	189.38
287.675	192.38
287.906	169.38
288.138	186.38
288.369	199.38
288.6	208.38
288.831	178.38
289.062	201.38
289.293	200.38
289.524	206.38
289.755	178.38
289.986	188.38
290.217	188.38
290.448	190.38
290.679	198.38
290.91	194.38
291.141	184.38
291.371	204.38
291.602	195.38
291.833	187.38
292.064	202.38
292.295	191.38
292.526	204.38
292.757	196.38
292.987	189.38
293.218	180.38
293.449	181.38
293.68	201.38
293.91	177.38
294.141	198.38
294.372	174.38
294.603	184.38
294.833	214.38
295.064	197.38
295.295	183.38
295.525	194.38
295.756	180.38
295.987	188.38
296.217	194.38
296.448	205.38
296.679	198.38
296.909	195.38
297.14	209.38
297.37	216.38
297.601	190.38
297.831	205.38
298.062	184.38
298.292	218.38
298.523	201.38
298.753	207.38
298.984	200.38
299.214	204.38
299.445	196.38
299.675	190.38
299.905	212.38
300.136	197.38
300.366	214.38
300.597	207.38
300.827	214.38
301.057	212.38
301.288	190.38
301.518	223.38
301.748	204.38
301.979	204.38
302.209	207.38
302.439	210.38
302.669	217.38
302.9	208.38
303.13	198.38
303.36	199.38
303.59	204.38
303.82	213.38
304.051	216.38
304.281	212.38
304.511	203.38
304.741	210.38
304.971	216.38
305.201	225.38
305.431	202.38
305.661	216.38
305.891	217.38
306.121	212.38
306.352	203.38
306.582	224.38
306.812	227.38
307.042	219.38
307.272	207.38
307.502	215.38
307.731	220.38
307.961	226.38
308.191	214.38
308.421	213.38
308.651	214.38
308.881	228.38
309.111	212.38
309.341	207.38
309.571	212.38
309.8	210.38
310.03	214.38
310.26	218.38
310.49	226.38
310.72	219.38
310.949	222.38
311.179	215.38
311.409	225.38
311.639	235.38
311.868	222.38
312.098	210.38
312.328	218.38
312.557	223.38
312.787	233.38
313.017	222.38
313.246	223.38
313.476	232.38
313.706	224.38
313.935	220.38
314.165	219.38
314.394	221.38
314.624	218.38
314.853	234.38
315.083	221.38
315.312	238.38
315.542	215.38
315.771	224.38
316.001	231.38
316.23	221.38
316.46	218.38
316.689	206.38
316.919	210.38
317.148	226.38
317.377	244.38
317.607	217.38
317.836	229.38
318.065	242.38
318.295	246.38
318.524	234.38
318.753	235.38
318.983	224.38
319.212	235.38
319.441	227.38
319.67	229.38
319.9	212.38
320.129	223.38
320.358	204.38
320.587	228.38
320.816	224.38
321.046	218.38
321.275	246.38
321.504	219.38
321.733	234.38
321.962	231.38
322.191	229.38
322.42	229.38
322.649	238.38
322.878	246.38
323.108	219.38
323.337	233.38
323.566	207.38
323.795	223.38
324.024	217.38
324.253	243.38
324.482	235.38
324.71	244.38
324.939	233.38
325.168	232.38
325.397	264.38
325.626	236.38
325.855	245.38
326.084	248.38
326.313	240.38
326.542	250.38
326.77	250.38
326.999	239.38
327.228	246.38
327.457	246.38
327.686	240.38
327.914	238.38
328.143	258.38
328.372	247.38
328.6	252.38
328.829	255.38
329.058	244.38
329.287	259.38
329.515	244.38
329.744	239.38
329.972	248.38
330.201	246.38
330.43	239.38
330.658	260.38
330.887	255.38
331.115	229.38
331.344	260.38
331.572	270.38
331.801	260.38
332.03	244.38
332.258	274.38
332.486	245.38
332.715	257.38
332.943	271.38
333.172	281.38
333.4	273.38
333.629	285.38
333.857	280.38
334.085	271.38
334.314	282.38
334.542	260.38
334.771	288.38
334.999	280.38
335.227	271.38
335.455	272.38
335.684	268.38
335.912	277.38
336.14	272.38
336.369	292.38
336.597	266.38
336.825	282.38
337.053	309.38
337.281	285.38
337.51	255.38
337.738	268.38
337.966	262.38
338.194	251.38
338.422	265.38
338.65	265.38
338.878	268.38
339.106	253.38
339.334	269.38
339.562	267.38
339.79	255.38
340.018	279.38
340.246	239.38
340.474	265.38
340.702	260.38
340.93	279.38
341.158	252.38
341.386	267.38
341.614	255.38
341.842	260.38
342.07	258.38
342.298	248.38
342.526	243.38
342.754	258.38
342.981	263.38
343.209	266.38
343.437	261.38
343.665	278.38
343.893	274.38
344.12	303.38
344.348	287.38
344.576	272.38
344.804	269.38
345.031	263.38
345.259	268.38
345.487	259.38
345.714	247.38
345.942	253.38
346.17	234.38
346.397	246.38
346.625	235.38
346.853	263.38
347.08	234.38
347.308	255.38
347.535	260.38
347.763	250.38
347.99	272.38
348.218	256.38
348.445	246.38
348.673	229.38
348.9	259.38
349.128	264.38
349.355	260.38
349.583	251.38
349.81	231.38
350.037	233.38
350.265	250.38
350.492	242.38
350.72	246.38
350.947	258.38
351.174	260.38
351.402	251.38
351.629	246.38
351.856	244.38
352.083	236.38
352.311	251.38
352.538	227.38
352.765	239.38
352.992	259.38
353.22	236.38
353.447	236.38
353.674	253.38
353.901	237.38
354.128	227.38
354.355	244.38
354.583	248.38
354.81	249.38
355.037	258.38
355.264	256.38
355.491	254.38
355.718	248.38
355.945	265.38
356.172	248.38
356.399	250.38
356.626	253.38
356.853	259.38
357.08	253.38
357.307	256.38
357.534	255.38
357.761	254.38
357.988	259.38
358.215	275.38
358.441	267.38
358.668	242.38
358.895	249.38
359.122	243.38
359.349	238.38
359.576	246.38
359.802	256.38
360.029	252.38
360.256	252.38
360.483	261.38
360.709	264.38
360.936	270.38
361.163	261.38
361.39	247.38
361.616	260.38
361.843	248.38
362.07	265.38
362.296	268.38
362.523	258.38
362.749	255.38
362.976	276.38
363.203	266.38
363.429	262.38
363.656	258.38
363.882	261.38
364.109	267.38
364.335	258.38
364.562	247.38
364.788	259.38
365.015	268.38
365.241	258.38
365.468	245.38
365.694	270.38
365.92	241.38
366.147	260.38
366.373	253.38
366.599	266.38
366.826	262.38
367.052	256.38
367.278	269.38
367.505	244.38
367.731	256.38
367.957	259.38
368.184	260.38
368.41	282.38
368.636	270.38
368.862	254.38
369.089	264.38
369.315	262.38
369.541	252.38
369.767	279.38
369.993	270.38
370.219	272.38
370.445	265.38
370.672	274.38
370.898	276.38
371.124	251.38
371.35	280.38
371.576	284.38
371.802	272.38
372.028	276.38
372.254	279.38
372.48	266.38
372.706	290.38
372.932	269.38
373.158	276.38
373.384	300.38
373.61	297.38
373.835	282.38
374.061	287.38
374.287	280.38
374.513	303.38
374.739	302.38
374.965	299.38
375.191	299.38
375.416	289.38
375.642	293.38
375.868	269.38
376.094	287.38
376.319	290.38
376.545	286.38
376.771	297.38
376.997	282.38
377.222	277.38
377.448	286.38
377.674	282.38
377.899	278.38
378.125	282.38
378.35	279.38
378.576	291.38
378.802	275.38
379.027	277.38
379.253	291.38
379.478	253.38
379.704	288.38
379.929	282.38
380.155	288.38
380.38	306.38
380.606	294.38
380.831	306.38
381.057	291.38
381.282	295.38
381.507	304.38
381.733	314.38
381.958	288.38
382.184	299.38
382.409	313.38
382.634	317.38
382.86	297.38
383.085	282.38
383.31	294.38
383.535	319.38
383.761	302.38
383.986	288.38
384.211	295.38
384.436	318.38
384.662	330.38
384.887	330.38
385.112	317.38
385.337	324.38
385.562	330.38
385.787	316.38
386.013	341.38
386.238	324.38
386.463	341.38
386.688	336.38
386.913	335.38
387.138	317.38
387.363	319.38
387.588	336.38
387.813	331.38
388.038	331.38
388.263	338.38
388.488	354.38
388.713	342.38
388.938	325.38
389.163	341.38
389.387	336.38
389.612	324.38
389.837	340.38
390.062	322.38
390.287	320.38
390.512	332.38
390.736	329.38
390.961	342.38
391.186	338.38
391.411	323.38
391.636	367.38
391.86	352.38
392.085	349.38
392.31	364.38
392.534	340.38
392.759	345.38
392.984	343.38
393.208	344.38
393.433	370.38
393.658	362.38
393.882	353.38
394.107	338.38
394.331	360.38
394.556	345.38
394.78	362.38
395.005	371.38
395.229	351.38
395.454	346.38
395.678	370.38
395.903	358.38
396.127	360.38
396.352	364.38
396.576	368.38
396.801	351.38
397.025	371.38
397.249	375.38
397.474	371.38
397.698	383.38
397.922	378.38
398.147	383.38
398.371	379.38
398.595	395.38
398.82	374.38
399.044	406.38
399.268	425.38
399.492	464.38
399.717	506.38
399.941	495.38
400.165	459.38
400.389	451.38
400.613	404.38
400.837	418.38
401.062	408.38
401.286	391.38
401.51	387.38
401.734	410.38
401.958	409.38
402.182	394.38
402.406	389.38
402.63	396.38
402.854	412.38
403.078	410.38
403.302	403.38
403.526	411.38
403.75	429.38
403.974	411.38
404.198	413.38
404.422	420.38
404.645	420.38
404.869	404.38
405.093	410.38
405.317	416.38
405.541	413.38
405.765	418.38
405.988	408.38
406.212	408.38
406.436	436.38
406.66	425.38
406.883	434.38
407.107	454.38
407.331	458.38
407.555	458.38
407.778	456.38
408.002	462.38
408.226	465.38
408.449	446.38
408.673	429.38
408.896	427.38
409.12	414.38
409.344	454.38
409.567	422.38
409.791	430.38
410.014	447.38
410.238	422.38
410.461	440.38
410.685	433.38
410.908	420.38
411.132	410.38
411.355	423.38
411.578	419.38
411.802	407.38
412.025	404.38
412.249	412.38
412.472	384.38
412.695	414.38
412.919	416.38
413.142	425.38
413.365	406.38
413.589	400.38
413.812	411.38
414.035	412.38
414.258	399.38
414.482	417.38
414.705	410.38
414.928	411.38
415.151	413.38
415.374	408.38
415.597	402.38
415.821	402.38
416.044	381.38
416.267	382.38
416.49	395.38
416.713	427.38
416.936	393.38
417.159	382.38
417.382	410.38
417.605	396.38
417.828	394.38
418.051	401.38
418.274	389.38
418.497	372.38
418.72	379.38
418.943	381.38
419.166	403.38
419.389	423.38
419.611	437.38
419.834	412.38
420.057	410.38
420.28	412.38
420.503	380.38
420.726	388.38
420.948	412.38
421.171	393.38
421.394	407.38
421.617	387.38
421.839	416.38
422.062	398.38
422.285	424.38
422.507	408.38
422.73	419.38
422.953	417.38
423.175	394.38
423.398	418.38
423.621	398.38
423.843	407.38
424.066	419.38
424.288	419.38
424.511	431.38
424.733	411.38
424.956	415.38
425.178	418.38
425.401	397.38
425.623	417.38
425.846	376.38
426.068	382.38
426.291	400.38
426.513	374.38
426.735	393.38
426.958	386.38
427.18	395.38
427.402	404.38
427.625	392.38
427.847	380.38
428.069	386.38
428.292	386.38
428.514	376.38
428.736	346.38
428.958	375.38
429.181	378.38
429.403	371.38
429.625	345.38
429.847	370.38
430.069	390.38
430.292	372.38
430.514	376.38
430.736	392.38
430.958	396.38
431.18	390.38
431.402	386.38
431.624	370.38
431.846	365.38
432.068	364.38
432.29	372.38
432.512	378.38
432.734	406.38
432.956	390.38
433.178	399.38
433.4	380.38
433.622	380.38
433.844	403.38
434.066	387.38
434.287	406.38
434.509	377.38
434.731	392.38
434.953	400.38
435.175	410.38
435.397	402.38
435.618	373.38
435.84	383.38
436.062	392.38
436.284	403.38
436.505	393.38
436.727	391.38
436.949	391.38
437.17	377.38
437.392	374.38
437.614	380.38
437.835	386.38
438.057	370.38
438.278	375.38
438.5	381.38
438.721	366.38
438.943	388.38
439.165	364.38
439.386	382.38
439.608	394.38
439.829	374.38
440.05	396.38
440.272	389.38
440.493	388.38
440.715	394.38
440.936	386.38
441.158	403.38
441.379	410.38
441.6	418.38
441.822	429.38
442.043	425.38
442.264	411.38
442.486	394.38
442.707	397.38
442.928	408.38
443.149	404.38
443.371	417.38
443.592	415.38
443.813	429.38
444.034	422.38
444.255	421.38
444.476	431.38
444.698	450.38
444.919	456.38
445.14	573.38
445.361	485.38
445.582	435.38
445.803	420.38
446.024	399.38
446.245	425.38
446.466	408.38
446.687	385.38
446.908	384.38
447.129	402.38
447.35	392.38
447.571	414.38
447.792	365.38
448.013	390.38
448.234	370.38
448.455	376.38
448.675	389.38
448.896	390.38
449.117	392.38
449.338	373.38
449.559	371.38
449.779	362.38
450	366.38
450.221	349.38
450.442	353.38
450.662	376.38
450.883	376.38
451.104	381.38
451.324	355.38
451.545	378.38
451.766	364.38
451.986	376.38
452.207	371.38
452.428	364.38
452.648	357.38
452.869	352.38
453.089	371.38
453.31	358.38
453.53	346.38
453.751	351.38
453.971	371.38
454.192	344.38
454.412	339.38
454.633	351.38
454.853	355.38
455.073	358.38
455.294	352.38
455.514	341.38
455.734	342.38
455.955	338.38
456.175	355.38
456.395	334.38
456.616	345.38
456.836	336.38
457.056	355.38
457.276	331.38
457.497	335.38
457.717	349.38
457.937	349.38
458.157	355.38
458.377	359.38
458.598	352.38
458.818	359.38
459.038	374.38
459.258	362.38
459.478	387.38
459.698	380.38
459.918	383.38
460.138	418.38
460.358	422.38
460.578	433.38
460.798	442.38
461.018	413.38
461.238	430.38
461.458	429.38
461.678	425.38
461.898	426.38
462.118	442.38
462.338	454.38
462.558	446.38
462.777	460.38
462.997	476.38
463.217	513.38
463.437	495.38
463.657	490.38
463.876	476.38
464.096	484.38
464.316	484.38
464.536	470.38
464.755	465.38
464.975	459.38
465.195	431.38
465.414	422.38
465.634	418.38
465.854	422.38
466.073	402.38
466.293	413.38
466.512	384.38
466.732	400.38
466.951	398.38
467.171	395.38
467.391	400.38
467.61	387.38
467.829	379.38
468.049	396.38
468.268	384.38
468.488	381.38
468.707	381.38
468.927	394.38
469.146	376.38
469.365	390.38
469.585	383.38
469.804	387.38
470.023	382.38
470.243	390.38
470.462	385.38
470.681	392.38
470.901	394.38
471.12	404.38
471.339	396.38
471.558	396.38
471.777	374.38
471.997	370.38
472.216	378.38
472.435	376.38
472.654	367.38
472.873	366.38
473.092	370.38
473.311	380.38
473.53	394.38
473.749	361.38
473.968	383.38
474.187	374.38
474.406	354.38
474.625	364.38
474.844	361.38
475.063	370.38
475.282	377.38
475.501	390.38
475.72	385.38
475.939	414.38
476.158	395.38
476.377	402.38
476.596	394.38
476.814	410.38
477.033	390.38
477.252	387.38
477.471	408.38
477.69	419.38
477.908	424.38
478.127	440.38
478.346	435.38
478.564	414.38
478.783	433.38
479.002	440.38
479.22	448.38
479.439	462.38
479.658	454.38
479.876	442.38
480.095	453.38
480.313	463.38
480.532	451.38
480.751	441.38
480.969	425.38
481.188	440.38
481.406	432.38
481.624	442.38
481.843	440.38
482.061	437.38
482.28	414.38
482.498	426.38
482.717	419.38
482.935	408.38
483.153	438.38
483.372	440.38
483.59	435.38
483.808	432.38
484.027	432.38
484.245	401.38
484.463	414.38
484.681	435.38
484.9	436.38
485.118	443.38
485.336	419.38
485.554	430.38
485.772	430.38
485.99	443.38
486.209	428.38
486.427	420.38
486.645	408.38
486.863	418.38
487.081	442.38
487.299	452.38
487.517	438.38
487.735	446.38
487.953	434.38
488.171	442.38
488.389	428.38
488.607	448.38
488.825	436.38
489.043	433.38
489.261	438.38
489.479	448.38
489.696	456.38
489.914	442.38
490.132	439.38
490.35	457.38
490.568	447.38
490.786	441.38
491.003	446.38
491.221	447.38
491.439	468.38
491.657	450.38
491.874	462.38
492.092	472.38
492.31	474.38
492.527	493.38
492.745	482.38
492.963	467.38
493.18	445.38
493.398	466.38
493.615	464.38
493.833	472.38
494.05	473.38
494.268	462.38
494.485	467.38
494.703	479.38
494.92	512.38
495.138	483.38
495.355	464.38
495.573	489.38
495.79	471.38
496.008	498.38
496.225	480.38
496.442	473.38
496.66	482.38
496.877	509.38
497.094	499.38
497.312	492.38
497.529	509.38
497.746	498.38
497.963	514.38
498.181	531.38
498.398	565.38
498.615	566.38
498.832	571.38
499.049	607.38
499.267	653.38
499.484	678.38
499.701	717.38
499.918	761.38
500.135	828.38
500.352	864.38
500.569	898.38
500.786	882.38
501.003	853.38
501.22	817.38
501.437	760.38
501.654	700.38
501.871	655.38
502.088	630.38
502.305	581.38
502.522	566.38
502.739	553.38
502.956	560.38
503.172	540.38
503.389	536.38
503.606	519.38
503.823	526.38
504.04	495.38
504.256	502.38
504.473	495.38
504.69	490.38
504.907	483.38
505.123	475.38
505.34	471.38
505.557	468.38
505.773	446.38
505.99	444.38
506.207	440.38
506.423	433.38
506.64	443.38
506.856	437.38
507.073	426.38
507.289	415.38
507.506	405.38
507.722	422.38
507.939	434.38
508.155	405.38
508.372	424.38
508.588	423.38
508.805	419.38
509.021	382.38
509.238	411.38
509.454	409.38
509.67	393.38
509.887	387.38
510.103	386.38
510.319	393.38
510.536	389.38
510.752	387.38
510.968	379.38
511.184	379.38
511.401	367.38
511.617	381.38
511.833	387.38
512.049	380.38
512.265	389.38
512.481	382.38
512.698	378.38
512.914	401.38
513.13	400.38
513.346	379.38
513.562	394.38
513.778	393.38
513.994	380.38
514.21	381.38
514.426	373.38
514.642	382.38
514.858	380.38
515.074	391.38
515.29	411.38
515.506	384.38
515.721	391.38
515.937	403.38
516.153	416.38
516.369	409.38
516.585	396.38
516.801	433.38
517.016	442.38
517.232	464.38
517.448	452.38
517.664	456.38
517.879	449.38
518.095	455.38
518.311	443.38
518.527	442.38
518.742	448.38
518.958	420.38
519.173	398.38
519.389	421.38
519.605	404.38
519.82	418.38
520.036	401.38
520.251	407.38
520.467	409.38
520.682	383.38
520.898	415.38
521.113	388.38
521.329	363.38
521.544	390.38
521.76	375.38
521.975	382.38
522.19	382.38
522.406	367.38
522.621	370.38
522.836	372.38
523.052	370.38
523.267	371.38
523.482	377.38
523.698	360.38
523.913	358.38
524.128	365.38
524.343	375.38
524.559	363.38
524.774	354.38
524.989	358.38
525.204	387.38
525.419	360.38
525.634	380.38
525.849	359.38
526.064	368.38
526.28	361.38
526.495	377.38
526.71	372.38
526.925	357.38
527.14	368.38
527.355	346.38
527.57	365.38
527.785	351.38
527.999	364.38
528.214	365.38
528.429	367.38
528.644	366.38
528.859	368.38
529.074	361.38
529.289	360.38
529.503	376.38
529.718	382.38
529.933	358.38
530.148	361.38
530.363	380.38
530.577	346.38
530.792	332.38
531.007	354.38
531.221	367.38
531.436	367.38
531.651	355.38
531.865	375.38
532.08	352.38
532.295	366.38
532.509	355.38
532.724	357.38
532.938	352.38
533.153	353.38
533.367	363.38
533.582	338.38
533.796	350.38
534.011	360.38
534.225	342.38
534.44	343.38
534.654	368.38
534.868	359.38
535.083	345.38
535.297	346.38
535.511	351.38
535.726	364.38
535.94	363.38
536.154	342.38
536.369	334.38
536.583	335.38
536.797	330.38
537.011	341.38
537.225	333.38
537.44	334.38
537.654	341.38
537.868	358.38
538.082	354.38
538.296	342.38
538.51	325.38
538.724	332.38
538.938	330.38
539.153	351.38
539.367	333.38
539.581	332.38
539.795	325.38
540.009	323.38
540.222	336.38
540.436	330.38
540.65	336.38
540.864	347.38
541.078	332.38
541.292	346.38
541.506	336.38
541.72	358.38
541.934	341.38
542.147	342.38
542.361	333.38
542.575	331.38
542.789	336.38
543.002	333.38
543.216	355.38
543.43	328.38
543.644	342.38
543.857	311.38
544.071	329.38
544.285	336.38
544.498	343.38
544.712	336.38
544.925	326.38
545.139	328.38
545.352	338.38
545.566	363.38
545.779	355.38
545.993	357.38
546.206	331.38
546.42	328.38
546.633	349.38
546.847	349.38
547.06	326.38
547.274	344.38
547.487	343.38
547.7	333.38
547.914	322.38
548.127	347.38
548.34	338.38
548.554	336.38
548.767	326.38
548.98	331.38
549.193	340.38
549.407	344.38
549.62	346.38
549.833	354.38
550.046	342.38
550.259	324.38
550.473	354.38
550.686	343.38
550.899	336.38
551.112	341.38
551.325	339.38
551.538	335.38
551.751	336.38
551.964	326.38
552.177	319.38
552.39	327.38
552.603	345.38
552.816	336.38
553.029	336.38
553.242	353.38
553.455	350.38
553.667	344.38
553.88	360.38
554.093	336.38
554.306	328.38
554.519	329.38
554.732	347.38
554.944	335.38
555.157	321.38
555.37	314.38
555.583	321.38
555.795	330.38
556.008	312.38
556.221	325.38
556.433	322.38
556.646	302.38
556.859	309.38
557.071	317.38
557.284	303.38
557.496	313.38
557.709	318.38
557.921	292.38
558.134	287.38
558.346	303.38
558.559	303.38
558.771	308.38
558.984	292.38
559.196	297.38
559.409	278.38
559.621	299.38
559.833	310.38
560.046	298.38
560.258	288.38
560.47	298.38
560.683	298.38
560.895	292.38
561.107	280.38
561.32	280.38
561.532	311.38
561.744	285.38
561.956	286.38
562.168	299.38
562.381	287.38
562.593	278.38
562.805	282.38
563.017	283.38
563.229	293.38
563.441	294.38
563.653	282.38
563.865	274.38
564.077	299.38
564.289	306.38
564.501	283.38
564.713	300.38
564.925	305.38
565.137	311.38
565.349	290.38
565.561	326.38
565.773	327.38
565.985	329.38
566.197	315.38
566.408	357.38
566.62	365.38
566.832	363.38
567.044	369.38
567.255	377.38
567.467	390.38
567.679	390.38
567.891	418.38
568.102	407.38
568.314	378.38
568.526	364.38
568.737	349.38
568.949	343.38
569.161	329.38
569.372	307.38
569.584	304.38
569.795	306.38
570.007	278.38
570.218	285.38
570.43	276.38
570.641	291.38
570.853	281.38
571.064	284.38
571.276	272.38
571.487	280.38
571.698	276.38
571.91	274.38
572.121	244.38
572.333	247.38
572.544	259.38
572.755	255.38
572.966	242.38
573.178	230.38
573.389	264.38
573.6	242.38
573.811	242.38
574.023	248.38
574.234	250.38
574.445	249.38
574.656	234.38
574.867	239.38
575.078	248.38
575.289	241.38
575.501	235.38
575.712	235.38
575.923	252.38
576.134	242.38
576.345	227.38
576.556	254.38
576.767	249.38
576.978	239.38
577.188	230.38
577.399	232.38
577.61	250.38
577.821	242.38
578.032	229.38
578.243	226.38
578.454	243.38
578.665	229.38
578.875	221.38
579.086	228.38
579.297	231.38
579.508	226.38
579.718	223.38
579.929	217.38
580.14	223.38
580.35	206.38
580.561	228.38
580.772	224.38
580.982	207.38
581.193	224.38
581.403	227.38
581.614	219.38
581.825	213.38
582.035	215.38
582.246	221.38
582.456	229.38
582.667	227.38
582.877	219.38
583.087	216.38
583.298	220.38
583.508	223.38
583.719	219.38
583.929	207.38
584.139	226.38
584.35	212.38
584.56	215.38
584.77	208.38
584.981	213.38
585.191	226.38
585.401	218.38
585.611	210.38
585.821	209.38
586.032	221.38
586.242	212.38
586.452	195.38
586.662	218.38
586.872	204.38
587.082	208.38
587.292	218.38
587.502	208.38
587.713	203.38
587.923	214.38
588.133	204.38
588.343	222.38
588.553	221.38
588.762	210.38
588.972	207.38
589.182	203.38
589.392	201.38
589.602	193.38
589.812	206.38
590.022	218.38
590.232	223.38
590.441	220.38
590.651	212.38
590.861	199.38
591.071	210.38
591.281	224.38
591.49	218.38
591.7	215.38
591.91	224.38
592.119	219.38
592.329	230.38
592.539	211.38
592.748	218.38
592.958	226.38
593.167	221.38
593.377	227.38
593.587	236.38
593.796	227.38
594.006	237.38
594.215	220.38
594.424	231.38
594.634	226.38
594.843	226.38
595.053	227.38
595.262	226.38
595.472	207.38
595.681	212.38
595.89	213.38
596.1	207.38
596.309	206.38
596.518	213.38
596.727	209.38
596.937	187.38
597.146	192.38
597.355	200.38
597.564	199.38
597.774	199.38
597.983	196.38
598.192	203.38
598.401	187.38
598.61	200.38
598.819	199.38
599.028	199.38
599.237	201.38
599.446	188.38
599.655	188.38
599.864	196.38
600.073	175.38
600.282	202.38
600.491	191.38
600.7	182.38
600.909	186.38
601.118	172.38
601.327	189.38
601.536	202.38
601.745	189.38
601.953	174.38
602.162	210.38
602.371	182.38
602.58	167.38
602.789	191.38
602.997	185.38
603.206	189.38
603.415	195.38
603.623	185.38
603.832	171.38
604.041	168.38
604.249	183.38
604.458	191.38
604.666	178.38
604.875	183.38
605.084	182.38
605.292	189.38
605.501	183.38
605.709	188.38
605.918	175.38
606.126	182.38
606.334	185.38
606.543	182.38
606.751	176.38
606.96	193.38
607.168	188.38
607.376	169.38
607.585	170.38
607.793	176.38
608.001	166.38
608.21	193.38
608.418	176.38
608.626	184.38
608.834	168.38
609.043	192.38
609.251	187.38
609.459	172.38
609.667	171.38
609.875	181.38
610.083	189.38
610.291	184.38
610.499	178.38
610.707	188.38
610.916	180.38
611.124	195.38
611.332	179.38
611.54	178.38
611.748	172.38
611.955	176.38
612.163	167.38
612.371	164.38
612.579	173.38
612.787	169.38
612.995	175.38
613.203	174.38
613.411	172.38
613.618	175.38
613.826	182.38
614.034	175.38
614.242	182.38
614.449	158.38
614.657	171.38
614.865	194.38
615.072	166.38
615.28	163.38
615.488	178.38
615.695	200.38
615.903	181.38
616.111	175.38
616.318	174.38
616.526	176.38
616.733	188.38
616.941	170.38
617.148	172.38
617.356	180.38
617.563	183.38
617.771	173.38
617.978	190.38
618.185	184.38
618.393	164.38
618.6	180.38
618.807	162.38
619.015	163.38
619.222	167.38
619.429	167.38
619.637	156.38
619.844	171.38
620.051	174.38
620.258	159.38
620.466	157.38
620.673	160.38
620.88	164.38
621.087	162.38
621.294	162.38
621.501	170.38
621.708	164.38
621.915	181.38
622.122	174.38
622.329	162.38
622.536	164.38
622.743	166.38
622.95	153.38
623.157	182.38
623.364	155.38
623.571	164.38
623.778	167.38
623.985	158.38
624.192	161.38
624.399	152.38
624.606	164.38
624.812	151.38
625.019	164.38
625.226	151.38
625.433	163.38
625.639	157.38
625.846	161.38
626.053	167.38
626.259	173.38
626.466	158.38
626.673	165.38
626.879	133.38
627.086	155.38
627.293	144.38
627.499	155.38
627.706	136.38
627.912	158.38
628.119	141.38
628.325	158.38
628.532	161.38
628.738	158.38
628.945	158.38
629.151	131.38
629.357	142.38
629.564	139.38
629.77	155.38
629.976	166.38
630.183	146.38
630.389	162.38
630.595	152.38
630.802	149.38
631.008	162.38
631.214	143.38
631.42	155.38
631.627	148.38
631.833	144.38
632.039	130.38
632.245	148.38
632.451	148.38
632.657	158.38
632.863	158.38
633.069	138.38
633.275	137.38
633.481	152.38
633.688	154.38
633.893	154.38
634.099	142.38
634.305	148.38
634.511	134.38
634.717	153.38
634.923	142.38
635.129	127.38
635.335	148.38
635.541	142.38
635.747	150.38
635.952	132.38
636.158	147.38
636.364	136.38
636.57	134.38
636.775	132.38
636.981	141.38
637.187	141.38
637.392	135.38
637.598	140.38
637.804	151.38
638.009	144.38
638.215	152.38
638.421	143.38
638.626	144.38
638.832	142.38
639.037	126.38
639.243	130.38
639.448	148.38
639.654	139.38
639.859	126.38
640.065	142.38
640.27	140.38
640.475	147.38
640.681	136.38
640.886	136.38
641.091	132.38
641.297	138.38
641.502	137.38
641.707	146.38
641.913	140.38
642.118	130.38
642.323	123.38
642.528	133.38
642.733	148.38
642.939	126.38
643.144	148.38
643.349	141.38
643.554	134.38
643.759	138.38
643.964	131.38
644.169	129.38
644.374	149.38
644.579	154.38
644.784	146.38
644.989	125.38
645.194	125.38
645.399	145.38
645.604	129.38
645.809	139.38
646.014	127.38
646.219	139.38
646.423	141.38
646.628	144.38
646.833	122.38
647.038	142.38
647.243	145.38
647.447	139.38
647.652	132.38
647.857	149.38
648.062	147.38
648.266	139.38
648.471	135.38
648.676	135.38
648.88	141.38
649.085	143.38
649.289	132.38
649.494	133.38
649.698	148.38
649.903	134.38
650.107	120.38
650.312	144.38
650.516	140.38
650.721	140.38
650.925	122.38
651.13	131.38
651.334	124.38
651.539	137.38
651.743	140.38
651.947	126.38
652.152	123.38
652.356	118.38
652.56	123.38
652.764	138.38
652.969	128.38
653.173	128.38
653.377	109.38
653.581	111.38
653.785	124.38
653.99	126.38
654.194	126.38
654.398	125.38
654.602	115.38
654.806	107.38
655.01	122.38
655.214	116.38
655.418	116.38
655.622	130.38
655.826	106.38
656.03	125.38
656.234	114.38
656.438	108.38
656.642	119.38
656.846	123.38
657.049	107.38
657.253	109.38
657.457	118.38
657.661	105.38
657.865	111.38
658.068	110.38
658.272	101.38
658.476	106.38
658.68	113.38
658.883	103.38
659.087	95.38
659.291	99.38
659.494	98.38
659.698	110.38
659.901	114.38
660.105	95.38
660.309	100.38
660.512	94.38
660.716	103.38
660.919	100.38
661.123	102.38
661.326	107.38
661.53	99.38
661.733	103.38
661.936	95.38
662.14	78.38
662.343	73.38
662.546	72.38
662.75	86.38
662.953	86.38
663.156	78.38
663.36	99.38
663.563	93.38
663.766	78.38
663.969	93.38
664.173	86.38
664.376	86.38
664.579	84.38
664.782	70.38
664.985	77.38
665.188	96.38
665.391	88.38
665.594	83.38
665.797	82.38
666	76.38
666.203	100.38
666.406	86.38
666.609	92.38
666.812	89.38
667.015	93.38
667.218	97.38
667.421	86.38
667.624	76.38
667.827	76.38
668.03	71.38
668.232	82.38
668.435	76.38
668.638	74.38
668.841	92.38
669.043	78.38
669.246	93.38
669.449	81.38
669.651	78.38
669.854	75.38
670.057	86.38
670.259	95.38
670.462	91.38
670.665	76.38
670.867	91.38
671.07	99.38
671.272	83.38
671.475	78.38
671.677	76.38
671.88	94.38
672.082	83.38
672.284	82.38
672.487	90.38
672.689	79.38
672.892	89.38
