Data from Fe(NO3)3@0.0125M.TitratingCurve.Agarose3%dH2O.NegLispCup.LampEnergy10.LIBS07252019_HRD10591_16-59-36-337.txt Node
Date: Thu Jul 25 16:59:36 EDT 2019
User: cochatt
Spectrometer: HR+D1059
Trigger mode: 1
Integration Time (sec): 1.000000E-1
Scans to average: 1
Electric dark correction enabled: true
Nonlinearity correction enabled: false
Boxcar width: 0
XAxis mode: Wavelengths
Number of Pixels in Spectrum: 2048
>>>>>Begin Spectral Data<<<<<
223.165	-4.19
223.4	-4.19
223.635	-4.19
223.869	-14.19
224.104	-24.19
224.338	-25.19
224.573	-16.19
224.808	-25.19
225.042	-4.19
225.277	8.81
225.511	1.81
225.746	-3.19
225.98	9.81
226.215	12.81
226.449	13.81
226.683	18.81
226.918	21.81
227.152	28.81
227.387	39.81
227.621	46.81
227.856	41.81
228.09	51.81
228.324	52.81
228.559	67.81
228.793	57.81
229.027	71.81
229.262	81.81
229.496	86.81
229.73	75.81
229.964	83.81
230.199	84.81
230.433	101.81
230.667	88.81
230.901	88.81
231.136	101.81
231.37	85.81
231.604	102.81
231.838	107.81
232.072	103.81
232.306	102.81
232.541	92.81
232.775	106.81
233.009	92.81
233.243	96.81
233.477	104.81
233.711	108.81
233.945	104.81
234.179	97.81
234.413	101.81
234.647	109.81
234.881	116.81
235.115	123.81
235.349	105.81
235.583	101.81
235.817	102.81
236.051	99.81
236.285	104.81
236.519	96.81
236.753	102.81
236.987	99.81
237.221	111.81
237.455	101.81
237.689	90.81
237.922	102.81
238.156	104.81
238.39	113.81
238.624	97.81
238.858	108.81
239.091	92.81
239.325	101.81
239.559	107.81
239.793	92.81
240.027	103.81
240.26	102.81
240.494	120.81
240.728	117.81
240.961	101.81
241.195	102.81
241.429	112.81
241.662	124.81
241.896	116.81
242.13	119.81
242.363	118.81
242.597	111.81
242.83	103.81
243.064	125.81
243.298	127.81
243.531	114.81
243.765	112.81
243.998	127.81
244.232	112.81
244.465	102.81
244.699	118.81
244.932	127.81
245.166	134.81
245.399	116.81
245.633	127.81
245.866	139.81
246.099	121.81
246.333	116.81
246.566	118.81
246.8	124.81
247.033	135.81
247.266	121.81
247.5	120.81
247.733	124.81
247.966	124.81
248.2	128.81
248.433	128.81
248.666	142.81
248.899	129.81
249.133	126.81
249.366	122.81
249.599	113.81
249.832	131.81
250.066	131.81
250.299	127.81
250.532	137.81
250.765	141.81
250.998	135.81
251.231	131.81
251.465	145.81
251.698	128.81
251.931	124.81
252.164	132.81
252.397	129.81
252.63	136.81
252.863	138.81
253.096	129.81
253.329	149.81
253.562	136.81
253.795	121.81
254.028	153.81
254.261	135.81
254.494	144.81
254.727	139.81
254.96	149.81
255.193	152.81
255.426	141.81
255.659	152.81
255.892	155.81
256.124	151.81
256.357	146.81
256.59	160.81
256.823	156.81
257.056	155.81
257.289	144.81
257.521	153.81
257.754	145.81
257.987	145.81
258.22	142.81
258.452	150.81
258.685	149.81
258.918	145.81
259.151	158.81
259.383	153.81
259.616	145.81
259.849	168.81
260.081	170.81
260.314	150.81
260.547	164.81
260.779	156.81
261.012	155.81
261.244	169.81
261.477	154.81
261.71	167.81
261.942	179.81
262.175	179.81
262.407	164.81
262.64	181.81
262.872	166.81
263.105	171.81
263.337	176.81
263.57	160.81
263.802	167.81
264.035	168.81
264.267	177.81
264.499	180.81
264.732	173.81
264.964	150.81
265.197	157.81
265.429	177.81
265.661	176.81
265.894	174.81
266.126	163.81
266.358	185.81
266.591	184.81
266.823	184.81
267.055	180.81
267.287	184.81
267.52	174.81
267.752	184.81
267.984	182.81
268.216	174.81
268.448	189.81
268.681	174.81
268.913	184.81
269.145	181.81
269.377	189.81
269.609	191.81
269.841	194.81
270.073	180.81
270.306	185.81
270.538	181.81
270.77	192.81
271.002	203.81
271.234	188.81
271.466	199.81
271.698	185.81
271.93	193.81
272.162	185.81
272.394	188.81
272.626	172.81
272.858	191.81
273.09	185.81
273.322	204.81
273.553	204.81
273.785	220.81
274.017	197.81
274.249	195.81
274.481	217.81
274.713	212.81
274.945	220.81
275.176	231.81
275.408	222.81
275.64	219.81
275.872	213.81
276.104	212.81
276.335	196.81
276.567	203.81
276.799	216.81
277.031	231.81
277.262	218.81
277.494	228.81
277.726	211.81
277.957	211.81
278.189	243.81
278.421	213.81
278.652	219.81
278.884	216.81
279.115	235.81
279.347	239.81
279.579	252.81
279.81	243.81
280.042	228.81
280.273	227.81
280.505	224.81
280.736	246.81
280.968	239.81
281.199	233.81
281.431	249.81
281.662	243.81
281.894	228.81
282.125	238.81
282.356	247.81
282.588	240.81
282.819	226.81
283.051	249.81
283.282	232.81
283.513	252.81
283.745	257.81
283.976	250.81
284.207	239.81
284.439	263.81
284.67	256.81
284.901	278.81
285.132	271.81
285.364	253.81
285.595	256.81
285.826	249.81
286.057	263.81
286.288	273.81
286.52	262.81
286.751	254.81
286.982	272.81
287.213	279.81
287.444	279.81
287.675	275.81
287.906	283.81
288.138	288.81
288.369	264.81
288.6	279.81
288.831	287.81
289.062	293.81
289.293	279.81
289.524	273.81
289.755	284.81
289.986	287.81
290.217	274.81
290.448	286.81
290.679	291.81
290.91	287.81
291.141	289.81
291.371	291.81
291.602	285.81
291.833	288.81
292.064	281.81
292.295	287.81
292.526	301.81
292.757	280.81
292.987	303.81
293.218	291.81
293.449	300.81
293.68	290.81
293.91	273.81
294.141	301.81
294.372	291.81
294.603	311.81
294.833	295.81
295.064	294.81
295.295	295.81
295.525	315.81
295.756	304.81
295.987	297.81
296.217	303.81
296.448	302.81
296.679	307.81
296.909	305.81
297.14	317.81
297.37	304.81
297.601	304.81
297.831	320.81
298.062	304.81
298.292	314.81
298.523	341.81
298.753	325.81
298.984	325.81
299.214	324.81
299.445	334.81
299.675	320.81
299.905	337.81
300.136	312.81
300.366	329.81
300.597	333.81
300.827	332.81
301.057	334.81
301.288	341.81
301.518	347.81
301.748	359.81
301.979	342.81
302.209	363.81
302.439	355.81
302.669	351.81
302.9	341.81
303.13	348.81
303.36	351.81
303.59	351.81
303.82	345.81
304.051	367.81
304.281	339.81
304.511	374.81
304.741	363.81
304.971	383.81
305.201	360.81
305.431	360.81
305.661	354.81
305.891	363.81
306.121	384.81
306.352	367.81
306.582	367.81
306.812	352.81
307.042	360.81
307.272	374.81
307.502	349.81
307.731	376.81
307.961	362.81
308.191	371.81
308.421	363.81
308.651	379.81
308.881	375.81
309.111	366.81
309.341	383.81
309.571	373.81
309.8	364.81
310.03	375.81
310.26	385.81
310.49	414.81
310.72	381.81
310.949	393.81
311.179	385.81
311.409	372.81
311.639	411.81
311.868	381.81
312.098	401.81
312.328	410.81
312.557	413.81
312.787	399.81
313.017	406.81
313.246	383.81
313.476	391.81
313.706	401.81
313.935	407.81
314.165	414.81
314.394	410.81
314.624	420.81
314.853	412.81
315.083	402.81
315.312	416.81
315.542	404.81
315.771	427.81
316.001	409.81
316.23	407.81
316.46	421.81
316.689	408.81
316.919	421.81
317.148	413.81
317.377	435.81
317.607	431.81
317.836	418.81
318.065	437.81
318.295	451.81
318.524	427.81
318.753	432.81
318.983	427.81
319.212	423.81
319.441	433.81
319.67	447.81
319.9	427.81
320.129	445.81
320.358	441.81
320.587	438.81
320.816	440.81
321.046	448.81
321.275	446.81
321.504	433.81
321.733	455.81
321.962	448.81
322.191	440.81
322.42	456.81
322.649	467.81
322.878	443.81
323.108	439.81
323.337	451.81
323.566	443.81
323.795	457.81
324.024	448.81
324.253	443.81
324.482	460.81
324.71	467.81
324.939	456.81
325.168	447.81
325.397	445.81
325.626	467.81
325.855	470.81
326.084	444.81
326.313	475.81
326.542	463.81
326.77	490.81
326.999	486.81
327.228	483.81
327.457	471.81
327.686	472.81
327.914	480.81
328.143	473.81
328.372	478.81
328.6	479.81
328.829	481.81
329.058	463.81
329.287	486.81
329.515	490.81
329.744	504.81
329.972	483.81
330.201	465.81
330.43	469.81
330.658	454.81
330.887	493.81
331.115	501.81
331.344	485.81
331.572	489.81
331.801	499.81
332.03	512.81
332.258	493.81
332.486	471.81
332.715	479.81
332.943	475.81
333.172	497.81
333.4	484.81
333.629	508.81
333.857	513.81
334.085	532.81
334.314	503.81
334.542	525.81
334.771	486.81
334.999	520.81
335.227	526.81
335.455	483.81
335.684	527.81
335.912	508.81
336.14	515.81
336.369	502.81
336.597	530.81
336.825	540.81
337.053	533.81
337.281	507.81
337.51	501.81
337.738	505.81
337.966	503.81
338.194	521.81
338.422	514.81
338.65	513.81
338.878	502.81
339.106	507.81
339.334	499.81
339.562	500.81
339.79	500.81
340.018	514.81
340.246	506.81
340.474	514.81
340.702	524.81
340.93	533.81
341.158	522.81
341.386	506.81
341.614	519.81
341.842	514.81
342.07	498.81
342.298	523.81
342.526	514.81
342.754	497.81
342.981	488.81
343.209	511.81
343.437	521.81
343.665	509.81
343.893	536.81
344.12	535.81
344.348	539.81
344.576	520.81
344.804	506.81
345.031	535.81
345.259	534.81
345.487	504.81
345.714	508.81
345.942	531.81
346.17	528.81
346.397	519.81
346.625	502.81
346.853	534.81
347.08	515.81
347.308	524.81
347.535	527.81
347.763	491.81
347.99	500.81
348.218	521.81
348.445	534.81
348.673	541.81
348.9	506.81
349.128	521.81
349.355	496.81
349.583	512.81
349.81	505.81
350.037	492.81
350.265	501.81
350.492	505.81
350.72	493.81
350.947	519.81
351.174	513.81
351.402	516.81
351.629	496.81
351.856	494.81
352.083	536.81
352.311	515.81
352.538	515.81
352.765	521.81
352.992	500.81
353.22	480.81
353.447	517.81
353.674	525.81
353.901	509.81
354.128	522.81
354.355	518.81
354.583	513.81
354.81	490.81
355.037	517.81
355.264	505.81
355.491	501.81
355.718	485.81
355.945	537.81
356.172	543.81
356.399	510.81
356.626	519.81
356.853	530.81
357.08	533.81
357.307	536.81
357.534	512.81
357.761	514.81
357.988	521.81
358.215	524.81
358.441	519.81
358.668	537.81
358.895	526.81
359.122	532.81
359.349	527.81
359.576	518.81
359.802	503.81
360.029	515.81
360.256	549.81
360.483	519.81
360.709	507.81
360.936	514.81
361.163	544.81
361.39	537.81
361.616	514.81
361.843	550.81
362.07	517.81
362.296	537.81
362.523	521.81
362.749	538.81
362.976	533.81
363.203	541.81
363.429	552.81
363.656	558.81
363.882	549.81
364.109	546.81
364.335	515.81
364.562	520.81
364.788	519.81
365.015	535.81
365.241	536.81
365.468	534.81
365.694	526.81
365.92	530.81
366.147	531.81
366.373	543.81
366.599	541.81
366.826	541.81
367.052	538.81
367.278	559.81
367.505	528.81
367.731	549.81
367.957	529.81
368.184	533.81
368.41	550.81
368.636	556.81
368.862	540.81
369.089	553.81
369.315	551.81
369.541	558.81
369.767	540.81
369.993	569.81
370.219	561.81
370.445	570.81
370.672	551.81
370.898	551.81
371.124	561.81
371.35	545.81
371.576	575.81
371.802	568.81
372.028	570.81
372.254	563.81
372.48	568.81
372.706	570.81
372.932	570.81
373.158	550.81
373.384	589.81
373.61	567.81
373.835	548.81
374.061	549.81
374.287	568.81
374.513	573.81
374.739	572.81
374.965	590.81
375.191	578.81
375.416	592.81
375.642	567.81
375.868	589.81
376.094	575.81
376.319	559.81
376.545	555.81
376.771	568.81
376.997	584.81
377.222	569.81
377.448	580.81
377.674	584.81
377.899	567.81
378.125	567.81
378.35	568.81
378.576	576.81
378.802	565.81
379.027	565.81
379.253	572.81
379.478	557.81
379.704	597.81
379.929	565.81
380.155	551.81
380.38	571.81
380.606	565.81
380.831	545.81
381.057	571.81
381.282	589.81
381.507	531.81
381.733	577.81
381.958	573.81
382.184	574.81
382.409	575.81
382.634	567.81
382.86	583.81
383.085	596.81
383.31	601.81
383.535	598.81
383.761	597.81
383.986	606.81
384.211	592.81
384.436	593.81
384.662	590.81
384.887	612.81
385.112	594.81
385.337	614.81
385.562	618.81
385.787	571.81
386.013	608.81
386.238	613.81
386.463	599.81
386.688	608.81
386.913	592.81
387.138	614.81
387.363	612.81
387.588	596.81
387.813	600.81
388.038	597.81
388.263	607.81
388.488	640.81
388.713	626.81
388.938	594.81
389.163	587.81
389.387	635.81
389.612	608.81
389.837	606.81
390.062	601.81
390.287	617.81
390.512	601.81
390.736	601.81
390.961	615.81
391.186	601.81
391.411	631.81
391.636	615.81
391.86	631.81
392.085	636.81
392.31	591.81
392.534	631.81
392.759	627.81
392.984	638.81
393.208	639.81
393.433	618.81
393.658	609.81
393.882	623.81
394.107	617.81
394.331	620.81
394.556	622.81
394.78	638.81
395.005	626.81
395.229	617.81
395.454	617.81
395.678	633.81
395.903	620.81
396.127	615.81
396.352	607.81
396.576	630.81
396.801	643.81
397.025	630.81
397.249	650.81
397.474	627.81
397.698	636.81
397.922	641.81
398.147	637.81
398.371	638.81
398.595	664.81
398.82	652.81
399.044	664.81
399.268	668.81
399.492	671.81
399.717	691.81
399.941	705.81
400.165	685.81
400.389	695.81
400.613	675.81
400.837	681.81
401.062	690.81
401.286	665.81
401.51	677.81
401.734	671.81
401.958	672.81
402.182	686.81
402.406	655.81
402.63	673.81
402.854	666.81
403.078	654.81
403.302	662.81
403.526	696.81
403.75	697.81
403.974	703.81
404.198	663.81
404.422	668.81
404.645	691.81
404.869	669.81
405.093	666.81
405.317	663.81
405.541	692.81
405.765	692.81
405.988	671.81
406.212	671.81
406.436	712.81
406.66	715.81
406.883	673.81
407.107	716.81
407.331	713.81
407.555	719.81
407.778	719.81
408.002	708.81
408.226	714.81
408.449	733.81
408.673	688.81
408.896	694.81
409.12	697.81
409.344	693.81
409.567	688.81
409.791	697.81
410.014	704.81
410.238	694.81
410.461	687.81
410.685	702.81
410.908	683.81
411.132	696.81
411.355	671.81
411.578	659.81
411.802	661.81
412.025	678.81
412.249	689.81
412.472	714.81
412.695	652.81
412.919	671.81
413.142	691.81
413.365	701.81
413.589	685.81
413.812	657.81
414.035	672.81
414.258	660.81
414.482	667.81
414.705	697.81
414.928	651.81
415.151	675.81
415.374	650.81
415.597	686.81
415.821	669.81
416.044	653.81
416.267	643.81
416.49	657.81
416.713	661.81
416.936	661.81
417.159	647.81
417.382	675.81
417.605	662.81
417.828	682.81
418.051	667.81
418.274	669.81
418.497	649.81
418.72	644.81
418.943	645.81
419.166	671.81
419.389	684.81
419.611	691.81
419.834	687.81
420.057	667.81
420.28	640.81
420.503	649.81
420.726	632.81
420.948	643.81
421.171	632.81
421.394	628.81
421.617	640.81
421.839	645.81
422.062	637.81
422.285	600.81
422.507	651.81
422.73	637.81
422.953	637.81
423.175	657.81
423.398	667.81
423.621	643.81
423.843	640.81
424.066	653.81
424.288	641.81
424.511	656.81
424.733	646.81
424.956	649.81
425.178	639.81
425.401	663.81
425.623	649.81
425.846	622.81
426.068	639.81
426.291	660.81
426.513	655.81
426.735	638.81
426.958	635.81
427.18	647.81
427.402	665.81
427.625	645.81
427.847	617.81
428.069	635.81
428.292	634.81
428.514	627.81
428.736	618.81
428.958	643.81
429.181	622.81
429.403	623.81
429.625	643.81
429.847	643.81
430.069	649.81
430.292	618.81
430.514	635.81
430.736	639.81
430.958	646.81
431.18	620.81
431.402	631.81
431.624	608.81
431.846	651.81
432.068	633.81
432.29	643.81
432.512	648.81
432.734	654.81
432.956	615.81
433.178	618.81
433.4	636.81
433.622	614.81
433.844	636.81
434.066	647.81
434.287	607.81
434.509	638.81
434.731	633.81
434.953	596.81
435.175	641.81
435.397	651.81
435.618	624.81
435.84	609.81
436.062	625.81
436.284	628.81
436.505	619.81
436.727	639.81
436.949	635.81
437.17	621.81
437.392	647.81
437.614	632.81
437.835	611.81
438.057	625.81
438.278	630.81
438.5	647.81
438.721	646.81
438.943	632.81
439.165	619.81
439.386	621.81
439.608	643.81
439.829	651.81
440.05	637.81
440.272	610.81
440.493	625.81
440.715	616.81
440.936	634.81
441.158	637.81
441.379	616.81
441.6	645.81
441.822	659.81
442.043	653.81
442.264	660.81
442.486	633.81
442.707	620.81
442.928	631.81
443.149	641.81
443.371	613.81
443.592	624.81
443.813	633.81
444.034	637.81
444.255	657.81
444.476	649.81
444.698	654.81
444.919	658.81
445.14	736.81
445.361	673.81
445.582	641.81
445.803	607.81
446.024	617.81
446.245	626.81
446.466	622.81
446.687	618.81
446.908	615.81
447.129	612.81
447.35	612.81
447.571	617.81
447.792	604.81
448.013	616.81
448.234	616.81
448.455	612.81
448.675	612.81
448.896	614.81
449.117	610.81
449.338	598.81
449.559	600.81
449.779	611.81
450	593.81
450.221	571.81
450.442	593.81
450.662	611.81
450.883	601.81
451.104	597.81
451.324	583.81
451.545	593.81
451.766	593.81
451.986	590.81
452.207	572.81
452.428	601.81
452.648	627.81
452.869	598.81
453.089	604.81
453.31	614.81
453.53	604.81
453.751	567.81
453.971	607.81
454.192	583.81
454.412	578.81
454.633	600.81
454.853	593.81
455.073	603.81
455.294	579.81
455.514	597.81
455.734	597.81
455.955	579.81
456.175	569.81
456.395	564.81
456.616	584.81
456.836	588.81
457.056	576.81
457.276	576.81
457.497	580.81
457.717	595.81
457.937	604.81
458.157	585.81
458.377	571.81
458.598	583.81
458.818	591.81
459.038	591.81
459.258	580.81
459.478	608.81
459.698	613.81
459.918	606.81
460.138	611.81
460.358	641.81
460.578	639.81
460.798	622.81
461.018	637.81
461.238	647.81
461.458	633.81
461.678	624.81
461.898	641.81
462.118	643.81
462.338	659.81
462.558	643.81
462.777	652.81
462.997	669.81
463.217	648.81
463.437	666.81
463.657	677.81
463.876	677.81
464.096	677.81
464.316	677.81
464.536	664.81
464.755	643.81
464.975	657.81
465.195	632.81
465.414	636.81
465.634	615.81
465.854	618.81
466.073	618.81
466.293	625.81
466.512	616.81
466.732	630.81
466.951	633.81
467.171	620.81
467.391	639.81
467.61	633.81
467.829	627.81
468.049	639.81
468.268	597.81
468.488	632.81
468.707	652.81
468.927	619.81
469.146	631.81
469.365	647.81
469.585	629.81
469.804	637.81
470.023	646.81
470.243	629.81
470.462	627.81
470.681	644.81
470.901	647.81
471.12	670.81
471.339	645.81
471.558	635.81
471.777	678.81
471.997	651.81
472.216	651.81
472.435	646.81
472.654	658.81
472.873	649.81
473.092	649.81
473.311	681.81
473.53	651.81
473.749	624.81
473.968	663.81
474.187	671.81
474.406	659.81
474.625	653.81
474.844	691.81
475.063	658.81
475.282	692.81
475.501	671.81
475.72	708.81
475.939	704.81
476.158	719.81
476.377	699.81
476.596	695.81
476.814	694.81
477.033	714.81
477.252	721.81
477.471	714.81
477.69	712.81
477.908	704.81
478.127	712.81
478.346	712.81
478.564	753.81
478.783	749.81
479.002	735.81
479.22	757.81
479.439	768.81
479.658	737.81
479.876	764.81
480.095	759.81
480.313	766.81
480.532	759.81
480.751	759.81
480.969	769.81
481.188	796.81
481.406	778.81
481.624	758.81
481.843	777.81
482.061	737.81
482.28	768.81
482.498	777.81
482.717	778.81
482.935	799.81
483.153	838.81
483.372	794.81
483.59	792.81
483.808	819.81
484.027	789.81
484.245	791.81
484.463	811.81
484.681	824.81
484.9	834.81
485.118	801.81
485.336	800.81
485.554	805.81
485.772	816.81
485.99	796.81
486.209	809.81
486.427	820.81
486.645	797.81
486.863	827.81
487.081	848.81
487.299	837.81
487.517	834.81
487.735	817.81
487.953	830.81
488.171	826.81
488.389	795.81
488.607	833.81
488.825	816.81
489.043	828.81
489.261	817.81
489.479	808.81
489.696	846.81
489.914	835.81
490.132	840.81
490.35	821.81
490.568	820.81
490.786	835.81
491.003	843.81
491.221	855.81
491.439	835.81
491.657	831.81
491.874	857.81
492.092	856.81
492.31	868.81
492.527	841.81
492.745	862.81
492.963	858.81
493.18	848.81
493.398	867.81
493.615	856.81
493.833	814.81
494.05	859.81
494.268	831.81
494.485	856.81
494.703	847.81
494.92	850.81
495.138	833.81
495.355	870.81
495.573	839.81
495.79	872.81
496.008	888.81
496.225	865.81
496.442	860.81
496.66	851.81
496.877	848.81
497.094	885.81
497.312	865.81
497.529	899.81
497.746	867.81
497.963	861.81
498.181	941.81
498.398	899.81
498.615	899.81
498.832	910.81
499.049	923.81
499.267	977.81
499.484	929.81
499.701	983.81
499.918	1006.81
500.135	1043.81
500.352	1066.81
500.569	1078.81
500.786	1070.81
501.003	1025.81
501.22	1003.81
501.437	965.81
501.654	972.81
501.871	968.81
502.088	940.81
502.305	925.81
502.522	928.81
502.739	885.81
502.956	890.81
503.172	870.81
503.389	869.81
503.606	881.81
503.823	862.81
504.04	881.81
504.256	859.81
504.473	853.81
504.69	838.81
504.907	843.81
505.123	832.81
505.34	809.81
505.557	829.81
505.773	825.81
505.99	823.81
506.207	803.81
506.423	808.81
506.64	800.81
506.856	811.81
507.073	798.81
507.289	800.81
507.506	780.81
507.722	782.81
507.939	779.81
508.155	750.81
508.372	757.81
508.588	745.81
508.805	766.81
509.021	755.81
509.238	757.81
509.454	759.81
509.67	750.81
509.887	753.81
510.103	758.81
510.319	726.81
510.536	736.81
510.752	763.81
510.968	759.81
511.184	706.81
511.401	748.81
511.617	737.81
511.833	732.81
512.049	749.81
512.265	740.81
512.481	736.81
512.698	720.81
512.914	741.81
513.13	736.81
513.346	753.81
513.562	750.81
513.778	741.81
513.994	721.81
514.21	701.81
514.426	710.81
514.642	737.81
514.858	737.81
515.074	718.81
515.29	737.81
515.506	730.81
515.721	740.81
515.937	731.81
516.153	727.81
516.369	739.81
516.585	724.81
516.801	734.81
517.016	787.81
517.232	755.81
517.448	729.81
517.664	773.81
517.879	766.81
518.095	749.81
518.311	742.81
518.527	743.81
518.742	743.81
518.958	737.81
519.173	742.81
519.389	739.81
519.605	726.81
519.82	740.81
520.036	746.81
520.251	708.81
520.467	712.81
520.682	673.81
520.898	705.81
521.113	718.81
521.329	744.81
521.544	709.81
521.76	717.81
521.975	728.81
522.19	724.81
522.406	716.81
522.621	697.81
522.836	691.81
523.052	694.81
523.267	700.81
523.482	696.81
523.698	680.81
523.913	699.81
524.128	701.81
524.343	683.81
524.559	705.81
524.774	689.81
524.989	702.81
525.204	701.81
525.419	689.81
525.634	686.81
525.849	688.81
526.064	719.81
526.28	699.81
526.495	672.81
526.71	701.81
526.925	678.81
527.14	667.81
527.355	671.81
527.57	681.81
527.785	680.81
527.999	679.81
528.214	679.81
528.429	680.81
528.644	681.81
528.859	671.81
529.074	672.81
529.289	677.81
529.503	687.81
529.718	665.81
529.933	678.81
530.148	683.81
530.363	699.81
530.577	662.81
530.792	664.81
531.007	700.81
531.221	681.81
531.436	679.81
531.651	663.81
531.865	676.81
532.08	668.81
532.295	673.81
532.509	653.81
532.724	655.81
532.938	665.81
533.153	672.81
533.367	644.81
533.582	657.81
533.796	663.81
534.011	652.81
534.225	646.81
534.44	657.81
534.654	651.81
534.868	647.81
535.083	675.81
535.297	655.81
535.511	684.81
535.726	649.81
535.94	655.81
536.154	655.81
536.369	650.81
536.583	638.81
536.797	641.81
537.011	646.81
537.225	611.81
537.44	667.81
537.654	632.81
537.868	640.81
538.082	631.81
538.296	623.81
538.51	649.81
538.724	664.81
538.938	649.81
539.153	657.81
539.367	642.81
539.581	614.81
539.795	623.81
540.009	638.81
540.222	638.81
540.436	620.81
540.65	624.81
540.864	622.81
541.078	644.81
541.292	634.81
541.506	624.81
541.72	616.81
541.934	641.81
542.147	631.81
542.361	659.81
542.575	637.81
542.789	623.81
543.002	600.81
543.216	631.81
543.43	639.81
543.644	612.81
543.857	591.81
544.071	609.81
544.285	630.81
544.498	591.81
544.712	617.81
544.925	614.81
545.139	613.81
545.352	617.81
545.566	623.81
545.779	605.81
545.993	633.81
546.206	610.81
546.42	612.81
546.633	616.81
546.847	608.81
547.06	613.81
547.274	621.81
547.487	609.81
547.7	589.81
547.914	608.81
548.127	612.81
548.34	597.81
548.554	604.81
548.767	615.81
548.98	606.81
549.193	611.81
549.407	579.81
549.62	587.81
549.833	591.81
550.046	606.81
550.259	589.81
550.473	618.81
550.686	580.81
550.899	591.81
551.112	595.81
551.325	589.81
551.538	570.81
551.751	605.81
551.964	587.81
552.177	604.81
552.39	572.81
552.603	592.81
552.816	608.81
553.029	581.81
553.242	593.81
553.455	587.81
553.667	608.81
553.88	601.81
554.093	592.81
554.306	583.81
554.519	604.81
554.732	576.81
554.944	552.81
555.157	567.81
555.37	563.81
555.583	546.81
555.795	583.81
556.008	566.81
556.221	553.81
556.433	563.81
556.646	543.81
556.859	559.81
557.071	550.81
557.284	550.81
557.496	540.81
557.709	546.81
557.921	553.81
558.134	529.81
558.346	542.81
558.559	561.81
558.771	528.81
558.984	539.81
559.196	528.81
559.409	557.81
559.621	539.81
559.833	543.81
560.046	551.81
560.258	526.81
560.47	540.81
560.683	528.81
560.895	514.81
561.107	528.81
561.32	539.81
561.532	515.81
561.744	519.81
561.956	524.81
562.168	517.81
562.381	513.81
562.593	533.81
562.805	518.81
563.017	541.81
563.229	519.81
563.441	525.81
563.653	521.81
563.865	538.81
564.077	523.81
564.289	538.81
564.501	499.81
564.713	533.81
564.925	533.81
565.137	527.81
565.349	530.81
565.561	523.81
565.773	531.81
565.985	527.81
566.197	537.81
566.408	536.81
566.62	536.81
566.832	552.81
567.044	557.81
567.255	540.81
567.467	552.81
567.679	568.81
567.891	556.81
568.102	526.81
568.314	545.81
568.526	550.81
568.737	524.81
568.949	505.81
569.161	516.81
569.372	506.81
569.584	504.81
569.795	504.81
570.007	474.81
570.218	482.81
570.43	485.81
570.641	462.81
570.853	467.81
571.064	459.81
571.276	465.81
571.487	479.81
571.698	470.81
571.91	466.81
572.121	463.81
572.333	457.81
572.544	485.81
572.755	456.81
572.966	448.81
573.178	458.81
573.389	430.81
573.6	439.81
573.811	446.81
574.023	443.81
574.234	427.81
574.445	426.81
574.656	437.81
574.867	435.81
575.078	448.81
575.289	439.81
575.501	442.81
575.712	431.81
575.923	431.81
576.134	433.81
576.345	431.81
576.556	441.81
576.767	415.81
576.978	430.81
577.188	409.81
577.399	414.81
577.61	437.81
577.821	409.81
578.032	408.81
578.243	409.81
578.454	425.81
578.665	406.81
578.875	410.81
579.086	405.81
579.297	410.81
579.508	403.81
579.718	410.81
579.929	411.81
580.14	417.81
580.35	389.81
580.561	404.81
580.772	419.81
580.982	385.81
581.193	396.81
581.403	391.81
581.614	380.81
581.825	389.81
582.035	384.81
582.246	386.81
582.456	386.81
582.667	391.81
582.877	405.81
583.087	398.81
583.298	375.81
583.508	382.81
583.719	399.81
583.929	404.81
584.139	383.81
584.35	378.81
584.56	374.81
584.77	373.81
584.981	393.81
585.191	392.81
585.401	391.81
585.611	369.81
585.821	362.81
586.032	363.81
586.242	366.81
586.452	357.81
586.662	372.81
586.872	361.81
587.082	367.81
587.292	357.81
587.502	368.81
587.713	369.81
587.923	361.81
588.133	377.81
588.343	353.81
588.553	385.81
588.762	350.81
588.972	366.81
589.182	373.81
589.392	376.81
589.602	365.81
589.812	374.81
590.022	373.81
590.232	357.81
590.441	352.81
590.651	349.81
590.861	362.81
591.071	353.81
591.281	359.81
591.49	347.81
591.7	354.81
591.91	361.81
592.119	371.81
592.329	363.81
592.539	359.81
592.748	363.81
592.958	365.81
593.167	356.81
593.377	359.81
593.587	357.81
593.796	365.81
594.006	343.81
594.215	346.81
594.424	344.81
594.634	367.81
594.843	355.81
595.053	343.81
595.262	337.81
595.472	343.81
595.681	351.81
595.89	335.81
596.1	341.81
596.309	331.81
596.518	343.81
596.727	351.81
596.937	342.81
597.146	350.81
597.355	332.81
597.564	318.81
597.774	331.81
597.983	325.81
598.192	330.81
598.401	330.81
598.61	324.81
598.819	320.81
599.028	333.81
599.237	329.81
599.446	317.81
599.655	332.81
599.864	314.81
600.073	329.81
600.282	330.81
600.491	329.81
600.7	327.81
600.909	320.81
601.118	323.81
601.327	321.81
601.536	309.81
601.745	319.81
601.953	305.81
602.162	314.81
602.371	314.81
602.58	311.81
602.789	307.81
602.997	317.81
603.206	299.81
603.415	296.81
603.623	306.81
603.832	280.81
604.041	316.81
604.249	282.81
604.458	303.81
604.666	314.81
604.875	300.81
605.084	292.81
605.292	322.81
605.501	318.81
605.709	318.81
605.918	296.81
606.126	307.81
606.334	286.81
606.543	283.81
606.751	288.81
606.96	301.81
607.168	298.81
607.376	305.81
607.585	301.81
607.793	311.81
608.001	283.81
608.21	291.81
608.418	308.81
608.626	288.81
608.834	294.81
609.043	288.81
609.251	292.81
609.459	289.81
609.667	301.81
609.875	288.81
610.083	281.81
610.291	292.81
610.499	280.81
610.707	296.81
610.916	302.81
611.124	282.81
611.332	294.81
611.54	285.81
611.748	287.81
611.955	286.81
612.163	293.81
612.371	291.81
612.579	286.81
612.787	291.81
612.995	287.81
613.203	292.81
613.411	285.81
613.618	271.81
613.826	272.81
614.034	291.81
614.242	297.81
614.449	282.81
614.657	295.81
614.865	287.81
615.072	286.81
615.28	277.81
615.488	268.81
615.695	284.81
615.903	272.81
616.111	272.81
616.318	274.81
616.526	277.81
616.733	264.81
616.941	287.81
617.148	265.81
617.356	278.81
617.563	292.81
617.771	291.81
617.978	275.81
618.185	255.81
618.393	268.81
618.6	282.81
618.807	274.81
619.015	279.81
619.222	267.81
619.429	263.81
619.637	264.81
619.844	259.81
620.051	253.81
620.258	264.81
620.466	268.81
620.673	261.81
620.88	251.81
621.087	269.81
621.294	266.81
621.501	271.81
621.708	253.81
621.915	271.81
622.122	273.81
622.329	263.81
622.536	261.81
622.743	259.81
622.95	259.81
623.157	240.81
623.364	263.81
623.571	261.81
623.778	249.81
623.985	260.81
624.192	256.81
624.399	253.81
624.606	277.81
624.812	260.81
625.019	230.81
625.226	243.81
625.433	248.81
625.639	246.81
625.846	262.81
626.053	260.81
626.259	251.81
626.466	239.81
626.673	235.81
626.879	244.81
627.086	243.81
627.293	236.81
627.499	248.81
627.706	229.81
627.912	225.81
628.119	235.81
628.325	233.81
628.532	233.81
628.738	239.81
628.945	239.81
629.151	224.81
629.357	245.81
629.564	238.81
629.77	233.81
629.976	246.81
630.183	213.81
630.389	230.81
630.595	231.81
630.802	238.81
631.008	240.81
631.214	221.81
631.42	218.81
631.627	230.81
631.833	222.81
632.039	217.81
632.245	230.81
632.451	239.81
632.657	234.81
632.863	239.81
633.069	257.81
633.275	242.81
633.481	237.81
633.688	235.81
633.893	214.81
634.099	239.81
634.305	228.81
634.511	239.81
634.717	209.81
634.923	232.81
635.129	222.81
635.335	221.81
635.541	215.81
635.747	221.81
635.952	238.81
636.158	224.81
636.364	207.81
636.57	222.81
636.775	230.81
636.981	209.81
637.187	212.81
637.392	208.81
637.598	215.81
637.804	223.81
638.009	223.81
638.215	231.81
638.421	214.81
638.626	195.81
638.832	214.81
639.037	203.81
639.243	213.81
639.448	199.81
639.654	223.81
639.859	223.81
640.065	198.81
640.27	203.81
640.475	219.81
640.681	221.81
640.886	209.81
641.091	214.81
641.297	214.81
641.502	210.81
641.707	214.81
641.913	220.81
642.118	214.81
642.323	225.81
642.528	227.81
642.733	215.81
642.939	213.81
643.144	189.81
643.349	224.81
643.554	213.81
643.759	217.81
643.964	212.81
644.169	207.81
644.374	192.81
644.579	204.81
644.784	189.81
644.989	200.81
645.194	213.81
645.399	201.81
645.604	212.81
645.809	209.81
646.014	212.81
646.219	203.81
646.423	204.81
646.628	217.81
646.833	211.81
647.038	215.81
647.243	197.81
647.447	217.81
647.652	215.81
647.857	199.81
648.062	202.81
648.266	203.81
648.471	204.81
648.676	204.81
648.88	215.81
649.085	219.81
649.289	208.81
649.494	195.81
649.698	210.81
649.903	205.81
650.107	205.81
650.312	210.81
650.516	201.81
650.721	203.81
650.925	186.81
651.13	205.81
651.334	205.81
651.539	195.81
651.743	213.81
651.947	183.81
652.152	186.81
652.356	204.81
652.56	179.81
652.764	191.81
652.969	182.81
653.173	182.81
653.377	198.81
653.581	170.81
653.785	167.81
653.99	181.81
654.194	199.81
654.398	201.81
654.602	178.81
654.806	181.81
655.01	180.81
655.214	182.81
655.418	176.81
655.622	179.81
655.826	185.81
656.03	166.81
656.234	172.81
656.438	184.81
656.642	174.81
656.846	158.81
657.049	162.81
657.253	151.81
657.457	149.81
657.661	151.81
657.865	140.81
658.068	151.81
658.272	142.81
658.476	131.81
658.68	131.81
658.883	133.81
659.087	121.81
659.291	118.81
659.494	131.81
659.698	124.81
659.901	107.81
660.105	113.81
660.309	105.81
660.512	89.81
660.716	103.81
660.919	110.81
661.123	110.81
661.326	110.81
661.53	103.81
661.733	96.81
661.936	100.81
662.14	112.81
662.343	92.81
662.546	93.81
662.75	93.81
662.953	95.81
663.156	90.81
663.36	99.81
663.563	88.81
663.766	85.81
663.969	97.81
664.173	102.81
664.376	93.81
664.579	103.81
664.782	94.81
664.985	90.81
665.188	75.81
665.391	88.81
665.594	89.81
665.797	77.81
666	76.81
666.203	83.81
666.406	73.81
666.609	91.81
666.812	79.81
667.015	83.81
667.218	87.81
667.421	76.81
667.624	87.81
667.827	87.81
668.03	77.81
668.232	92.81
668.435	83.81
668.638	81.81
668.841	88.81
669.043	86.81
669.246	79.81
669.449	83.81
669.651	98.81
669.854	80.81
670.057	81.81
670.259	82.81
670.462	97.81
670.665	91.81
670.867	103.81
671.07	68.81
671.272	87.81
671.475	95.81
671.677	82.81
671.88	94.81
672.082	80.81
672.284	84.81
672.487	73.81
672.689	86.81
672.892	79.81
