Data from Fe(NO3)3@0.1M.TitratingCurve.Agarose3%dH2O.NegLispCup.LampEnergy10.LIBS07252019_HRD10591_16-41-37-333.txt Node
Date: Thu Jul 25 16:41:37 EDT 2019
User: cochatt
Spectrometer: HR+D1059
Trigger mode: 1
Integration Time (sec): 1.000000E-1
Scans to average: 1
Electric dark correction enabled: true
Nonlinearity correction enabled: false
Boxcar width: 0
XAxis mode: Wavelengths
Number of Pixels in Spectrum: 2048
>>>>>Begin Spectral Data<<<<<
223.165	-17.62
223.4	-17.62
223.635	-17.62
223.869	-2.62
224.104	-16.62
224.338	-12.62
224.573	-31.62
224.808	-11.62
225.042	-13.62
225.277	10.38
225.511	2.38
225.746	-5.62
225.98	10.38
226.215	11.38
226.449	17.38
226.683	11.38
226.918	20.38
227.152	28.38
227.387	16.38
227.621	48.38
227.856	34.38
228.09	57.38
228.324	53.38
228.559	59.38
228.793	56.38
229.027	71.38
229.262	68.38
229.496	66.38
229.73	84.38
229.964	86.38
230.199	76.38
230.433	85.38
230.667	94.38
230.901	80.38
231.136	100.38
231.37	97.38
231.604	89.38
231.838	99.38
232.072	85.38
232.306	97.38
232.541	89.38
232.775	102.38
233.009	88.38
233.243	95.38
233.477	86.38
233.711	100.38
233.945	82.38
234.179	112.38
234.413	117.38
234.647	107.38
234.881	93.38
235.115	95.38
235.349	94.38
235.583	87.38
235.817	84.38
236.051	101.38
236.285	94.38
236.519	104.38
236.753	92.38
236.987	97.38
237.221	103.38
237.455	93.38
237.689	94.38
237.922	103.38
238.156	102.38
238.39	100.38
238.624	88.38
238.858	94.38
239.091	100.38
239.325	100.38
239.559	102.38
239.793	101.38
240.027	101.38
240.26	104.38
240.494	112.38
240.728	100.38
240.961	114.38
241.195	111.38
241.429	99.38
241.662	115.38
241.896	111.38
242.13	117.38
242.363	113.38
242.597	111.38
242.83	113.38
243.064	110.38
243.298	91.38
243.531	91.38
243.765	112.38
243.998	121.38
244.232	99.38
244.465	106.38
244.699	109.38
244.932	119.38
245.166	106.38
245.399	129.38
245.633	114.38
245.866	113.38
246.099	118.38
246.333	116.38
246.566	114.38
246.8	113.38
247.033	114.38
247.266	121.38
247.5	107.38
247.733	116.38
247.966	106.38
248.2	123.38
248.433	106.38
248.666	108.38
248.899	114.38
249.133	123.38
249.366	116.38
249.599	122.38
249.832	110.38
250.066	127.38
250.299	122.38
250.532	137.38
250.765	116.38
250.998	125.38
251.231	133.38
251.465	122.38
251.698	122.38
251.931	122.38
252.164	121.38
252.397	135.38
252.63	122.38
252.863	130.38
253.096	134.38
253.329	139.38
253.562	139.38
253.795	140.38
254.028	125.38
254.261	124.38
254.494	139.38
254.727	145.38
254.96	132.38
255.193	106.38
255.426	123.38
255.659	127.38
255.892	138.38
256.124	129.38
256.357	126.38
256.59	141.38
256.823	129.38
257.056	130.38
257.289	145.38
257.521	141.38
257.754	165.38
257.987	147.38
258.22	147.38
258.452	127.38
258.685	131.38
258.918	129.38
259.151	149.38
259.383	157.38
259.616	133.38
259.849	125.38
260.081	152.38
260.314	145.38
260.547	142.38
260.779	135.38
261.012	164.38
261.244	131.38
261.477	139.38
261.71	139.38
261.942	133.38
262.175	136.38
262.407	161.38
262.64	159.38
262.872	157.38
263.105	158.38
263.337	149.38
263.57	130.38
263.802	129.38
264.035	152.38
264.267	141.38
264.499	152.38
264.732	154.38
264.964	160.38
265.197	149.38
265.429	163.38
265.661	133.38
265.894	149.38
266.126	133.38
266.358	156.38
266.591	143.38
266.823	157.38
267.055	158.38
267.287	144.38
267.52	161.38
267.752	160.38
267.984	157.38
268.216	145.38
268.448	159.38
268.681	149.38
268.913	146.38
269.145	161.38
269.377	161.38
269.609	158.38
269.841	157.38
270.073	146.38
270.306	160.38
270.538	163.38
270.77	159.38
271.002	162.38
271.234	160.38
271.466	175.38
271.698	159.38
271.93	173.38
272.162	177.38
272.394	167.38
272.626	161.38
272.858	171.38
273.09	175.38
273.322	185.38
273.553	178.38
273.785	173.38
274.017	157.38
274.249	175.38
274.481	149.38
274.713	161.38
274.945	161.38
275.176	184.38
275.408	162.38
275.64	167.38
275.872	181.38
276.104	171.38
276.335	173.38
276.567	171.38
276.799	175.38
277.031	190.38
277.262	170.38
277.494	169.38
277.726	201.38
277.957	182.38
278.189	193.38
278.421	175.38
278.652	174.38
278.884	171.38
279.115	174.38
279.347	175.38
279.579	203.38
279.81	197.38
280.042	169.38
280.273	199.38
280.505	175.38
280.736	185.38
280.968	178.38
281.199	191.38
281.431	185.38
281.662	179.38
281.894	190.38
282.125	193.38
282.356	219.38
282.588	196.38
282.819	193.38
283.051	185.38
283.282	195.38
283.513	190.38
283.745	181.38
283.976	200.38
284.207	192.38
284.439	193.38
284.67	197.38
284.901	193.38
285.132	197.38
285.364	191.38
285.595	190.38
285.826	206.38
286.057	193.38
286.288	200.38
286.52	213.38
286.751	193.38
286.982	205.38
287.213	196.38
287.444	190.38
287.675	207.38
287.906	197.38
288.138	198.38
288.369	218.38
288.6	207.38
288.831	216.38
289.062	215.38
289.293	205.38
289.524	195.38
289.755	220.38
289.986	217.38
290.217	200.38
290.448	222.38
290.679	210.38
290.91	226.38
291.141	215.38
291.371	236.38
291.602	203.38
291.833	213.38
292.064	205.38
292.295	200.38
292.526	215.38
292.757	196.38
292.987	203.38
293.218	205.38
293.449	212.38
293.68	193.38
293.91	201.38
294.141	226.38
294.372	211.38
294.603	205.38
294.833	203.38
295.064	223.38
295.295	218.38
295.525	204.38
295.756	224.38
295.987	207.38
296.217	214.38
296.448	225.38
296.679	221.38
296.909	214.38
297.14	209.38
297.37	231.38
297.601	225.38
297.831	232.38
298.062	224.38
298.292	231.38
298.523	223.38
298.753	230.38
298.984	243.38
299.214	232.38
299.445	226.38
299.675	212.38
299.905	232.38
300.136	232.38
300.366	220.38
300.597	222.38
300.827	241.38
301.057	240.38
301.288	241.38
301.518	237.38
301.748	234.38
301.979	251.38
302.209	234.38
302.439	228.38
302.669	223.38
302.9	238.38
303.13	224.38
303.36	232.38
303.59	233.38
303.82	220.38
304.051	236.38
304.281	252.38
304.511	224.38
304.741	233.38
304.971	247.38
305.201	239.38
305.431	223.38
305.661	251.38
305.891	241.38
306.121	235.38
306.352	230.38
306.582	233.38
306.812	213.38
307.042	233.38
307.272	239.38
307.502	229.38
307.731	242.38
307.961	231.38
308.191	245.38
308.421	222.38
308.651	230.38
308.881	208.38
309.111	252.38
309.341	231.38
309.571	245.38
309.8	240.38
310.03	223.38
310.26	222.38
310.49	232.38
310.72	230.38
310.949	242.38
311.179	247.38
311.409	230.38
311.639	241.38
311.868	250.38
312.098	244.38
312.328	242.38
312.557	223.38
312.787	259.38
313.017	255.38
313.246	248.38
313.476	253.38
313.706	262.38
313.935	256.38
314.165	268.38
314.394	247.38
314.624	272.38
314.853	261.38
315.083	228.38
315.312	242.38
315.542	250.38
315.771	254.38
316.001	251.38
316.23	242.38
316.46	243.38
316.689	284.38
316.919	241.38
317.148	239.38
317.377	232.38
317.607	243.38
317.836	262.38
318.065	252.38
318.295	249.38
318.524	247.38
318.753	257.38
318.983	249.38
319.212	243.38
319.441	253.38
319.67	265.38
319.9	245.38
320.129	267.38
320.358	272.38
320.587	261.38
320.816	251.38
321.046	259.38
321.275	258.38
321.504	247.38
321.733	242.38
321.962	255.38
322.191	258.38
322.42	260.38
322.649	240.38
322.878	265.38
323.108	250.38
323.337	267.38
323.566	267.38
323.795	250.38
324.024	270.38
324.253	254.38
324.482	253.38
324.71	271.38
324.939	264.38
325.168	287.38
325.397	267.38
325.626	285.38
325.855	271.38
326.084	267.38
326.313	252.38
326.542	267.38
326.77	275.38
326.999	247.38
327.228	265.38
327.457	272.38
327.686	266.38
327.914	274.38
328.143	270.38
328.372	258.38
328.6	290.38
328.829	275.38
329.058	259.38
329.287	283.38
329.515	289.38
329.744	290.38
329.972	289.38
330.201	280.38
330.43	304.38
330.658	275.38
330.887	287.38
331.115	275.38
331.344	272.38
331.572	277.38
331.801	295.38
332.03	307.38
332.258	307.38
332.486	301.38
332.715	326.38
332.943	320.38
333.172	330.38
333.4	355.38
333.629	341.38
333.857	331.38
334.085	346.38
334.314	340.38
334.542	331.38
334.771	337.38
334.999	319.38
335.227	327.38
335.455	327.38
335.684	319.38
335.912	320.38
336.14	327.38
336.369	321.38
336.597	330.38
336.825	310.38
337.053	307.38
337.281	331.38
337.51	301.38
337.738	301.38
337.966	284.38
338.194	307.38
338.422	298.38
338.65	284.38
338.878	296.38
339.106	306.38
339.334	307.38
339.562	294.38
339.79	285.38
340.018	280.38
340.246	289.38
340.474	294.38
340.702	288.38
340.93	288.38
341.158	310.38
341.386	277.38
341.614	288.38
341.842	283.38
342.07	286.38
342.298	294.38
342.526	288.38
342.754	285.38
342.981	297.38
343.209	291.38
343.437	337.38
343.665	324.38
343.893	344.38
344.12	366.38
344.348	337.38
344.576	316.38
344.804	305.38
345.031	294.38
345.259	310.38
345.487	290.38
345.714	308.38
345.942	268.38
346.17	288.38
346.397	281.38
346.625	282.38
346.853	300.38
347.08	286.38
347.308	275.38
347.535	290.38
347.763	262.38
347.99	284.38
348.218	261.38
348.445	279.38
348.673	269.38
348.9	270.38
349.128	280.38
349.355	278.38
349.583	259.38
349.81	275.38
350.037	281.38
350.265	283.38
350.492	276.38
350.72	274.38
350.947	297.38
351.174	304.38
351.402	287.38
351.629	278.38
351.856	273.38
352.083	277.38
352.311	266.38
352.538	265.38
352.765	268.38
352.992	286.38
353.22	243.38
353.447	244.38
353.674	270.38
353.901	286.38
354.128	281.38
354.355	259.38
354.583	277.38
354.81	285.38
355.037	281.38
355.264	271.38
355.491	273.38
355.718	273.38
355.945	270.38
356.172	278.38
356.399	271.38
356.626	289.38
356.853	293.38
357.08	282.38
357.307	275.38
357.534	261.38
357.761	274.38
357.988	278.38
358.215	290.38
358.441	269.38
358.668	272.38
358.895	260.38
359.122	284.38
359.349	292.38
359.576	270.38
359.802	262.38
360.029	285.38
360.256	285.38
360.483	286.38
360.709	288.38
360.936	265.38
361.163	281.38
361.39	284.38
361.616	275.38
361.843	279.38
362.07	285.38
362.296	263.38
362.523	281.38
362.749	265.38
362.976	293.38
363.203	285.38
363.429	265.38
363.656	277.38
363.882	275.38
364.109	273.38
364.335	261.38
364.562	273.38
364.788	283.38
365.015	270.38
365.241	273.38
365.468	285.38
365.694	268.38
365.92	277.38
366.147	287.38
366.373	269.38
366.599	301.38
366.826	261.38
367.052	273.38
367.278	273.38
367.505	279.38
367.731	298.38
367.957	278.38
368.184	283.38
368.41	289.38
368.636	289.38
368.862	293.38
369.089	289.38
369.315	285.38
369.541	261.38
369.767	295.38
369.993	295.38
370.219	293.38
370.445	296.38
370.672	279.38
370.898	297.38
371.124	295.38
371.35	298.38
371.576	301.38
371.802	281.38
372.028	301.38
372.254	270.38
372.48	323.38
372.706	304.38
372.932	322.38
373.158	316.38
373.384	317.38
373.61	314.38
373.835	287.38
374.061	315.38
374.287	294.38
374.513	329.38
374.739	297.38
374.965	325.38
375.191	328.38
375.416	336.38
375.642	319.38
375.868	330.38
376.094	323.38
376.319	315.38
376.545	297.38
376.771	301.38
376.997	317.38
377.222	301.38
377.448	306.38
377.674	285.38
377.899	301.38
378.125	294.38
378.35	315.38
378.576	293.38
378.802	293.38
379.027	306.38
379.253	321.38
379.478	281.38
379.704	302.38
379.929	306.38
380.155	299.38
380.38	292.38
380.606	296.38
380.831	286.38
381.057	317.38
381.282	299.38
381.507	312.38
381.733	319.38
381.958	307.38
382.184	316.38
382.409	320.38
382.634	325.38
382.86	307.38
383.085	321.38
383.31	320.38
383.535	330.38
383.761	325.38
383.986	350.38
384.211	353.38
384.436	374.38
384.662	346.38
384.887	335.38
385.112	337.38
385.337	353.38
385.562	345.38
385.787	338.38
386.013	381.38
386.238	346.38
386.463	339.38
386.688	365.38
386.913	346.38
387.138	353.38
387.363	366.38
387.588	367.38
387.813	351.38
388.038	350.38
388.263	369.38
388.488	331.38
388.713	345.38
388.938	368.38
389.163	362.38
389.387	357.38
389.612	342.38
389.837	342.38
390.062	350.38
390.287	342.38
390.512	355.38
390.736	353.38
390.961	357.38
391.186	369.38
391.411	383.38
391.636	379.38
391.86	387.38
392.085	389.38
392.31	389.38
392.534	374.38
392.759	390.38
392.984	369.38
393.208	367.38
393.433	374.38
393.658	365.38
393.882	372.38
394.107	393.38
394.331	391.38
394.556	373.38
394.78	374.38
395.005	387.38
395.229	382.38
395.454	392.38
395.678	408.38
395.903	407.38
396.127	383.38
396.352	374.38
396.576	385.38
396.801	375.38
397.025	366.38
397.249	402.38
397.474	402.38
397.698	381.38
397.922	405.38
398.147	377.38
398.371	392.38
398.595	425.38
398.82	441.38
399.044	453.38
399.268	513.38
399.492	569.38
399.717	635.38
399.941	638.38
400.165	538.38
400.389	474.38
400.613	451.38
400.837	455.38
401.062	434.38
401.286	442.38
401.51	427.38
401.734	463.38
401.958	431.38
402.182	457.38
402.406	438.38
402.63	454.38
402.854	443.38
403.078	453.38
403.302	462.38
403.526	474.38
403.75	484.38
403.974	498.38
404.198	478.38
404.422	482.38
404.645	459.38
404.869	472.38
405.093	467.38
405.317	456.38
405.541	467.38
405.765	493.38
405.988	482.38
406.212	466.38
406.436	469.38
406.66	481.38
406.883	517.38
407.107	521.38
407.331	522.38
407.555	555.38
407.778	519.38
408.002	551.38
408.226	526.38
408.449	516.38
408.673	524.38
408.896	498.38
409.12	514.38
409.344	486.38
409.567	495.38
409.791	481.38
410.014	483.38
410.238	492.38
410.461	500.38
410.685	502.38
410.908	489.38
411.132	460.38
411.355	453.38
411.578	469.38
411.802	469.38
412.025	463.38
412.249	486.38
412.472	470.38
412.695	457.38
412.919	429.38
413.142	433.38
413.365	442.38
413.589	449.38
413.812	422.38
414.035	442.38
414.258	451.38
414.482	449.38
414.705	454.38
414.928	452.38
415.151	469.38
415.374	442.38
415.597	438.38
415.821	434.38
416.044	434.38
416.267	439.38
416.49	439.38
416.713	450.38
416.936	442.38
417.159	448.38
417.382	446.38
417.605	426.38
417.828	445.38
418.051	432.38
418.274	449.38
418.497	436.38
418.72	438.38
418.943	438.38
419.166	465.38
419.389	487.38
419.611	461.38
419.834	465.38
420.057	454.38
420.28	447.38
420.503	425.38
420.726	445.38
420.948	443.38
421.171	441.38
421.394	450.38
421.617	453.38
421.839	432.38
422.062	453.38
422.285	433.38
422.507	431.38
422.73	451.38
422.953	447.38
423.175	466.38
423.398	474.38
423.621	453.38
423.843	454.38
424.066	474.38
424.288	478.38
424.511	460.38
424.733	473.38
424.956	458.38
425.178	464.38
425.401	431.38
425.623	464.38
425.846	439.38
426.068	429.38
426.291	435.38
426.513	434.38
426.735	411.38
426.958	414.38
427.18	391.38
427.402	414.38
427.625	392.38
427.847	417.38
428.069	393.38
428.292	407.38
428.514	402.38
428.736	419.38
428.958	398.38
429.181	381.38
429.403	378.38
429.625	387.38
429.847	378.38
430.069	396.38
430.292	407.38
430.514	380.38
430.736	389.38
430.958	404.38
431.18	405.38
431.402	393.38
431.624	403.38
431.846	412.38
432.068	399.38
432.29	404.38
432.512	404.38
432.734	405.38
432.956	399.38
433.178	411.38
433.4	418.38
433.622	409.38
433.844	415.38
434.066	424.38
434.287	421.38
434.509	421.38
434.731	436.38
434.953	439.38
435.175	438.38
435.397	429.38
435.618	440.38
435.84	410.38
436.062	401.38
436.284	415.38
436.505	423.38
436.727	407.38
436.949	387.38
437.17	400.38
437.392	383.38
437.614	385.38
437.835	382.38
438.057	395.38
438.278	385.38
438.5	383.38
438.721	381.38
438.943	389.38
439.165	391.38
439.386	417.38
439.608	401.38
439.829	413.38
440.05	399.38
440.272	390.38
440.493	435.38
440.715	423.38
440.936	429.38
441.158	436.38
441.379	452.38
441.6	462.38
441.822	462.38
442.043	448.38
442.264	442.38
442.486	449.38
442.707	443.38
442.928	442.38
443.149	464.38
443.371	457.38
443.592	451.38
443.813	462.38
444.034	453.38
444.255	498.38
444.476	481.38
444.698	501.38
444.919	517.38
445.14	586.38
445.361	524.38
445.582	463.38
445.803	450.38
446.024	449.38
446.245	453.38
446.466	435.38
446.687	423.38
446.908	430.38
447.129	412.38
447.35	399.38
447.571	416.38
447.792	388.38
448.013	408.38
448.234	389.38
448.455	394.38
448.675	387.38
448.896	399.38
449.117	390.38
449.338	396.38
449.559	377.38
449.779	388.38
450	408.38
450.221	381.38
450.442	373.38
450.662	402.38
450.883	381.38
451.104	396.38
451.324	403.38
451.545	399.38
451.766	395.38
451.986	380.38
452.207	369.38
452.428	384.38
452.648	382.38
452.869	375.38
453.089	370.38
453.31	350.38
453.53	357.38
453.751	371.38
453.971	362.38
454.192	373.38
454.412	368.38
454.633	364.38
454.853	363.38
455.073	358.38
455.294	377.38
455.514	358.38
455.734	367.38
455.955	354.38
456.175	352.38
456.395	337.38
456.616	349.38
456.836	353.38
457.056	350.38
457.276	342.38
457.497	362.38
457.717	341.38
457.937	373.38
458.157	370.38
458.377	375.38
458.598	335.38
458.818	379.38
459.038	393.38
459.258	401.38
459.478	386.38
459.698	411.38
459.918	424.38
460.138	442.38
460.358	466.38
460.578	468.38
460.798	470.38
461.018	474.38
461.238	483.38
461.458	467.38
461.678	453.38
461.898	470.38
462.118	466.38
462.338	484.38
462.558	495.38
462.777	498.38
462.997	557.38
463.217	605.38
463.437	594.38
463.657	530.38
463.876	501.38
464.096	518.38
464.316	517.38
464.536	521.38
464.755	502.38
464.975	485.38
465.195	454.38
465.414	435.38
465.634	422.38
465.854	416.38
466.073	413.38
466.293	406.38
466.512	401.38
466.732	401.38
466.951	388.38
467.171	399.38
467.391	405.38
467.61	387.38
467.829	378.38
468.049	380.38
468.268	387.38
468.488	383.38
468.707	381.38
468.927	374.38
469.146	357.38
469.365	393.38
469.585	379.38
469.804	394.38
470.023	396.38
470.243	409.38
470.462	401.38
470.681	414.38
470.901	407.38
471.12	387.38
471.339	403.38
471.558	402.38
471.777	376.38
471.997	371.38
472.216	386.38
472.435	377.38
472.654	373.38
472.873	379.38
473.092	371.38
473.311	382.38
473.53	387.38
473.749	380.38
473.968	355.38
474.187	358.38
474.406	346.38
474.625	366.38
474.844	370.38
475.063	357.38
475.282	363.38
475.501	351.38
475.72	372.38
475.939	393.38
476.158	356.38
476.377	381.38
476.596	371.38
476.814	387.38
477.033	386.38
477.252	377.38
477.471	406.38
477.69	410.38
477.908	431.38
478.127	447.38
478.346	427.38
478.564	431.38
478.783	418.38
479.002	437.38
479.22	455.38
479.439	439.38
479.658	439.38
479.876	447.38
480.095	417.38
480.313	442.38
480.532	489.38
480.751	472.38
480.969	436.38
481.188	415.38
481.406	424.38
481.624	414.38
481.843	399.38
482.061	405.38
482.28	402.38
482.498	411.38
482.717	407.38
482.935	413.38
483.153	403.38
483.372	403.38
483.59	420.38
483.808	395.38
484.027	408.38
484.245	409.38
484.463	425.38
484.681	418.38
484.9	399.38
485.118	421.38
485.336	391.38
485.554	401.38
485.772	409.38
485.99	408.38
486.209	405.38
486.427	420.38
486.645	409.38
486.863	440.38
487.081	416.38
487.299	419.38
487.517	427.38
487.735	424.38
487.953	429.38
488.171	411.38
488.389	424.38
488.607	396.38
488.825	410.38
489.043	411.38
489.261	422.38
489.479	407.38
489.696	411.38
489.914	419.38
490.132	426.38
490.35	432.38
490.568	405.38
490.786	431.38
491.003	430.38
491.221	422.38
491.439	439.38
491.657	454.38
491.874	432.38
492.092	448.38
492.31	419.38
492.527	433.38
492.745	437.38
492.963	453.38
493.18	438.38
493.398	457.38
493.615	451.38
493.833	432.38
494.05	461.38
494.268	449.38
494.485	432.38
494.703	438.38
494.92	451.38
495.138	449.38
495.355	447.38
495.573	436.38
495.79	469.38
496.008	446.38
496.225	470.38
496.442	463.38
496.66	474.38
496.877	467.38
497.094	478.38
497.312	477.38
497.529	482.38
497.746	506.38
497.963	534.38
498.181	546.38
498.398	550.38
498.615	594.38
498.832	596.38
499.049	644.38
499.267	680.38
499.484	760.38
499.701	841.38
499.918	906.38
500.135	1023.38
500.352	1129.38
500.569	1153.38
500.786	1146.38
501.003	1039.38
501.22	969.38
501.437	869.38
501.654	773.38
501.871	702.38
502.088	645.38
502.305	631.38
502.522	610.38
502.739	588.38
502.956	549.38
503.172	533.38
503.389	501.38
503.606	533.38
503.823	459.38
504.04	482.38
504.256	491.38
504.473	510.38
504.69	493.38
504.907	518.38
505.123	475.38
505.34	429.38
505.557	442.38
505.773	414.38
505.99	432.38
506.207	441.38
506.423	425.38
506.64	412.38
506.856	400.38
507.073	387.38
507.289	407.38
507.506	419.38
507.722	395.38
507.939	396.38
508.155	371.38
508.372	377.38
508.588	387.38
508.805	371.38
509.021	379.38
509.238	370.38
509.454	368.38
509.67	374.38
509.887	365.38
510.103	370.38
510.319	366.38
510.536	359.38
510.752	368.38
510.968	361.38
511.184	372.38
511.401	355.38
511.617	368.38
511.833	383.38
512.049	361.38
512.265	369.38
512.481	359.38
512.698	370.38
512.914	372.38
513.13	376.38
513.346	373.38
513.562	370.38
513.778	367.38
513.994	360.38
514.21	368.38
514.426	365.38
514.642	375.38
514.858	393.38
515.074	368.38
515.29	360.38
515.506	368.38
515.721	350.38
515.937	367.38
516.153	389.38
516.369	395.38
516.585	414.38
516.801	399.38
517.016	429.38
517.232	442.38
517.448	458.38
517.664	479.38
517.879	479.38
518.095	475.38
518.311	468.38
518.527	449.38
518.742	446.38
518.958	424.38
519.173	409.38
519.389	401.38
519.605	384.38
519.82	387.38
520.036	395.38
520.251	365.38
520.467	380.38
520.682	357.38
520.898	348.38
521.113	346.38
521.329	352.38
521.544	361.38
521.76	334.38
521.975	359.38
522.19	346.38
522.406	338.38
522.621	346.38
522.836	339.38
523.052	360.38
523.267	355.38
523.482	319.38
523.698	344.38
523.913	339.38
524.128	338.38
524.343	347.38
524.559	337.38
524.774	347.38
524.989	338.38
525.204	345.38
525.419	322.38
525.634	309.38
525.849	334.38
526.064	336.38
526.28	321.38
526.495	341.38
526.71	324.38
526.925	315.38
527.14	359.38
527.355	331.38
527.57	326.38
527.785	346.38
527.999	320.38
528.214	326.38
528.429	327.38
528.644	337.38
528.859	325.38
529.074	319.38
529.289	334.38
529.503	341.38
529.718	323.38
529.933	337.38
530.148	338.38
530.363	321.38
530.577	317.38
530.792	322.38
531.007	311.38
531.221	318.38
531.436	324.38
531.651	351.38
531.865	314.38
532.08	317.38
532.295	314.38
532.509	325.38
532.724	336.38
532.938	327.38
533.153	347.38
533.367	332.38
533.582	320.38
533.796	329.38
534.011	318.38
534.225	342.38
534.44	334.38
534.654	324.38
534.868	314.38
535.083	330.38
535.297	305.38
535.511	309.38
535.726	296.38
535.94	308.38
536.154	322.38
536.369	317.38
536.583	310.38
536.797	311.38
537.011	317.38
537.225	305.38
537.44	299.38
537.654	304.38
537.868	294.38
538.082	311.38
538.296	303.38
538.51	302.38
538.724	306.38
538.938	308.38
539.153	304.38
539.367	288.38
539.581	303.38
539.795	298.38
540.009	298.38
540.222	301.38
540.436	303.38
540.65	301.38
540.864	326.38
541.078	313.38
541.292	301.38
541.506	305.38
541.72	320.38
541.934	306.38
542.147	290.38
542.361	298.38
542.575	307.38
542.789	293.38
543.002	293.38
543.216	304.38
543.43	297.38
543.644	294.38
543.857	287.38
544.071	309.38
544.285	283.38
544.498	296.38
544.712	316.38
544.925	295.38
545.139	304.38
545.352	311.38
545.566	327.38
545.779	318.38
545.993	316.38
546.206	314.38
546.42	313.38
546.633	315.38
546.847	320.38
547.06	324.38
547.274	318.38
547.487	309.38
547.7	313.38
547.914	320.38
548.127	315.38
548.34	321.38
548.554	333.38
548.767	312.38
548.98	314.38
549.193	303.38
549.407	323.38
549.62	309.38
549.833	332.38
550.046	302.38
550.259	305.38
550.473	307.38
550.686	317.38
550.899	305.38
551.112	309.38
551.325	310.38
551.538	292.38
551.751	297.38
551.964	310.38
552.177	317.38
552.39	316.38
552.603	294.38
552.816	325.38
553.029	336.38
553.242	330.38
553.455	325.38
553.667	332.38
553.88	341.38
554.093	320.38
554.306	308.38
554.519	314.38
554.732	315.38
554.944	310.38
555.157	295.38
555.37	299.38
555.583	296.38
555.795	291.38
556.008	288.38
556.221	287.38
556.433	284.38
556.646	291.38
556.859	279.38
557.071	267.38
557.284	256.38
557.496	270.38
557.709	261.38
557.921	275.38
558.134	274.38
558.346	278.38
558.559	271.38
558.771	277.38
558.984	271.38
559.196	284.38
559.409	262.38
559.621	271.38
559.833	261.38
560.046	257.38
560.258	259.38
560.47	255.38
560.683	261.38
560.895	258.38
561.107	273.38
561.32	235.38
561.532	257.38
561.744	258.38
561.956	262.38
562.168	253.38
562.381	274.38
562.593	265.38
562.805	266.38
563.017	268.38
563.229	271.38
563.441	274.38
563.653	260.38
563.865	256.38
564.077	273.38
564.289	248.38
564.501	265.38
564.713	280.38
564.925	275.38
565.137	286.38
565.349	304.38
565.561	301.38
565.773	333.38
565.985	289.38
566.197	330.38
566.408	350.38
566.62	370.38
566.832	377.38
567.044	398.38
567.255	410.38
567.467	412.38
567.679	415.38
567.891	463.38
568.102	445.38
568.314	419.38
568.526	400.38
568.737	369.38
568.949	323.38
569.161	305.38
569.372	297.38
569.584	291.38
569.795	279.38
570.007	271.38
570.218	275.38
570.43	283.38
570.641	263.38
570.853	278.38
571.064	258.38
571.276	279.38
571.487	257.38
571.698	262.38
571.91	255.38
572.121	240.38
572.333	235.38
572.544	230.38
572.755	235.38
572.966	233.38
573.178	236.38
573.389	230.38
573.6	230.38
573.811	226.38
574.023	220.38
574.234	207.38
574.445	218.38
574.656	209.38
574.867	232.38
575.078	223.38
575.289	211.38
575.501	218.38
575.712	211.38
575.923	210.38
576.134	219.38
576.345	203.38
576.556	225.38
576.767	205.38
576.978	240.38
577.188	221.38
577.399	217.38
577.61	206.38
577.821	213.38
578.032	209.38
578.243	212.38
578.454	222.38
578.665	206.38
578.875	207.38
579.086	198.38
579.297	203.38
579.508	195.38
579.718	202.38
579.929	214.38
580.14	210.38
580.35	207.38
580.561	200.38
580.772	211.38
580.982	206.38
581.193	205.38
581.403	200.38
581.614	202.38
581.825	197.38
582.035	200.38
582.246	199.38
582.456	198.38
582.667	196.38
582.877	202.38
583.087	192.38
583.298	192.38
583.508	197.38
583.719	201.38
583.929	203.38
584.139	181.38
584.35	185.38
584.56	206.38
584.77	197.38
584.981	201.38
585.191	200.38
585.401	191.38
585.611	177.38
585.821	195.38
586.032	203.38
586.242	191.38
586.452	185.38
586.662	193.38
586.872	195.38
587.082	189.38
587.292	192.38
587.502	193.38
587.713	205.38
587.923	182.38
588.133	188.38
588.343	212.38
588.553	183.38
588.762	187.38
588.972	202.38
589.182	190.38
589.392	192.38
589.602	187.38
589.812	189.38
590.022	195.38
590.232	190.38
590.441	191.38
590.651	194.38
590.861	188.38
591.071	195.38
591.281	184.38
591.49	209.38
591.7	197.38
591.91	198.38
592.119	209.38
592.329	186.38
592.539	202.38
592.748	206.38
592.958	208.38
593.167	223.38
593.377	224.38
593.587	218.38
593.796	238.38
594.006	221.38
594.215	231.38
594.424	228.38
594.634	215.38
594.843	215.38
595.053	213.38
595.262	203.38
595.472	201.38
595.681	192.38
595.89	190.38
596.1	208.38
596.309	177.38
596.518	186.38
596.727	170.38
596.937	180.38
597.146	185.38
597.355	183.38
597.564	188.38
597.774	173.38
597.983	177.38
598.192	160.38
598.401	167.38
598.61	188.38
598.819	175.38
599.028	170.38
599.237	166.38
599.446	185.38
599.655	183.38
599.864	162.38
600.073	159.38
600.282	178.38
600.491	170.38
600.7	170.38
600.909	182.38
601.118	175.38
601.327	159.38
601.536	176.38
601.745	161.38
601.953	154.38
602.162	173.38
602.371	161.38
602.58	173.38
602.789	173.38
602.997	163.38
603.206	161.38
603.415	176.38
603.623	161.38
603.832	161.38
604.041	173.38
604.249	149.38
604.458	150.38
604.666	166.38
604.875	163.38
605.084	163.38
605.292	143.38
605.501	166.38
605.709	146.38
605.918	169.38
606.126	162.38
606.334	166.38
606.543	165.38
606.751	150.38
606.96	169.38
607.168	159.38
607.376	147.38
607.585	177.38
607.793	154.38
608.001	165.38
608.21	157.38
608.418	154.38
608.626	148.38
608.834	145.38
609.043	145.38
609.251	162.38
609.459	145.38
609.667	168.38
609.875	152.38
610.083	154.38
610.291	149.38
610.499	158.38
610.707	153.38
610.916	158.38
611.124	151.38
611.332	147.38
611.54	150.38
611.748	145.38
611.955	160.38
612.163	157.38
612.371	160.38
612.579	160.38
612.787	138.38
612.995	159.38
613.203	145.38
613.411	143.38
613.618	160.38
613.826	153.38
614.034	153.38
614.242	154.38
614.449	149.38
614.657	154.38
614.865	141.38
615.072	156.38
615.28	145.38
615.488	159.38
615.695	146.38
615.903	142.38
616.111	152.38
616.318	166.38
616.526	157.38
616.733	174.38
616.941	168.38
617.148	157.38
617.356	158.38
617.563	129.38
617.771	160.38
617.978	156.38
618.185	156.38
618.393	146.38
618.6	131.38
618.807	138.38
619.015	153.38
619.222	151.38
619.429	143.38
619.637	175.38
619.844	157.38
620.051	156.38
620.258	149.38
620.466	151.38
620.673	153.38
620.88	165.38
621.087	154.38
621.294	131.38
621.501	140.38
621.708	144.38
621.915	141.38
622.122	139.38
622.329	143.38
622.536	142.38
622.743	147.38
622.95	143.38
623.157	128.38
623.364	154.38
623.571	168.38
623.778	150.38
623.985	149.38
624.192	134.38
624.399	137.38
624.606	141.38
624.812	162.38
625.019	152.38
625.226	142.38
625.433	145.38
625.639	132.38
625.846	129.38
626.053	134.38
626.259	135.38
626.466	139.38
626.673	149.38
626.879	129.38
627.086	143.38
627.293	143.38
627.499	130.38
627.706	140.38
627.912	150.38
628.119	137.38
628.325	133.38
628.532	122.38
628.738	127.38
628.945	144.38
629.151	132.38
629.357	128.38
629.564	115.38
629.77	132.38
629.976	133.38
630.183	136.38
630.389	141.38
630.595	138.38
630.802	125.38
631.008	137.38
631.214	145.38
631.42	137.38
631.627	149.38
631.833	141.38
632.039	128.38
632.245	136.38
632.451	129.38
632.657	130.38
632.863	129.38
633.069	129.38
633.275	139.38
633.481	123.38
633.688	131.38
633.893	129.38
634.099	121.38
634.305	154.38
634.511	132.38
634.717	125.38
634.923	121.38
635.129	149.38
635.335	133.38
635.541	123.38
635.747	124.38
635.952	125.38
636.158	134.38
636.364	130.38
636.57	140.38
636.775	123.38
636.981	119.38
637.187	123.38
637.392	117.38
637.598	121.38
637.804	141.38
638.009	122.38
638.215	124.38
638.421	120.38
638.626	125.38
638.832	113.38
639.037	122.38
639.243	115.38
639.448	121.38
639.654	126.38
639.859	119.38
640.065	111.38
640.27	129.38
640.475	108.38
640.681	109.38
640.886	117.38
641.091	119.38
641.297	134.38
641.502	126.38
641.707	119.38
641.913	127.38
642.118	136.38
642.323	117.38
642.528	119.38
642.733	120.38
642.939	124.38
643.144	129.38
643.349	119.38
643.554	133.38
643.759	123.38
643.964	112.38
644.169	121.38
644.374	123.38
644.579	130.38
644.784	125.38
644.989	129.38
645.194	131.38
645.399	142.38
645.604	118.38
645.809	127.38
646.014	118.38
646.219	117.38
646.423	126.38
646.628	120.38
646.833	118.38
647.038	108.38
647.243	121.38
647.447	135.38
647.652	134.38
647.857	118.38
648.062	119.38
648.266	111.38
648.471	129.38
648.676	129.38
648.88	137.38
649.085	129.38
649.289	114.38
649.494	117.38
649.698	124.38
649.903	125.38
650.107	118.38
650.312	127.38
650.516	110.38
650.721	112.38
650.925	120.38
651.13	113.38
651.334	109.38
651.539	112.38
651.743	117.38
651.947	95.38
652.152	122.38
652.356	117.38
652.56	111.38
652.764	114.38
652.969	116.38
653.173	111.38
653.377	106.38
653.581	109.38
653.785	106.38
653.99	104.38
654.194	118.38
654.398	116.38
654.602	102.38
654.806	116.38
655.01	96.38
655.214	102.38
655.418	108.38
655.622	107.38
655.826	95.38
656.03	114.38
656.234	103.38
656.438	105.38
656.642	95.38
656.846	90.38
657.049	99.38
657.253	103.38
657.457	94.38
657.661	111.38
657.865	111.38
658.068	98.38
658.272	99.38
658.476	90.38
658.68	94.38
658.883	101.38
659.087	89.38
659.291	76.38
659.494	77.38
659.698	95.38
659.901	101.38
660.105	89.38
660.309	72.38
660.512	89.38
660.716	83.38
660.919	80.38
661.123	87.38
661.326	90.38
661.53	91.38
661.733	76.38
661.936	81.38
662.14	75.38
662.343	71.38
662.546	81.38
662.75	76.38
662.953	94.38
663.156	98.38
663.36	88.38
663.563	85.38
663.766	80.38
663.969	82.38
664.173	82.38
664.376	72.38
664.579	89.38
664.782	75.38
664.985	95.38
665.188	75.38
665.391	70.38
665.594	83.38
665.797	89.38
666	71.38
666.203	76.38
666.406	82.38
666.609	85.38
666.812	91.38
667.015	84.38
667.218	69.38
667.421	71.38
667.624	86.38
667.827	84.38
668.03	66.38
668.232	98.38
668.435	74.38
668.638	58.38
668.841	91.38
669.043	88.38
669.246	78.38
669.449	81.38
669.651	63.38
669.854	64.38
670.057	89.38
670.259	93.38
670.462	85.38
670.665	78.38
670.867	80.38
671.07	66.38
671.272	71.38
671.475	77.38
671.677	80.38
671.88	81.38
672.082	77.38
672.284	85.38
672.487	80.38
672.689	83.38
672.892	81.38
