Data from Fe(NO3)3@0.05M.TitratingCurve.Agarose3%dH2O.NegLispCup.LampEnergy10.LIBS07252019_HRD10591_16-46-29-335.txt Node
Date: Thu Jul 25 16:46:29 EDT 2019
User: cochatt
Spectrometer: HR+D1059
Trigger mode: 1
Integration Time (sec): 1.000000E-1
Scans to average: 1
Electric dark correction enabled: true
Nonlinearity correction enabled: false
Boxcar width: 0
XAxis mode: Wavelengths
Number of Pixels in Spectrum: 2048
>>>>>Begin Spectral Data<<<<<
223.165	-18.94
223.4	-18.94
223.635	-18.94
223.869	-27.94
224.104	-14.94
224.338	-12.94
224.573	-20.94
224.808	-8.94
225.042	3.06
225.277	2.06
225.511	-5.94
225.746	5.06
225.98	11.06
226.215	11.06
226.449	14.06
226.683	17.06
226.918	31.06
227.152	16.06
227.387	35.06
227.621	37.06
227.856	41.06
228.09	17.06
228.324	48.06
228.559	39.06
228.793	70.06
229.027	100.06
229.262	113.06
229.496	125.06
229.73	133.06
229.964	127.06
230.199	122.06
230.433	127.06
230.667	143.06
230.901	151.06
231.136	162.06
231.37	129.06
231.604	143.06
231.838	150.06
232.072	157.06
232.306	161.06
232.541	158.06
232.775	163.06
233.009	162.06
233.243	141.06
233.477	153.06
233.711	175.06
233.945	165.06
234.179	158.06
234.413	164.06
234.647	190.06
234.881	190.06
235.115	175.06
235.349	191.06
235.583	177.06
235.817	173.06
236.051	176.06
236.285	164.06
236.519	190.06
236.753	187.06
236.987	171.06
237.221	170.06
237.455	189.06
237.689	184.06
237.922	191.06
238.156	203.06
238.39	196.06
238.624	227.06
238.858	234.06
239.091	221.06
239.325	203.06
239.559	207.06
239.793	207.06
240.027	233.06
240.26	209.06
240.494	208.06
240.728	213.06
240.961	236.06
241.195	227.06
241.429	215.06
241.662	236.06
241.896	219.06
242.13	217.06
242.363	222.06
242.597	223.06
242.83	242.06
243.064	225.06
243.298	241.06
243.531	240.06
243.765	243.06
243.998	245.06
244.232	256.06
244.465	242.06
244.699	240.06
244.932	253.06
245.166	274.06
245.399	252.06
245.633	242.06
245.866	246.06
246.099	252.06
246.333	261.06
246.566	267.06
246.8	266.06
247.033	259.06
247.266	262.06
247.5	252.06
247.733	269.06
247.966	273.06
248.2	269.06
248.433	288.06
248.666	283.06
248.899	301.06
249.133	305.06
249.366	291.06
249.599	290.06
249.832	308.06
250.066	284.06
250.299	294.06
250.532	310.06
250.765	292.06
250.998	295.06
251.231	281.06
251.465	288.06
251.698	287.06
251.931	283.06
252.164	297.06
252.397	308.06
252.63	316.06
252.863	321.06
253.096	336.06
253.329	318.06
253.562	337.06
253.795	361.06
254.028	341.06
254.261	369.06
254.494	333.06
254.727	351.06
254.96	339.06
255.193	334.06
255.426	343.06
255.659	337.06
255.892	336.06
256.124	324.06
256.357	356.06
256.59	357.06
256.823	347.06
257.056	356.06
257.289	342.06
257.521	337.06
257.754	347.06
257.987	365.06
258.22	354.06
258.452	349.06
258.685	363.06
258.918	375.06
259.151	385.06
259.383	364.06
259.616	369.06
259.849	420.06
260.081	457.06
260.314	487.06
260.547	416.06
260.779	392.06
261.012	403.06
261.244	403.06
261.477	427.06
261.71	433.06
261.942	393.06
262.175	402.06
262.407	395.06
262.64	388.06
262.872	402.06
263.105	443.06
263.337	449.06
263.57	427.06
263.802	382.06
264.035	391.06
264.267	400.06
264.499	381.06
264.732	403.06
264.964	390.06
265.197	392.06
265.429	411.06
265.661	405.06
265.894	411.06
266.126	397.06
266.358	413.06
266.591	410.06
266.823	427.06
267.055	427.06
267.287	403.06
267.52	414.06
267.752	423.06
267.984	416.06
268.216	413.06
268.448	429.06
268.681	436.06
268.913	425.06
269.145	432.06
269.377	447.06
269.609	442.06
269.841	421.06
270.073	437.06
270.306	432.06
270.538	447.06
270.77	448.06
271.002	455.06
271.234	427.06
271.466	464.06
271.698	462.06
271.93	456.06
272.162	451.06
272.394	457.06
272.626	475.06
272.858	469.06
273.09	491.06
273.322	476.06
273.553	455.06
273.785	512.06
274.017	545.06
274.249	549.06
274.481	546.06
274.713	569.06
274.945	611.06
275.176	627.06
275.408	595.06
275.64	571.06
275.872	592.06
276.104	510.06
276.335	480.06
276.567	489.06
276.799	503.06
277.031	510.06
277.262	493.06
277.494	501.06
277.726	520.06
277.957	524.06
278.189	509.06
278.421	537.06
278.652	522.06
278.884	525.06
279.115	529.06
279.347	526.06
279.579	527.06
279.81	525.06
280.042	511.06
280.273	514.06
280.505	508.06
280.736	509.06
280.968	525.06
281.199	519.06
281.431	529.06
281.662	530.06
281.894	542.06
282.125	530.06
282.356	541.06
282.588	520.06
282.819	548.06
283.051	542.06
283.282	531.06
283.513	532.06
283.745	559.06
283.976	544.06
284.207	558.06
284.439	550.06
284.67	582.06
284.901	567.06
285.132	571.06
285.364	574.06
285.595	548.06
285.826	570.06
286.057	591.06
286.288	562.06
286.52	560.06
286.751	576.06
286.982	599.06
287.213	557.06
287.444	577.06
287.675	577.06
287.906	556.06
288.138	582.06
288.369	574.06
288.6	603.06
288.831	569.06
289.062	585.06
289.293	562.06
289.524	549.06
289.755	576.06
289.986	570.06
290.217	591.06
290.448	589.06
290.679	596.06
290.91	578.06
291.141	590.06
291.371	593.06
291.602	588.06
291.833	577.06
292.064	610.06
292.295	566.06
292.526	587.06
292.757	597.06
292.987	591.06
293.218	567.06
293.449	618.06
293.68	564.06
293.91	612.06
294.141	595.06
294.372	604.06
294.603	618.06
294.833	602.06
295.064	625.06
295.295	622.06
295.525	597.06
295.756	621.06
295.987	591.06
296.217	613.06
296.448	613.06
296.679	654.06
296.909	629.06
297.14	627.06
297.37	642.06
297.601	610.06
297.831	616.06
298.062	617.06
298.292	632.06
298.523	678.06
298.753	632.06
298.984	626.06
299.214	662.06
299.445	620.06
299.675	624.06
299.905	652.06
300.136	633.06
300.366	623.06
300.597	646.06
300.827	651.06
301.057	651.06
301.288	632.06
301.518	639.06
301.748	648.06
301.979	686.06
302.209	693.06
302.439	700.06
302.669	690.06
302.9	685.06
303.13	664.06
303.36	681.06
303.59	660.06
303.82	665.06
304.051	690.06
304.281	678.06
304.511	651.06
304.741	676.06
304.971	671.06
305.201	701.06
305.431	670.06
305.661	694.06
305.891	657.06
306.121	685.06
306.352	679.06
306.582	679.06
306.812	660.06
307.042	653.06
307.272	675.06
307.502	678.06
307.731	682.06
307.961	669.06
308.191	697.06
308.421	663.06
308.651	694.06
308.881	665.06
309.111	661.06
309.341	673.06
309.571	657.06
309.8	682.06
310.03	698.06
310.26	690.06
310.49	694.06
310.72	695.06
310.949	693.06
311.179	692.06
311.409	676.06
311.639	698.06
311.868	705.06
312.098	709.06
312.328	726.06
312.557	715.06
312.787	715.06
313.017	716.06
313.246	721.06
313.476	697.06
313.706	723.06
313.935	725.06
314.165	740.06
314.394	711.06
314.624	724.06
314.853	722.06
315.083	745.06
315.312	721.06
315.542	752.06
315.771	735.06
316.001	722.06
316.23	741.06
316.46	738.06
316.689	746.06
316.919	743.06
317.148	746.06
317.377	736.06
317.607	747.06
317.836	748.06
318.065	723.06
318.295	749.06
318.524	761.06
318.753	761.06
318.983	750.06
319.212	760.06
319.441	767.06
319.67	762.06
319.9	766.06
320.129	751.06
320.358	741.06
320.587	739.06
320.816	769.06
321.046	751.06
321.275	774.06
321.504	749.06
321.733	776.06
321.962	776.06
322.191	763.06
322.42	774.06
322.649	785.06
322.878	779.06
323.108	738.06
323.337	767.06
323.566	773.06
323.795	770.06
324.024	793.06
324.253	771.06
324.482	769.06
324.71	793.06
324.939	803.06
325.168	793.06
325.397	796.06
325.626	783.06
325.855	800.06
326.084	804.06
326.313	821.06
326.542	811.06
326.77	809.06
326.999	803.06
327.228	804.06
327.457	803.06
327.686	804.06
327.914	796.06
328.143	822.06
328.372	816.06
328.6	817.06
328.829	835.06
329.058	833.06
329.287	806.06
329.515	803.06
329.744	836.06
329.972	828.06
330.201	825.06
330.43	835.06
330.658	845.06
330.887	846.06
331.115	834.06
331.344	854.06
331.572	834.06
331.801	861.06
332.03	869.06
332.258	873.06
332.486	867.06
332.715	886.06
332.943	862.06
333.172	920.06
333.4	932.06
333.629	941.06
333.857	930.06
334.085	897.06
334.314	934.06
334.542	966.06
334.771	981.06
334.999	943.06
335.227	965.06
335.455	945.06
335.684	927.06
335.912	959.06
336.14	967.06
336.369	948.06
336.597	917.06
336.825	915.06
337.053	957.06
337.281	925.06
337.51	884.06
337.738	914.06
337.966	910.06
338.194	927.06
338.422	909.06
338.65	895.06
338.878	892.06
339.106	882.06
339.334	906.06
339.562	866.06
339.79	877.06
340.018	848.06
340.246	841.06
340.474	893.06
340.702	893.06
340.93	885.06
341.158	852.06
341.386	870.06
341.614	877.06
341.842	863.06
342.07	876.06
342.298	867.06
342.526	875.06
342.754	897.06
342.981	894.06
343.209	885.06
343.437	913.06
343.665	920.06
343.893	953.06
344.12	978.06
344.348	942.06
344.576	932.06
344.804	938.06
345.031	893.06
345.259	909.06
345.487	873.06
345.714	859.06
345.942	848.06
346.17	864.06
346.397	862.06
346.625	843.06
346.853	849.06
347.08	828.06
347.308	821.06
347.535	835.06
347.763	848.06
347.99	821.06
348.218	830.06
348.445	819.06
348.673	839.06
348.9	839.06
349.128	826.06
349.355	841.06
349.583	822.06
349.81	818.06
350.037	814.06
350.265	845.06
350.492	833.06
350.72	827.06
350.947	834.06
351.174	823.06
351.402	816.06
351.629	823.06
351.856	821.06
352.083	802.06
352.311	825.06
352.538	811.06
352.765	839.06
352.992	801.06
353.22	829.06
353.447	803.06
353.674	802.06
353.901	816.06
354.128	836.06
354.355	831.06
354.583	844.06
354.81	837.06
355.037	814.06
355.264	819.06
355.491	856.06
355.718	839.06
355.945	813.06
356.172	840.06
356.399	825.06
356.626	835.06
356.853	854.06
357.08	880.06
357.307	882.06
357.534	847.06
357.761	846.06
357.988	858.06
358.215	833.06
358.441	864.06
358.668	871.06
358.895	849.06
359.122	856.06
359.349	835.06
359.576	818.06
359.802	831.06
360.029	857.06
360.256	850.06
360.483	873.06
360.709	861.06
360.936	859.06
361.163	838.06
361.39	874.06
361.616	840.06
361.843	819.06
362.07	845.06
362.296	843.06
362.523	845.06
362.749	836.06
362.976	828.06
363.203	849.06
363.429	867.06
363.656	859.06
363.882	871.06
364.109	845.06
364.335	859.06
364.562	843.06
364.788	847.06
365.015	847.06
365.241	839.06
365.468	833.06
365.694	840.06
365.92	858.06
366.147	848.06
366.373	868.06
366.599	843.06
366.826	849.06
367.052	875.06
367.278	853.06
367.505	878.06
367.731	873.06
367.957	897.06
368.184	856.06
368.41	888.06
368.636	904.06
368.862	897.06
369.089	886.06
369.315	867.06
369.541	903.06
369.767	893.06
369.993	878.06
370.219	849.06
370.445	903.06
370.672	907.06
370.898	890.06
371.124	874.06
371.35	906.06
371.576	896.06
371.802	940.06
372.028	947.06
372.254	897.06
372.48	936.06
372.706	953.06
372.932	943.06
373.158	957.06
373.384	958.06
373.61	955.06
373.835	1007.06
374.061	940.06
374.287	946.06
374.513	942.06
374.739	964.06
374.965	989.06
375.191	975.06
375.416	968.06
375.642	965.06
375.868	960.06
376.094	988.06
376.319	967.06
376.545	953.06
376.771	960.06
376.997	959.06
377.222	917.06
377.448	931.06
377.674	955.06
377.899	911.06
378.125	902.06
378.35	922.06
378.576	908.06
378.802	907.06
379.027	924.06
379.253	886.06
379.478	928.06
379.704	917.06
379.929	915.06
380.155	938.06
380.38	929.06
380.606	926.06
380.831	920.06
381.057	956.06
381.282	934.06
381.507	911.06
381.733	974.06
381.958	960.06
382.184	979.06
382.409	972.06
382.634	990.06
382.86	982.06
383.085	1008.06
383.31	992.06
383.535	1003.06
383.761	1011.06
383.986	988.06
384.211	1003.06
384.436	1006.06
384.662	1035.06
384.887	1038.06
385.112	1002.06
385.337	1062.06
385.562	1050.06
385.787	1060.06
386.013	1076.06
386.238	1065.06
386.463	1076.06
386.688	1074.06
386.913	1048.06
387.138	1091.06
387.363	1074.06
387.588	1057.06
387.813	1088.06
388.038	1102.06
388.263	1101.06
388.488	1113.06
388.713	1106.06
388.938	1125.06
389.163	1070.06
389.387	1093.06
389.612	1092.06
389.837	1093.06
390.062	1091.06
390.287	1078.06
390.512	1107.06
390.736	1101.06
390.961	1113.06
391.186	1109.06
391.411	1100.06
391.636	1159.06
391.86	1141.06
392.085	1162.06
392.31	1137.06
392.534	1118.06
392.759	1153.06
392.984	1133.06
393.208	1135.06
393.433	1170.06
393.658	1139.06
393.882	1141.06
394.107	1121.06
394.331	1133.06
394.556	1149.06
394.78	1147.06
395.005	1165.06
395.229	1119.06
395.454	1170.06
395.678	1156.06
395.903	1166.06
396.127	1168.06
396.352	1175.06
396.576	1182.06
396.801	1151.06
397.025	1190.06
397.249	1217.06
397.474	1201.06
397.698	1180.06
397.922	1236.06
398.147	1215.06
398.371	1220.06
398.595	1275.06
398.82	1303.06
399.044	1321.06
399.268	1415.06
399.492	1463.06
399.717	1559.06
399.941	1544.06
400.165	1524.06
400.389	1447.06
400.613	1401.06
400.837	1398.06
401.062	1360.06
401.286	1366.06
401.51	1361.06
401.734	1306.06
401.958	1313.06
402.182	1305.06
402.406	1318.06
402.63	1301.06
402.854	1316.06
403.078	1333.06
403.302	1301.06
403.526	1333.06
403.75	1328.06
403.974	1356.06
404.198	1326.06
404.422	1351.06
404.645	1331.06
404.869	1334.06
405.093	1364.06
405.317	1335.06
405.541	1354.06
405.765	1353.06
405.988	1351.06
406.212	1390.06
406.436	1399.06
406.66	1447.06
406.883	1443.06
407.107	1447.06
407.331	1468.06
407.555	1533.06
407.778	1501.06
408.002	1515.06
408.226	1491.06
408.449	1484.06
408.673	1458.06
408.896	1471.06
409.12	1422.06
409.344	1439.06
409.567	1419.06
409.791	1427.06
410.014	1374.06
410.238	1390.06
410.461	1401.06
410.685	1371.06
410.908	1362.06
411.132	1350.06
411.355	1369.06
411.578	1329.06
411.802	1348.06
412.025	1337.06
412.249	1374.06
412.472	1370.06
412.695	1358.06
412.919	1336.06
413.142	1325.06
413.365	1322.06
413.589	1349.06
413.812	1342.06
414.035	1331.06
414.258	1323.06
414.482	1322.06
414.705	1306.06
414.928	1327.06
415.151	1310.06
415.374	1294.06
415.597	1306.06
415.821	1274.06
416.044	1302.06
416.267	1280.06
416.49	1283.06
416.713	1261.06
416.936	1295.06
417.159	1253.06
417.382	1285.06
417.605	1241.06
417.828	1263.06
418.051	1274.06
418.274	1259.06
418.497	1234.06
418.72	1259.06
418.943	1277.06
419.166	1277.06
419.389	1410.06
419.611	1401.06
419.834	1338.06
420.057	1321.06
420.28	1279.06
420.503	1251.06
420.726	1233.06
420.948	1272.06
421.171	1235.06
421.394	1227.06
421.617	1234.06
421.839	1253.06
422.062	1255.06
422.285	1245.06
422.507	1229.06
422.73	1274.06
422.953	1262.06
423.175	1269.06
423.398	1294.06
423.621	1211.06
423.843	1231.06
424.066	1253.06
424.288	1234.06
424.511	1238.06
424.733	1225.06
424.956	1213.06
425.178	1248.06
425.401	1282.06
425.623	1259.06
425.846	1233.06
426.068	1219.06
426.291	1245.06
426.513	1231.06
426.735	1223.06
426.958	1222.06
427.18	1199.06
427.402	1200.06
427.625	1229.06
427.847	1188.06
428.069	1216.06
428.292	1205.06
428.514	1196.06
428.736	1178.06
428.958	1197.06
429.181	1163.06
429.403	1193.06
429.625	1200.06
429.847	1168.06
430.069	1182.06
430.292	1226.06
430.514	1194.06
430.736	1186.06
430.958	1209.06
431.18	1197.06
431.402	1202.06
431.624	1205.06
431.846	1181.06
432.068	1195.06
432.29	1203.06
432.512	1191.06
432.734	1254.06
432.956	1214.06
433.178	1198.06
433.4	1198.06
433.622	1203.06
433.844	1203.06
434.066	1188.06
434.287	1234.06
434.509	1218.06
434.731	1245.06
434.953	1254.06
435.175	1276.06
435.397	1275.06
435.618	1252.06
435.84	1223.06
436.062	1204.06
436.284	1198.06
436.505	1200.06
436.727	1197.06
436.949	1193.06
437.17	1207.06
437.392	1202.06
437.614	1173.06
437.835	1171.06
438.057	1141.06
438.278	1138.06
438.5	1155.06
438.721	1185.06
438.943	1188.06
439.165	1159.06
439.386	1169.06
439.608	1182.06
439.829	1189.06
440.05	1203.06
440.272	1185.06
440.493	1172.06
440.715	1190.06
440.936	1212.06
441.158	1211.06
441.379	1195.06
441.6	1226.06
441.822	1232.06
442.043	1263.06
442.264	1226.06
442.486	1231.06
442.707	1215.06
442.928	1224.06
443.149	1237.06
443.371	1210.06
443.592	1231.06
443.813	1242.06
444.034	1263.06
444.255	1254.06
444.476	1288.06
444.698	1321.06
444.919	1319.06
445.14	1424.06
445.361	1337.06
445.582	1265.06
445.803	1234.06
446.024	1227.06
446.245	1214.06
446.466	1229.06
446.687	1174.06
446.908	1187.06
447.129	1168.06
447.35	1166.06
447.571	1142.06
447.792	1117.06
448.013	1100.06
448.234	1118.06
448.455	1079.06
448.675	1115.06
448.896	1090.06
449.117	1059.06
449.338	1079.06
449.559	1083.06
449.779	1086.06
450	1112.06
450.221	1093.06
450.442	1106.06
450.662	1110.06
450.883	1071.06
451.104	1091.06
451.324	1074.06
451.545	1082.06
451.766	1054.06
451.986	1055.06
452.207	1076.06
452.428	1085.06
452.648	1083.06
452.869	1054.06
453.089	1019.06
453.31	1050.06
453.53	1033.06
453.751	1035.06
453.971	1056.06
454.192	1047.06
454.412	1029.06
454.633	1062.06
454.853	1033.06
455.073	1048.06
455.294	1046.06
455.514	1046.06
455.734	1051.06
455.955	1006.06
456.175	1006.06
456.395	1043.06
456.616	1038.06
456.836	1080.06
457.056	1040.06
457.276	1021.06
457.497	1042.06
457.717	1033.06
457.937	1071.06
458.157	1058.06
458.377	1085.06
458.598	1073.06
458.818	1116.06
459.038	1107.06
459.258	1109.06
459.478	1166.06
459.698	1163.06
459.918	1188.06
460.138	1224.06
460.358	1227.06
460.578	1231.06
460.798	1274.06
461.018	1272.06
461.238	1301.06
461.458	1281.06
461.678	1277.06
461.898	1317.06
462.118	1276.06
462.338	1362.06
462.558	1353.06
462.777	1396.06
462.997	1453.06
463.217	1406.06
463.437	1489.06
463.657	1419.06
463.876	1442.06
464.096	1417.06
464.316	1386.06
464.536	1433.06
464.755	1339.06
464.975	1327.06
465.195	1310.06
465.414	1275.06
465.634	1230.06
465.854	1225.06
466.073	1205.06
466.293	1200.06
466.512	1202.06
466.732	1188.06
466.951	1182.06
467.171	1167.06
467.391	1149.06
467.61	1131.06
467.829	1154.06
468.049	1118.06
468.268	1112.06
468.488	1144.06
468.707	1141.06
468.927	1171.06
469.146	1133.06
469.365	1147.06
469.585	1136.06
469.804	1167.06
470.023	1163.06
470.243	1144.06
470.462	1144.06
470.681	1177.06
470.901	1172.06
471.12	1149.06
471.339	1165.06
471.558	1157.06
471.777	1181.06
471.997	1147.06
472.216	1122.06
472.435	1181.06
472.654	1148.06
472.873	1131.06
473.092	1153.06
473.311	1136.06
473.53	1114.06
473.749	1145.06
473.968	1140.06
474.187	1163.06
474.406	1141.06
474.625	1163.06
474.844	1152.06
475.063	1167.06
475.282	1179.06
475.501	1175.06
475.72	1197.06
475.939	1206.06
476.158	1185.06
476.377	1224.06
476.596	1205.06
476.814	1267.06
477.033	1236.06
477.252	1244.06
477.471	1239.06
477.69	1296.06
477.908	1313.06
478.127	1339.06
478.346	1303.06
478.564	1331.06
478.783	1329.06
479.002	1365.06
479.22	1387.06
479.439	1440.06
479.658	1397.06
479.876	1386.06
480.095	1397.06
480.313	1417.06
480.532	1401.06
480.751	1409.06
480.969	1443.06
481.188	1407.06
481.406	1425.06
481.624	1387.06
481.843	1401.06
482.061	1410.06
482.28	1358.06
482.498	1397.06
482.717	1355.06
482.935	1402.06
483.153	1373.06
483.372	1401.06
483.59	1419.06
483.808	1386.06
484.027	1391.06
484.245	1404.06
484.463	1410.06
484.681	1425.06
484.9	1436.06
485.118	1434.06
485.336	1433.06
485.554	1395.06
485.772	1474.06
485.99	1439.06
486.209	1419.06
486.427	1451.06
486.645	1426.06
486.863	1430.06
487.081	1437.06
487.299	1419.06
487.517	1414.06
487.735	1454.06
487.953	1468.06
488.171	1453.06
488.389	1442.06
488.607	1447.06
488.825	1441.06
489.043	1435.06
489.261	1417.06
489.479	1436.06
489.696	1406.06
489.914	1404.06
490.132	1437.06
490.35	1436.06
490.568	1442.06
490.786	1434.06
491.003	1471.06
491.221	1421.06
491.439	1440.06
491.657	1453.06
491.874	1445.06
492.092	1449.06
492.31	1458.06
492.527	1476.06
492.745	1485.06
492.963	1471.06
493.18	1450.06
493.398	1476.06
493.615	1465.06
493.833	1460.06
494.05	1455.06
494.268	1498.06
494.485	1467.06
494.703	1463.06
494.92	1469.06
495.138	1501.06
495.355	1490.06
495.573	1493.06
495.79	1550.06
496.008	1514.06
496.225	1545.06
496.442	1537.06
496.66	1581.06
496.877	1539.06
497.094	1550.06
497.312	1615.06
497.529	1619.06
497.746	1668.06
497.963	1668.06
498.181	1713.06
498.398	1759.06
498.615	1871.06
498.832	1897.06
499.049	1969.06
499.267	1990.06
499.484	2110.06
499.701	2222.06
499.918	2295.06
500.135	2468.06
500.352	2564.06
500.569	2609.06
500.786	2608.06
501.003	2588.06
501.22	2395.06
501.437	2345.06
501.654	2180.06
501.871	2098.06
502.088	1987.06
502.305	1966.06
502.522	1881.06
502.739	1847.06
502.956	1765.06
503.172	1718.06
503.389	1672.06
503.606	1632.06
503.823	1616.06
504.04	1634.06
504.256	1568.06
504.473	1589.06
504.69	1529.06
504.907	1541.06
505.123	1507.06
505.34	1512.06
505.557	1457.06
505.773	1360.06
505.99	1409.06
506.207	1391.06
506.423	1330.06
506.64	1366.06
506.856	1314.06
507.073	1301.06
507.289	1306.06
507.506	1274.06
507.722	1267.06
507.939	1272.06
508.155	1277.06
508.372	1251.06
508.588	1248.06
508.805	1229.06
509.021	1250.06
509.238	1215.06
509.454	1187.06
509.67	1155.06
509.887	1159.06
510.103	1195.06
510.319	1170.06
510.536	1193.06
510.752	1164.06
510.968	1161.06
511.184	1165.06
511.401	1162.06
511.617	1158.06
511.833	1107.06
512.049	1113.06
512.265	1164.06
512.481	1167.06
512.698	1165.06
512.914	1198.06
513.13	1127.06
513.346	1195.06
513.562	1157.06
513.778	1137.06
513.994	1165.06
514.21	1131.06
514.426	1172.06
514.642	1138.06
514.858	1168.06
515.074	1175.06
515.29	1211.06
515.506	1185.06
515.721	1200.06
515.937	1222.06
516.153	1199.06
516.369	1205.06
516.585	1218.06
516.801	1232.06
517.016	1250.06
517.232	1290.06
517.448	1306.06
517.664	1330.06
517.879	1297.06
518.095	1333.06
518.311	1300.06
518.527	1292.06
518.742	1272.06
518.958	1238.06
519.173	1207.06
519.389	1198.06
519.605	1201.06
519.82	1207.06
520.036	1241.06
520.251	1221.06
520.467	1134.06
520.682	1159.06
520.898	1136.06
521.113	1150.06
521.329	1116.06
521.544	1085.06
521.76	1091.06
521.975	1075.06
522.19	1100.06
522.406	1124.06
522.621	1109.06
522.836	1075.06
523.052	1103.06
523.267	1055.06
523.482	1032.06
523.698	1035.06
523.913	1037.06
524.128	1037.06
524.343	1050.06
524.559	1057.06
524.774	1051.06
524.989	1023.06
525.204	1065.06
525.419	1047.06
525.634	1010.06
525.849	1020.06
526.064	1041.06
526.28	1059.06
526.495	1044.06
526.71	1043.06
526.925	990.06
527.14	988.06
527.355	1002.06
527.57	1003.06
527.785	1047.06
527.999	1035.06
528.214	1021.06
528.429	992.06
528.644	998.06
528.859	984.06
529.074	1009.06
529.289	1025.06
529.503	1005.06
529.718	1021.06
529.933	994.06
530.148	982.06
530.363	988.06
530.577	1001.06
530.792	961.06
531.007	987.06
531.221	987.06
531.436	986.06
531.651	964.06
531.865	968.06
532.08	987.06
532.295	958.06
532.509	963.06
532.724	941.06
532.938	941.06
533.153	969.06
533.367	953.06
533.582	945.06
533.796	951.06
534.011	925.06
534.225	961.06
534.44	952.06
534.654	970.06
534.868	953.06
535.083	941.06
535.297	960.06
535.511	938.06
535.726	963.06
535.94	933.06
536.154	909.06
536.369	957.06
536.583	927.06
536.797	932.06
537.011	937.06
537.225	955.06
537.44	907.06
537.654	912.06
537.868	921.06
538.082	868.06
538.296	914.06
538.51	886.06
538.724	942.06
538.938	889.06
539.153	889.06
539.367	900.06
539.581	922.06
539.795	909.06
540.009	882.06
540.222	900.06
540.436	923.06
540.65	899.06
540.864	904.06
541.078	886.06
541.292	897.06
541.506	899.06
541.72	886.06
541.934	897.06
542.147	894.06
542.361	905.06
542.575	879.06
542.789	886.06
543.002	882.06
543.216	897.06
543.43	878.06
543.644	863.06
543.857	881.06
544.071	873.06
544.285	883.06
544.498	918.06
544.712	877.06
544.925	876.06
545.139	882.06
545.352	866.06
545.566	909.06
545.779	907.06
545.993	902.06
546.206	899.06
546.42	931.06
546.633	879.06
546.847	895.06
547.06	905.06
547.274	893.06
547.487	892.06
547.7	910.06
547.914	907.06
548.127	945.06
548.34	910.06
548.554	884.06
548.767	905.06
548.98	884.06
549.193	899.06
549.407	886.06
549.62	919.06
549.833	899.06
550.046	930.06
550.259	915.06
550.473	885.06
550.686	891.06
550.899	894.06
551.112	882.06
551.325	847.06
551.538	898.06
551.751	859.06
551.964	859.06
552.177	877.06
552.39	897.06
552.603	921.06
552.816	885.06
553.029	870.06
553.242	905.06
553.455	900.06
553.667	921.06
553.88	889.06
554.093	864.06
554.306	877.06
554.519	869.06
554.732	878.06
554.944	846.06
555.157	817.06
555.37	833.06
555.583	803.06
555.795	826.06
556.008	803.06
556.221	793.06
556.433	791.06
556.646	802.06
556.859	788.06
557.071	749.06
557.284	786.06
557.496	773.06
557.709	787.06
557.921	787.06
558.134	768.06
558.346	787.06
558.559	745.06
558.771	722.06
558.984	765.06
559.196	745.06
559.409	733.06
559.621	733.06
559.833	771.06
560.046	737.06
560.258	749.06
560.47	740.06
560.683	734.06
560.895	739.06
561.107	751.06
561.32	758.06
561.532	739.06
561.744	767.06
561.956	730.06
562.168	756.06
562.381	756.06
562.593	752.06
562.805	713.06
563.017	749.06
563.229	704.06
563.441	723.06
563.653	742.06
563.865	739.06
564.077	726.06
564.289	745.06
564.501	781.06
564.713	786.06
564.925	794.06
565.137	827.06
565.349	819.06
565.561	837.06
565.773	817.06
565.985	848.06
566.197	865.06
566.408	925.06
566.62	909.06
566.832	955.06
567.044	960.06
567.255	927.06
567.467	951.06
567.679	988.06
567.891	1022.06
568.102	981.06
568.314	950.06
568.526	890.06
568.737	910.06
568.949	875.06
569.161	817.06
569.372	799.06
569.584	789.06
569.795	762.06
570.007	761.06
570.218	739.06
570.43	747.06
570.641	734.06
570.853	727.06
571.064	716.06
571.276	710.06
571.487	686.06
571.698	668.06
571.91	665.06
572.121	647.06
572.333	650.06
572.544	647.06
572.755	645.06
572.966	619.06
573.178	632.06
573.389	641.06
573.6	599.06
573.811	621.06
574.023	585.06
574.234	599.06
574.445	609.06
574.656	617.06
574.867	601.06
575.078	608.06
575.289	602.06
575.501	584.06
575.712	576.06
575.923	566.06
576.134	575.06
576.345	563.06
576.556	571.06
576.767	588.06
576.978	558.06
577.188	560.06
577.399	530.06
577.61	546.06
577.821	541.06
578.032	537.06
578.243	544.06
578.454	547.06
578.665	549.06
578.875	524.06
579.086	543.06
579.297	537.06
579.508	546.06
579.718	535.06
579.929	520.06
580.14	510.06
580.35	524.06
580.561	532.06
580.772	499.06
580.982	527.06
581.193	486.06
581.403	532.06
581.614	534.06
581.825	526.06
582.035	491.06
582.246	511.06
582.456	510.06
582.667	506.06
582.877	518.06
583.087	515.06
583.298	483.06
583.508	506.06
583.719	516.06
583.929	498.06
584.139	517.06
584.35	496.06
584.56	472.06
584.77	482.06
584.981	489.06
585.191	479.06
585.401	485.06
585.611	492.06
585.821	498.06
586.032	488.06
586.242	507.06
586.452	480.06
586.662	482.06
586.872	470.06
587.082	486.06
587.292	480.06
587.502	463.06
587.713	490.06
587.923	477.06
588.133	489.06
588.343	489.06
588.553	468.06
588.762	493.06
588.972	489.06
589.182	505.06
589.392	487.06
589.602	477.06
589.812	474.06
590.022	503.06
590.232	486.06
590.441	483.06
590.651	468.06
590.861	480.06
591.071	465.06
591.281	463.06
591.49	478.06
591.7	491.06
591.91	494.06
592.119	498.06
592.329	506.06
592.539	500.06
592.748	511.06
592.958	496.06
593.167	469.06
593.377	499.06
593.587	509.06
593.796	518.06
594.006	535.06
594.215	512.06
594.424	509.06
594.634	505.06
594.843	509.06
595.053	479.06
595.262	483.06
595.472	486.06
595.681	480.06
595.89	473.06
596.1	456.06
596.309	460.06
596.518	451.06
596.727	457.06
596.937	435.06
597.146	442.06
597.355	447.06
597.564	427.06
597.774	427.06
597.983	410.06
598.192	424.06
598.401	404.06
598.61	406.06
598.819	417.06
599.028	417.06
599.237	402.06
599.446	404.06
599.655	398.06
599.864	407.06
600.073	382.06
600.282	400.06
600.491	391.06
600.7	396.06
600.909	399.06
601.118	390.06
601.327	378.06
601.536	408.06
601.745	402.06
601.953	417.06
602.162	403.06
602.371	378.06
602.58	380.06
602.789	372.06
602.997	378.06
603.206	381.06
603.415	374.06
603.623	367.06
603.832	385.06
604.041	376.06
604.249	379.06
604.458	377.06
604.666	379.06
604.875	345.06
605.084	369.06
605.292	369.06
605.501	375.06
605.709	373.06
605.918	348.06
606.126	367.06
606.334	371.06
606.543	371.06
606.751	356.06
606.96	367.06
607.168	356.06
607.376	369.06
607.585	375.06
607.793	364.06
608.001	365.06
608.21	369.06
608.418	371.06
608.626	358.06
608.834	371.06
609.043	361.06
609.251	366.06
609.459	351.06
609.667	367.06
609.875	373.06
610.083	364.06
610.291	370.06
610.499	341.06
610.707	339.06
610.916	347.06
611.124	353.06
611.332	353.06
611.54	361.06
611.748	341.06
611.955	331.06
612.163	351.06
612.371	338.06
612.579	351.06
612.787	335.06
612.995	343.06
613.203	350.06
613.411	348.06
613.618	353.06
613.826	350.06
614.034	343.06
614.242	371.06
614.449	332.06
614.657	324.06
614.865	348.06
615.072	355.06
615.28	330.06
615.488	343.06
615.695	344.06
615.903	331.06
616.111	310.06
616.318	327.06
616.526	343.06
616.733	344.06
616.941	351.06
617.148	352.06
617.356	315.06
617.563	331.06
617.771	329.06
617.978	332.06
618.185	339.06
618.393	322.06
618.6	325.06
618.807	314.06
619.015	326.06
619.222	330.06
619.429	323.06
619.637	330.06
619.844	316.06
620.051	313.06
620.258	320.06
620.466	319.06
620.673	315.06
620.88	310.06
621.087	297.06
621.294	337.06
621.501	317.06
621.708	321.06
621.915	318.06
622.122	303.06
622.329	293.06
622.536	324.06
622.743	315.06
622.95	313.06
623.157	315.06
623.364	305.06
623.571	299.06
623.778	310.06
623.985	312.06
624.192	317.06
624.399	306.06
624.606	309.06
624.812	289.06
625.019	289.06
625.226	281.06
625.433	291.06
625.639	282.06
625.846	297.06
626.053	278.06
626.259	279.06
626.466	271.06
626.673	276.06
626.879	294.06
627.086	284.06
627.293	276.06
627.499	275.06
627.706	283.06
627.912	287.06
628.119	269.06
628.325	292.06
628.532	281.06
628.738	285.06
628.945	286.06
629.151	282.06
629.357	270.06
629.564	276.06
629.77	272.06
629.976	289.06
630.183	273.06
630.389	278.06
630.595	273.06
630.802	277.06
631.008	257.06
631.214	273.06
631.42	266.06
631.627	267.06
631.833	278.06
632.039	255.06
632.245	260.06
632.451	259.06
632.657	257.06
632.863	267.06
633.069	256.06
633.275	255.06
633.481	282.06
633.688	264.06
633.893	267.06
634.099	260.06
634.305	255.06
634.511	277.06
634.717	242.06
634.923	274.06
635.129	258.06
635.335	260.06
635.541	255.06
635.747	256.06
635.952	246.06
636.158	248.06
636.364	258.06
636.57	242.06
636.775	240.06
636.981	230.06
637.187	264.06
637.392	244.06
637.598	253.06
637.804	248.06
638.009	262.06
638.215	265.06
638.421	257.06
638.626	239.06
638.832	241.06
639.037	226.06
639.243	259.06
639.448	241.06
639.654	256.06
639.859	231.06
640.065	256.06
640.27	246.06
640.475	228.06
640.681	249.06
640.886	246.06
641.091	247.06
641.297	241.06
641.502	245.06
641.707	238.06
641.913	249.06
642.118	257.06
642.323	253.06
642.528	243.06
642.733	241.06
642.939	248.06
643.144	247.06
643.349	224.06
643.554	243.06
643.759	244.06
643.964	241.06
644.169	243.06
644.374	234.06
644.579	242.06
644.784	237.06
644.989	242.06
645.194	231.06
645.399	246.06
645.604	247.06
645.809	254.06
646.014	250.06
646.219	228.06
646.423	246.06
646.628	231.06
646.833	255.06
647.038	242.06
647.243	263.06
647.447	249.06
647.652	256.06
647.857	269.06
648.062	269.06
648.266	237.06
648.471	261.06
648.676	250.06
648.88	260.06
649.085	265.06
649.289	255.06
649.494	234.06
649.698	250.06
649.903	248.06
650.107	256.06
650.312	244.06
650.516	252.06
650.721	216.06
650.925	246.06
651.13	242.06
651.334	258.06
651.539	244.06
651.743	251.06
651.947	261.06
652.152	236.06
652.356	249.06
652.56	243.06
652.764	251.06
652.969	239.06
653.173	241.06
653.377	214.06
653.581	237.06
653.785	235.06
653.99	248.06
654.194	245.06
654.398	239.06
654.602	243.06
654.806	243.06
655.01	233.06
655.214	244.06
655.418	234.06
655.622	246.06
655.826	251.06
656.03	243.06
656.234	262.06
656.438	257.06
656.642	280.06
656.846	239.06
657.049	237.06
657.253	245.06
657.457	212.06
657.661	199.06
657.865	181.06
658.068	174.06
658.272	163.06
658.476	171.06
658.68	154.06
658.883	146.06
659.087	139.06
659.291	136.06
659.494	123.06
659.698	136.06
659.901	126.06
660.105	136.06
660.309	110.06
660.512	115.06
660.716	99.06
660.919	109.06
661.123	95.06
661.326	96.06
661.53	92.06
661.733	91.06
661.936	90.06
662.14	97.06
662.343	77.06
662.546	90.06
662.75	98.06
662.953	89.06
663.156	79.06
663.36	82.06
663.563	83.06
663.766	83.06
663.969	81.06
664.173	82.06
664.376	94.06
664.579	92.06
664.782	83.06
664.985	75.06
665.188	77.06
665.391	75.06
665.594	70.06
665.797	78.06
666	75.06
666.203	76.06
666.406	67.06
666.609	75.06
666.812	77.06
667.015	65.06
667.218	79.06
667.421	82.06
667.624	46.06
667.827	67.06
668.03	87.06
668.232	74.06
668.435	66.06
668.638	79.06
668.841	82.06
669.043	73.06
669.246	73.06
669.449	61.06
669.651	72.06
669.854	63.06
670.057	86.06
670.259	76.06
670.462	81.06
670.665	71.06
670.867	76.06
671.07	89.06
671.272	69.06
671.475	82.06
671.677	76.06
671.88	72.06
672.082	75.06
672.284	75.06
672.487	83.06
672.689	82.06
672.892	89.06
