Data from Fe(NO3)3@0.0125M.TitratingCurve.Agarose3%dH2O.NegLispCup.LampEnergy10.LIBS07252019_HRD10591_16-58-35-335.txt Node
Date: Thu Jul 25 16:58:35 EDT 2019
User: cochatt
Spectrometer: HR+D1059
Trigger mode: 1
Integration Time (sec): 1.000000E-1
Scans to average: 1
Electric dark correction enabled: true
Nonlinearity correction enabled: false
Boxcar width: 0
XAxis mode: Wavelengths
Number of Pixels in Spectrum: 2048
>>>>>Begin Spectral Data<<<<<
223.165	-13.25
223.4	-13.25
223.635	-13.25
223.869	-22.25
224.104	-25.25
224.338	-4.25
224.573	-6.25
224.808	-17.25
225.042	-1.25
225.277	-15.25
225.511	-7.25
225.746	-1.25
225.98	14.75
226.215	17.75
226.449	18.75
226.683	10.75
226.918	31.75
227.152	19.75
227.387	17.75
227.621	40.75
227.856	53.75
228.09	50.75
228.324	52.75
228.559	61.75
228.793	59.75
229.027	84.75
229.262	102.75
229.496	107.75
229.73	102.75
229.964	114.75
230.199	125.75
230.433	122.75
230.667	111.75
230.901	127.75
231.136	120.75
231.37	117.75
231.604	143.75
231.838	134.75
232.072	133.75
232.306	119.75
232.541	128.75
232.775	136.75
233.009	147.75
233.243	128.75
233.477	124.75
233.711	137.75
233.945	130.75
234.179	143.75
234.413	133.75
234.647	134.75
234.881	154.75
235.115	138.75
235.349	131.75
235.583	134.75
235.817	137.75
236.051	138.75
236.285	150.75
236.519	136.75
236.753	144.75
236.987	151.75
237.221	150.75
237.455	157.75
237.689	151.75
237.922	156.75
238.156	142.75
238.39	169.75
238.624	148.75
238.858	154.75
239.091	148.75
239.325	150.75
239.559	168.75
239.793	158.75
240.027	154.75
240.26	164.75
240.494	153.75
240.728	155.75
240.961	159.75
241.195	161.75
241.429	154.75
241.662	172.75
241.896	172.75
242.13	170.75
242.363	162.75
242.597	180.75
242.83	167.75
243.064	167.75
243.298	176.75
243.531	181.75
243.765	173.75
243.998	185.75
244.232	202.75
244.465	186.75
244.699	174.75
244.932	191.75
245.166	192.75
245.399	185.75
245.633	198.75
245.866	184.75
246.099	163.75
246.333	199.75
246.566	202.75
246.8	198.75
247.033	200.75
247.266	196.75
247.5	209.75
247.733	208.75
247.966	198.75
248.2	209.75
248.433	194.75
248.666	206.75
248.899	209.75
249.133	210.75
249.366	201.75
249.599	220.75
249.832	220.75
250.066	222.75
250.299	205.75
250.532	216.75
250.765	208.75
250.998	224.75
251.231	207.75
251.465	214.75
251.698	208.75
251.931	247.75
252.164	242.75
252.397	214.75
252.63	222.75
252.863	233.75
253.096	220.75
253.329	250.75
253.562	231.75
253.795	214.75
254.028	236.75
254.261	236.75
254.494	244.75
254.727	246.75
254.96	231.75
255.193	267.75
255.426	250.75
255.659	236.75
255.892	246.75
256.124	243.75
256.357	251.75
256.59	262.75
256.823	274.75
257.056	248.75
257.289	267.75
257.521	258.75
257.754	262.75
257.987	256.75
258.22	283.75
258.452	266.75
258.685	269.75
258.918	258.75
259.151	267.75
259.383	297.75
259.616	258.75
259.849	282.75
260.081	274.75
260.314	273.75
260.547	293.75
260.779	270.75
261.012	293.75
261.244	298.75
261.477	280.75
261.71	265.75
261.942	278.75
262.175	289.75
262.407	293.75
262.64	285.75
262.872	294.75
263.105	322.75
263.337	322.75
263.57	295.75
263.802	301.75
264.035	311.75
264.267	296.75
264.499	299.75
264.732	275.75
264.964	307.75
265.197	307.75
265.429	311.75
265.661	306.75
265.894	311.75
266.126	316.75
266.358	331.75
266.591	306.75
266.823	312.75
267.055	288.75
267.287	329.75
267.52	322.75
267.752	339.75
267.984	323.75
268.216	320.75
268.448	339.75
268.681	335.75
268.913	349.75
269.145	321.75
269.377	324.75
269.609	329.75
269.841	348.75
270.073	337.75
270.306	362.75
270.538	355.75
270.77	334.75
271.002	330.75
271.234	334.75
271.466	343.75
271.698	352.75
271.93	346.75
272.162	367.75
272.394	359.75
272.626	371.75
272.858	370.75
273.09	355.75
273.322	364.75
273.553	377.75
273.785	346.75
274.017	370.75
274.249	382.75
274.481	377.75
274.713	385.75
274.945	359.75
275.176	373.75
275.408	391.75
275.64	370.75
275.872	383.75
276.104	396.75
276.335	388.75
276.567	394.75
276.799	364.75
277.031	382.75
277.262	396.75
277.494	392.75
277.726	384.75
277.957	404.75
278.189	390.75
278.421	401.75
278.652	397.75
278.884	412.75
279.115	383.75
279.347	393.75
279.579	428.75
279.81	406.75
280.042	412.75
280.273	425.75
280.505	436.75
280.736	416.75
280.968	429.75
281.199	424.75
281.431	431.75
281.662	423.75
281.894	422.75
282.125	391.75
282.356	440.75
282.588	436.75
282.819	442.75
283.051	449.75
283.282	445.75
283.513	422.75
283.745	439.75
283.976	445.75
284.207	444.75
284.439	442.75
284.67	447.75
284.901	453.75
285.132	459.75
285.364	464.75
285.595	445.75
285.826	447.75
286.057	464.75
286.288	470.75
286.52	472.75
286.751	489.75
286.982	486.75
287.213	476.75
287.444	459.75
287.675	472.75
287.906	460.75
288.138	452.75
288.369	483.75
288.6	492.75
288.831	467.75
289.062	480.75
289.293	483.75
289.524	501.75
289.755	490.75
289.986	494.75
290.217	503.75
290.448	502.75
290.679	491.75
290.91	510.75
291.141	501.75
291.371	490.75
291.602	508.75
291.833	505.75
292.064	496.75
292.295	502.75
292.526	500.75
292.757	517.75
292.987	519.75
293.218	505.75
293.449	494.75
293.68	486.75
293.91	515.75
294.141	516.75
294.372	518.75
294.603	502.75
294.833	545.75
295.064	533.75
295.295	529.75
295.525	543.75
295.756	521.75
295.987	514.75
296.217	539.75
296.448	498.75
296.679	522.75
296.909	520.75
297.14	540.75
297.37	549.75
297.601	540.75
297.831	551.75
298.062	533.75
298.292	547.75
298.523	569.75
298.753	554.75
298.984	535.75
299.214	526.75
299.445	562.75
299.675	553.75
299.905	540.75
300.136	540.75
300.366	539.75
300.597	550.75
300.827	576.75
301.057	568.75
301.288	569.75
301.518	550.75
301.748	558.75
301.979	566.75
302.209	592.75
302.439	591.75
302.669	598.75
302.9	584.75
303.13	570.75
303.36	584.75
303.59	589.75
303.82	603.75
304.051	599.75
304.281	606.75
304.511	603.75
304.741	584.75
304.971	615.75
305.201	605.75
305.431	588.75
305.661	612.75
305.891	576.75
306.121	594.75
306.352	572.75
306.582	604.75
306.812	625.75
307.042	612.75
307.272	619.75
307.502	602.75
307.731	611.75
307.961	630.75
308.191	589.75
308.421	599.75
308.651	589.75
308.881	594.75
309.111	628.75
309.341	613.75
309.571	620.75
309.8	611.75
310.03	628.75
310.26	628.75
310.49	610.75
310.72	612.75
310.949	632.75
311.179	612.75
311.409	628.75
311.639	631.75
311.868	628.75
312.098	630.75
312.328	629.75
312.557	622.75
312.787	648.75
313.017	638.75
313.246	624.75
313.476	639.75
313.706	657.75
313.935	648.75
314.165	665.75
314.394	655.75
314.624	661.75
314.853	649.75
315.083	666.75
315.312	663.75
315.542	652.75
315.771	668.75
316.001	652.75
316.23	666.75
316.46	663.75
316.689	680.75
316.919	675.75
317.148	666.75
317.377	674.75
317.607	679.75
317.836	659.75
318.065	682.75
318.295	677.75
318.524	668.75
318.753	680.75
318.983	674.75
319.212	681.75
319.441	692.75
319.67	730.75
319.9	704.75
320.129	688.75
320.358	688.75
320.587	699.75
320.816	710.75
321.046	703.75
321.275	726.75
321.504	700.75
321.733	725.75
321.962	701.75
322.191	721.75
322.42	733.75
322.649	728.75
322.878	718.75
323.108	722.75
323.337	712.75
323.566	741.75
323.795	739.75
324.024	713.75
324.253	736.75
324.482	725.75
324.71	726.75
324.939	751.75
325.168	742.75
325.397	742.75
325.626	726.75
325.855	740.75
326.084	751.75
326.313	755.75
326.542	740.75
326.77	741.75
326.999	761.75
327.228	769.75
327.457	740.75
327.686	751.75
327.914	757.75
328.143	764.75
328.372	744.75
328.6	747.75
328.829	751.75
329.058	755.75
329.287	774.75
329.515	751.75
329.744	755.75
329.972	792.75
330.201	776.75
330.43	771.75
330.658	759.75
330.887	764.75
331.115	776.75
331.344	790.75
331.572	780.75
331.801	786.75
332.03	806.75
332.258	794.75
332.486	778.75
332.715	774.75
332.943	794.75
333.172	774.75
333.4	783.75
333.629	805.75
333.857	820.75
334.085	809.75
334.314	836.75
334.542	794.75
334.771	815.75
334.999	821.75
335.227	816.75
335.455	828.75
335.684	841.75
335.912	838.75
336.14	795.75
336.369	826.75
336.597	856.75
336.825	831.75
337.053	844.75
337.281	840.75
337.51	824.75
337.738	822.75
337.966	810.75
338.194	814.75
338.422	843.75
338.65	813.75
338.878	828.75
339.106	845.75
339.334	842.75
339.562	826.75
339.79	790.75
340.018	828.75
340.246	829.75
340.474	814.75
340.702	791.75
340.93	814.75
341.158	835.75
341.386	836.75
341.614	814.75
341.842	819.75
342.07	828.75
342.298	806.75
342.526	806.75
342.754	796.75
342.981	792.75
343.209	818.75
343.437	815.75
343.665	812.75
343.893	814.75
344.12	848.75
344.348	818.75
344.576	837.75
344.804	848.75
345.031	809.75
345.259	816.75
345.487	816.75
345.714	830.75
345.942	826.75
346.17	808.75
346.397	799.75
346.625	812.75
346.853	789.75
347.08	782.75
347.308	802.75
347.535	811.75
347.763	803.75
347.99	799.75
348.218	785.75
348.445	763.75
348.673	777.75
348.9	785.75
349.128	782.75
349.355	792.75
349.583	791.75
349.81	783.75
350.037	794.75
350.265	783.75
350.492	765.75
350.72	771.75
350.947	782.75
351.174	800.75
351.402	800.75
351.629	770.75
351.856	778.75
352.083	794.75
352.311	790.75
352.538	787.75
352.765	781.75
352.992	778.75
353.22	785.75
353.447	776.75
353.674	777.75
353.901	780.75
354.128	765.75
354.355	769.75
354.583	801.75
354.81	781.75
355.037	785.75
355.264	772.75
355.491	768.75
355.718	790.75
355.945	797.75
356.172	782.75
356.399	778.75
356.626	774.75
356.853	780.75
357.08	776.75
357.307	796.75
357.534	784.75
357.761	776.75
357.988	792.75
358.215	795.75
358.441	800.75
358.668	774.75
358.895	792.75
359.122	777.75
359.349	784.75
359.576	793.75
359.802	788.75
360.029	822.75
360.256	779.75
360.483	782.75
360.709	774.75
360.936	790.75
361.163	794.75
361.39	795.75
361.616	769.75
361.843	786.75
362.07	763.75
362.296	777.75
362.523	785.75
362.749	798.75
362.976	788.75
363.203	814.75
363.429	792.75
363.656	824.75
363.882	793.75
364.109	798.75
364.335	791.75
364.562	799.75
364.788	808.75
365.015	814.75
365.241	790.75
365.468	783.75
365.694	812.75
365.92	823.75
366.147	785.75
366.373	813.75
366.599	804.75
366.826	804.75
367.052	811.75
367.278	815.75
367.505	795.75
367.731	804.75
367.957	810.75
368.184	834.75
368.41	831.75
368.636	809.75
368.862	813.75
369.089	836.75
369.315	826.75
369.541	836.75
369.767	807.75
369.993	840.75
370.219	821.75
370.445	860.75
370.672	855.75
370.898	826.75
371.124	842.75
371.35	852.75
371.576	858.75
371.802	856.75
372.028	861.75
372.254	864.75
372.48	845.75
372.706	850.75
372.932	856.75
373.158	854.75
373.384	859.75
373.61	882.75
373.835	815.75
374.061	843.75
374.287	877.75
374.513	856.75
374.739	861.75
374.965	852.75
375.191	869.75
375.416	878.75
375.642	886.75
375.868	891.75
376.094	877.75
376.319	859.75
376.545	842.75
376.771	850.75
376.997	860.75
377.222	828.75
377.448	836.75
377.674	835.75
377.899	858.75
378.125	828.75
378.35	850.75
378.576	858.75
378.802	850.75
379.027	838.75
379.253	856.75
379.478	866.75
379.704	850.75
379.929	848.75
380.155	820.75
380.38	859.75
380.606	874.75
380.831	848.75
381.057	875.75
381.282	860.75
381.507	867.75
381.733	866.75
381.958	847.75
382.184	844.75
382.409	859.75
382.634	847.75
382.86	876.75
383.085	861.75
383.31	856.75
383.535	882.75
383.761	874.75
383.986	877.75
384.211	888.75
384.436	886.75
384.662	871.75
384.887	882.75
385.112	882.75
385.337	901.75
385.562	921.75
385.787	896.75
386.013	907.75
386.238	905.75
386.463	918.75
386.688	919.75
386.913	926.75
387.138	917.75
387.363	942.75
387.588	943.75
387.813	954.75
388.038	926.75
388.263	945.75
388.488	929.75
388.713	934.75
388.938	944.75
389.163	926.75
389.387	955.75
389.612	912.75
389.837	937.75
390.062	932.75
390.287	918.75
390.512	956.75
390.736	970.75
390.961	946.75
391.186	927.75
391.411	943.75
391.636	972.75
391.86	967.75
392.085	972.75
392.31	948.75
392.534	967.75
392.759	996.75
392.984	966.75
393.208	965.75
393.433	943.75
393.658	954.75
393.882	962.75
394.107	955.75
394.331	952.75
394.556	950.75
394.78	936.75
395.005	936.75
395.229	965.75
395.454	967.75
395.678	940.75
395.903	943.75
396.127	936.75
396.352	973.75
396.576	976.75
396.801	997.75
397.025	987.75
397.249	1006.75
397.474	987.75
397.698	971.75
397.922	1008.75
398.147	986.75
398.371	1010.75
398.595	1029.75
398.82	1020.75
399.044	1074.75
399.268	1063.75
399.492	1071.75
399.717	1043.75
399.941	1086.75
400.165	1096.75
400.389	1080.75
400.613	1108.75
400.837	1079.75
401.062	1059.75
401.286	1066.75
401.51	1080.75
401.734	1032.75
401.958	1041.75
402.182	1026.75
402.406	1038.75
402.63	1032.75
402.854	1055.75
403.078	1053.75
403.302	1004.75
403.526	1039.75
403.75	1056.75
403.974	1050.75
404.198	1026.75
404.422	1070.75
404.645	1037.75
404.869	1040.75
405.093	1059.75
405.317	1054.75
405.541	1063.75
405.765	1053.75
405.988	1060.75
406.212	1078.75
406.436	1058.75
406.66	1102.75
406.883	1072.75
407.107	1101.75
407.331	1085.75
407.555	1123.75
407.778	1125.75
408.002	1125.75
408.226	1146.75
408.449	1131.75
408.673	1128.75
408.896	1080.75
409.12	1111.75
409.344	1083.75
409.567	1107.75
409.791	1117.75
410.014	1084.75
410.238	1060.75
410.461	1075.75
410.685	1069.75
410.908	1062.75
411.132	1088.75
411.355	1046.75
411.578	1099.75
411.802	1062.75
412.025	1026.75
412.249	1066.75
412.472	1062.75
412.695	1074.75
412.919	1049.75
413.142	1071.75
413.365	1042.75
413.589	1033.75
413.812	1013.75
414.035	1014.75
414.258	1015.75
414.482	1046.75
414.705	1019.75
414.928	1044.75
415.151	1051.75
415.374	1043.75
415.597	1026.75
415.821	991.75
416.044	999.75
416.267	1005.75
416.49	1002.75
416.713	1005.75
416.936	995.75
417.159	998.75
417.382	974.75
417.605	1003.75
417.828	999.75
418.051	1003.75
418.274	990.75
418.497	961.75
418.72	958.75
418.943	978.75
419.166	995.75
419.389	1070.75
419.611	1050.75
419.834	1048.75
420.057	1015.75
420.28	972.75
420.503	963.75
420.726	969.75
420.948	949.75
421.171	973.75
421.394	954.75
421.617	960.75
421.839	968.75
422.062	983.75
422.285	970.75
422.507	986.75
422.73	964.75
422.953	938.75
423.175	948.75
423.398	968.75
423.621	941.75
423.843	987.75
424.066	978.75
424.288	947.75
424.511	949.75
424.733	984.75
424.956	966.75
425.178	958.75
425.401	962.75
425.623	973.75
425.846	938.75
426.068	954.75
426.291	948.75
426.513	973.75
426.735	967.75
426.958	972.75
427.18	924.75
427.402	950.75
427.625	953.75
427.847	932.75
428.069	954.75
428.292	968.75
428.514	938.75
428.736	940.75
428.958	963.75
429.181	955.75
429.403	969.75
429.625	948.75
429.847	935.75
430.069	956.75
430.292	944.75
430.514	928.75
430.736	940.75
430.958	935.75
431.18	953.75
431.402	936.75
431.624	970.75
431.846	928.75
432.068	965.75
432.29	942.75
432.512	971.75
432.734	958.75
432.956	950.75
433.178	967.75
433.4	980.75
433.622	975.75
433.844	965.75
434.066	935.75
434.287	952.75
434.509	978.75
434.731	953.75
434.953	930.75
435.175	976.75
435.397	942.75
435.618	942.75
435.84	956.75
436.062	928.75
436.284	931.75
436.505	930.75
436.727	949.75
436.949	938.75
437.17	921.75
437.392	930.75
437.614	902.75
437.835	930.75
438.057	926.75
438.278	939.75
438.5	895.75
438.721	909.75
438.943	932.75
439.165	912.75
439.386	937.75
439.608	936.75
439.829	914.75
440.05	923.75
440.272	892.75
440.493	919.75
440.715	930.75
440.936	939.75
441.158	931.75
441.379	927.75
441.6	940.75
441.822	942.75
442.043	937.75
442.264	933.75
442.486	928.75
442.707	941.75
442.928	914.75
443.149	944.75
443.371	904.75
443.592	920.75
443.813	934.75
444.034	941.75
444.255	966.75
444.476	917.75
444.698	960.75
444.919	945.75
445.14	1041.75
445.361	965.75
445.582	941.75
445.803	940.75
446.024	898.75
446.245	916.75
446.466	904.75
446.687	919.75
446.908	903.75
447.129	887.75
447.35	898.75
447.571	898.75
447.792	863.75
448.013	885.75
448.234	892.75
448.455	875.75
448.675	901.75
448.896	867.75
449.117	845.75
449.338	882.75
449.559	860.75
449.779	880.75
450	876.75
450.221	880.75
450.442	877.75
450.662	885.75
450.883	852.75
451.104	863.75
451.324	862.75
451.545	852.75
451.766	822.75
451.986	855.75
452.207	840.75
452.428	856.75
452.648	856.75
452.869	805.75
453.089	834.75
453.31	862.75
453.53	811.75
453.751	822.75
453.971	852.75
454.192	828.75
454.412	819.75
454.633	844.75
454.853	863.75
455.073	839.75
455.294	801.75
455.514	816.75
455.734	828.75
455.955	810.75
456.175	829.75
456.395	836.75
456.616	838.75
456.836	867.75
457.056	835.75
457.276	850.75
457.497	859.75
457.717	852.75
457.937	842.75
458.157	852.75
458.377	862.75
458.598	860.75
458.818	852.75
459.038	866.75
459.258	901.75
459.478	879.75
459.698	874.75
459.918	877.75
460.138	930.75
460.358	919.75
460.578	886.75
460.798	917.75
461.018	930.75
461.238	958.75
461.458	912.75
461.678	949.75
461.898	949.75
462.118	959.75
462.338	943.75
462.558	964.75
462.777	996.75
462.997	984.75
463.217	1000.75
463.437	1006.75
463.657	987.75
463.876	1001.75
464.096	987.75
464.316	982.75
464.536	983.75
464.755	983.75
464.975	964.75
465.195	976.75
465.414	970.75
465.634	950.75
465.854	920.75
466.073	918.75
466.293	908.75
466.512	919.75
466.732	910.75
466.951	923.75
467.171	899.75
467.391	894.75
467.61	908.75
467.829	901.75
468.049	910.75
468.268	895.75
468.488	893.75
468.707	884.75
468.927	904.75
469.146	892.75
469.365	908.75
469.585	887.75
469.804	866.75
470.023	902.75
470.243	890.75
470.462	919.75
470.681	899.75
470.901	912.75
471.12	912.75
471.339	916.75
471.558	920.75
471.777	943.75
471.997	907.75
472.216	907.75
472.435	921.75
472.654	906.75
472.873	918.75
473.092	899.75
473.311	897.75
473.53	884.75
473.749	894.75
473.968	939.75
474.187	913.75
474.406	942.75
474.625	956.75
474.844	919.75
475.063	934.75
475.282	946.75
475.501	963.75
475.72	961.75
475.939	943.75
476.158	944.75
476.377	979.75
476.596	944.75
476.814	980.75
477.033	995.75
477.252	955.75
477.471	972.75
477.69	959.75
477.908	994.75
478.127	1021.75
478.346	1026.75
478.564	1019.75
478.783	1022.75
479.002	1035.75
479.22	1068.75
479.439	1041.75
479.658	1055.75
479.876	1077.75
480.095	1064.75
480.313	1078.75
480.532	1051.75
480.751	1061.75
480.969	1067.75
481.188	1068.75
481.406	1060.75
481.624	1069.75
481.843	1053.75
482.061	1089.75
482.28	1062.75
482.498	1078.75
482.717	1049.75
482.935	1042.75
483.153	1090.75
483.372	1071.75
483.59	1100.75
483.808	1098.75
484.027	1060.75
484.245	1068.75
484.463	1085.75
484.681	1110.75
484.9	1098.75
485.118	1090.75
485.336	1112.75
485.554	1098.75
485.772	1099.75
485.99	1110.75
486.209	1098.75
486.427	1123.75
486.645	1129.75
486.863	1129.75
487.081	1116.75
487.299	1116.75
487.517	1126.75
487.735	1132.75
487.953	1122.75
488.171	1115.75
488.389	1105.75
488.607	1119.75
488.825	1107.75
489.043	1127.75
489.261	1108.75
489.479	1154.75
489.696	1122.75
489.914	1131.75
490.132	1116.75
490.35	1113.75
490.568	1131.75
490.786	1148.75
491.003	1115.75
491.221	1127.75
491.439	1124.75
491.657	1127.75
491.874	1141.75
492.092	1138.75
492.31	1118.75
492.527	1162.75
492.745	1160.75
492.963	1172.75
493.18	1151.75
493.398	1164.75
493.615	1168.75
493.833	1150.75
494.05	1143.75
494.268	1167.75
494.485	1163.75
494.703	1155.75
494.92	1177.75
495.138	1175.75
495.355	1195.75
495.573	1191.75
495.79	1173.75
496.008	1214.75
496.225	1210.75
496.442	1219.75
496.66	1224.75
496.877	1226.75
497.094	1264.75
497.312	1256.75
497.529	1250.75
497.746	1286.75
497.963	1276.75
498.181	1275.75
498.398	1307.75
498.615	1305.75
498.832	1332.75
499.049	1373.75
499.267	1370.75
499.484	1403.75
499.701	1424.75
499.918	1490.75
500.135	1484.75
500.352	1511.75
500.569	1495.75
500.786	1505.75
501.003	1530.75
501.22	1464.75
501.437	1471.75
501.654	1418.75
501.871	1425.75
502.088	1383.75
502.305	1366.75
502.522	1328.75
502.739	1296.75
502.956	1317.75
503.172	1322.75
503.389	1280.75
503.606	1249.75
503.823	1224.75
504.04	1225.75
504.256	1197.75
504.473	1174.75
504.69	1183.75
504.907	1178.75
505.123	1181.75
505.34	1165.75
505.557	1140.75
505.773	1135.75
505.99	1138.75
506.207	1102.75
506.423	1110.75
506.64	1076.75
506.856	1092.75
507.073	1100.75
507.289	1078.75
507.506	1070.75
507.722	1069.75
507.939	1077.75
508.155	1024.75
508.372	1023.75
508.588	1029.75
508.805	1033.75
509.021	1056.75
509.238	1014.75
509.454	1004.75
509.67	968.75
509.887	996.75
510.103	1020.75
510.319	985.75
510.536	992.75
510.752	972.75
510.968	989.75
511.184	995.75
511.401	991.75
511.617	964.75
511.833	982.75
512.049	962.75
512.265	973.75
512.481	990.75
512.698	999.75
512.914	956.75
513.13	966.75
513.346	961.75
513.562	998.75
513.778	971.75
513.994	979.75
514.21	960.75
514.426	969.75
514.642	969.75
514.858	968.75
515.074	983.75
515.29	975.75
515.506	990.75
515.721	974.75
515.937	971.75
516.153	995.75
516.369	993.75
516.585	1027.75
516.801	1010.75
517.016	1004.75
517.232	987.75
517.448	1021.75
517.664	1028.75
517.879	1002.75
518.095	1000.75
518.311	1003.75
518.527	970.75
518.742	995.75
518.958	991.75
519.173	1002.75
519.389	987.75
519.605	943.75
519.82	972.75
520.036	974.75
520.251	975.75
520.467	948.75
520.682	927.75
520.898	918.75
521.113	925.75
521.329	939.75
521.544	936.75
521.76	913.75
521.975	957.75
522.19	944.75
522.406	912.75
522.621	938.75
522.836	923.75
523.052	952.75
523.267	902.75
523.482	920.75
523.698	869.75
523.913	877.75
524.128	918.75
524.343	886.75
524.559	874.75
524.774	869.75
524.989	884.75
525.204	866.75
525.419	894.75
525.634	884.75
525.849	882.75
526.064	885.75
526.28	915.75
526.495	906.75
526.71	865.75
526.925	877.75
527.14	878.75
527.355	856.75
527.57	892.75
527.785	862.75
527.999	847.75
528.214	885.75
528.429	873.75
528.644	871.75
528.859	884.75
529.074	868.75
529.289	872.75
529.503	869.75
529.718	896.75
529.933	857.75
530.148	874.75
530.363	892.75
530.577	863.75
530.792	861.75
531.007	856.75
531.221	851.75
531.436	847.75
531.651	860.75
531.865	848.75
532.08	857.75
532.295	844.75
532.509	840.75
532.724	839.75
532.938	853.75
533.153	843.75
533.367	829.75
533.582	848.75
533.796	818.75
534.011	842.75
534.225	807.75
534.44	828.75
534.654	812.75
534.868	827.75
535.083	813.75
535.297	800.75
535.511	854.75
535.726	844.75
535.94	833.75
536.154	815.75
536.369	805.75
536.583	797.75
536.797	822.75
537.011	794.75
537.225	800.75
537.44	798.75
537.654	784.75
537.868	799.75
538.082	811.75
538.296	799.75
538.51	797.75
538.724	796.75
538.938	796.75
539.153	772.75
539.367	820.75
539.581	774.75
539.795	780.75
540.009	759.75
540.222	772.75
540.436	764.75
540.65	803.75
540.864	766.75
541.078	772.75
541.292	785.75
541.506	772.75
541.72	779.75
541.934	773.75
542.147	790.75
542.361	756.75
542.575	768.75
542.789	796.75
543.002	745.75
543.216	770.75
543.43	776.75
543.644	779.75
543.857	737.75
544.071	770.75
544.285	736.75
544.498	760.75
544.712	754.75
544.925	777.75
545.139	776.75
545.352	732.75
545.566	754.75
545.779	755.75
545.993	773.75
546.206	773.75
546.42	750.75
546.633	742.75
546.847	752.75
547.06	756.75
547.274	763.75
547.487	742.75
547.7	751.75
547.914	751.75
548.127	748.75
548.34	738.75
548.554	767.75
548.767	757.75
548.98	772.75
549.193	745.75
549.407	745.75
549.62	731.75
549.833	717.75
550.046	740.75
550.259	770.75
550.473	735.75
550.686	758.75
550.899	741.75
551.112	752.75
551.325	724.75
551.538	755.75
551.751	722.75
551.964	735.75
552.177	740.75
552.39	735.75
552.603	744.75
552.816	733.75
553.029	754.75
553.242	715.75
553.455	728.75
553.667	728.75
553.88	738.75
554.093	703.75
554.306	701.75
554.519	700.75
554.732	695.75
554.944	701.75
555.157	709.75
555.37	700.75
555.583	680.75
555.795	695.75
556.008	690.75
556.221	664.75
556.433	696.75
556.646	683.75
556.859	694.75
557.071	662.75
557.284	683.75
557.496	671.75
557.709	659.75
557.921	672.75
558.134	674.75
558.346	674.75
558.559	660.75
558.771	668.75
558.984	655.75
559.196	636.75
559.409	649.75
559.621	646.75
559.833	643.75
560.046	642.75
560.258	644.75
560.47	647.75
560.683	647.75
560.895	640.75
561.107	671.75
561.32	632.75
561.532	656.75
561.744	673.75
561.956	617.75
562.168	653.75
562.381	638.75
562.593	642.75
562.805	659.75
563.017	633.75
563.229	638.75
563.441	638.75
563.653	660.75
563.865	635.75
564.077	646.75
564.289	648.75
564.501	636.75
564.713	682.75
564.925	660.75
565.137	652.75
565.349	654.75
565.561	707.75
565.773	674.75
565.985	692.75
566.197	675.75
566.408	704.75
566.62	685.75
566.832	714.75
567.044	677.75
567.255	686.75
567.467	691.75
567.679	667.75
567.891	681.75
568.102	672.75
568.314	652.75
568.526	681.75
568.737	670.75
568.949	634.75
569.161	634.75
569.372	653.75
569.584	617.75
569.795	625.75
570.007	618.75
570.218	602.75
570.43	625.75
570.641	590.75
570.853	589.75
571.064	584.75
571.276	580.75
571.487	597.75
571.698	588.75
571.91	550.75
572.121	557.75
572.333	546.75
572.544	551.75
572.755	550.75
572.966	547.75
573.178	546.75
573.389	534.75
573.6	551.75
573.811	522.75
574.023	527.75
574.234	528.75
574.445	538.75
574.656	529.75
574.867	558.75
575.078	527.75
575.289	527.75
575.501	523.75
575.712	507.75
575.923	525.75
576.134	507.75
576.345	496.75
576.556	515.75
576.767	510.75
576.978	495.75
577.188	497.75
577.399	476.75
577.61	480.75
577.821	482.75
578.032	485.75
578.243	494.75
578.454	498.75
578.665	487.75
578.875	494.75
579.086	469.75
579.297	470.75
579.508	470.75
579.718	467.75
579.929	471.75
580.14	453.75
580.35	461.75
580.561	470.75
580.772	468.75
580.982	478.75
581.193	463.75
581.403	472.75
581.614	472.75
581.825	461.75
582.035	462.75
582.246	453.75
582.456	463.75
582.667	455.75
582.877	428.75
583.087	451.75
583.298	460.75
583.508	442.75
583.719	446.75
583.929	457.75
584.139	448.75
584.35	434.75
584.56	446.75
584.77	446.75
584.981	455.75
585.191	449.75
585.401	436.75
585.611	438.75
585.821	442.75
586.032	434.75
586.242	435.75
586.452	437.75
586.662	444.75
586.872	432.75
587.082	430.75
587.292	435.75
587.502	438.75
587.713	424.75
587.923	431.75
588.133	435.75
588.343	432.75
588.553	432.75
588.762	442.75
588.972	425.75
589.182	428.75
589.392	440.75
589.602	434.75
589.812	405.75
590.022	420.75
590.232	409.75
590.441	408.75
590.651	418.75
590.861	406.75
591.071	411.75
591.281	419.75
591.49	411.75
591.7	411.75
591.91	423.75
592.119	405.75
592.329	395.75
592.539	425.75
592.748	414.75
592.958	410.75
593.167	427.75
593.377	431.75
593.587	429.75
593.796	412.75
594.006	437.75
594.215	406.75
594.424	391.75
594.634	418.75
594.843	408.75
595.053	398.75
595.262	398.75
595.472	407.75
595.681	393.75
595.89	388.75
596.1	402.75
596.309	389.75
596.518	401.75
596.727	376.75
596.937	374.75
597.146	387.75
597.355	405.75
597.564	406.75
597.774	377.75
597.983	376.75
598.192	380.75
598.401	364.75
598.61	369.75
598.819	361.75
599.028	364.75
599.237	366.75
599.446	359.75
599.655	374.75
599.864	351.75
600.073	359.75
600.282	365.75
600.491	351.75
600.7	354.75
600.909	350.75
601.118	341.75
601.327	356.75
601.536	354.75
601.745	343.75
601.953	345.75
602.162	339.75
602.371	336.75
602.58	334.75
602.789	354.75
602.997	358.75
603.206	335.75
603.415	349.75
603.623	344.75
603.832	334.75
604.041	327.75
604.249	338.75
604.458	330.75
604.666	329.75
604.875	336.75
605.084	335.75
605.292	351.75
605.501	340.75
605.709	334.75
605.918	325.75
606.126	317.75
606.334	331.75
606.543	326.75
606.751	347.75
606.96	331.75
607.168	347.75
607.376	316.75
607.585	302.75
607.793	312.75
608.001	331.75
608.21	331.75
608.418	310.75
608.626	347.75
608.834	325.75
609.043	331.75
609.251	329.75
609.459	314.75
609.667	335.75
609.875	333.75
610.083	323.75
610.291	310.75
610.499	310.75
610.707	300.75
610.916	312.75
611.124	328.75
611.332	315.75
611.54	326.75
611.748	333.75
611.955	303.75
612.163	290.75
612.371	306.75
612.579	311.75
612.787	317.75
612.995	294.75
613.203	314.75
613.411	299.75
613.618	324.75
613.826	296.75
614.034	306.75
614.242	304.75
614.449	306.75
614.657	297.75
614.865	303.75
615.072	309.75
615.28	291.75
615.488	312.75
615.695	303.75
615.903	292.75
616.111	290.75
616.318	301.75
616.526	297.75
616.733	302.75
616.941	305.75
617.148	296.75
617.356	303.75
617.563	295.75
617.771	291.75
617.978	303.75
618.185	293.75
618.393	303.75
618.6	287.75
618.807	296.75
619.015	303.75
619.222	291.75
619.429	285.75
619.637	276.75
619.844	281.75
620.051	279.75
620.258	277.75
620.466	284.75
620.673	269.75
620.88	270.75
621.087	272.75
621.294	292.75
621.501	272.75
621.708	269.75
621.915	278.75
622.122	278.75
622.329	282.75
622.536	277.75
622.743	272.75
622.95	260.75
623.157	268.75
623.364	278.75
623.571	287.75
623.778	267.75
623.985	266.75
624.192	287.75
624.399	267.75
624.606	263.75
624.812	281.75
625.019	276.75
625.226	271.75
625.433	297.75
625.639	253.75
625.846	272.75
626.053	267.75
626.259	271.75
626.466	247.75
626.673	289.75
626.879	264.75
627.086	257.75
627.293	274.75
627.499	253.75
627.706	256.75
627.912	250.75
628.119	259.75
628.325	250.75
628.532	255.75
628.738	231.75
628.945	234.75
629.151	264.75
629.357	282.75
629.564	254.75
629.77	260.75
629.976	246.75
630.183	238.75
630.389	267.75
630.595	253.75
630.802	235.75
631.008	252.75
631.214	237.75
631.42	238.75
631.627	244.75
631.833	239.75
632.039	236.75
632.245	231.75
632.451	244.75
632.657	248.75
632.863	264.75
633.069	244.75
633.275	247.75
633.481	236.75
633.688	238.75
633.893	238.75
634.099	237.75
634.305	224.75
634.511	228.75
634.717	246.75
634.923	228.75
635.129	237.75
635.335	224.75
635.541	243.75
635.747	235.75
635.952	237.75
636.158	233.75
636.364	227.75
636.57	244.75
636.775	228.75
636.981	222.75
637.187	233.75
637.392	224.75
637.598	231.75
637.804	221.75
638.009	226.75
638.215	206.75
638.421	223.75
638.626	229.75
638.832	239.75
639.037	231.75
639.243	217.75
639.448	213.75
639.654	224.75
639.859	239.75
640.065	222.75
640.27	218.75
640.475	226.75
640.681	220.75
640.886	206.75
641.091	208.75
641.297	223.75
641.502	209.75
641.707	229.75
641.913	244.75
642.118	203.75
642.323	204.75
642.528	221.75
642.733	215.75
642.939	213.75
643.144	217.75
643.349	214.75
643.554	223.75
643.759	211.75
643.964	198.75
644.169	199.75
644.374	220.75
644.579	208.75
644.784	199.75
644.989	201.75
645.194	230.75
645.399	210.75
645.604	215.75
645.809	209.75
646.014	212.75
646.219	210.75
646.423	207.75
646.628	212.75
646.833	221.75
647.038	212.75
647.243	213.75
647.447	208.75
647.652	214.75
647.857	222.75
648.062	212.75
648.266	209.75
648.471	224.75
648.676	203.75
648.88	224.75
649.085	214.75
649.289	218.75
649.494	203.75
649.698	216.75
649.903	212.75
650.107	217.75
650.312	202.75
650.516	200.75
650.721	215.75
650.925	203.75
651.13	190.75
651.334	196.75
651.539	180.75
651.743	198.75
651.947	215.75
652.152	216.75
652.356	190.75
652.56	193.75
652.764	182.75
652.969	183.75
653.173	189.75
653.377	194.75
653.581	189.75
653.785	180.75
653.99	178.75
654.194	183.75
654.398	202.75
654.602	189.75
654.806	189.75
655.01	180.75
655.214	180.75
655.418	172.75
655.622	181.75
655.826	194.75
656.03	182.75
656.234	168.75
656.438	178.75
656.642	170.75
656.846	178.75
657.049	138.75
657.253	170.75
657.457	162.75
657.661	150.75
657.865	155.75
658.068	142.75
658.272	136.75
658.476	135.75
658.68	131.75
658.883	130.75
659.087	130.75
659.291	108.75
659.494	130.75
659.698	122.75
659.901	119.75
660.105	119.75
660.309	110.75
660.512	116.75
660.716	109.75
660.919	97.75
661.123	111.75
661.326	107.75
661.53	98.75
661.733	99.75
661.936	101.75
662.14	97.75
662.343	90.75
662.546	94.75
662.75	99.75
662.953	94.75
663.156	85.75
663.36	95.75
663.563	87.75
663.766	92.75
663.969	93.75
664.173	79.75
664.376	85.75
664.579	96.75
664.782	93.75
664.985	77.75
665.188	94.75
665.391	85.75
665.594	79.75
665.797	84.75
666	85.75
666.203	84.75
666.406	84.75
666.609	86.75
666.812	77.75
667.015	89.75
667.218	89.75
667.421	100.75
667.624	83.75
667.827	82.75
668.03	78.75
668.232	81.75
668.435	94.75
668.638	74.75
668.841	80.75
669.043	78.75
669.246	95.75
669.449	68.75
669.651	88.75
669.854	72.75
670.057	72.75
670.259	99.75
670.462	91.75
670.665	88.75
670.867	78.75
671.07	80.75
671.272	77.75
671.475	91.75
671.677	87.75
671.88	95.75
672.082	81.75
672.284	86.75
672.487	85.75
672.689	83.75
672.892	84.75
