Data from Fe(NO3)3@0.1M.TitratingCurve.Agarose3%dH2O.NegLispCup.LampEnergy10.LIBS07252019_HRD10591_16-40-07-333.txt Node
Date: Thu Jul 25 16:40:07 EDT 2019
User: cochatt
Spectrometer: HR+D1059
Trigger mode: 1
Integration Time (sec): 1.000000E-1
Scans to average: 1
Electric dark correction enabled: true
Nonlinearity correction enabled: false
Boxcar width: 0
XAxis mode: Wavelengths
Number of Pixels in Spectrum: 2048
>>>>>Begin Spectral Data<<<<<
223.165	-14.94
223.4	-14.94
223.635	-14.94
223.869	-15.94
224.104	2.06
224.338	-24.94
224.573	-10.94
224.808	-13.94
225.042	-9.94
225.277	3.06
225.511	1.06
225.746	-0.94
225.98	9.06
226.215	10.06
226.449	-3.94
226.683	14.06
226.918	20.06
227.152	36.06
227.387	41.06
227.621	52.06
227.856	48.06
228.09	44.06
228.324	49.06
228.559	68.06
228.793	66.06
229.027	75.06
229.262	78.06
229.496	75.06
229.73	87.06
229.964	81.06
230.199	80.06
230.433	79.06
230.667	87.06
230.901	80.06
231.136	96.06
231.37	80.06
231.604	96.06
231.838	89.06
232.072	81.06
232.306	92.06
232.541	103.06
232.775	105.06
233.009	102.06
233.243	85.06
233.477	96.06
233.711	104.06
233.945	99.06
234.179	110.06
234.413	104.06
234.647	100.06
234.881	96.06
235.115	98.06
235.349	84.06
235.583	94.06
235.817	104.06
236.051	78.06
236.285	81.06
236.519	106.06
236.753	98.06
236.987	114.06
237.221	101.06
237.455	102.06
237.689	100.06
237.922	115.06
238.156	102.06
238.39	106.06
238.624	91.06
238.858	91.06
239.091	112.06
239.325	98.06
239.559	99.06
239.793	92.06
240.027	97.06
240.26	102.06
240.494	91.06
240.728	100.06
240.961	109.06
241.195	108.06
241.429	118.06
241.662	113.06
241.896	108.06
242.13	98.06
242.363	113.06
242.597	104.06
242.83	109.06
243.064	114.06
243.298	116.06
243.531	114.06
243.765	105.06
243.998	112.06
244.232	114.06
244.465	116.06
244.699	108.06
244.932	113.06
245.166	118.06
245.399	108.06
245.633	122.06
245.866	120.06
246.099	102.06
246.333	123.06
246.566	111.06
246.8	103.06
247.033	113.06
247.266	101.06
247.5	117.06
247.733	120.06
247.966	126.06
248.2	126.06
248.433	136.06
248.666	112.06
248.899	84.06
249.133	123.06
249.366	131.06
249.599	116.06
249.832	129.06
250.066	128.06
250.299	136.06
250.532	135.06
250.765	132.06
250.998	116.06
251.231	123.06
251.465	150.06
251.698	126.06
251.931	135.06
252.164	128.06
252.397	122.06
252.63	118.06
252.863	128.06
253.096	136.06
253.329	128.06
253.562	148.06
253.795	125.06
254.028	141.06
254.261	124.06
254.494	140.06
254.727	137.06
254.96	130.06
255.193	132.06
255.426	136.06
255.659	128.06
255.892	138.06
256.124	133.06
256.357	129.06
256.59	132.06
256.823	146.06
257.056	144.06
257.289	143.06
257.521	130.06
257.754	136.06
257.987	130.06
258.22	138.06
258.452	124.06
258.685	139.06
258.918	141.06
259.151	137.06
259.383	140.06
259.616	151.06
259.849	158.06
260.081	150.06
260.314	139.06
260.547	133.06
260.779	142.06
261.012	151.06
261.244	140.06
261.477	159.06
261.71	132.06
261.942	136.06
262.175	137.06
262.407	132.06
262.64	147.06
262.872	134.06
263.105	150.06
263.337	156.06
263.57	150.06
263.802	161.06
264.035	146.06
264.267	151.06
264.499	150.06
264.732	156.06
264.964	148.06
265.197	152.06
265.429	160.06
265.661	155.06
265.894	152.06
266.126	162.06
266.358	167.06
266.591	153.06
266.823	158.06
267.055	161.06
267.287	178.06
267.52	152.06
267.752	164.06
267.984	147.06
268.216	166.06
268.448	154.06
268.681	165.06
268.913	181.06
269.145	168.06
269.377	150.06
269.609	163.06
269.841	149.06
270.073	156.06
270.306	170.06
270.538	166.06
270.77	155.06
271.002	173.06
271.234	156.06
271.466	164.06
271.698	148.06
271.93	165.06
272.162	167.06
272.394	154.06
272.626	174.06
272.858	168.06
273.09	158.06
273.322	155.06
273.553	165.06
273.785	174.06
274.017	190.06
274.249	173.06
274.481	185.06
274.713	180.06
274.945	186.06
275.176	176.06
275.408	179.06
275.64	182.06
275.872	176.06
276.104	177.06
276.335	187.06
276.567	177.06
276.799	179.06
277.031	175.06
277.262	186.06
277.494	174.06
277.726	172.06
277.957	167.06
278.189	192.06
278.421	164.06
278.652	172.06
278.884	180.06
279.115	173.06
279.347	187.06
279.579	191.06
279.81	179.06
280.042	176.06
280.273	199.06
280.505	184.06
280.736	180.06
280.968	200.06
281.199	197.06
281.431	169.06
281.662	186.06
281.894	197.06
282.125	194.06
282.356	191.06
282.588	195.06
282.819	186.06
283.051	188.06
283.282	178.06
283.513	186.06
283.745	193.06
283.976	197.06
284.207	187.06
284.439	198.06
284.67	200.06
284.901	194.06
285.132	192.06
285.364	197.06
285.595	187.06
285.826	196.06
286.057	206.06
286.288	211.06
286.52	201.06
286.751	201.06
286.982	206.06
287.213	200.06
287.444	187.06
287.675	188.06
287.906	201.06
288.138	195.06
288.369	193.06
288.6	200.06
288.831	201.06
289.062	209.06
289.293	200.06
289.524	210.06
289.755	195.06
289.986	201.06
290.217	225.06
290.448	210.06
290.679	200.06
290.91	234.06
291.141	206.06
291.371	199.06
291.602	217.06
291.833	193.06
292.064	199.06
292.295	204.06
292.526	212.06
292.757	204.06
292.987	212.06
293.218	200.06
293.449	224.06
293.68	205.06
293.91	205.06
294.141	221.06
294.372	210.06
294.603	209.06
294.833	219.06
295.064	212.06
295.295	193.06
295.525	205.06
295.756	217.06
295.987	217.06
296.217	224.06
296.448	206.06
296.679	214.06
296.909	211.06
297.14	214.06
297.37	228.06
297.601	220.06
297.831	224.06
298.062	234.06
298.292	202.06
298.523	221.06
298.753	219.06
298.984	209.06
299.214	219.06
299.445	229.06
299.675	224.06
299.905	214.06
300.136	218.06
300.366	223.06
300.597	217.06
300.827	205.06
301.057	213.06
301.288	221.06
301.518	226.06
301.748	216.06
301.979	240.06
302.209	230.06
302.439	218.06
302.669	236.06
302.9	238.06
303.13	233.06
303.36	226.06
303.59	234.06
303.82	248.06
304.051	235.06
304.281	232.06
304.511	226.06
304.741	252.06
304.971	243.06
305.201	224.06
305.431	228.06
305.661	234.06
305.891	223.06
306.121	236.06
306.352	233.06
306.582	253.06
306.812	226.06
307.042	218.06
307.272	219.06
307.502	225.06
307.731	227.06
307.961	219.06
308.191	231.06
308.421	225.06
308.651	220.06
308.881	217.06
309.111	229.06
309.341	232.06
309.571	232.06
309.8	221.06
310.03	246.06
310.26	219.06
310.49	237.06
310.72	238.06
310.949	233.06
311.179	236.06
311.409	232.06
311.639	245.06
311.868	234.06
312.098	229.06
312.328	235.06
312.557	258.06
312.787	248.06
313.017	242.06
313.246	256.06
313.476	235.06
313.706	258.06
313.935	241.06
314.165	244.06
314.394	243.06
314.624	237.06
314.853	241.06
315.083	234.06
315.312	256.06
315.542	237.06
315.771	228.06
316.001	258.06
316.23	263.06
316.46	223.06
316.689	244.06
316.919	245.06
317.148	247.06
317.377	248.06
317.607	224.06
317.836	230.06
318.065	243.06
318.295	233.06
318.524	240.06
318.753	244.06
318.983	264.06
319.212	248.06
319.441	241.06
319.67	263.06
319.9	254.06
320.129	224.06
320.358	230.06
320.587	226.06
320.816	247.06
321.046	249.06
321.275	237.06
321.504	227.06
321.733	258.06
321.962	231.06
322.191	233.06
322.42	248.06
322.649	245.06
322.878	244.06
323.108	233.06
323.337	228.06
323.566	262.06
323.795	242.06
324.024	245.06
324.253	235.06
324.482	257.06
324.71	249.06
324.939	259.06
325.168	267.06
325.397	261.06
325.626	247.06
325.855	247.06
326.084	247.06
326.313	270.06
326.542	252.06
326.77	265.06
326.999	270.06
327.228	286.06
327.457	276.06
327.686	276.06
327.914	256.06
328.143	258.06
328.372	258.06
328.6	266.06
328.829	254.06
329.058	256.06
329.287	292.06
329.515	262.06
329.744	269.06
329.972	262.06
330.201	264.06
330.43	270.06
330.658	258.06
330.887	276.06
331.115	292.06
331.344	290.06
331.572	284.06
331.801	279.06
332.03	296.06
332.258	293.06
332.486	296.06
332.715	300.06
332.943	320.06
333.172	318.06
333.4	333.06
333.629	326.06
333.857	337.06
334.085	337.06
334.314	346.06
334.542	344.06
334.771	318.06
334.999	321.06
335.227	340.06
335.455	292.06
335.684	314.06
335.912	298.06
336.14	312.06
336.369	311.06
336.597	329.06
336.825	335.06
337.053	306.06
337.281	293.06
337.51	290.06
337.738	316.06
337.966	300.06
338.194	297.06
338.422	281.06
338.65	298.06
338.878	294.06
339.106	298.06
339.334	295.06
339.562	282.06
339.79	286.06
340.018	263.06
340.246	262.06
340.474	286.06
340.702	277.06
340.93	296.06
341.158	289.06
341.386	278.06
341.614	281.06
341.842	276.06
342.07	273.06
342.298	282.06
342.526	273.06
342.754	268.06
342.981	277.06
343.209	278.06
343.437	301.06
343.665	307.06
343.893	313.06
344.12	328.06
344.348	325.06
344.576	305.06
344.804	298.06
345.031	296.06
345.259	275.06
345.487	276.06
345.714	273.06
345.942	278.06
346.17	286.06
346.397	266.06
346.625	273.06
346.853	291.06
347.08	274.06
347.308	284.06
347.535	281.06
347.763	271.06
347.99	260.06
348.218	267.06
348.445	276.06
348.673	263.06
348.9	277.06
349.128	272.06
349.355	270.06
349.583	262.06
349.81	263.06
350.037	261.06
350.265	261.06
350.492	265.06
350.72	265.06
350.947	258.06
351.174	281.06
351.402	260.06
351.629	266.06
351.856	256.06
352.083	254.06
352.311	273.06
352.538	276.06
352.765	236.06
352.992	278.06
353.22	247.06
353.447	264.06
353.674	256.06
353.901	245.06
354.128	260.06
354.355	243.06
354.583	253.06
354.81	242.06
355.037	253.06
355.264	265.06
355.491	268.06
355.718	261.06
355.945	277.06
356.172	268.06
356.399	278.06
356.626	277.06
356.853	276.06
357.08	266.06
357.307	283.06
357.534	293.06
357.761	270.06
357.988	263.06
358.215	261.06
358.441	263.06
358.668	258.06
358.895	259.06
359.122	257.06
359.349	262.06
359.576	267.06
359.802	271.06
360.029	268.06
360.256	261.06
360.483	279.06
360.709	277.06
360.936	269.06
361.163	276.06
361.39	265.06
361.616	263.06
361.843	253.06
362.07	271.06
362.296	268.06
362.523	260.06
362.749	273.06
362.976	270.06
363.203	252.06
363.429	252.06
363.656	269.06
363.882	267.06
364.109	285.06
364.335	274.06
364.562	257.06
364.788	261.06
365.015	261.06
365.241	279.06
365.468	270.06
365.694	280.06
365.92	244.06
366.147	267.06
366.373	276.06
366.599	269.06
366.826	256.06
367.052	283.06
367.278	274.06
367.505	280.06
367.731	271.06
367.957	269.06
368.184	278.06
368.41	266.06
368.636	287.06
368.862	274.06
369.089	273.06
369.315	284.06
369.541	292.06
369.767	281.06
369.993	293.06
370.219	282.06
370.445	283.06
370.672	297.06
370.898	279.06
371.124	281.06
371.35	282.06
371.576	291.06
371.802	278.06
372.028	279.06
372.254	294.06
372.48	304.06
372.706	294.06
372.932	311.06
373.158	306.06
373.384	294.06
373.61	293.06
373.835	299.06
374.061	296.06
374.287	280.06
374.513	306.06
374.739	304.06
374.965	308.06
375.191	332.06
375.416	318.06
375.642	317.06
375.868	327.06
376.094	306.06
376.319	304.06
376.545	309.06
376.771	292.06
376.997	281.06
377.222	285.06
377.448	297.06
377.674	305.06
377.899	315.06
378.125	300.06
378.35	306.06
378.576	293.06
378.802	297.06
379.027	288.06
379.253	284.06
379.478	278.06
379.704	301.06
379.929	284.06
380.155	272.06
380.38	290.06
380.606	286.06
380.831	308.06
381.057	308.06
381.282	289.06
381.507	296.06
381.733	289.06
381.958	302.06
382.184	323.06
382.409	312.06
382.634	309.06
382.86	331.06
383.085	318.06
383.31	297.06
383.535	312.06
383.761	325.06
383.986	312.06
384.211	318.06
384.436	336.06
384.662	340.06
384.887	340.06
385.112	331.06
385.337	337.06
385.562	342.06
385.787	349.06
386.013	344.06
386.238	363.06
386.463	332.06
386.688	346.06
386.913	333.06
387.138	326.06
387.363	348.06
387.588	333.06
387.813	339.06
388.038	349.06
388.263	356.06
388.488	351.06
388.713	355.06
388.938	334.06
389.163	362.06
389.387	341.06
389.612	331.06
389.837	325.06
390.062	332.06
390.287	341.06
390.512	338.06
390.736	358.06
390.961	346.06
391.186	368.06
391.411	370.06
391.636	358.06
391.86	395.06
392.085	388.06
392.31	395.06
392.534	373.06
392.759	364.06
392.984	359.06
393.208	370.06
393.433	355.06
393.658	376.06
393.882	365.06
394.107	366.06
394.331	372.06
394.556	388.06
394.78	368.06
395.005	350.06
395.229	384.06
395.454	390.06
395.678	350.06
395.903	388.06
396.127	388.06
396.352	382.06
396.576	370.06
396.801	353.06
397.025	379.06
397.249	376.06
397.474	390.06
397.698	377.06
397.922	388.06
398.147	390.06
398.371	392.06
398.595	405.06
398.82	434.06
399.044	434.06
399.268	477.06
399.492	532.06
399.717	570.06
399.941	569.06
400.165	546.06
400.389	491.06
400.613	458.06
400.837	427.06
401.062	440.06
401.286	447.06
401.51	413.06
401.734	417.06
401.958	424.06
402.182	441.06
402.406	430.06
402.63	454.06
402.854	451.06
403.078	443.06
403.302	439.06
403.526	449.06
403.75	471.06
403.974	471.06
404.198	469.06
404.422	480.06
404.645	447.06
404.869	456.06
405.093	460.06
405.317	453.06
405.541	460.06
405.765	456.06
405.988	451.06
406.212	467.06
406.436	472.06
406.66	442.06
406.883	497.06
407.107	515.06
407.331	522.06
407.555	529.06
407.778	528.06
408.002	546.06
408.226	499.06
408.449	474.06
408.673	488.06
408.896	474.06
409.12	467.06
409.344	488.06
409.567	482.06
409.791	461.06
410.014	478.06
410.238	475.06
410.461	481.06
410.685	468.06
410.908	474.06
411.132	458.06
411.355	465.06
411.578	461.06
411.802	461.06
412.025	473.06
412.249	451.06
412.472	430.06
412.695	460.06
412.919	429.06
413.142	436.06
413.365	444.06
413.589	443.06
413.812	425.06
414.035	433.06
414.258	424.06
414.482	441.06
414.705	450.06
414.928	454.06
415.151	453.06
415.374	426.06
415.597	420.06
415.821	424.06
416.044	445.06
416.267	436.06
416.49	433.06
416.713	433.06
416.936	428.06
417.159	440.06
417.382	438.06
417.605	426.06
417.828	450.06
418.051	426.06
418.274	444.06
418.497	422.06
418.72	450.06
418.943	455.06
419.166	469.06
419.389	462.06
419.611	471.06
419.834	457.06
420.057	442.06
420.28	459.06
420.503	418.06
420.726	420.06
420.948	402.06
421.171	425.06
421.394	434.06
421.617	432.06
421.839	429.06
422.062	429.06
422.285	434.06
422.507	436.06
422.73	429.06
422.953	447.06
423.175	442.06
423.398	426.06
423.621	423.06
423.843	429.06
424.066	420.06
424.288	456.06
424.511	438.06
424.733	448.06
424.956	451.06
425.178	424.06
425.401	440.06
425.623	434.06
425.846	449.06
426.068	413.06
426.291	406.06
426.513	429.06
426.735	422.06
426.958	414.06
427.18	406.06
427.402	397.06
427.625	402.06
427.847	402.06
428.069	409.06
428.292	386.06
428.514	398.06
428.736	402.06
428.958	388.06
429.181	404.06
429.403	379.06
429.625	401.06
429.847	397.06
430.069	388.06
430.292	389.06
430.514	379.06
430.736	391.06
430.958	398.06
431.18	385.06
431.402	401.06
431.624	395.06
431.846	418.06
432.068	392.06
432.29	412.06
432.512	429.06
432.734	423.06
432.956	404.06
433.178	408.06
433.4	413.06
433.622	393.06
433.844	423.06
434.066	383.06
434.287	409.06
434.509	399.06
434.731	435.06
434.953	421.06
435.175	443.06
435.397	436.06
435.618	406.06
435.84	420.06
436.062	405.06
436.284	410.06
436.505	390.06
436.727	386.06
436.949	384.06
437.17	396.06
437.392	381.06
437.614	398.06
437.835	387.06
438.057	400.06
438.278	397.06
438.5	387.06
438.721	389.06
438.943	395.06
439.165	404.06
439.386	390.06
439.608	419.06
439.829	416.06
440.05	404.06
440.272	396.06
440.493	419.06
440.715	414.06
440.936	445.06
441.158	434.06
441.379	425.06
441.6	462.06
441.822	437.06
442.043	471.06
442.264	433.06
442.486	428.06
442.707	444.06
442.928	428.06
443.149	437.06
443.371	428.06
443.592	440.06
443.813	456.06
444.034	444.06
444.255	456.06
444.476	480.06
444.698	502.06
444.919	524.06
445.14	599.06
445.361	522.06
445.582	467.06
445.803	454.06
446.024	435.06
446.245	425.06
446.466	450.06
446.687	406.06
446.908	422.06
447.129	403.06
447.35	392.06
447.571	409.06
447.792	389.06
448.013	389.06
448.234	369.06
448.455	389.06
448.675	387.06
448.896	399.06
449.117	376.06
449.338	362.06
449.559	376.06
449.779	372.06
450	388.06
450.221	373.06
450.442	394.06
450.662	385.06
450.883	371.06
451.104	399.06
451.324	396.06
451.545	401.06
451.766	385.06
451.986	410.06
452.207	359.06
452.428	382.06
452.648	390.06
452.869	381.06
453.089	378.06
453.31	380.06
453.53	379.06
453.751	359.06
453.971	358.06
454.192	352.06
454.412	374.06
454.633	370.06
454.853	377.06
455.073	363.06
455.294	372.06
455.514	357.06
455.734	354.06
455.955	364.06
456.175	345.06
456.395	342.06
456.616	352.06
456.836	360.06
457.056	342.06
457.276	349.06
457.497	338.06
457.717	347.06
457.937	359.06
458.157	356.06
458.377	345.06
458.598	369.06
458.818	373.06
459.038	373.06
459.258	375.06
459.478	407.06
459.698	409.06
459.918	398.06
460.138	414.06
460.358	441.06
460.578	458.06
460.798	466.06
461.018	448.06
461.238	472.06
461.458	449.06
461.678	436.06
461.898	462.06
462.118	466.06
462.338	488.06
462.558	498.06
462.777	500.06
462.997	533.06
463.217	574.06
463.437	570.06
463.657	513.06
463.876	514.06
464.096	536.06
464.316	521.06
464.536	512.06
464.755	487.06
464.975	481.06
465.195	460.06
465.414	459.06
465.634	428.06
465.854	423.06
466.073	408.06
466.293	412.06
466.512	397.06
466.732	411.06
466.951	420.06
467.171	387.06
467.391	402.06
467.61	389.06
467.829	374.06
468.049	381.06
468.268	372.06
468.488	377.06
468.707	381.06
468.927	370.06
469.146	386.06
469.365	379.06
469.585	384.06
469.804	405.06
470.023	383.06
470.243	414.06
470.462	380.06
470.681	385.06
470.901	386.06
471.12	400.06
471.339	388.06
471.558	387.06
471.777	372.06
471.997	374.06
472.216	381.06
472.435	369.06
472.654	373.06
472.873	356.06
473.092	362.06
473.311	353.06
473.53	356.06
473.749	345.06
473.968	369.06
474.187	363.06
474.406	349.06
474.625	359.06
474.844	370.06
475.063	358.06
475.282	378.06
475.501	376.06
475.72	370.06
475.939	378.06
476.158	372.06
476.377	380.06
476.596	370.06
476.814	378.06
477.033	387.06
477.252	374.06
477.471	374.06
477.69	383.06
477.908	405.06
478.127	408.06
478.346	437.06
478.564	442.06
478.783	418.06
479.002	427.06
479.22	444.06
479.439	449.06
479.658	415.06
479.876	448.06
480.095	443.06
480.313	454.06
480.532	437.06
480.751	450.06
480.969	432.06
481.188	417.06
481.406	417.06
481.624	405.06
481.843	390.06
482.061	402.06
482.28	401.06
482.498	397.06
482.717	395.06
482.935	409.06
483.153	399.06
483.372	393.06
483.59	402.06
483.808	404.06
484.027	390.06
484.245	413.06
484.463	429.06
484.681	429.06
484.9	430.06
485.118	407.06
485.336	413.06
485.554	419.06
485.772	420.06
485.99	423.06
486.209	432.06
486.427	420.06
486.645	388.06
486.863	414.06
487.081	421.06
487.299	419.06
487.517	429.06
487.735	426.06
487.953	432.06
488.171	452.06
488.389	416.06
488.607	423.06
488.825	415.06
489.043	389.06
489.261	422.06
489.479	403.06
489.696	411.06
489.914	407.06
490.132	413.06
490.35	420.06
490.568	410.06
490.786	403.06
491.003	420.06
491.221	422.06
491.439	435.06
491.657	433.06
491.874	438.06
492.092	454.06
492.31	433.06
492.527	442.06
492.745	443.06
492.963	427.06
493.18	454.06
493.398	417.06
493.615	451.06
493.833	436.06
494.05	456.06
494.268	461.06
494.485	424.06
494.703	432.06
494.92	456.06
495.138	442.06
495.355	438.06
495.573	452.06
495.79	449.06
496.008	461.06
496.225	440.06
496.442	461.06
496.66	451.06
496.877	460.06
497.094	462.06
497.312	477.06
497.529	490.06
497.746	487.06
497.963	501.06
498.181	538.06
498.398	562.06
498.615	589.06
498.832	605.06
499.049	634.06
499.267	671.06
499.484	725.06
499.701	806.06
499.918	858.06
500.135	950.06
500.352	1047.06
500.569	1052.06
500.786	1114.06
501.003	1028.06
501.22	935.06
501.437	852.06
501.654	784.06
501.871	709.06
502.088	666.06
502.305	634.06
502.522	620.06
502.739	585.06
502.956	556.06
503.172	547.06
503.389	521.06
503.606	500.06
503.823	501.06
504.04	496.06
504.256	499.06
504.473	497.06
504.69	506.06
504.907	510.06
505.123	468.06
505.34	468.06
505.557	453.06
505.773	428.06
505.99	441.06
506.207	408.06
506.423	405.06
506.64	378.06
506.856	380.06
507.073	393.06
507.289	408.06
507.506	390.06
507.722	413.06
507.939	390.06
508.155	381.06
508.372	364.06
508.588	378.06
508.805	396.06
509.021	375.06
509.238	363.06
509.454	372.06
509.67	365.06
509.887	350.06
510.103	353.06
510.319	358.06
510.536	377.06
510.752	360.06
510.968	350.06
511.184	352.06
511.401	372.06
511.617	373.06
511.833	376.06
512.049	361.06
512.265	356.06
512.481	364.06
512.698	361.06
512.914	371.06
513.13	374.06
513.346	360.06
513.562	376.06
513.778	365.06
513.994	357.06
514.21	378.06
514.426	384.06
514.642	370.06
514.858	360.06
515.074	357.06
515.29	378.06
515.506	358.06
515.721	365.06
515.937	391.06
516.153	398.06
516.369	399.06
516.585	419.06
516.801	420.06
517.016	436.06
517.232	440.06
517.448	451.06
517.664	458.06
517.879	470.06
518.095	460.06
518.311	484.06
518.527	462.06
518.742	448.06
518.958	421.06
519.173	402.06
519.389	394.06
519.605	394.06
519.82	385.06
520.036	382.06
520.251	370.06
520.467	376.06
520.682	356.06
520.898	358.06
521.113	373.06
521.329	361.06
521.544	335.06
521.76	342.06
521.975	372.06
522.19	353.06
522.406	340.06
522.621	334.06
522.836	337.06
523.052	349.06
523.267	338.06
523.482	332.06
523.698	330.06
523.913	325.06
524.128	342.06
524.343	333.06
524.559	332.06
524.774	337.06
524.989	327.06
525.204	318.06
525.419	332.06
525.634	323.06
525.849	342.06
526.064	333.06
526.28	321.06
526.495	325.06
526.71	328.06
526.925	336.06
527.14	298.06
527.355	308.06
527.57	326.06
527.785	327.06
527.999	320.06
528.214	328.06
528.429	338.06
528.644	329.06
528.859	310.06
529.074	330.06
529.289	317.06
529.503	333.06
529.718	331.06
529.933	318.06
530.148	329.06
530.363	329.06
530.577	325.06
530.792	312.06
531.007	305.06
531.221	322.06
531.436	320.06
531.651	328.06
531.865	325.06
532.08	337.06
532.295	322.06
532.509	336.06
532.724	339.06
532.938	307.06
533.153	338.06
533.367	332.06
533.582	336.06
533.796	342.06
534.011	345.06
534.225	317.06
534.44	322.06
534.654	328.06
534.868	331.06
535.083	316.06
535.297	315.06
535.511	322.06
535.726	308.06
535.94	321.06
536.154	317.06
536.369	336.06
536.583	314.06
536.797	312.06
537.011	319.06
537.225	304.06
537.44	294.06
537.654	302.06
537.868	305.06
538.082	300.06
538.296	304.06
538.51	302.06
538.724	308.06
538.938	318.06
539.153	292.06
539.367	319.06
539.581	312.06
539.795	304.06
540.009	275.06
540.222	306.06
540.436	312.06
540.65	304.06
540.864	310.06
541.078	294.06
541.292	324.06
541.506	288.06
541.72	307.06
541.934	308.06
542.147	301.06
542.361	304.06
542.575	305.06
542.789	292.06
543.002	285.06
543.216	295.06
543.43	298.06
543.644	285.06
543.857	310.06
544.071	294.06
544.285	296.06
544.498	297.06
544.712	321.06
544.925	322.06
545.139	313.06
545.352	302.06
545.566	322.06
545.779	321.06
545.993	322.06
546.206	321.06
546.42	313.06
546.633	325.06
546.847	296.06
547.06	320.06
547.274	295.06
547.487	291.06
547.7	327.06
547.914	300.06
548.127	300.06
548.34	324.06
548.554	310.06
548.767	300.06
548.98	290.06
549.193	303.06
549.407	322.06
549.62	316.06
549.833	340.06
550.046	311.06
550.259	313.06
550.473	297.06
550.686	315.06
550.899	319.06
551.112	305.06
551.325	302.06
551.538	310.06
551.751	304.06
551.964	297.06
552.177	312.06
552.39	302.06
552.603	316.06
552.816	311.06
553.029	322.06
553.242	333.06
553.455	349.06
553.667	344.06
553.88	320.06
554.093	310.06
554.306	334.06
554.519	317.06
554.732	308.06
554.944	310.06
555.157	293.06
555.37	294.06
555.583	286.06
555.795	278.06
556.008	288.06
556.221	310.06
556.433	297.06
556.646	281.06
556.859	289.06
557.071	291.06
557.284	287.06
557.496	283.06
557.709	277.06
557.921	276.06
558.134	271.06
558.346	270.06
558.559	276.06
558.771	277.06
558.984	253.06
559.196	278.06
559.409	268.06
559.621	277.06
559.833	273.06
560.046	261.06
560.258	261.06
560.47	261.06
560.683	263.06
560.895	256.06
561.107	251.06
561.32	260.06
561.532	261.06
561.744	284.06
561.956	271.06
562.168	265.06
562.381	269.06
562.593	263.06
562.805	247.06
563.017	266.06
563.229	277.06
563.441	269.06
563.653	272.06
563.865	263.06
564.077	289.06
564.289	278.06
564.501	282.06
564.713	287.06
564.925	277.06
565.137	300.06
565.349	300.06
565.561	295.06
565.773	304.06
565.985	310.06
566.197	330.06
566.408	353.06
566.62	351.06
566.832	373.06
567.044	398.06
567.255	397.06
567.467	381.06
567.679	412.06
567.891	433.06
568.102	432.06
568.314	417.06
568.526	376.06
568.737	373.06
568.949	329.06
569.161	321.06
569.372	300.06
569.584	276.06
569.795	280.06
570.007	262.06
570.218	283.06
570.43	266.06
570.641	268.06
570.853	275.06
571.064	271.06
571.276	264.06
571.487	282.06
571.698	267.06
571.91	263.06
572.121	236.06
572.333	236.06
572.544	252.06
572.755	229.06
572.966	232.06
573.178	247.06
573.389	244.06
573.6	239.06
573.811	226.06
574.023	236.06
574.234	234.06
574.445	228.06
574.656	224.06
574.867	221.06
575.078	211.06
575.289	220.06
575.501	233.06
575.712	217.06
575.923	217.06
576.134	228.06
576.345	217.06
576.556	237.06
576.767	206.06
576.978	227.06
577.188	230.06
577.399	216.06
577.61	205.06
577.821	211.06
578.032	212.06
578.243	221.06
578.454	200.06
578.665	199.06
578.875	211.06
579.086	204.06
579.297	216.06
579.508	193.06
579.718	195.06
579.929	213.06
580.14	210.06
580.35	203.06
580.561	202.06
580.772	202.06
580.982	208.06
581.193	204.06
581.403	184.06
581.614	182.06
581.825	206.06
582.035	199.06
582.246	222.06
582.456	198.06
582.667	184.06
582.877	190.06
583.087	192.06
583.298	194.06
583.508	185.06
583.719	205.06
583.929	214.06
584.139	194.06
584.35	206.06
584.56	207.06
584.77	197.06
584.981	192.06
585.191	203.06
585.401	200.06
585.611	181.06
585.821	194.06
586.032	198.06
586.242	201.06
586.452	190.06
586.662	177.06
586.872	193.06
587.082	207.06
587.292	185.06
587.502	185.06
587.713	213.06
587.923	192.06
588.133	196.06
588.343	200.06
588.553	190.06
588.762	187.06
588.972	185.06
589.182	190.06
589.392	200.06
589.602	193.06
589.812	184.06
590.022	196.06
590.232	198.06
590.441	193.06
590.651	179.06
590.861	186.06
591.071	188.06
591.281	206.06
591.49	193.06
591.7	200.06
591.91	211.06
592.119	205.06
592.329	203.06
592.539	204.06
592.748	227.06
592.958	219.06
593.167	236.06
593.377	203.06
593.587	229.06
593.796	218.06
594.006	223.06
594.215	230.06
594.424	213.06
594.634	211.06
594.843	222.06
595.053	227.06
595.262	194.06
595.472	212.06
595.681	196.06
595.89	194.06
596.1	186.06
596.309	196.06
596.518	182.06
596.727	193.06
596.937	190.06
597.146	172.06
597.355	181.06
597.564	186.06
597.774	179.06
597.983	166.06
598.192	178.06
598.401	182.06
598.61	192.06
598.819	177.06
599.028	179.06
599.237	160.06
599.446	172.06
599.655	176.06
599.864	167.06
600.073	160.06
600.282	163.06
600.491	179.06
600.7	186.06
600.909	171.06
601.118	178.06
601.327	160.06
601.536	161.06
601.745	168.06
601.953	177.06
602.162	176.06
602.371	165.06
602.58	167.06
602.789	170.06
602.997	170.06
603.206	182.06
603.415	151.06
603.623	178.06
603.832	160.06
604.041	166.06
604.249	148.06
604.458	170.06
604.666	177.06
604.875	168.06
605.084	187.06
605.292	165.06
605.501	143.06
605.709	182.06
605.918	172.06
606.126	183.06
606.334	156.06
606.543	160.06
606.751	160.06
606.96	165.06
607.168	164.06
607.376	166.06
607.585	152.06
607.793	164.06
608.001	144.06
608.21	158.06
608.418	167.06
608.626	158.06
608.834	157.06
609.043	140.06
609.251	152.06
609.459	144.06
609.667	160.06
609.875	142.06
610.083	170.06
610.291	157.06
610.499	158.06
610.707	142.06
610.916	160.06
611.124	157.06
611.332	151.06
611.54	155.06
611.748	167.06
611.955	164.06
612.163	148.06
612.371	149.06
612.579	157.06
612.787	163.06
612.995	170.06
613.203	156.06
613.411	162.06
613.618	152.06
613.826	165.06
614.034	156.06
614.242	148.06
614.449	156.06
614.657	157.06
614.865	168.06
615.072	158.06
615.28	166.06
615.488	152.06
615.695	143.06
615.903	155.06
616.111	169.06
616.318	151.06
616.526	153.06
616.733	165.06
616.941	171.06
617.148	148.06
617.356	150.06
617.563	172.06
617.771	155.06
617.978	157.06
618.185	162.06
618.393	149.06
618.6	163.06
618.807	165.06
619.015	185.06
619.222	157.06
619.429	161.06
619.637	158.06
619.844	144.06
620.051	159.06
620.258	143.06
620.466	146.06
620.673	147.06
620.88	143.06
621.087	158.06
621.294	151.06
621.501	148.06
621.708	163.06
621.915	156.06
622.122	137.06
622.329	167.06
622.536	161.06
622.743	146.06
622.95	136.06
623.157	138.06
623.364	137.06
623.571	144.06
623.778	158.06
623.985	154.06
624.192	157.06
624.399	129.06
624.606	140.06
624.812	131.06
625.019	138.06
625.226	132.06
625.433	141.06
625.639	136.06
625.846	133.06
626.053	158.06
626.259	143.06
626.466	142.06
626.673	139.06
626.879	144.06
627.086	142.06
627.293	138.06
627.499	140.06
627.706	154.06
627.912	146.06
628.119	143.06
628.325	149.06
628.532	128.06
628.738	150.06
628.945	144.06
629.151	139.06
629.357	140.06
629.564	149.06
629.77	133.06
629.976	137.06
630.183	133.06
630.389	133.06
630.595	122.06
630.802	132.06
631.008	143.06
631.214	134.06
631.42	145.06
631.627	151.06
631.833	137.06
632.039	131.06
632.245	139.06
632.451	137.06
632.657	130.06
632.863	121.06
633.069	138.06
633.275	142.06
633.481	131.06
633.688	134.06
633.893	134.06
634.099	126.06
634.305	128.06
634.511	129.06
634.717	141.06
634.923	142.06
635.129	129.06
635.335	132.06
635.541	123.06
635.747	135.06
635.952	129.06
636.158	140.06
636.364	138.06
636.57	121.06
636.775	136.06
636.981	131.06
637.187	122.06
637.392	126.06
637.598	130.06
637.804	136.06
638.009	142.06
638.215	124.06
638.421	128.06
638.626	128.06
638.832	118.06
639.037	113.06
639.243	131.06
639.448	125.06
639.654	122.06
639.859	129.06
640.065	137.06
640.27	136.06
640.475	141.06
640.681	142.06
640.886	130.06
641.091	120.06
641.297	134.06
641.502	125.06
641.707	120.06
641.913	119.06
642.118	111.06
642.323	120.06
642.528	137.06
642.733	131.06
642.939	118.06
643.144	121.06
643.349	123.06
643.554	128.06
643.759	115.06
643.964	128.06
644.169	120.06
644.374	121.06
644.579	116.06
644.784	122.06
644.989	126.06
645.194	134.06
645.399	133.06
645.604	114.06
645.809	121.06
646.014	123.06
646.219	128.06
646.423	129.06
646.628	123.06
646.833	108.06
647.038	112.06
647.243	112.06
647.447	133.06
647.652	117.06
647.857	131.06
648.062	122.06
648.266	124.06
648.471	124.06
648.676	137.06
648.88	135.06
649.085	127.06
649.289	133.06
649.494	131.06
649.698	118.06
649.903	118.06
650.107	121.06
650.312	123.06
650.516	122.06
650.721	108.06
650.925	120.06
651.13	113.06
651.334	124.06
651.539	124.06
651.743	124.06
651.947	125.06
652.152	116.06
652.356	111.06
652.56	117.06
652.764	96.06
652.969	118.06
653.173	121.06
653.377	115.06
653.581	109.06
653.785	117.06
653.99	118.06
654.194	120.06
654.398	116.06
654.602	109.06
654.806	114.06
655.01	108.06
655.214	125.06
655.418	113.06
655.622	108.06
655.826	104.06
656.03	114.06
656.234	101.06
656.438	118.06
656.642	118.06
656.846	92.06
657.049	114.06
657.253	120.06
657.457	109.06
657.661	108.06
657.865	110.06
658.068	100.06
658.272	103.06
658.476	96.06
658.68	96.06
658.883	114.06
659.087	97.06
659.291	91.06
659.494	80.06
659.698	86.06
659.901	96.06
660.105	105.06
660.309	106.06
660.512	91.06
660.716	85.06
660.919	92.06
661.123	97.06
661.326	80.06
661.53	86.06
661.733	94.06
661.936	81.06
662.14	86.06
662.343	106.06
662.546	87.06
662.75	92.06
662.953	90.06
663.156	91.06
663.36	74.06
663.563	80.06
663.766	89.06
663.969	94.06
664.173	81.06
664.376	85.06
664.579	82.06
664.782	73.06
664.985	76.06
665.188	76.06
665.391	86.06
665.594	73.06
665.797	82.06
666	76.06
666.203	76.06
666.406	83.06
666.609	96.06
666.812	78.06
667.015	75.06
667.218	85.06
667.421	89.06
667.624	90.06
667.827	84.06
668.03	88.06
668.232	81.06
668.435	84.06
668.638	73.06
668.841	84.06
669.043	82.06
669.246	63.06
669.449	68.06
669.651	93.06
669.854	68.06
670.057	88.06
670.259	81.06
670.462	68.06
670.665	78.06
670.867	78.06
671.07	87.06
671.272	82.06
671.475	90.06
671.677	94.06
671.88	83.06
672.082	85.06
672.284	69.06
672.487	99.06
672.689	85.06
672.892	76.06
