Data from Fe(NO3)3@0.05M.TitratingCurve.Agarose3%dH2O.NegLispCup.LampEnergy10.LIBS07252019_HRD10591_16-46-43-334.txt Node
Date: Thu Jul 25 16:46:43 EDT 2019
User: cochatt
Spectrometer: HR+D1059
Trigger mode: 1
Integration Time (sec): 1.000000E-1
Scans to average: 1
Electric dark correction enabled: true
Nonlinearity correction enabled: false
Boxcar width: 0
XAxis mode: Wavelengths
Number of Pixels in Spectrum: 2048
>>>>>Begin Spectral Data<<<<<
223.165	-23.19
223.4	-23.19
223.635	-23.19
223.869	-19.19
224.104	-23.19
224.338	-8.19
224.573	-7.19
224.808	-18.19
225.042	-9.19
225.277	-10.19
225.511	-3.19
225.746	0.81
225.98	7.81
226.215	10.81
226.449	18.81
226.683	18.81
226.918	28.81
227.152	35.81
227.387	44.81
227.621	43.81
227.856	44.81
228.09	44.81
228.324	46.81
228.559	61.81
228.793	69.81
229.027	122.81
229.262	124.81
229.496	126.81
229.73	129.81
229.964	130.81
230.199	147.81
230.433	138.81
230.667	151.81
230.901	156.81
231.136	152.81
231.37	145.81
231.604	152.81
231.838	154.81
232.072	160.81
232.306	155.81
232.541	146.81
232.775	166.81
233.009	177.81
233.243	165.81
233.477	153.81
233.711	186.81
233.945	164.81
234.179	176.81
234.413	172.81
234.647	169.81
234.881	184.81
235.115	178.81
235.349	178.81
235.583	171.81
235.817	163.81
236.051	183.81
236.285	182.81
236.519	180.81
236.753	197.81
236.987	190.81
237.221	183.81
237.455	183.81
237.689	206.81
237.922	194.81
238.156	183.81
238.39	191.81
238.624	237.81
238.858	216.81
239.091	194.81
239.325	207.81
239.559	205.81
239.793	214.81
240.027	221.81
240.26	213.81
240.494	230.81
240.728	230.81
240.961	234.81
241.195	218.81
241.429	232.81
241.662	227.81
241.896	207.81
242.13	220.81
242.363	220.81
242.597	232.81
242.83	228.81
243.064	229.81
243.298	250.81
243.531	237.81
243.765	228.81
243.998	236.81
244.232	241.81
244.465	256.81
244.699	242.81
244.932	261.81
245.166	250.81
245.399	248.81
245.633	243.81
245.866	258.81
246.099	252.81
246.333	249.81
246.566	269.81
246.8	245.81
247.033	275.81
247.266	263.81
247.5	260.81
247.733	272.81
247.966	256.81
248.2	286.81
248.433	292.81
248.666	265.81
248.899	281.81
249.133	280.81
249.366	288.81
249.599	300.81
249.832	301.81
250.066	283.81
250.299	308.81
250.532	310.81
250.765	294.81
250.998	290.81
251.231	297.81
251.465	283.81
251.698	296.81
251.931	308.81
252.164	304.81
252.397	325.81
252.63	336.81
252.863	319.81
253.096	320.81
253.329	337.81
253.562	322.81
253.795	335.81
254.028	360.81
254.261	347.81
254.494	341.81
254.727	330.81
254.96	333.81
255.193	328.81
255.426	341.81
255.659	342.81
255.892	337.81
256.124	331.81
256.357	358.81
256.59	350.81
256.823	344.81
257.056	347.81
257.289	348.81
257.521	341.81
257.754	319.81
257.987	349.81
258.22	361.81
258.452	341.81
258.685	364.81
258.918	379.81
259.151	376.81
259.383	378.81
259.616	347.81
259.849	392.81
260.081	421.81
260.314	452.81
260.547	394.81
260.779	398.81
261.012	402.81
261.244	406.81
261.477	416.81
261.71	426.81
261.942	394.81
262.175	386.81
262.407	382.81
262.64	385.81
262.872	410.81
263.105	417.81
263.337	412.81
263.57	426.81
263.802	408.81
264.035	382.81
264.267	388.81
264.499	376.81
264.732	394.81
264.964	396.81
265.197	398.81
265.429	396.81
265.661	387.81
265.894	397.81
266.126	405.81
266.358	414.81
266.591	423.81
266.823	429.81
267.055	410.81
267.287	420.81
267.52	427.81
267.752	412.81
267.984	408.81
268.216	424.81
268.448	419.81
268.681	451.81
268.913	433.81
269.145	438.81
269.377	429.81
269.609	440.81
269.841	448.81
270.073	423.81
270.306	424.81
270.538	457.81
270.77	439.81
271.002	432.81
271.234	430.81
271.466	443.81
271.698	458.81
271.93	468.81
272.162	448.81
272.394	448.81
272.626	468.81
272.858	463.81
273.09	461.81
273.322	470.81
273.553	478.81
273.785	492.81
274.017	515.81
274.249	566.81
274.481	548.81
274.713	554.81
274.945	608.81
275.176	587.81
275.408	557.81
275.64	566.81
275.872	540.81
276.104	502.81
276.335	498.81
276.567	490.81
276.799	514.81
277.031	520.81
277.262	486.81
277.494	498.81
277.726	475.81
277.957	481.81
278.189	521.81
278.421	524.81
278.652	525.81
278.884	522.81
279.115	514.81
279.347	515.81
279.579	536.81
279.81	512.81
280.042	522.81
280.273	517.81
280.505	523.81
280.736	516.81
280.968	515.81
281.199	520.81
281.431	509.81
281.662	523.81
281.894	528.81
282.125	530.81
282.356	542.81
282.588	541.81
282.819	540.81
283.051	550.81
283.282	554.81
283.513	559.81
283.745	564.81
283.976	545.81
284.207	568.81
284.439	552.81
284.67	573.81
284.901	562.81
285.132	552.81
285.364	564.81
285.595	580.81
285.826	551.81
286.057	557.81
286.288	575.81
286.52	576.81
286.751	575.81
286.982	591.81
287.213	565.81
287.444	580.81
287.675	576.81
287.906	586.81
288.138	571.81
288.369	568.81
288.6	590.81
288.831	589.81
289.062	588.81
289.293	591.81
289.524	607.81
289.755	611.81
289.986	590.81
290.217	598.81
290.448	586.81
290.679	586.81
290.91	583.81
291.141	585.81
291.371	587.81
291.602	600.81
291.833	570.81
292.064	591.81
292.295	589.81
292.526	581.81
292.757	577.81
292.987	581.81
293.218	586.81
293.449	600.81
293.68	586.81
293.91	605.81
294.141	598.81
294.372	594.81
294.603	600.81
294.833	617.81
295.064	598.81
295.295	605.81
295.525	610.81
295.756	614.81
295.987	611.81
296.217	620.81
296.448	621.81
296.679	604.81
296.909	615.81
297.14	629.81
297.37	654.81
297.601	637.81
297.831	615.81
298.062	666.81
298.292	637.81
298.523	640.81
298.753	673.81
298.984	650.81
299.214	644.81
299.445	654.81
299.675	653.81
299.905	653.81
300.136	644.81
300.366	668.81
300.597	647.81
300.827	661.81
301.057	666.81
301.288	679.81
301.518	669.81
301.748	697.81
301.979	705.81
302.209	692.81
302.439	685.81
302.669	693.81
302.9	690.81
303.13	669.81
303.36	653.81
303.59	678.81
303.82	683.81
304.051	689.81
304.281	703.81
304.511	697.81
304.741	682.81
304.971	701.81
305.201	682.81
305.431	679.81
305.661	685.81
305.891	700.81
306.121	696.81
306.352	706.81
306.582	704.81
306.812	670.81
307.042	697.81
307.272	688.81
307.502	684.81
307.731	701.81
307.961	695.81
308.191	695.81
308.421	672.81
308.651	692.81
308.881	692.81
309.111	708.81
309.341	677.81
309.571	702.81
309.8	693.81
310.03	700.81
310.26	692.81
310.49	683.81
310.72	725.81
310.949	702.81
311.179	691.81
311.409	716.81
311.639	717.81
311.868	693.81
312.098	703.81
312.328	730.81
312.557	721.81
312.787	725.81
313.017	734.81
313.246	756.81
313.476	739.81
313.706	713.81
313.935	737.81
314.165	746.81
314.394	744.81
314.624	727.81
314.853	741.81
315.083	706.81
315.312	739.81
315.542	734.81
315.771	761.81
316.001	770.81
316.23	755.81
316.46	742.81
316.689	756.81
316.919	748.81
317.148	740.81
317.377	740.81
317.607	728.81
317.836	756.81
318.065	746.81
318.295	747.81
318.524	765.81
318.753	754.81
318.983	752.81
319.212	732.81
319.441	784.81
319.67	768.81
319.9	762.81
320.129	778.81
320.358	769.81
320.587	755.81
320.816	776.81
321.046	738.81
321.275	772.81
321.504	768.81
321.733	760.81
321.962	760.81
322.191	804.81
322.42	790.81
322.649	787.81
322.878	779.81
323.108	766.81
323.337	765.81
323.566	793.81
323.795	774.81
324.024	807.81
324.253	795.81
324.482	814.81
324.71	812.81
324.939	786.81
325.168	799.81
325.397	795.81
325.626	794.81
325.855	804.81
326.084	786.81
326.313	788.81
326.542	810.81
326.77	836.81
326.999	800.81
327.228	802.81
327.457	818.81
327.686	823.81
327.914	837.81
328.143	827.81
328.372	828.81
328.6	821.81
328.829	794.81
329.058	847.81
329.287	844.81
329.515	825.81
329.744	842.81
329.972	839.81
330.201	822.81
330.43	828.81
330.658	835.81
330.887	828.81
331.115	858.81
331.344	859.81
331.572	858.81
331.801	884.81
332.03	888.81
332.258	894.81
332.486	898.81
332.715	922.81
332.943	910.81
333.172	916.81
333.4	952.81
333.629	969.81
333.857	950.81
334.085	985.81
334.314	982.81
334.542	946.81
334.771	982.81
334.999	970.81
335.227	982.81
335.455	968.81
335.684	988.81
335.912	992.81
336.14	952.81
336.369	963.81
336.597	966.81
336.825	967.81
337.053	934.81
337.281	934.81
337.51	948.81
337.738	928.81
337.966	890.81
338.194	914.81
338.422	939.81
338.65	917.81
338.878	905.81
339.106	902.81
339.334	908.81
339.562	885.81
339.79	887.81
340.018	879.81
340.246	860.81
340.474	892.81
340.702	879.81
340.93	854.81
341.158	873.81
341.386	875.81
341.614	910.81
341.842	880.81
342.07	889.81
342.298	864.81
342.526	880.81
342.754	877.81
342.981	885.81
343.209	894.81
343.437	925.81
343.665	922.81
343.893	955.81
344.12	971.81
344.348	958.81
344.576	953.81
344.804	936.81
345.031	900.81
345.259	914.81
345.487	894.81
345.714	883.81
345.942	870.81
346.17	870.81
346.397	863.81
346.625	868.81
346.853	858.81
347.08	868.81
347.308	877.81
347.535	822.81
347.763	854.81
347.99	811.81
348.218	865.81
348.445	837.81
348.673	833.81
348.9	852.81
349.128	862.81
349.355	830.81
349.583	810.81
349.81	836.81
350.037	834.81
350.265	849.81
350.492	841.81
350.72	833.81
350.947	804.81
351.174	841.81
351.402	843.81
351.629	812.81
351.856	821.81
352.083	842.81
352.311	857.81
352.538	830.81
352.765	821.81
352.992	830.81
353.22	826.81
353.447	809.81
353.674	796.81
353.901	836.81
354.128	835.81
354.355	826.81
354.583	835.81
354.81	819.81
355.037	841.81
355.264	810.81
355.491	827.81
355.718	854.81
355.945	846.81
356.172	839.81
356.399	816.81
356.626	839.81
356.853	837.81
357.08	843.81
357.307	856.81
357.534	861.81
357.761	831.81
357.988	866.81
358.215	874.81
358.441	859.81
358.668	840.81
358.895	849.81
359.122	822.81
359.349	844.81
359.576	825.81
359.802	879.81
360.029	854.81
360.256	856.81
360.483	836.81
360.709	832.81
360.936	874.81
361.163	869.81
361.39	848.81
361.616	856.81
361.843	828.81
362.07	838.81
362.296	874.81
362.523	858.81
362.749	832.81
362.976	852.81
363.203	863.81
363.429	852.81
363.656	872.81
363.882	845.81
364.109	865.81
364.335	846.81
364.562	862.81
364.788	882.81
365.015	890.81
365.241	852.81
365.468	850.81
365.694	840.81
365.92	860.81
366.147	836.81
366.373	852.81
366.599	861.81
366.826	852.81
367.052	877.81
367.278	864.81
367.505	852.81
367.731	870.81
367.957	877.81
368.184	868.81
368.41	857.81
368.636	871.81
368.862	873.81
369.089	907.81
369.315	893.81
369.541	905.81
369.767	880.81
369.993	891.81
370.219	900.81
370.445	904.81
370.672	916.81
370.898	915.81
371.124	929.81
371.35	928.81
371.576	924.81
371.802	923.81
372.028	933.81
372.254	933.81
372.48	938.81
372.706	969.81
372.932	945.81
373.158	950.81
373.384	973.81
373.61	953.81
373.835	979.81
374.061	980.81
374.287	937.81
374.513	936.81
374.739	997.81
374.965	999.81
375.191	1021.81
375.416	970.81
375.642	967.81
375.868	984.81
376.094	952.81
376.319	969.81
376.545	963.81
376.771	968.81
376.997	929.81
377.222	937.81
377.448	919.81
377.674	932.81
377.899	929.81
378.125	915.81
378.35	937.81
378.576	938.81
378.802	914.81
379.027	945.81
379.253	958.81
379.478	927.81
379.704	927.81
379.929	936.81
380.155	954.81
380.38	922.81
380.606	971.81
380.831	944.81
381.057	958.81
381.282	924.81
381.507	948.81
381.733	963.81
381.958	968.81
382.184	984.81
382.409	988.81
382.634	987.81
382.86	1008.81
383.085	1015.81
383.31	980.81
383.535	1016.81
383.761	992.81
383.986	1046.81
384.211	1016.81
384.436	1039.81
384.662	1049.81
384.887	1058.81
385.112	1030.81
385.337	1072.81
385.562	1076.81
385.787	1076.81
386.013	1111.81
386.238	1104.81
386.463	1102.81
386.688	1113.81
386.913	1074.81
387.138	1127.81
387.363	1107.81
387.588	1104.81
387.813	1096.81
388.038	1099.81
388.263	1126.81
388.488	1102.81
388.713	1112.81
388.938	1093.81
389.163	1096.81
389.387	1112.81
389.612	1111.81
389.837	1112.81
390.062	1124.81
390.287	1118.81
390.512	1121.81
390.736	1127.81
390.961	1156.81
391.186	1140.81
391.411	1139.81
391.636	1170.81
391.86	1217.81
392.085	1188.81
392.31	1170.81
392.534	1188.81
392.759	1159.81
392.984	1189.81
393.208	1173.81
393.433	1151.81
393.658	1168.81
393.882	1156.81
394.107	1167.81
394.331	1210.81
394.556	1145.81
394.78	1183.81
395.005	1156.81
395.229	1181.81
395.454	1210.81
395.678	1208.81
395.903	1217.81
396.127	1187.81
396.352	1204.81
396.576	1202.81
396.801	1198.81
397.025	1226.81
397.249	1220.81
397.474	1280.81
397.698	1214.81
397.922	1255.81
398.147	1249.81
398.371	1291.81
398.595	1335.81
398.82	1333.81
399.044	1449.81
399.268	1469.81
399.492	1579.81
399.717	1662.81
399.941	1658.81
400.165	1655.81
400.389	1562.81
400.613	1450.81
400.837	1454.81
401.062	1428.81
401.286	1351.81
401.51	1368.81
401.734	1356.81
401.958	1348.81
402.182	1374.81
402.406	1370.81
402.63	1381.81
402.854	1374.81
403.078	1383.81
403.302	1416.81
403.526	1412.81
403.75	1390.81
403.974	1430.81
404.198	1402.81
404.422	1431.81
404.645	1417.81
404.869	1413.81
405.093	1418.81
405.317	1392.81
405.541	1420.81
405.765	1439.81
405.988	1426.81
406.212	1457.81
406.436	1437.81
406.66	1485.81
406.883	1494.81
407.107	1509.81
407.331	1577.81
407.555	1585.81
407.778	1584.81
408.002	1567.81
408.226	1551.81
408.449	1591.81
408.673	1493.81
408.896	1525.81
409.12	1500.81
409.344	1519.81
409.567	1442.81
409.791	1464.81
410.014	1432.81
410.238	1429.81
410.461	1449.81
410.685	1432.81
410.908	1416.81
411.132	1422.81
411.355	1403.81
411.578	1418.81
411.802	1376.81
412.025	1402.81
412.249	1428.81
412.472	1435.81
412.695	1384.81
412.919	1396.81
413.142	1394.81
413.365	1398.81
413.589	1373.81
413.812	1362.81
414.035	1366.81
414.258	1343.81
414.482	1360.81
414.705	1366.81
414.928	1378.81
415.151	1354.81
415.374	1372.81
415.597	1309.81
415.821	1344.81
416.044	1312.81
416.267	1296.81
416.49	1309.81
416.713	1304.81
416.936	1340.81
417.159	1307.81
417.382	1322.81
417.605	1270.81
417.828	1328.81
418.051	1334.81
418.274	1323.81
418.497	1307.81
418.72	1307.81
418.943	1342.81
419.166	1357.81
419.389	1475.81
419.611	1462.81
419.834	1420.81
420.057	1388.81
420.28	1318.81
420.503	1274.81
420.726	1277.81
420.948	1291.81
421.171	1266.81
421.394	1318.81
421.617	1279.81
421.839	1280.81
422.062	1277.81
422.285	1290.81
422.507	1284.81
422.73	1316.81
422.953	1307.81
423.175	1312.81
423.398	1302.81
423.621	1297.81
423.843	1316.81
424.066	1331.81
424.288	1316.81
424.511	1316.81
424.733	1309.81
424.956	1297.81
425.178	1302.81
425.401	1302.81
425.623	1340.81
425.846	1281.81
426.068	1275.81
426.291	1314.81
426.513	1287.81
426.735	1258.81
426.958	1291.81
427.18	1228.81
427.402	1275.81
427.625	1258.81
427.847	1238.81
428.069	1248.81
428.292	1231.81
428.514	1225.81
428.736	1206.81
428.958	1204.81
429.181	1214.81
429.403	1217.81
429.625	1227.81
429.847	1216.81
430.069	1214.81
430.292	1218.81
430.514	1223.81
430.736	1226.81
430.958	1243.81
431.18	1206.81
431.402	1220.81
431.624	1188.81
431.846	1235.81
432.068	1247.81
432.29	1278.81
432.512	1257.81
432.734	1280.81
432.956	1236.81
433.178	1243.81
433.4	1230.81
433.622	1260.81
433.844	1262.81
434.066	1246.81
434.287	1225.81
434.509	1272.81
434.731	1314.81
434.953	1317.81
435.175	1320.81
435.397	1292.81
435.618	1265.81
435.84	1233.81
436.062	1241.81
436.284	1214.81
436.505	1212.81
436.727	1220.81
436.949	1217.81
437.17	1252.81
437.392	1206.81
437.614	1239.81
437.835	1176.81
438.057	1216.81
438.278	1166.81
438.5	1189.81
438.721	1226.81
438.943	1168.81
439.165	1190.81
439.386	1196.81
439.608	1234.81
439.829	1234.81
440.05	1189.81
440.272	1226.81
440.493	1210.81
440.715	1216.81
440.936	1241.81
441.158	1279.81
441.379	1296.81
441.6	1291.81
441.822	1279.81
442.043	1318.81
442.264	1304.81
442.486	1251.81
442.707	1280.81
442.928	1299.81
443.149	1297.81
443.371	1272.81
443.592	1312.81
443.813	1275.81
444.034	1300.81
444.255	1318.81
444.476	1359.81
444.698	1373.81
444.919	1403.81
445.14	1499.81
445.361	1409.81
445.582	1366.81
445.803	1306.81
446.024	1274.81
446.245	1260.81
446.466	1258.81
446.687	1242.81
446.908	1229.81
447.129	1198.81
447.35	1188.81
447.571	1220.81
447.792	1156.81
448.013	1153.81
448.234	1164.81
448.455	1139.81
448.675	1163.81
448.896	1132.81
449.117	1119.81
449.338	1152.81
449.559	1130.81
449.779	1152.81
450	1141.81
450.221	1116.81
450.442	1123.81
450.662	1099.81
450.883	1129.81
451.104	1129.81
451.324	1098.81
451.545	1100.81
451.766	1133.81
451.986	1095.81
452.207	1106.81
452.428	1063.81
452.648	1109.81
452.869	1104.81
453.089	1046.81
453.31	1082.81
453.53	1057.81
453.751	1075.81
453.971	1093.81
454.192	1081.81
454.412	1058.81
454.633	1042.81
454.853	1062.81
455.073	1084.81
455.294	1061.81
455.514	1042.81
455.734	1056.81
455.955	1051.81
456.175	1046.81
456.395	1064.81
456.616	1079.81
456.836	1067.81
457.056	1104.81
457.276	1064.81
457.497	1082.81
457.717	1090.81
457.937	1077.81
458.157	1112.81
458.377	1123.81
458.598	1116.81
458.818	1162.81
459.038	1167.81
459.258	1156.81
459.478	1199.81
459.698	1245.81
459.918	1289.81
460.138	1284.81
460.358	1300.81
460.578	1331.81
460.798	1361.81
461.018	1353.81
461.238	1352.81
461.458	1368.81
461.678	1341.81
461.898	1352.81
462.118	1358.81
462.338	1401.81
462.558	1442.81
462.777	1461.81
462.997	1540.81
463.217	1561.81
463.437	1592.81
463.657	1541.81
463.876	1508.81
464.096	1514.81
464.316	1475.81
464.536	1491.81
464.755	1461.81
464.975	1425.81
465.195	1387.81
465.414	1360.81
465.634	1311.81
465.854	1276.81
466.073	1237.81
466.293	1251.81
466.512	1224.81
466.732	1217.81
466.951	1212.81
467.171	1151.81
467.391	1151.81
467.61	1171.81
467.829	1160.81
468.049	1168.81
468.268	1157.81
468.488	1149.81
468.707	1165.81
468.927	1170.81
469.146	1168.81
469.365	1163.81
469.585	1185.81
469.804	1228.81
470.023	1187.81
470.243	1185.81
470.462	1216.81
470.681	1204.81
470.901	1209.81
471.12	1206.81
471.339	1210.81
471.558	1186.81
471.777	1181.81
471.997	1177.81
472.216	1192.81
472.435	1210.81
472.654	1164.81
472.873	1142.81
473.092	1194.81
473.311	1169.81
473.53	1164.81
473.749	1180.81
473.968	1191.81
474.187	1156.81
474.406	1174.81
474.625	1218.81
474.844	1190.81
475.063	1208.81
475.282	1194.81
475.501	1204.81
475.72	1180.81
475.939	1223.81
476.158	1239.81
476.377	1213.81
476.596	1293.81
476.814	1299.81
477.033	1241.81
477.252	1261.81
477.471	1263.81
477.69	1306.81
477.908	1318.81
478.127	1379.81
478.346	1323.81
478.564	1352.81
478.783	1384.81
479.002	1420.81
479.22	1414.81
479.439	1435.81
479.658	1405.81
479.876	1430.81
480.095	1448.81
480.313	1465.81
480.532	1431.81
480.751	1465.81
480.969	1445.81
481.188	1426.81
481.406	1413.81
481.624	1410.81
481.843	1402.81
482.061	1387.81
482.28	1390.81
482.498	1351.81
482.717	1397.81
482.935	1408.81
483.153	1368.81
483.372	1378.81
483.59	1397.81
483.808	1382.81
484.027	1386.81
484.245	1358.81
484.463	1362.81
484.681	1402.81
484.9	1422.81
485.118	1451.81
485.336	1404.81
485.554	1426.81
485.772	1412.81
485.99	1390.81
486.209	1472.81
486.427	1424.81
486.645	1416.81
486.863	1388.81
487.081	1449.81
487.299	1424.81
487.517	1403.81
487.735	1448.81
487.953	1416.81
488.171	1440.81
488.389	1429.81
488.607	1426.81
488.825	1403.81
489.043	1412.81
489.261	1417.81
489.479	1417.81
489.696	1406.81
489.914	1431.81
490.132	1435.81
490.35	1429.81
490.568	1433.81
490.786	1426.81
491.003	1441.81
491.221	1447.81
491.439	1473.81
491.657	1438.81
491.874	1462.81
492.092	1442.81
492.31	1465.81
492.527	1471.81
492.745	1502.81
492.963	1462.81
493.18	1463.81
493.398	1449.81
493.615	1496.81
493.833	1476.81
494.05	1482.81
494.268	1528.81
494.485	1513.81
494.703	1506.81
494.92	1531.81
495.138	1496.81
495.355	1531.81
495.573	1528.81
495.79	1522.81
496.008	1541.81
496.225	1572.81
496.442	1556.81
496.66	1564.81
496.877	1607.81
497.094	1642.81
497.312	1654.81
497.529	1670.81
497.746	1664.81
497.963	1712.81
498.181	1820.81
498.398	1806.81
498.615	1918.81
498.832	2014.81
499.049	2082.81
499.267	2153.81
499.484	2283.81
499.701	2386.81
499.918	2522.81
500.135	2671.81
500.352	2841.81
500.569	2916.81
500.786	2909.81
501.003	2838.81
501.22	2648.81
501.437	2517.81
501.654	2340.81
501.871	2242.81
502.088	2135.81
502.305	2011.81
502.522	1925.81
502.739	1865.81
502.956	1824.81
503.172	1785.81
503.389	1710.81
503.606	1668.81
503.823	1648.81
504.04	1651.81
504.256	1656.81
504.473	1636.81
504.69	1606.81
504.907	1617.81
505.123	1546.81
505.34	1523.81
505.557	1493.81
505.773	1444.81
505.99	1422.81
506.207	1389.81
506.423	1362.81
506.64	1358.81
506.856	1368.81
507.073	1357.81
507.289	1325.81
507.506	1308.81
507.722	1356.81
507.939	1316.81
508.155	1289.81
508.372	1270.81
508.588	1244.81
508.805	1223.81
509.021	1228.81
509.238	1227.81
509.454	1231.81
509.67	1197.81
509.887	1193.81
510.103	1212.81
510.319	1186.81
510.536	1197.81
510.752	1164.81
510.968	1148.81
511.184	1193.81
511.401	1192.81
511.617	1177.81
511.833	1172.81
512.049	1155.81
512.265	1156.81
512.481	1195.81
512.698	1158.81
512.914	1206.81
513.13	1157.81
513.346	1170.81
513.562	1179.81
513.778	1172.81
513.994	1186.81
514.21	1196.81
514.426	1186.81
514.642	1198.81
514.858	1186.81
515.074	1204.81
515.29	1193.81
515.506	1186.81
515.721	1251.81
515.937	1230.81
516.153	1261.81
516.369	1259.81
516.585	1288.81
516.801	1294.81
517.016	1349.81
517.232	1369.81
517.448	1375.81
517.664	1380.81
517.879	1380.81
518.095	1389.81
518.311	1372.81
518.527	1355.81
518.742	1334.81
518.958	1308.81
519.173	1272.81
519.389	1240.81
519.605	1229.81
519.82	1236.81
520.036	1266.81
520.251	1250.81
520.467	1216.81
520.682	1170.81
520.898	1151.81
521.113	1119.81
521.329	1152.81
521.544	1133.81
521.76	1146.81
521.975	1099.81
522.19	1126.81
522.406	1104.81
522.621	1102.81
522.836	1107.81
523.052	1122.81
523.267	1098.81
523.482	1085.81
523.698	1113.81
523.913	1066.81
524.128	1098.81
524.343	1078.81
524.559	1066.81
524.774	1076.81
524.989	1086.81
525.204	1061.81
525.419	1052.81
525.634	1041.81
525.849	1055.81
526.064	1066.81
526.28	1056.81
526.495	1060.81
526.71	1092.81
526.925	1045.81
527.14	1078.81
527.355	1041.81
527.57	993.81
527.785	1028.81
527.999	1038.81
528.214	1024.81
528.429	1032.81
528.644	1027.81
528.859	1026.81
529.074	1008.81
529.289	1041.81
529.503	1012.81
529.718	1021.81
529.933	1038.81
530.148	1002.81
530.363	1020.81
530.577	1000.81
530.792	997.81
531.007	1022.81
531.221	999.81
531.436	997.81
531.651	1001.81
531.865	993.81
532.08	1008.81
532.295	1004.81
532.509	997.81
532.724	1003.81
532.938	1017.81
533.153	1020.81
533.367	993.81
533.582	984.81
533.796	982.81
534.011	990.81
534.225	1008.81
534.44	959.81
534.654	994.81
534.868	964.81
535.083	969.81
535.297	922.81
535.511	980.81
535.726	970.81
535.94	974.81
536.154	964.81
536.369	933.81
536.583	938.81
536.797	965.81
537.011	938.81
537.225	946.81
537.44	928.81
537.654	957.81
537.868	928.81
538.082	910.81
538.296	933.81
538.51	944.81
538.724	957.81
538.938	892.81
539.153	952.81
539.367	960.81
539.581	916.81
539.795	910.81
540.009	928.81
540.222	930.81
540.436	919.81
540.65	905.81
540.864	917.81
541.078	907.81
541.292	909.81
541.506	914.81
541.72	898.81
541.934	909.81
542.147	944.81
542.361	943.81
542.575	895.81
542.789	890.81
543.002	909.81
543.216	903.81
543.43	908.81
543.644	889.81
543.857	926.81
544.071	911.81
544.285	909.81
544.498	892.81
544.712	893.81
544.925	916.81
545.139	911.81
545.352	911.81
545.566	877.81
545.779	908.81
545.993	910.81
546.206	924.81
546.42	900.81
546.633	924.81
546.847	920.81
547.06	920.81
547.274	902.81
547.487	910.81
547.7	942.81
547.914	931.81
548.127	925.81
548.34	916.81
548.554	919.81
548.767	911.81
548.98	945.81
549.193	901.81
549.407	901.81
549.62	926.81
549.833	928.81
550.046	973.81
550.259	948.81
550.473	917.81
550.686	930.81
550.899	910.81
551.112	898.81
551.325	893.81
551.538	926.81
551.751	899.81
551.964	886.81
552.177	929.81
552.39	925.81
552.603	926.81
552.816	896.81
553.029	906.81
553.242	921.81
553.455	919.81
553.667	909.81
553.88	925.81
554.093	930.81
554.306	908.81
554.519	911.81
554.732	876.81
554.944	862.81
555.157	856.81
555.37	860.81
555.583	840.81
555.795	869.81
556.008	813.81
556.221	814.81
556.433	841.81
556.646	812.81
556.859	848.81
557.071	805.81
557.284	802.81
557.496	790.81
557.709	786.81
557.921	756.81
558.134	764.81
558.346	772.81
558.559	786.81
558.771	816.81
558.984	779.81
559.196	774.81
559.409	788.81
559.621	792.81
559.833	778.81
560.046	784.81
560.258	781.81
560.47	744.81
560.683	747.81
560.895	754.81
561.107	768.81
561.32	776.81
561.532	754.81
561.744	761.81
561.956	770.81
562.168	780.81
562.381	754.81
562.593	780.81
562.805	741.81
563.017	775.81
563.229	798.81
563.441	781.81
563.653	782.81
563.865	794.81
564.077	789.81
564.289	791.81
564.501	811.81
564.713	813.81
564.925	841.81
565.137	826.81
565.349	849.81
565.561	857.81
565.773	871.81
565.985	876.81
566.197	939.81
566.408	961.81
566.62	971.81
566.832	1030.81
567.044	1046.81
567.255	1044.81
567.467	1049.81
567.679	1066.81
567.891	1085.81
568.102	1084.81
568.314	1055.81
568.526	1003.81
568.737	957.81
568.949	944.81
569.161	888.81
569.372	839.81
569.584	823.81
569.795	801.81
570.007	800.81
570.218	799.81
570.43	755.81
570.641	757.81
570.853	755.81
571.064	743.81
571.276	716.81
571.487	705.81
571.698	710.81
571.91	676.81
572.121	677.81
572.333	676.81
572.544	684.81
572.755	677.81
572.966	682.81
573.178	646.81
573.389	657.81
573.6	630.81
573.811	629.81
574.023	613.81
574.234	626.81
574.445	606.81
574.656	622.81
574.867	640.81
575.078	621.81
575.289	619.81
575.501	614.81
575.712	587.81
575.923	578.81
576.134	609.81
576.345	582.81
576.556	588.81
576.767	578.81
576.978	588.81
577.188	574.81
577.399	576.81
577.61	576.81
577.821	563.81
578.032	556.81
578.243	549.81
578.454	578.81
578.665	570.81
578.875	566.81
579.086	549.81
579.297	557.81
579.508	573.81
579.718	556.81
579.929	535.81
580.14	541.81
580.35	503.81
580.561	562.81
580.772	531.81
580.982	535.81
581.193	539.81
581.403	520.81
581.614	540.81
581.825	526.81
582.035	520.81
582.246	511.81
582.456	524.81
582.667	540.81
582.877	518.81
583.087	520.81
583.298	520.81
583.508	518.81
583.719	510.81
583.929	505.81
584.139	514.81
584.35	540.81
584.56	524.81
584.77	520.81
584.981	507.81
585.191	491.81
585.401	489.81
585.611	470.81
585.821	499.81
586.032	487.81
586.242	494.81
586.452	512.81
586.662	485.81
586.872	484.81
587.082	514.81
587.292	512.81
587.502	506.81
587.713	497.81
587.923	488.81
588.133	494.81
588.343	500.81
588.553	486.81
588.762	504.81
588.972	508.81
589.182	530.81
589.392	516.81
589.602	504.81
589.812	492.81
590.022	520.81
590.232	485.81
590.441	486.81
590.651	498.81
590.861	492.81
591.071	520.81
591.281	501.81
591.49	503.81
591.7	541.81
591.91	509.81
592.119	549.81
592.329	545.81
592.539	507.81
592.748	514.81
592.958	531.81
593.167	527.81
593.377	510.81
593.587	564.81
593.796	554.81
594.006	539.81
594.215	521.81
594.424	537.81
594.634	545.81
594.843	519.81
595.053	514.81
595.262	524.81
595.472	508.81
595.681	470.81
595.89	479.81
596.1	472.81
596.309	468.81
596.518	477.81
596.727	457.81
596.937	471.81
597.146	448.81
597.355	444.81
597.564	463.81
597.774	450.81
597.983	457.81
598.192	458.81
598.401	424.81
598.61	434.81
598.819	448.81
599.028	424.81
599.237	424.81
599.446	423.81
599.655	440.81
599.864	410.81
600.073	407.81
600.282	418.81
600.491	423.81
600.7	433.81
600.909	410.81
601.118	409.81
601.327	381.81
601.536	391.81
601.745	388.81
601.953	406.81
602.162	396.81
602.371	406.81
602.58	409.81
602.789	390.81
602.997	394.81
603.206	398.81
603.415	386.81
603.623	395.81
603.832	406.81
604.041	396.81
604.249	390.81
604.458	387.81
604.666	405.81
604.875	376.81
605.084	371.81
605.292	363.81
605.501	376.81
605.709	380.81
605.918	391.81
606.126	382.81
606.334	383.81
606.543	392.81
606.751	392.81
606.96	389.81
607.168	384.81
607.376	361.81
607.585	370.81
607.793	380.81
608.001	373.81
608.21	371.81
608.418	372.81
608.626	377.81
608.834	374.81
609.043	372.81
609.251	373.81
609.459	366.81
609.667	367.81
609.875	370.81
610.083	374.81
610.291	364.81
610.499	360.81
610.707	352.81
610.916	368.81
611.124	361.81
611.332	378.81
611.54	347.81
611.748	362.81
611.955	348.81
612.163	350.81
612.371	350.81
612.579	339.81
612.787	378.81
612.995	369.81
613.203	355.81
613.411	343.81
613.618	368.81
613.826	354.81
614.034	361.81
614.242	344.81
614.449	359.81
614.657	355.81
614.865	344.81
615.072	342.81
615.28	365.81
615.488	357.81
615.695	338.81
615.903	343.81
616.111	337.81
616.318	354.81
616.526	347.81
616.733	357.81
616.941	356.81
617.148	349.81
617.356	328.81
617.563	360.81
617.771	354.81
617.978	344.81
618.185	334.81
618.393	337.81
618.6	335.81
618.807	332.81
619.015	336.81
619.222	337.81
619.429	362.81
619.637	340.81
619.844	321.81
620.051	347.81
620.258	345.81
620.466	338.81
620.673	307.81
620.88	333.81
621.087	308.81
621.294	320.81
621.501	336.81
621.708	336.81
621.915	329.81
622.122	323.81
622.329	316.81
622.536	329.81
622.743	336.81
622.95	326.81
623.157	316.81
623.364	329.81
623.571	309.81
623.778	328.81
623.985	312.81
624.192	318.81
624.399	317.81
624.606	316.81
624.812	317.81
625.019	333.81
625.226	310.81
625.433	304.81
625.639	299.81
625.846	306.81
626.053	291.81
626.259	288.81
626.466	304.81
626.673	297.81
626.879	300.81
627.086	309.81
627.293	288.81
627.499	299.81
627.706	279.81
627.912	294.81
628.119	304.81
628.325	296.81
628.532	293.81
628.738	298.81
628.945	291.81
629.151	304.81
629.357	286.81
629.564	282.81
629.77	285.81
629.976	280.81
630.183	286.81
630.389	277.81
630.595	292.81
630.802	276.81
631.008	273.81
631.214	272.81
631.42	282.81
631.627	289.81
631.833	284.81
632.039	275.81
632.245	282.81
632.451	292.81
632.657	273.81
632.863	287.81
633.069	269.81
633.275	267.81
633.481	270.81
633.688	292.81
633.893	288.81
634.099	286.81
634.305	272.81
634.511	267.81
634.717	265.81
634.923	267.81
635.129	264.81
635.335	262.81
635.541	259.81
635.747	266.81
635.952	270.81
636.158	262.81
636.364	272.81
636.57	248.81
636.775	259.81
636.981	252.81
637.187	262.81
637.392	262.81
637.598	258.81
637.804	274.81
638.009	261.81
638.215	238.81
638.421	248.81
638.626	249.81
638.832	263.81
639.037	261.81
639.243	249.81
639.448	264.81
639.654	256.81
639.859	254.81
640.065	261.81
640.27	260.81
640.475	242.81
640.681	253.81
640.886	243.81
641.091	253.81
641.297	255.81
641.502	262.81
641.707	264.81
641.913	263.81
642.118	252.81
642.323	233.81
642.528	258.81
642.733	250.81
642.939	248.81
643.144	235.81
643.349	263.81
643.554	252.81
643.759	247.81
643.964	255.81
644.169	260.81
644.374	244.81
644.579	241.81
644.784	248.81
644.989	267.81
645.194	261.81
645.399	270.81
645.604	251.81
645.809	258.81
646.014	245.81
646.219	244.81
646.423	256.81
646.628	254.81
646.833	241.81
647.038	265.81
647.243	268.81
647.447	252.81
647.652	245.81
647.857	252.81
648.062	258.81
648.266	266.81
648.471	272.81
648.676	249.81
648.88	257.81
649.085	262.81
649.289	264.81
649.494	263.81
649.698	263.81
649.903	266.81
650.107	246.81
650.312	235.81
650.516	255.81
650.721	237.81
650.925	246.81
651.13	242.81
651.334	229.81
651.539	248.81
651.743	224.81
651.947	241.81
652.152	229.81
652.356	235.81
652.56	244.81
652.764	226.81
652.969	239.81
653.173	221.81
653.377	230.81
653.581	245.81
653.785	225.81
653.99	214.81
654.194	235.81
654.398	214.81
654.602	228.81
654.806	215.81
655.01	221.81
655.214	221.81
655.418	245.81
655.622	221.81
655.826	224.81
656.03	220.81
656.234	226.81
656.438	224.81
656.642	220.81
656.846	224.81
657.049	216.81
657.253	207.81
657.457	205.81
657.661	194.81
657.865	186.81
658.068	182.81
658.272	158.81
658.476	153.81
658.68	143.81
658.883	160.81
659.087	129.81
659.291	130.81
659.494	130.81
659.698	124.81
659.901	124.81
660.105	121.81
660.309	113.81
660.512	112.81
660.716	125.81
660.919	117.81
661.123	121.81
661.326	116.81
661.53	106.81
661.733	112.81
661.936	104.81
662.14	88.81
662.343	113.81
662.546	92.81
662.75	81.81
662.953	99.81
663.156	81.81
663.36	75.81
663.563	89.81
663.766	80.81
663.969	77.81
664.173	83.81
664.376	76.81
664.579	87.81
664.782	89.81
664.985	96.81
665.188	81.81
665.391	84.81
665.594	86.81
665.797	74.81
666	66.81
666.203	77.81
666.406	77.81
666.609	82.81
666.812	66.81
667.015	81.81
667.218	89.81
667.421	89.81
667.624	86.81
667.827	82.81
668.03	77.81
668.232	77.81
668.435	84.81
668.638	96.81
668.841	82.81
669.043	71.81
669.246	75.81
669.449	79.81
669.651	88.81
669.854	81.81
670.057	71.81
670.259	76.81
670.462	101.81
670.665	78.81
670.867	89.81
671.07	78.81
671.272	87.81
671.475	84.81
671.677	74.81
671.88	87.81
672.082	82.81
672.284	85.81
672.487	76.81
672.689	83.81
672.892	83.81
