Data from Fe(NO3)3@0.0125M.TitratingCurve.Agarose3%dH2O.NegLispCup.LampEnergy10.LIBS07252019_HRD10591_17-00-18-337.txt Node
Date: Thu Jul 25 17:00:18 EDT 2019
User: cochatt
Spectrometer: HR+D1059
Trigger mode: 1
Integration Time (sec): 1.000000E-1
Scans to average: 1
Electric dark correction enabled: true
Nonlinearity correction enabled: false
Boxcar width: 0
XAxis mode: Wavelengths
Number of Pixels in Spectrum: 2048
>>>>>Begin Spectral Data<<<<<
223.165	-9.94
223.4	-9.94
223.635	-9.94
223.869	-36.94
224.104	-35.94
224.338	-6.94
224.573	1.06
224.808	-5.94
225.042	-2.94
225.277	-7.94
225.511	-6.94
225.746	5.06
225.98	10.06
226.215	2.06
226.449	23.06
226.683	18.06
226.918	29.06
227.152	25.06
227.387	30.06
227.621	55.06
227.856	32.06
228.09	38.06
228.324	62.06
228.559	56.06
228.793	74.06
229.027	81.06
229.262	74.06
229.496	76.06
229.73	86.06
229.964	83.06
230.199	91.06
230.433	103.06
230.667	111.06
230.901	89.06
231.136	105.06
231.37	99.06
231.604	93.06
231.838	114.06
232.072	106.06
232.306	107.06
232.541	116.06
232.775	104.06
233.009	109.06
233.243	112.06
233.477	97.06
233.711	105.06
233.945	126.06
234.179	114.06
234.413	105.06
234.647	125.06
234.881	115.06
235.115	105.06
235.349	113.06
235.583	103.06
235.817	109.06
236.051	114.06
236.285	114.06
236.519	108.06
236.753	105.06
236.987	109.06
237.221	120.06
237.455	119.06
237.689	104.06
237.922	113.06
238.156	105.06
238.39	119.06
238.624	113.06
238.858	126.06
239.091	117.06
239.325	103.06
239.559	123.06
239.793	110.06
240.027	106.06
240.26	109.06
240.494	121.06
240.728	111.06
240.961	109.06
241.195	118.06
241.429	129.06
241.662	122.06
241.896	121.06
242.13	128.06
242.363	115.06
242.597	112.06
242.83	127.06
243.064	122.06
243.298	119.06
243.531	135.06
243.765	119.06
243.998	123.06
244.232	135.06
244.465	125.06
244.699	137.06
244.932	138.06
245.166	136.06
245.399	135.06
245.633	153.06
245.866	145.06
246.099	145.06
246.333	143.06
246.566	130.06
246.8	138.06
247.033	146.06
247.266	122.06
247.5	147.06
247.733	135.06
247.966	138.06
248.2	151.06
248.433	136.06
248.666	143.06
248.899	162.06
249.133	148.06
249.366	145.06
249.599	151.06
249.832	127.06
250.066	150.06
250.299	149.06
250.532	152.06
250.765	142.06
250.998	153.06
251.231	143.06
251.465	163.06
251.698	166.06
251.931	158.06
252.164	147.06
252.397	154.06
252.63	154.06
252.863	164.06
253.096	166.06
253.329	173.06
253.562	151.06
253.795	162.06
254.028	152.06
254.261	173.06
254.494	159.06
254.727	157.06
254.96	173.06
255.193	164.06
255.426	173.06
255.659	143.06
255.892	164.06
256.124	159.06
256.357	155.06
256.59	156.06
256.823	170.06
257.056	149.06
257.289	162.06
257.521	176.06
257.754	174.06
257.987	161.06
258.22	189.06
258.452	165.06
258.685	168.06
258.918	173.06
259.151	170.06
259.383	149.06
259.616	169.06
259.849	184.06
260.081	184.06
260.314	186.06
260.547	186.06
260.779	188.06
261.012	193.06
261.244	187.06
261.477	207.06
261.71	173.06
261.942	187.06
262.175	184.06
262.407	181.06
262.64	181.06
262.872	167.06
263.105	193.06
263.337	177.06
263.57	188.06
263.802	197.06
264.035	182.06
264.267	182.06
264.499	177.06
264.732	168.06
264.964	190.06
265.197	179.06
265.429	177.06
265.661	169.06
265.894	189.06
266.126	198.06
266.358	176.06
266.591	181.06
266.823	208.06
267.055	205.06
267.287	197.06
267.52	195.06
267.752	206.06
267.984	189.06
268.216	195.06
268.448	188.06
268.681	206.06
268.913	208.06
269.145	205.06
269.377	219.06
269.609	216.06
269.841	223.06
270.073	218.06
270.306	195.06
270.538	189.06
270.77	214.06
271.002	207.06
271.234	220.06
271.466	223.06
271.698	206.06
271.93	211.06
272.162	211.06
272.394	216.06
272.626	210.06
272.858	218.06
273.09	217.06
273.322	218.06
273.553	205.06
273.785	222.06
274.017	210.06
274.249	238.06
274.481	225.06
274.713	250.06
274.945	244.06
275.176	225.06
275.408	234.06
275.64	232.06
275.872	238.06
276.104	237.06
276.335	223.06
276.567	238.06
276.799	242.06
277.031	227.06
277.262	240.06
277.494	234.06
277.726	218.06
277.957	239.06
278.189	223.06
278.421	249.06
278.652	225.06
278.884	233.06
279.115	224.06
279.347	224.06
279.579	236.06
279.81	243.06
280.042	234.06
280.273	243.06
280.505	231.06
280.736	238.06
280.968	241.06
281.199	248.06
281.431	238.06
281.662	250.06
281.894	259.06
282.125	245.06
282.356	266.06
282.588	243.06
282.819	247.06
283.051	232.06
283.282	263.06
283.513	270.06
283.745	271.06
283.976	250.06
284.207	254.06
284.439	257.06
284.67	254.06
284.901	238.06
285.132	253.06
285.364	268.06
285.595	278.06
285.826	275.06
286.057	274.06
286.288	281.06
286.52	269.06
286.751	281.06
286.982	276.06
287.213	245.06
287.444	271.06
287.675	289.06
287.906	285.06
288.138	268.06
288.369	292.06
288.6	271.06
288.831	265.06
289.062	259.06
289.293	276.06
289.524	273.06
289.755	287.06
289.986	286.06
290.217	285.06
290.448	293.06
290.679	274.06
290.91	291.06
291.141	298.06
291.371	280.06
291.602	276.06
291.833	271.06
292.064	289.06
292.295	283.06
292.526	280.06
292.757	279.06
292.987	243.06
293.218	288.06
293.449	274.06
293.68	288.06
293.91	277.06
294.141	282.06
294.372	274.06
294.603	298.06
294.833	289.06
295.064	280.06
295.295	287.06
295.525	276.06
295.756	283.06
295.987	295.06
296.217	309.06
296.448	285.06
296.679	296.06
296.909	297.06
297.14	288.06
297.37	303.06
297.601	298.06
297.831	297.06
298.062	285.06
298.292	289.06
298.523	318.06
298.753	313.06
298.984	306.06
299.214	320.06
299.445	326.06
299.675	296.06
299.905	305.06
300.136	305.06
300.366	304.06
300.597	304.06
300.827	321.06
301.057	308.06
301.288	298.06
301.518	295.06
301.748	303.06
301.979	340.06
302.209	324.06
302.439	333.06
302.669	306.06
302.9	342.06
303.13	315.06
303.36	321.06
303.59	335.06
303.82	330.06
304.051	328.06
304.281	311.06
304.511	319.06
304.741	316.06
304.971	321.06
305.201	328.06
305.431	323.06
305.661	326.06
305.891	327.06
306.121	345.06
306.352	329.06
306.582	318.06
306.812	337.06
307.042	322.06
307.272	310.06
307.502	321.06
307.731	318.06
307.961	337.06
308.191	323.06
308.421	340.06
308.651	337.06
308.881	328.06
309.111	337.06
309.341	327.06
309.571	333.06
309.8	347.06
310.03	320.06
310.26	326.06
310.49	326.06
310.72	329.06
310.949	335.06
311.179	344.06
311.409	341.06
311.639	325.06
311.868	330.06
312.098	342.06
312.328	342.06
312.557	361.06
312.787	339.06
313.017	342.06
313.246	349.06
313.476	343.06
313.706	322.06
313.935	344.06
314.165	344.06
314.394	354.06
314.624	357.06
314.853	349.06
315.083	352.06
315.312	361.06
315.542	340.06
315.771	365.06
316.001	325.06
316.23	348.06
316.46	343.06
316.689	363.06
316.919	362.06
317.148	369.06
317.377	377.06
317.607	355.06
317.836	383.06
318.065	350.06
318.295	348.06
318.524	337.06
318.753	355.06
318.983	390.06
319.212	355.06
319.441	361.06
319.67	358.06
319.9	358.06
320.129	359.06
320.358	374.06
320.587	358.06
320.816	369.06
321.046	353.06
321.275	378.06
321.504	368.06
321.733	360.06
321.962	369.06
322.191	379.06
322.42	376.06
322.649	360.06
322.878	383.06
323.108	387.06
323.337	377.06
323.566	358.06
323.795	375.06
324.024	379.06
324.253	383.06
324.482	394.06
324.71	370.06
324.939	367.06
325.168	389.06
325.397	375.06
325.626	380.06
325.855	396.06
326.084	391.06
326.313	389.06
326.542	395.06
326.77	401.06
326.999	403.06
327.228	376.06
327.457	397.06
327.686	395.06
327.914	420.06
328.143	398.06
328.372	402.06
328.6	391.06
328.829	400.06
329.058	381.06
329.287	391.06
329.515	398.06
329.744	407.06
329.972	422.06
330.201	408.06
330.43	404.06
330.658	394.06
330.887	393.06
331.115	403.06
331.344	411.06
331.572	415.06
331.801	410.06
332.03	408.06
332.258	416.06
332.486	430.06
332.715	431.06
332.943	414.06
333.172	451.06
333.4	457.06
333.629	464.06
333.857	465.06
334.085	455.06
334.314	447.06
334.542	459.06
334.771	472.06
334.999	475.06
335.227	450.06
335.455	474.06
335.684	453.06
335.912	464.06
336.14	454.06
336.369	451.06
336.597	458.06
336.825	462.06
337.053	450.06
337.281	458.06
337.51	446.06
337.738	462.06
337.966	440.06
338.194	445.06
338.422	444.06
338.65	452.06
338.878	460.06
339.106	431.06
339.334	453.06
339.562	434.06
339.79	417.06
340.018	418.06
340.246	440.06
340.474	430.06
340.702	458.06
340.93	460.06
341.158	438.06
341.386	439.06
341.614	424.06
341.842	421.06
342.07	440.06
342.298	402.06
342.526	413.06
342.754	414.06
342.981	430.06
343.209	438.06
343.437	444.06
343.665	460.06
343.893	461.06
344.12	482.06
344.348	452.06
344.576	451.06
344.804	463.06
345.031	425.06
345.259	425.06
345.487	430.06
345.714	441.06
345.942	429.06
346.17	418.06
346.397	421.06
346.625	426.06
346.853	411.06
347.08	426.06
347.308	419.06
347.535	408.06
347.763	440.06
347.99	418.06
348.218	439.06
348.445	413.06
348.673	409.06
348.9	416.06
349.128	425.06
349.355	416.06
349.583	395.06
349.81	425.06
350.037	400.06
350.265	415.06
350.492	420.06
350.72	408.06
350.947	425.06
351.174	423.06
351.402	414.06
351.629	420.06
351.856	398.06
352.083	404.06
352.311	403.06
352.538	412.06
352.765	405.06
352.992	418.06
353.22	400.06
353.447	399.06
353.674	409.06
353.901	394.06
354.128	405.06
354.355	425.06
354.583	420.06
354.81	410.06
355.037	432.06
355.264	431.06
355.491	407.06
355.718	399.06
355.945	400.06
356.172	413.06
356.399	416.06
356.626	413.06
356.853	419.06
357.08	420.06
357.307	440.06
357.534	413.06
357.761	407.06
357.988	418.06
358.215	428.06
358.441	411.06
358.668	422.06
358.895	429.06
359.122	415.06
359.349	421.06
359.576	426.06
359.802	404.06
360.029	409.06
360.256	403.06
360.483	429.06
360.709	415.06
360.936	439.06
361.163	426.06
361.39	424.06
361.616	426.06
361.843	427.06
362.07	419.06
362.296	434.06
362.523	405.06
362.749	419.06
362.976	418.06
363.203	440.06
363.429	433.06
363.656	432.06
363.882	423.06
364.109	421.06
364.335	422.06
364.562	436.06
364.788	428.06
365.015	431.06
365.241	434.06
365.468	419.06
365.694	421.06
365.92	411.06
366.147	401.06
366.373	421.06
366.599	415.06
366.826	433.06
367.052	427.06
367.278	406.06
367.505	455.06
367.731	420.06
367.957	426.06
368.184	441.06
368.41	447.06
368.636	437.06
368.862	447.06
369.089	423.06
369.315	460.06
369.541	437.06
369.767	440.06
369.993	452.06
370.219	442.06
370.445	439.06
370.672	458.06
370.898	477.06
371.124	461.06
371.35	466.06
371.576	464.06
371.802	460.06
372.028	465.06
372.254	467.06
372.48	468.06
372.706	465.06
372.932	470.06
373.158	491.06
373.384	496.06
373.61	486.06
373.835	481.06
374.061	464.06
374.287	453.06
374.513	477.06
374.739	483.06
374.965	487.06
375.191	496.06
375.416	493.06
375.642	473.06
375.868	490.06
376.094	462.06
376.319	464.06
376.545	451.06
376.771	456.06
376.997	454.06
377.222	462.06
377.448	465.06
377.674	449.06
377.899	456.06
378.125	454.06
378.35	465.06
378.576	459.06
378.802	460.06
379.027	483.06
379.253	450.06
379.478	474.06
379.704	459.06
379.929	455.06
380.155	454.06
380.38	481.06
380.606	462.06
380.831	455.06
381.057	450.06
381.282	455.06
381.507	472.06
381.733	466.06
381.958	480.06
382.184	475.06
382.409	506.06
382.634	498.06
382.86	482.06
383.085	486.06
383.31	481.06
383.535	485.06
383.761	482.06
383.986	490.06
384.211	504.06
384.436	488.06
384.662	498.06
384.887	503.06
385.112	511.06
385.337	498.06
385.562	498.06
385.787	511.06
386.013	531.06
386.238	522.06
386.463	534.06
386.688	520.06
386.913	511.06
387.138	529.06
387.363	531.06
387.588	517.06
387.813	507.06
388.038	529.06
388.263	519.06
388.488	531.06
388.713	531.06
388.938	530.06
389.163	518.06
389.387	548.06
389.612	528.06
389.837	546.06
390.062	526.06
390.287	543.06
390.512	536.06
390.736	534.06
390.961	530.06
391.186	547.06
391.411	562.06
391.636	563.06
391.86	558.06
392.085	571.06
392.31	583.06
392.534	576.06
392.759	541.06
392.984	552.06
393.208	574.06
393.433	575.06
393.658	579.06
393.882	577.06
394.107	560.06
394.331	557.06
394.556	536.06
394.78	551.06
395.005	561.06
395.229	560.06
395.454	559.06
395.678	562.06
395.903	565.06
396.127	565.06
396.352	558.06
396.576	574.06
396.801	598.06
397.025	603.06
397.249	612.06
397.474	585.06
397.698	563.06
397.922	583.06
398.147	601.06
398.371	599.06
398.595	626.06
398.82	630.06
399.044	644.06
399.268	651.06
399.492	697.06
399.717	705.06
399.941	750.06
400.165	704.06
400.389	679.06
400.613	655.06
400.837	638.06
401.062	650.06
401.286	659.06
401.51	641.06
401.734	616.06
401.958	648.06
402.182	632.06
402.406	631.06
402.63	626.06
402.854	611.06
403.078	639.06
403.302	633.06
403.526	649.06
403.75	624.06
403.974	633.06
404.198	633.06
404.422	634.06
404.645	651.06
404.869	674.06
405.093	659.06
405.317	631.06
405.541	641.06
405.765	643.06
405.988	662.06
406.212	663.06
406.436	686.06
406.66	676.06
406.883	677.06
407.107	715.06
407.331	721.06
407.555	704.06
407.778	702.06
408.002	721.06
408.226	703.06
408.449	706.06
408.673	707.06
408.896	707.06
409.12	681.06
409.344	671.06
409.567	678.06
409.791	687.06
410.014	661.06
410.238	665.06
410.461	664.06
410.685	650.06
410.908	648.06
411.132	658.06
411.355	623.06
411.578	641.06
411.802	650.06
412.025	646.06
412.249	669.06
412.472	651.06
412.695	645.06
412.919	639.06
413.142	641.06
413.365	642.06
413.589	665.06
413.812	624.06
414.035	647.06
414.258	628.06
414.482	637.06
414.705	630.06
414.928	648.06
415.151	613.06
415.374	616.06
415.597	648.06
415.821	605.06
416.044	610.06
416.267	626.06
416.49	619.06
416.713	603.06
416.936	606.06
417.159	585.06
417.382	585.06
417.605	587.06
417.828	605.06
418.051	616.06
418.274	637.06
418.497	613.06
418.72	613.06
418.943	577.06
419.166	630.06
419.389	644.06
419.611	653.06
419.834	653.06
420.057	636.06
420.28	628.06
420.503	593.06
420.726	609.06
420.948	613.06
421.171	614.06
421.394	611.06
421.617	617.06
421.839	614.06
422.062	629.06
422.285	625.06
422.507	599.06
422.73	603.06
422.953	598.06
423.175	614.06
423.398	597.06
423.621	587.06
423.843	605.06
424.066	617.06
424.288	591.06
424.511	612.06
424.733	603.06
424.956	620.06
425.178	603.06
425.401	593.06
425.623	630.06
425.846	606.06
426.068	593.06
426.291	598.06
426.513	583.06
426.735	596.06
426.958	578.06
427.18	569.06
427.402	567.06
427.625	600.06
427.847	593.06
428.069	594.06
428.292	581.06
428.514	596.06
428.736	584.06
428.958	595.06
429.181	555.06
429.403	587.06
429.625	591.06
429.847	594.06
430.069	573.06
430.292	569.06
430.514	577.06
430.736	593.06
430.958	598.06
431.18	575.06
431.402	571.06
431.624	571.06
431.846	566.06
432.068	584.06
432.29	588.06
432.512	560.06
432.734	571.06
432.956	592.06
433.178	608.06
433.4	598.06
433.622	595.06
433.844	606.06
434.066	607.06
434.287	579.06
434.509	600.06
434.731	614.06
434.953	627.06
435.175	605.06
435.397	597.06
435.618	586.06
435.84	600.06
436.062	564.06
436.284	575.06
436.505	575.06
436.727	575.06
436.949	591.06
437.17	577.06
437.392	570.06
437.614	568.06
437.835	569.06
438.057	551.06
438.278	563.06
438.5	561.06
438.721	560.06
438.943	561.06
439.165	578.06
439.386	557.06
439.608	577.06
439.829	601.06
440.05	569.06
440.272	577.06
440.493	563.06
440.715	557.06
440.936	564.06
441.158	582.06
441.379	590.06
441.6	608.06
441.822	614.06
442.043	622.06
442.264	625.06
442.486	600.06
442.707	589.06
442.928	589.06
443.149	580.06
443.371	569.06
443.592	592.06
443.813	593.06
444.034	598.06
444.255	615.06
444.476	618.06
444.698	626.06
444.919	633.06
445.14	717.06
445.361	648.06
445.582	629.06
445.803	606.06
446.024	593.06
446.245	583.06
446.466	585.06
446.687	589.06
446.908	579.06
447.129	581.06
447.35	570.06
447.571	576.06
447.792	551.06
448.013	557.06
448.234	549.06
448.455	540.06
448.675	537.06
448.896	549.06
449.117	546.06
449.338	553.06
449.559	532.06
449.779	511.06
450	526.06
450.221	551.06
450.442	539.06
450.662	548.06
450.883	542.06
451.104	548.06
451.324	520.06
451.545	537.06
451.766	545.06
451.986	535.06
452.207	519.06
452.428	546.06
452.648	504.06
452.869	514.06
453.089	530.06
453.31	518.06
453.53	518.06
453.751	531.06
453.971	534.06
454.192	525.06
454.412	533.06
454.633	504.06
454.853	518.06
455.073	524.06
455.294	535.06
455.514	522.06
455.734	498.06
455.955	522.06
456.175	519.06
456.395	511.06
456.616	524.06
456.836	533.06
457.056	515.06
457.276	516.06
457.497	501.06
457.717	528.06
457.937	542.06
458.157	538.06
458.377	543.06
458.598	554.06
458.818	558.06
459.038	563.06
459.258	572.06
459.478	586.06
459.698	568.06
459.918	605.06
460.138	585.06
460.358	604.06
460.578	612.06
460.798	617.06
461.018	626.06
461.238	631.06
461.458	643.06
461.678	637.06
461.898	643.06
462.118	649.06
462.338	661.06
462.558	672.06
462.777	666.06
462.997	676.06
463.217	687.06
463.437	705.06
463.657	699.06
463.876	689.06
464.096	701.06
464.316	674.06
464.536	657.06
464.755	686.06
464.975	652.06
465.195	638.06
465.414	631.06
465.634	597.06
465.854	597.06
466.073	596.06
466.293	603.06
466.512	591.06
466.732	565.06
466.951	590.06
467.171	586.06
467.391	583.06
467.61	605.06
467.829	592.06
468.049	559.06
468.268	562.06
468.488	555.06
468.707	577.06
468.927	575.06
469.146	578.06
469.365	567.06
469.585	561.06
469.804	571.06
470.023	581.06
470.243	585.06
470.462	583.06
470.681	572.06
470.901	573.06
471.12	575.06
471.339	575.06
471.558	586.06
471.777	557.06
471.997	572.06
472.216	577.06
472.435	563.06
472.654	569.06
472.873	559.06
473.092	550.06
473.311	597.06
473.53	577.06
473.749	573.06
473.968	574.06
474.187	578.06
474.406	561.06
474.625	580.06
474.844	571.06
475.063	575.06
475.282	583.06
475.501	590.06
475.72	593.06
475.939	565.06
476.158	616.06
476.377	592.06
476.596	597.06
476.814	610.06
477.033	610.06
477.252	607.06
477.471	631.06
477.69	633.06
477.908	652.06
478.127	643.06
478.346	637.06
478.564	630.06
478.783	646.06
479.002	665.06
479.22	657.06
479.439	677.06
479.658	663.06
479.876	685.06
480.095	653.06
480.313	666.06
480.532	667.06
480.751	692.06
480.969	667.06
481.188	663.06
481.406	650.06
481.624	667.06
481.843	674.06
482.061	643.06
482.28	665.06
482.498	657.06
482.717	666.06
482.935	670.06
483.153	685.06
483.372	665.06
483.59	649.06
483.808	678.06
484.027	657.06
484.245	679.06
484.463	683.06
484.681	677.06
484.9	683.06
485.118	675.06
485.336	686.06
485.554	697.06
485.772	679.06
485.99	662.06
486.209	717.06
486.427	663.06
486.645	671.06
486.863	691.06
487.081	683.06
487.299	687.06
487.517	696.06
487.735	699.06
487.953	688.06
488.171	691.06
488.389	690.06
488.607	689.06
488.825	704.06
489.043	706.06
489.261	689.06
489.479	691.06
489.696	690.06
489.914	683.06
490.132	681.06
490.35	694.06
490.568	695.06
490.786	696.06
491.003	708.06
491.221	702.06
491.439	715.06
491.657	714.06
491.874	714.06
492.092	712.06
492.31	736.06
492.527	721.06
492.745	743.06
492.963	726.06
493.18	718.06
493.398	715.06
493.615	741.06
493.833	717.06
494.05	735.06
494.268	721.06
494.485	721.06
494.703	752.06
494.92	744.06
495.138	721.06
495.355	727.06
495.573	745.06
495.79	769.06
496.008	757.06
496.225	754.06
496.442	782.06
496.66	769.06
496.877	786.06
497.094	796.06
497.312	800.06
497.529	814.06
497.746	797.06
497.963	839.06
498.181	851.06
498.398	861.06
498.615	879.06
498.832	939.06
499.049	953.06
499.267	1001.06
499.484	1014.06
499.701	1062.06
499.918	1094.06
500.135	1160.06
500.352	1240.06
500.569	1246.06
500.786	1261.06
501.003	1217.06
501.22	1144.06
501.437	1098.06
501.654	1046.06
501.871	1026.06
502.088	959.06
502.305	957.06
502.522	923.06
502.739	922.06
502.956	872.06
503.172	858.06
503.389	831.06
503.606	834.06
503.823	810.06
504.04	809.06
504.256	828.06
504.473	797.06
504.69	810.06
504.907	766.06
505.123	777.06
505.34	744.06
505.557	717.06
505.773	724.06
505.99	726.06
506.207	707.06
506.423	709.06
506.64	700.06
506.856	682.06
507.073	689.06
507.289	671.06
507.506	658.06
507.722	702.06
507.939	653.06
508.155	635.06
508.372	643.06
508.588	648.06
508.805	637.06
509.021	643.06
509.238	641.06
509.454	640.06
509.67	651.06
509.887	627.06
510.103	632.06
510.319	635.06
510.536	614.06
510.752	622.06
510.968	626.06
511.184	601.06
511.401	601.06
511.617	606.06
511.833	614.06
512.049	609.06
512.265	598.06
512.481	617.06
512.698	602.06
512.914	647.06
513.13	627.06
513.346	599.06
513.562	621.06
513.778	601.06
513.994	626.06
514.21	611.06
514.426	615.06
514.642	625.06
514.858	605.06
515.074	615.06
515.29	606.06
515.506	633.06
515.721	645.06
515.937	636.06
516.153	639.06
516.369	659.06
516.585	662.06
516.801	677.06
517.016	680.06
517.232	691.06
517.448	688.06
517.664	704.06
517.879	689.06
518.095	680.06
518.311	692.06
518.527	671.06
518.742	671.06
518.958	673.06
519.173	655.06
519.389	669.06
519.605	654.06
519.82	655.06
520.036	667.06
520.251	634.06
520.467	640.06
520.682	608.06
520.898	593.06
521.113	595.06
521.329	584.06
521.544	591.06
521.76	595.06
521.975	591.06
522.19	586.06
522.406	590.06
522.621	582.06
522.836	601.06
523.052	581.06
523.267	606.06
523.482	590.06
523.698	594.06
523.913	583.06
524.128	586.06
524.343	581.06
524.559	598.06
524.774	573.06
524.989	569.06
525.204	557.06
525.419	567.06
525.634	570.06
525.849	558.06
526.064	562.06
526.28	566.06
526.495	578.06
526.71	559.06
526.925	557.06
527.14	581.06
527.355	550.06
527.57	548.06
527.785	573.06
527.999	549.06
528.214	572.06
528.429	543.06
528.644	541.06
528.859	571.06
529.074	576.06
529.289	567.06
529.503	532.06
529.718	554.06
529.933	547.06
530.148	574.06
530.363	569.06
530.577	535.06
530.792	562.06
531.007	546.06
531.221	552.06
531.436	542.06
531.651	575.06
531.865	533.06
532.08	553.06
532.295	558.06
532.509	551.06
532.724	549.06
532.938	542.06
533.153	539.06
533.367	526.06
533.582	550.06
533.796	560.06
534.011	577.06
534.225	544.06
534.44	541.06
534.654	540.06
534.868	559.06
535.083	561.06
535.297	549.06
535.511	543.06
535.726	538.06
535.94	523.06
536.154	533.06
536.369	526.06
536.583	505.06
536.797	515.06
537.011	521.06
537.225	515.06
537.44	514.06
537.654	515.06
537.868	519.06
538.082	518.06
538.296	524.06
538.51	521.06
538.724	526.06
538.938	499.06
539.153	501.06
539.367	499.06
539.581	506.06
539.795	543.06
540.009	523.06
540.222	507.06
540.436	522.06
540.65	521.06
540.864	517.06
541.078	515.06
541.292	506.06
541.506	518.06
541.72	523.06
541.934	515.06
542.147	514.06
542.361	520.06
542.575	520.06
542.789	515.06
543.002	503.06
543.216	510.06
543.43	501.06
543.644	494.06
543.857	500.06
544.071	523.06
544.285	531.06
544.498	517.06
544.712	516.06
544.925	516.06
545.139	509.06
545.352	505.06
545.566	497.06
545.779	527.06
545.993	509.06
546.206	537.06
546.42	511.06
546.633	524.06
546.847	527.06
547.06	516.06
547.274	518.06
547.487	490.06
547.7	500.06
547.914	503.06
548.127	519.06
548.34	522.06
548.554	517.06
548.767	521.06
548.98	509.06
549.193	498.06
549.407	508.06
549.62	512.06
549.833	526.06
550.046	512.06
550.259	520.06
550.473	510.06
550.686	512.06
550.899	511.06
551.112	528.06
551.325	522.06
551.538	505.06
551.751	501.06
551.964	532.06
552.177	509.06
552.39	508.06
552.603	521.06
552.816	519.06
553.029	515.06
553.242	541.06
553.455	512.06
553.667	538.06
553.88	523.06
554.093	493.06
554.306	507.06
554.519	499.06
554.732	515.06
554.944	508.06
555.157	483.06
555.37	496.06
555.583	489.06
555.795	483.06
556.008	458.06
556.221	477.06
556.433	447.06
556.646	451.06
556.859	462.06
557.071	457.06
557.284	491.06
557.496	477.06
557.709	462.06
557.921	446.06
558.134	447.06
558.346	445.06
558.559	459.06
558.771	459.06
558.984	457.06
559.196	459.06
559.409	460.06
559.621	451.06
559.833	452.06
560.046	444.06
560.258	437.06
560.47	449.06
560.683	474.06
560.895	449.06
561.107	458.06
561.32	449.06
561.532	427.06
561.744	440.06
561.956	454.06
562.168	452.06
562.381	439.06
562.593	459.06
562.805	446.06
563.017	431.06
563.229	461.06
563.441	456.06
563.653	450.06
563.865	446.06
564.077	441.06
564.289	451.06
564.501	450.06
564.713	465.06
564.925	474.06
565.137	484.06
565.349	475.06
565.561	482.06
565.773	474.06
565.985	470.06
566.197	494.06
566.408	534.06
566.62	514.06
566.832	518.06
567.044	532.06
567.255	540.06
567.467	552.06
567.679	550.06
567.891	581.06
568.102	555.06
568.314	533.06
568.526	517.06
568.737	504.06
568.949	493.06
569.161	482.06
569.372	472.06
569.584	464.06
569.795	460.06
570.007	439.06
570.218	448.06
570.43	453.06
570.641	435.06
570.853	433.06
571.064	422.06
571.276	417.06
571.487	411.06
571.698	406.06
571.91	419.06
572.121	387.06
572.333	401.06
572.544	389.06
572.755	381.06
572.966	383.06
573.178	400.06
573.389	375.06
573.6	386.06
573.811	379.06
574.023	372.06
574.234	375.06
574.445	380.06
574.656	383.06
574.867	373.06
575.078	355.06
575.289	379.06
575.501	358.06
575.712	359.06
575.923	371.06
576.134	361.06
576.345	357.06
576.556	333.06
576.767	349.06
576.978	353.06
577.188	357.06
577.399	349.06
577.61	347.06
577.821	352.06
578.032	345.06
578.243	346.06
578.454	342.06
578.665	339.06
578.875	336.06
579.086	330.06
579.297	314.06
579.508	332.06
579.718	353.06
579.929	329.06
580.14	327.06
580.35	340.06
580.561	333.06
580.772	323.06
580.982	327.06
581.193	326.06
581.403	326.06
581.614	348.06
581.825	323.06
582.035	329.06
582.246	350.06
582.456	341.06
582.667	326.06
582.877	309.06
583.087	315.06
583.298	328.06
583.508	340.06
583.719	321.06
583.929	310.06
584.139	317.06
584.35	311.06
584.56	278.06
584.77	316.06
584.981	308.06
585.191	323.06
585.401	317.06
585.611	311.06
585.821	308.06
586.032	312.06
586.242	299.06
586.452	301.06
586.662	327.06
586.872	301.06
587.082	308.06
587.292	309.06
587.502	321.06
587.713	319.06
587.923	316.06
588.133	300.06
588.343	301.06
588.553	295.06
588.762	316.06
588.972	323.06
589.182	399.06
589.392	393.06
589.602	314.06
589.812	404.06
590.022	346.06
590.232	320.06
590.441	297.06
590.651	303.06
590.861	309.06
591.071	304.06
591.281	305.06
591.49	311.06
591.7	309.06
591.91	310.06
592.119	313.06
592.329	332.06
592.539	307.06
592.748	323.06
592.958	315.06
593.167	317.06
593.377	313.06
593.587	330.06
593.796	324.06
594.006	322.06
594.215	298.06
594.424	331.06
594.634	323.06
594.843	316.06
595.053	325.06
595.262	326.06
595.472	302.06
595.681	309.06
595.89	288.06
596.1	297.06
596.309	305.06
596.518	287.06
596.727	286.06
596.937	283.06
597.146	277.06
597.355	274.06
597.564	273.06
597.774	289.06
597.983	277.06
598.192	278.06
598.401	279.06
598.61	279.06
598.819	276.06
599.028	283.06
599.237	265.06
599.446	286.06
599.655	286.06
599.864	268.06
600.073	266.06
600.282	273.06
600.491	271.06
600.7	256.06
600.909	267.06
601.118	259.06
601.327	267.06
601.536	256.06
601.745	264.06
601.953	258.06
602.162	273.06
602.371	259.06
602.58	235.06
602.789	271.06
602.997	258.06
603.206	248.06
603.415	257.06
603.623	263.06
603.832	261.06
604.041	254.06
604.249	265.06
604.458	261.06
604.666	250.06
604.875	257.06
605.084	241.06
605.292	255.06
605.501	242.06
605.709	230.06
605.918	255.06
606.126	269.06
606.334	263.06
606.543	267.06
606.751	229.06
606.96	233.06
607.168	260.06
607.376	259.06
607.585	264.06
607.793	262.06
608.001	244.06
608.21	234.06
608.418	253.06
608.626	226.06
608.834	245.06
609.043	227.06
609.251	233.06
609.459	251.06
609.667	246.06
609.875	245.06
610.083	239.06
610.291	257.06
610.499	244.06
610.707	241.06
610.916	237.06
611.124	241.06
611.332	250.06
611.54	223.06
611.748	255.06
611.955	243.06
612.163	235.06
612.371	236.06
612.579	244.06
612.787	243.06
612.995	232.06
613.203	232.06
613.411	232.06
613.618	227.06
613.826	236.06
614.034	231.06
614.242	238.06
614.449	234.06
614.657	232.06
614.865	251.06
615.072	226.06
615.28	234.06
615.488	233.06
615.695	246.06
615.903	233.06
616.111	225.06
616.318	241.06
616.526	238.06
616.733	232.06
616.941	228.06
617.148	230.06
617.356	225.06
617.563	238.06
617.771	239.06
617.978	220.06
618.185	223.06
618.393	231.06
618.6	225.06
618.807	211.06
619.015	238.06
619.222	225.06
619.429	228.06
619.637	233.06
619.844	240.06
620.051	211.06
620.258	210.06
620.466	224.06
620.673	231.06
620.88	222.06
621.087	218.06
621.294	221.06
621.501	224.06
621.708	217.06
621.915	214.06
622.122	219.06
622.329	215.06
622.536	225.06
622.743	209.06
622.95	220.06
623.157	221.06
623.364	218.06
623.571	209.06
623.778	233.06
623.985	217.06
624.192	209.06
624.399	190.06
624.606	213.06
624.812	207.06
625.019	198.06
625.226	216.06
625.433	205.06
625.639	202.06
625.846	202.06
626.053	210.06
626.259	198.06
626.466	206.06
626.673	200.06
626.879	199.06
627.086	190.06
627.293	213.06
627.499	216.06
627.706	211.06
627.912	214.06
628.119	207.06
628.325	210.06
628.532	189.06
628.738	185.06
628.945	201.06
629.151	199.06
629.357	200.06
629.564	193.06
629.77	195.06
629.976	181.06
630.183	207.06
630.389	186.06
630.595	211.06
630.802	185.06
631.008	200.06
631.214	196.06
631.42	197.06
631.627	210.06
631.833	203.06
632.039	181.06
632.245	180.06
632.451	182.06
632.657	184.06
632.863	193.06
633.069	195.06
633.275	185.06
633.481	184.06
633.688	183.06
633.893	189.06
634.099	198.06
634.305	201.06
634.511	202.06
634.717	184.06
634.923	176.06
635.129	176.06
635.335	190.06
635.541	181.06
635.747	185.06
635.952	170.06
636.158	195.06
636.364	189.06
636.57	194.06
636.775	180.06
636.981	204.06
637.187	189.06
637.392	176.06
637.598	187.06
637.804	179.06
638.009	173.06
638.215	179.06
638.421	178.06
638.626	182.06
638.832	183.06
639.037	196.06
639.243	179.06
639.448	190.06
639.654	171.06
639.859	162.06
640.065	179.06
640.27	181.06
640.475	185.06
640.681	176.06
640.886	184.06
641.091	176.06
641.297	168.06
641.502	162.06
641.707	193.06
641.913	179.06
642.118	173.06
642.323	159.06
642.528	177.06
642.733	179.06
642.939	173.06
643.144	187.06
643.349	205.06
643.554	184.06
643.759	170.06
643.964	174.06
644.169	177.06
644.374	173.06
644.579	161.06
644.784	186.06
644.989	166.06
645.194	162.06
645.399	183.06
645.604	173.06
645.809	174.06
646.014	174.06
646.219	177.06
646.423	179.06
646.628	168.06
646.833	170.06
647.038	190.06
647.243	169.06
647.447	159.06
647.652	175.06
647.857	171.06
648.062	189.06
648.266	167.06
648.471	178.06
648.676	177.06
648.88	185.06
649.085	173.06
649.289	185.06
649.494	180.06
649.698	194.06
649.903	173.06
650.107	163.06
650.312	179.06
650.516	173.06
650.721	168.06
650.925	151.06
651.13	175.06
651.334	188.06
651.539	178.06
651.743	183.06
651.947	180.06
652.152	168.06
652.356	157.06
652.56	165.06
652.764	161.06
652.969	174.06
653.173	153.06
653.377	153.06
653.581	158.06
653.785	157.06
653.99	146.06
654.194	168.06
654.398	166.06
654.602	158.06
654.806	175.06
655.01	169.06
655.214	159.06
655.418	153.06
655.622	153.06
655.826	142.06
656.03	153.06
656.234	167.06
656.438	157.06
656.642	158.06
656.846	149.06
657.049	138.06
657.253	145.06
657.457	143.06
657.661	126.06
657.865	135.06
658.068	130.06
658.272	126.06
658.476	118.06
658.68	126.06
658.883	115.06
659.087	106.06
659.291	119.06
659.494	123.06
659.698	95.06
659.901	115.06
660.105	109.06
660.309	94.06
660.512	100.06
660.716	94.06
660.919	104.06
661.123	97.06
661.326	88.06
661.53	82.06
661.733	100.06
661.936	109.06
662.14	97.06
662.343	88.06
662.546	80.06
662.75	96.06
662.953	76.06
663.156	94.06
663.36	82.06
663.563	91.06
663.766	78.06
663.969	79.06
664.173	80.06
664.376	75.06
664.579	86.06
664.782	76.06
664.985	74.06
665.188	73.06
665.391	85.06
665.594	90.06
665.797	69.06
666	82.06
666.203	70.06
666.406	82.06
666.609	66.06
666.812	76.06
667.015	81.06
667.218	62.06
667.421	85.06
667.624	87.06
667.827	87.06
668.03	80.06
668.232	76.06
668.435	94.06
668.638	74.06
668.841	94.06
669.043	84.06
669.246	87.06
669.449	87.06
669.651	80.06
669.854	83.06
670.057	78.06
670.259	79.06
670.462	78.06
670.665	85.06
670.867	72.06
671.07	87.06
671.272	86.06
671.475	89.06
671.677	89.06
671.88	74.06
672.082	73.06
672.284	74.06
672.487	70.06
672.689	81.06
672.892	67.06
