Data from Fe(NO3)3@0.025M.TitratingCurve.Agarose3%dH2O.NegLispCup.LampEnergy10.LIBS07252019_HRD10591_16-53-42-335.txt Node
Date: Thu Jul 25 16:53:42 EDT 2019
User: cochatt
Spectrometer: HR+D1059
Trigger mode: 1
Integration Time (sec): 1.000000E-1
Scans to average: 1
Electric dark correction enabled: true
Nonlinearity correction enabled: false
Boxcar width: 0
XAxis mode: Wavelengths
Number of Pixels in Spectrum: 2048
>>>>>Begin Spectral Data<<<<<
223.165	-2.25
223.4	-2.25
223.635	-2.25
223.869	-5.25
224.104	-8.25
224.338	-17.25
224.573	-8.25
224.808	-25.25
225.042	1.75
225.277	-0.25
225.511	-8.25
225.746	9.75
225.98	-6.25
226.215	3.75
226.449	3.75
226.683	25.75
226.918	10.75
227.152	25.75
227.387	14.75
227.621	41.75
227.856	43.75
228.09	41.75
228.324	38.75
228.559	40.75
228.793	57.75
229.027	86.75
229.262	97.75
229.496	109.75
229.73	103.75
229.964	103.75
230.199	95.75
230.433	114.75
230.667	111.75
230.901	123.75
231.136	122.75
231.37	124.75
231.604	116.75
231.838	110.75
232.072	128.75
232.306	122.75
232.541	115.75
232.775	116.75
233.009	138.75
233.243	143.75
233.477	127.75
233.711	137.75
233.945	117.75
234.179	133.75
234.413	134.75
234.647	139.75
234.881	131.75
235.115	123.75
235.349	146.75
235.583	145.75
235.817	128.75
236.051	128.75
236.285	135.75
236.519	139.75
236.753	146.75
236.987	147.75
237.221	130.75
237.455	143.75
237.689	138.75
237.922	132.75
238.156	129.75
238.39	156.75
238.624	165.75
238.858	165.75
239.091	129.75
239.325	147.75
239.559	153.75
239.793	163.75
240.027	170.75
240.26	147.75
240.494	155.75
240.728	160.75
240.961	154.75
241.195	148.75
241.429	153.75
241.662	152.75
241.896	162.75
242.13	180.75
242.363	167.75
242.597	178.75
242.83	159.75
243.064	161.75
243.298	156.75
243.531	196.75
243.765	150.75
243.998	169.75
244.232	178.75
244.465	185.75
244.699	170.75
244.932	177.75
245.166	178.75
245.399	186.75
245.633	184.75
245.866	185.75
246.099	189.75
246.333	191.75
246.566	182.75
246.8	195.75
247.033	193.75
247.266	179.75
247.5	183.75
247.733	203.75
247.966	199.75
248.2	186.75
248.433	199.75
248.666	204.75
248.899	216.75
249.133	186.75
249.366	210.75
249.599	202.75
249.832	216.75
250.066	205.75
250.299	208.75
250.532	202.75
250.765	207.75
250.998	199.75
251.231	215.75
251.465	207.75
251.698	209.75
251.931	225.75
252.164	222.75
252.397	217.75
252.63	225.75
252.863	218.75
253.096	222.75
253.329	215.75
253.562	241.75
253.795	246.75
254.028	239.75
254.261	247.75
254.494	246.75
254.727	248.75
254.96	245.75
255.193	236.75
255.426	256.75
255.659	229.75
255.892	245.75
256.124	255.75
256.357	258.75
256.59	243.75
256.823	247.75
257.056	245.75
257.289	246.75
257.521	242.75
257.754	257.75
257.987	245.75
258.22	263.75
258.452	265.75
258.685	273.75
258.918	261.75
259.151	274.75
259.383	257.75
259.616	260.75
259.849	281.75
260.081	277.75
260.314	288.75
260.547	284.75
260.779	277.75
261.012	289.75
261.244	284.75
261.477	282.75
261.71	285.75
261.942	296.75
262.175	291.75
262.407	290.75
262.64	269.75
262.872	282.75
263.105	298.75
263.337	295.75
263.57	297.75
263.802	288.75
264.035	282.75
264.267	291.75
264.499	281.75
264.732	271.75
264.964	279.75
265.197	298.75
265.429	293.75
265.661	293.75
265.894	301.75
266.126	302.75
266.358	294.75
266.591	294.75
266.823	308.75
267.055	303.75
267.287	302.75
267.52	296.75
267.752	313.75
267.984	302.75
268.216	301.75
268.448	309.75
268.681	310.75
268.913	315.75
269.145	325.75
269.377	301.75
269.609	313.75
269.841	319.75
270.073	322.75
270.306	331.75
270.538	317.75
270.77	318.75
271.002	336.75
271.234	317.75
271.466	326.75
271.698	323.75
271.93	341.75
272.162	314.75
272.394	325.75
272.626	326.75
272.858	337.75
273.09	351.75
273.322	367.75
273.553	350.75
273.785	351.75
274.017	383.75
274.249	369.75
274.481	379.75
274.713	371.75
274.945	392.75
275.176	377.75
275.408	380.75
275.64	371.75
275.872	379.75
276.104	380.75
276.335	345.75
276.567	365.75
276.799	370.75
277.031	362.75
277.262	376.75
277.494	354.75
277.726	360.75
277.957	370.75
278.189	358.75
278.421	371.75
278.652	379.75
278.884	374.75
279.115	376.75
279.347	382.75
279.579	383.75
279.81	396.75
280.042	385.75
280.273	401.75
280.505	400.75
280.736	415.75
280.968	385.75
281.199	383.75
281.431	389.75
281.662	420.75
281.894	400.75
282.125	356.75
282.356	411.75
282.588	405.75
282.819	391.75
283.051	383.75
283.282	396.75
283.513	410.75
283.745	402.75
283.976	405.75
284.207	423.75
284.439	402.75
284.67	416.75
284.901	415.75
285.132	409.75
285.364	416.75
285.595	438.75
285.826	418.75
286.057	429.75
286.288	413.75
286.52	438.75
286.751	431.75
286.982	440.75
287.213	431.75
287.444	417.75
287.675	427.75
287.906	431.75
288.138	437.75
288.369	429.75
288.6	461.75
288.831	440.75
289.062	439.75
289.293	441.75
289.524	451.75
289.755	435.75
289.986	441.75
290.217	454.75
290.448	439.75
290.679	451.75
290.91	448.75
291.141	442.75
291.371	453.75
291.602	432.75
291.833	444.75
292.064	465.75
292.295	438.75
292.526	459.75
292.757	431.75
292.987	471.75
293.218	436.75
293.449	453.75
293.68	472.75
293.91	477.75
294.141	453.75
294.372	463.75
294.603	474.75
294.833	466.75
295.064	477.75
295.295	473.75
295.525	455.75
295.756	458.75
295.987	469.75
296.217	460.75
296.448	462.75
296.679	468.75
296.909	471.75
297.14	465.75
297.37	460.75
297.601	506.75
297.831	477.75
298.062	465.75
298.292	483.75
298.523	471.75
298.753	480.75
298.984	480.75
299.214	489.75
299.445	511.75
299.675	472.75
299.905	484.75
300.136	486.75
300.366	506.75
300.597	486.75
300.827	482.75
301.057	473.75
301.288	498.75
301.518	481.75
301.748	511.75
301.979	537.75
302.209	510.75
302.439	491.75
302.669	509.75
302.9	517.75
303.13	537.75
303.36	531.75
303.59	516.75
303.82	505.75
304.051	517.75
304.281	532.75
304.511	533.75
304.741	534.75
304.971	542.75
305.201	511.75
305.431	521.75
305.661	532.75
305.891	535.75
306.121	530.75
306.352	536.75
306.582	514.75
306.812	516.75
307.042	535.75
307.272	529.75
307.502	531.75
307.731	546.75
307.961	533.75
308.191	537.75
308.421	516.75
308.651	529.75
308.881	513.75
309.111	536.75
309.341	527.75
309.571	544.75
309.8	541.75
310.03	555.75
310.26	562.75
310.49	548.75
310.72	554.75
310.949	552.75
311.179	549.75
311.409	538.75
311.639	568.75
311.868	560.75
312.098	566.75
312.328	549.75
312.557	558.75
312.787	548.75
313.017	560.75
313.246	561.75
313.476	587.75
313.706	585.75
313.935	577.75
314.165	583.75
314.394	599.75
314.624	592.75
314.853	590.75
315.083	575.75
315.312	585.75
315.542	598.75
315.771	570.75
316.001	588.75
316.23	595.75
316.46	601.75
316.689	591.75
316.919	573.75
317.148	606.75
317.377	574.75
317.607	587.75
317.836	605.75
318.065	603.75
318.295	608.75
318.524	588.75
318.753	601.75
318.983	584.75
319.212	596.75
319.441	603.75
319.67	604.75
319.9	585.75
320.129	607.75
320.358	602.75
320.587	624.75
320.816	604.75
321.046	610.75
321.275	583.75
321.504	610.75
321.733	606.75
321.962	611.75
322.191	618.75
322.42	633.75
322.649	610.75
322.878	618.75
323.108	614.75
323.337	637.75
323.566	627.75
323.795	610.75
324.024	633.75
324.253	641.75
324.482	635.75
324.71	624.75
324.939	620.75
325.168	621.75
325.397	635.75
325.626	650.75
325.855	642.75
326.084	635.75
326.313	625.75
326.542	641.75
326.77	643.75
326.999	649.75
327.228	621.75
327.457	662.75
327.686	647.75
327.914	632.75
328.143	652.75
328.372	663.75
328.6	657.75
328.829	649.75
329.058	661.75
329.287	664.75
329.515	655.75
329.744	649.75
329.972	669.75
330.201	666.75
330.43	662.75
330.658	665.75
330.887	647.75
331.115	679.75
331.344	673.75
331.572	669.75
331.801	683.75
332.03	653.75
332.258	690.75
332.486	667.75
332.715	687.75
332.943	688.75
333.172	663.75
333.4	689.75
333.629	685.75
333.857	701.75
334.085	690.75
334.314	711.75
334.542	720.75
334.771	736.75
334.999	745.75
335.227	714.75
335.455	746.75
335.684	719.75
335.912	717.75
336.14	704.75
336.369	735.75
336.597	730.75
336.825	743.75
337.053	740.75
337.281	752.75
337.51	727.75
337.738	731.75
337.966	722.75
338.194	723.75
338.422	703.75
338.65	709.75
338.878	725.75
339.106	697.75
339.334	713.75
339.562	707.75
339.79	727.75
340.018	709.75
340.246	711.75
340.474	707.75
340.702	696.75
340.93	664.75
341.158	693.75
341.386	679.75
341.614	725.75
341.842	699.75
342.07	691.75
342.298	689.75
342.526	705.75
342.754	677.75
342.981	673.75
343.209	687.75
343.437	705.75
343.665	687.75
343.893	725.75
344.12	732.75
344.348	721.75
344.576	702.75
344.804	731.75
345.031	708.75
345.259	698.75
345.487	706.75
345.714	706.75
345.942	709.75
346.17	697.75
346.397	697.75
346.625	686.75
346.853	691.75
347.08	704.75
347.308	691.75
347.535	688.75
347.763	689.75
347.99	687.75
348.218	683.75
348.445	678.75
348.673	681.75
348.9	680.75
349.128	681.75
349.355	673.75
349.583	674.75
349.81	696.75
350.037	654.75
350.265	671.75
350.492	689.75
350.72	674.75
350.947	661.75
351.174	669.75
351.402	653.75
351.629	681.75
351.856	674.75
352.083	681.75
352.311	676.75
352.538	671.75
352.765	671.75
352.992	660.75
353.22	678.75
353.447	653.75
353.674	662.75
353.901	663.75
354.128	689.75
354.355	645.75
354.583	673.75
354.81	661.75
355.037	658.75
355.264	677.75
355.491	671.75
355.718	679.75
355.945	662.75
356.172	674.75
356.399	680.75
356.626	685.75
356.853	661.75
357.08	670.75
357.307	704.75
357.534	664.75
357.761	655.75
357.988	680.75
358.215	697.75
358.441	689.75
358.668	685.75
358.895	661.75
359.122	698.75
359.349	685.75
359.576	669.75
359.802	679.75
360.029	661.75
360.256	685.75
360.483	681.75
360.709	678.75
360.936	689.75
361.163	679.75
361.39	669.75
361.616	675.75
361.843	677.75
362.07	690.75
362.296	699.75
362.523	684.75
362.749	683.75
362.976	671.75
363.203	686.75
363.429	679.75
363.656	694.75
363.882	691.75
364.109	691.75
364.335	702.75
364.562	701.75
364.788	696.75
365.015	687.75
365.241	685.75
365.468	695.75
365.694	710.75
365.92	671.75
366.147	698.75
366.373	703.75
366.599	670.75
366.826	727.75
367.052	696.75
367.278	692.75
367.505	719.75
367.731	718.75
367.957	719.75
368.184	722.75
368.41	693.75
368.636	699.75
368.862	715.75
369.089	722.75
369.315	712.75
369.541	700.75
369.767	712.75
369.993	711.75
370.219	710.75
370.445	721.75
370.672	723.75
370.898	721.75
371.124	726.75
371.35	737.75
371.576	725.75
371.802	744.75
372.028	741.75
372.254	741.75
372.48	749.75
372.706	727.75
372.932	760.75
373.158	747.75
373.384	756.75
373.61	740.75
373.835	726.75
374.061	713.75
374.287	745.75
374.513	731.75
374.739	737.75
374.965	776.75
375.191	744.75
375.416	725.75
375.642	725.75
375.868	743.75
376.094	745.75
376.319	743.75
376.545	746.75
376.771	751.75
376.997	723.75
377.222	718.75
377.448	723.75
377.674	743.75
377.899	739.75
378.125	718.75
378.35	733.75
378.576	711.75
378.802	714.75
379.027	731.75
379.253	711.75
379.478	735.75
379.704	714.75
379.929	710.75
380.155	736.75
380.38	716.75
380.606	735.75
380.831	750.75
381.057	735.75
381.282	725.75
381.507	746.75
381.733	750.75
381.958	738.75
382.184	767.75
382.409	744.75
382.634	753.75
382.86	751.75
383.085	766.75
383.31	762.75
383.535	766.75
383.761	767.75
383.986	778.75
384.211	774.75
384.436	806.75
384.662	780.75
384.887	792.75
385.112	778.75
385.337	789.75
385.562	801.75
385.787	818.75
386.013	827.75
386.238	797.75
386.463	792.75
386.688	815.75
386.913	815.75
387.138	817.75
387.363	823.75
387.588	818.75
387.813	815.75
388.038	829.75
388.263	829.75
388.488	832.75
388.713	787.75
388.938	833.75
389.163	818.75
389.387	836.75
389.612	833.75
389.837	835.75
390.062	843.75
390.287	825.75
390.512	818.75
390.736	853.75
390.961	833.75
391.186	822.75
391.411	854.75
391.636	824.75
391.86	860.75
392.085	853.75
392.31	868.75
392.534	862.75
392.759	878.75
392.984	853.75
393.208	859.75
393.433	870.75
393.658	883.75
393.882	877.75
394.107	854.75
394.331	874.75
394.556	855.75
394.78	855.75
395.005	878.75
395.229	857.75
395.454	889.75
395.678	898.75
395.903	861.75
396.127	883.75
396.352	878.75
396.576	878.75
396.801	889.75
397.025	905.75
397.249	906.75
397.474	893.75
397.698	871.75
397.922	929.75
398.147	879.75
398.371	910.75
398.595	946.75
398.82	937.75
399.044	935.75
399.268	964.75
399.492	969.75
399.717	1021.75
399.941	1002.75
400.165	998.75
400.389	977.75
400.613	947.75
400.837	1005.75
401.062	963.75
401.286	968.75
401.51	964.75
401.734	953.75
401.958	939.75
402.182	971.75
402.406	919.75
402.63	949.75
402.854	928.75
403.078	946.75
403.302	919.75
403.526	954.75
403.75	958.75
403.974	958.75
404.198	938.75
404.422	964.75
404.645	924.75
404.869	960.75
405.093	938.75
405.317	935.75
405.541	925.75
405.765	969.75
405.988	946.75
406.212	968.75
406.436	976.75
406.66	1002.75
406.883	973.75
407.107	984.75
407.331	993.75
407.555	1010.75
407.778	1022.75
408.002	1005.75
408.226	1037.75
408.449	1032.75
408.673	1018.75
408.896	1003.75
409.12	995.75
409.344	1032.75
409.567	937.75
409.791	980.75
410.014	961.75
410.238	970.75
410.461	985.75
410.685	988.75
410.908	974.75
411.132	957.75
411.355	943.75
411.578	932.75
411.802	959.75
412.025	949.75
412.249	985.75
412.472	952.75
412.695	929.75
412.919	937.75
413.142	941.75
413.365	946.75
413.589	911.75
413.812	943.75
414.035	931.75
414.258	923.75
414.482	929.75
414.705	930.75
414.928	963.75
415.151	962.75
415.374	937.75
415.597	914.75
415.821	900.75
416.044	904.75
416.267	897.75
416.49	915.75
416.713	906.75
416.936	881.75
417.159	893.75
417.382	890.75
417.605	879.75
417.828	879.75
418.051	893.75
418.274	890.75
418.497	882.75
418.72	867.75
418.943	869.75
419.166	926.75
419.389	969.75
419.611	925.75
419.834	929.75
420.057	913.75
420.28	911.75
420.503	882.75
420.726	869.75
420.948	861.75
421.171	854.75
421.394	863.75
421.617	882.75
421.839	863.75
422.062	887.75
422.285	845.75
422.507	875.75
422.73	849.75
422.953	837.75
423.175	878.75
423.398	887.75
423.621	842.75
423.843	874.75
424.066	847.75
424.288	876.75
424.511	851.75
424.733	877.75
424.956	877.75
425.178	872.75
425.401	819.75
425.623	865.75
425.846	836.75
426.068	873.75
426.291	871.75
426.513	857.75
426.735	865.75
426.958	890.75
427.18	846.75
427.402	860.75
427.625	886.75
427.847	847.75
428.069	867.75
428.292	866.75
428.514	869.75
428.736	852.75
428.958	862.75
429.181	856.75
429.403	841.75
429.625	848.75
429.847	829.75
430.069	856.75
430.292	846.75
430.514	829.75
430.736	837.75
430.958	867.75
431.18	853.75
431.402	839.75
431.624	848.75
431.846	833.75
432.068	825.75
432.29	861.75
432.512	858.75
432.734	861.75
432.956	832.75
433.178	852.75
433.4	835.75
433.622	856.75
433.844	865.75
434.066	854.75
434.287	864.75
434.509	853.75
434.731	853.75
434.953	851.75
435.175	856.75
435.397	859.75
435.618	857.75
435.84	839.75
436.062	861.75
436.284	839.75
436.505	834.75
436.727	823.75
436.949	839.75
437.17	831.75
437.392	836.75
437.614	849.75
437.835	804.75
438.057	826.75
438.278	813.75
438.5	795.75
438.721	823.75
438.943	805.75
439.165	819.75
439.386	817.75
439.608	817.75
439.829	835.75
440.05	830.75
440.272	817.75
440.493	804.75
440.715	838.75
440.936	827.75
441.158	844.75
441.379	835.75
441.6	838.75
441.822	849.75
442.043	859.75
442.264	840.75
442.486	819.75
442.707	829.75
442.928	827.75
443.149	828.75
443.371	835.75
443.592	837.75
443.813	826.75
444.034	820.75
444.255	847.75
444.476	838.75
444.698	837.75
444.919	867.75
445.14	930.75
445.361	885.75
445.582	836.75
445.803	817.75
446.024	839.75
446.245	825.75
446.466	843.75
446.687	800.75
446.908	820.75
447.129	817.75
447.35	799.75
447.571	802.75
447.792	786.75
448.013	783.75
448.234	751.75
448.455	779.75
448.675	754.75
448.896	791.75
449.117	758.75
449.338	790.75
449.559	795.75
449.779	779.75
450	781.75
450.221	722.75
450.442	770.75
450.662	745.75
450.883	767.75
451.104	760.75
451.324	758.75
451.545	743.75
451.766	745.75
451.986	745.75
452.207	774.75
452.428	766.75
452.648	774.75
452.869	748.75
453.089	750.75
453.31	738.75
453.53	775.75
453.751	761.75
453.971	749.75
454.192	746.75
454.412	739.75
454.633	752.75
454.853	775.75
455.073	728.75
455.294	769.75
455.514	740.75
455.734	744.75
455.955	747.75
456.175	737.75
456.395	721.75
456.616	754.75
456.836	727.75
457.056	767.75
457.276	759.75
457.497	744.75
457.717	740.75
457.937	775.75
458.157	751.75
458.377	773.75
458.598	794.75
458.818	783.75
459.038	773.75
459.258	783.75
459.478	808.75
459.698	823.75
459.918	802.75
460.138	814.75
460.358	810.75
460.578	823.75
460.798	836.75
461.018	849.75
461.238	827.75
461.458	873.75
461.678	829.75
461.898	848.75
462.118	847.75
462.338	854.75
462.558	874.75
462.777	880.75
462.997	891.75
463.217	889.75
463.437	935.75
463.657	912.75
463.876	867.75
464.096	903.75
464.316	879.75
464.536	866.75
464.755	884.75
464.975	879.75
465.195	870.75
465.414	848.75
465.634	842.75
465.854	817.75
466.073	874.75
466.293	841.75
466.512	807.75
466.732	808.75
466.951	800.75
467.171	821.75
467.391	823.75
467.61	815.75
467.829	791.75
468.049	798.75
468.268	796.75
468.488	803.75
468.707	806.75
468.927	834.75
469.146	817.75
469.365	822.75
469.585	803.75
469.804	831.75
470.023	824.75
470.243	819.75
470.462	794.75
470.681	793.75
470.901	808.75
471.12	801.75
471.339	795.75
471.558	823.75
471.777	832.75
471.997	793.75
472.216	795.75
472.435	832.75
472.654	821.75
472.873	833.75
473.092	841.75
473.311	824.75
473.53	810.75
473.749	837.75
473.968	821.75
474.187	833.75
474.406	834.75
474.625	841.75
474.844	810.75
475.063	829.75
475.282	845.75
475.501	831.75
475.72	840.75
475.939	828.75
476.158	880.75
476.377	884.75
476.596	846.75
476.814	868.75
477.033	862.75
477.252	874.75
477.471	881.75
477.69	913.75
477.908	923.75
478.127	921.75
478.346	889.75
478.564	906.75
478.783	911.75
479.002	911.75
479.22	943.75
479.439	962.75
479.658	934.75
479.876	946.75
480.095	953.75
480.313	977.75
480.532	966.75
480.751	964.75
480.969	949.75
481.188	967.75
481.406	982.75
481.624	975.75
481.843	959.75
482.061	967.75
482.28	963.75
482.498	983.75
482.717	947.75
482.935	981.75
483.153	991.75
483.372	984.75
483.59	942.75
483.808	967.75
484.027	976.75
484.245	1005.75
484.463	988.75
484.681	1004.75
484.9	987.75
485.118	991.75
485.336	1006.75
485.554	991.75
485.772	1028.75
485.99	1013.75
486.209	1007.75
486.427	999.75
486.645	962.75
486.863	988.75
487.081	997.75
487.299	995.75
487.517	1017.75
487.735	1015.75
487.953	1018.75
488.171	1005.75
488.389	1017.75
488.607	991.75
488.825	1016.75
489.043	1001.75
489.261	1007.75
489.479	1005.75
489.696	1014.75
489.914	1030.75
490.132	1010.75
490.35	1009.75
490.568	977.75
490.786	1023.75
491.003	1032.75
491.221	1023.75
491.439	1025.75
491.657	1009.75
491.874	1028.75
492.092	1003.75
492.31	1027.75
492.527	1021.75
492.745	1043.75
492.963	1056.75
493.18	1017.75
493.398	1037.75
493.615	1035.75
493.833	1074.75
494.05	1035.75
494.268	1070.75
494.485	1025.75
494.703	1037.75
494.92	1062.75
495.138	1069.75
495.355	1088.75
495.573	1081.75
495.79	1091.75
496.008	1096.75
496.225	1112.75
496.442	1102.75
496.66	1118.75
496.877	1082.75
497.094	1142.75
497.312	1140.75
497.529	1121.75
497.746	1119.75
497.963	1163.75
498.181	1183.75
498.398	1184.75
498.615	1219.75
498.832	1210.75
499.049	1249.75
499.267	1305.75
499.484	1299.75
499.701	1375.75
499.918	1338.75
500.135	1391.75
500.352	1376.75
500.569	1361.75
500.786	1398.75
501.003	1384.75
501.22	1383.75
501.437	1369.75
501.654	1328.75
501.871	1305.75
502.088	1250.75
502.305	1248.75
502.522	1227.75
502.739	1208.75
502.956	1193.75
503.172	1207.75
503.389	1171.75
503.606	1153.75
503.823	1135.75
504.04	1093.75
504.256	1104.75
504.473	1094.75
504.69	1102.75
504.907	1065.75
505.123	1046.75
505.34	1067.75
505.557	1039.75
505.773	1018.75
505.99	1042.75
506.207	984.75
506.423	985.75
506.64	978.75
506.856	982.75
507.073	945.75
507.289	993.75
507.506	961.75
507.722	967.75
507.939	953.75
508.155	930.75
508.372	947.75
508.588	955.75
508.805	938.75
509.021	907.75
509.238	911.75
509.454	854.75
509.67	914.75
509.887	899.75
510.103	883.75
510.319	895.75
510.536	881.75
510.752	858.75
510.968	889.75
511.184	870.75
511.401	887.75
511.617	891.75
511.833	868.75
512.049	853.75
512.265	838.75
512.481	893.75
512.698	874.75
512.914	864.75
513.13	879.75
513.346	881.75
513.562	880.75
513.778	891.75
513.994	866.75
514.21	888.75
514.426	884.75
514.642	870.75
514.858	870.75
515.074	883.75
515.29	883.75
515.506	898.75
515.721	871.75
515.937	896.75
516.153	894.75
516.369	912.75
516.585	893.75
516.801	891.75
517.016	904.75
517.232	930.75
517.448	918.75
517.664	908.75
517.879	901.75
518.095	906.75
518.311	901.75
518.527	908.75
518.742	920.75
518.958	925.75
519.173	903.75
519.389	876.75
519.605	862.75
519.82	877.75
520.036	873.75
520.251	855.75
520.467	871.75
520.682	865.75
520.898	851.75
521.113	857.75
521.329	843.75
521.544	859.75
521.76	833.75
521.975	808.75
522.19	831.75
522.406	834.75
522.621	828.75
522.836	805.75
523.052	834.75
523.267	826.75
523.482	798.75
523.698	799.75
523.913	811.75
524.128	795.75
524.343	823.75
524.559	822.75
524.774	783.75
524.989	799.75
525.204	779.75
525.419	794.75
525.634	773.75
525.849	803.75
526.064	801.75
526.28	821.75
526.495	797.75
526.71	787.75
526.925	770.75
527.14	788.75
527.355	785.75
527.57	784.75
527.785	811.75
527.999	780.75
528.214	776.75
528.429	751.75
528.644	771.75
528.859	756.75
529.074	800.75
529.289	773.75
529.503	751.75
529.718	766.75
529.933	760.75
530.148	766.75
530.363	758.75
530.577	766.75
530.792	777.75
531.007	759.75
531.221	776.75
531.436	774.75
531.651	763.75
531.865	764.75
532.08	752.75
532.295	763.75
532.509	754.75
532.724	753.75
532.938	762.75
533.153	759.75
533.367	755.75
533.582	737.75
533.796	728.75
534.011	734.75
534.225	757.75
534.44	739.75
534.654	722.75
534.868	718.75
535.083	739.75
535.297	728.75
535.511	740.75
535.726	776.75
535.94	747.75
536.154	725.75
536.369	692.75
536.583	744.75
536.797	706.75
537.011	703.75
537.225	722.75
537.44	735.75
537.654	709.75
537.868	721.75
538.082	705.75
538.296	710.75
538.51	735.75
538.724	696.75
538.938	723.75
539.153	687.75
539.367	702.75
539.581	699.75
539.795	707.75
540.009	718.75
540.222	678.75
540.436	710.75
540.65	695.75
540.864	713.75
541.078	720.75
541.292	731.75
541.506	703.75
541.72	728.75
541.934	669.75
542.147	671.75
542.361	713.75
542.575	706.75
542.789	696.75
543.002	692.75
543.216	676.75
543.43	690.75
543.644	686.75
543.857	690.75
544.071	672.75
544.285	708.75
544.498	659.75
544.712	705.75
544.925	681.75
545.139	699.75
545.352	673.75
545.566	665.75
545.779	674.75
545.993	669.75
546.206	695.75
546.42	689.75
546.633	697.75
546.847	693.75
547.06	681.75
547.274	667.75
547.487	712.75
547.7	672.75
547.914	659.75
548.127	689.75
548.34	685.75
548.554	672.75
548.767	652.75
548.98	673.75
549.193	690.75
549.407	690.75
549.62	675.75
549.833	683.75
550.046	689.75
550.259	675.75
550.473	677.75
550.686	650.75
550.899	683.75
551.112	678.75
551.325	656.75
551.538	676.75
551.751	655.75
551.964	665.75
552.177	682.75
552.39	681.75
552.603	652.75
552.816	660.75
553.029	673.75
553.242	685.75
553.455	681.75
553.667	667.75
553.88	659.75
554.093	685.75
554.306	656.75
554.519	663.75
554.732	645.75
554.944	639.75
555.157	629.75
555.37	631.75
555.583	635.75
555.795	622.75
556.008	612.75
556.221	639.75
556.433	613.75
556.646	624.75
556.859	611.75
557.071	626.75
557.284	630.75
557.496	623.75
557.709	609.75
557.921	615.75
558.134	598.75
558.346	597.75
558.559	605.75
558.771	605.75
558.984	603.75
559.196	603.75
559.409	582.75
559.621	578.75
559.833	613.75
560.046	573.75
560.258	609.75
560.47	626.75
560.683	598.75
560.895	589.75
561.107	594.75
561.32	587.75
561.532	586.75
561.744	567.75
561.956	579.75
562.168	580.75
562.381	586.75
562.593	587.75
562.805	587.75
563.017	598.75
563.229	593.75
563.441	575.75
563.653	611.75
563.865	593.75
564.077	599.75
564.289	599.75
564.501	587.75
564.713	614.75
564.925	612.75
565.137	615.75
565.349	604.75
565.561	632.75
565.773	625.75
565.985	639.75
566.197	643.75
566.408	619.75
566.62	615.75
566.832	640.75
567.044	631.75
567.255	635.75
567.467	645.75
567.679	652.75
567.891	638.75
568.102	646.75
568.314	637.75
568.526	641.75
568.737	605.75
568.949	594.75
569.161	603.75
569.372	587.75
569.584	595.75
569.795	576.75
570.007	581.75
570.218	563.75
570.43	561.75
570.641	567.75
570.853	544.75
571.064	518.75
571.276	531.75
571.487	523.75
571.698	529.75
571.91	531.75
572.121	532.75
572.333	504.75
572.544	531.75
572.755	501.75
572.966	498.75
573.178	481.75
573.389	511.75
573.6	495.75
573.811	478.75
574.023	510.75
574.234	504.75
574.445	479.75
574.656	472.75
574.867	473.75
575.078	480.75
575.289	482.75
575.501	478.75
575.712	460.75
575.923	464.75
576.134	450.75
576.345	456.75
576.556	457.75
576.767	463.75
576.978	475.75
577.188	449.75
577.399	452.75
577.61	443.75
577.821	458.75
578.032	431.75
578.243	457.75
578.454	447.75
578.665	421.75
578.875	442.75
579.086	472.75
579.297	427.75
579.508	435.75
579.718	426.75
579.929	421.75
580.14	423.75
580.35	424.75
580.561	435.75
580.772	417.75
580.982	426.75
581.193	433.75
581.403	417.75
581.614	403.75
581.825	400.75
582.035	420.75
582.246	426.75
582.456	411.75
582.667	411.75
582.877	434.75
583.087	418.75
583.298	410.75
583.508	395.75
583.719	391.75
583.929	417.75
584.139	400.75
584.35	403.75
584.56	422.75
584.77	422.75
584.981	397.75
585.191	398.75
585.401	402.75
585.611	402.75
585.821	411.75
586.032	406.75
586.242	401.75
586.452	393.75
586.662	394.75
586.872	397.75
587.082	392.75
587.292	397.75
587.502	395.75
587.713	397.75
587.923	385.75
588.133	394.75
588.343	396.75
588.553	409.75
588.762	407.75
588.972	406.75
589.182	432.75
589.392	415.75
589.602	408.75
589.812	435.75
590.022	399.75
590.232	375.75
590.441	391.75
590.651	389.75
590.861	384.75
591.071	390.75
591.281	371.75
591.49	384.75
591.7	403.75
591.91	387.75
592.119	412.75
592.329	387.75
592.539	388.75
592.748	383.75
592.958	371.75
593.167	370.75
593.377	393.75
593.587	394.75
593.796	369.75
594.006	370.75
594.215	372.75
594.424	385.75
594.634	361.75
594.843	372.75
595.053	379.75
595.262	369.75
595.472	370.75
595.681	373.75
595.89	373.75
596.1	375.75
596.309	351.75
596.518	349.75
596.727	349.75
596.937	345.75
597.146	354.75
597.355	362.75
597.564	342.75
597.774	361.75
597.983	351.75
598.192	339.75
598.401	337.75
598.61	342.75
598.819	332.75
599.028	342.75
599.237	333.75
599.446	346.75
599.655	329.75
599.864	326.75
600.073	320.75
600.282	323.75
600.491	327.75
600.7	343.75
600.909	334.75
601.118	331.75
601.327	328.75
601.536	332.75
601.745	311.75
601.953	320.75
602.162	335.75
602.371	325.75
602.58	334.75
602.789	314.75
602.997	311.75
603.206	326.75
603.415	310.75
603.623	296.75
603.832	299.75
604.041	313.75
604.249	303.75
604.458	311.75
604.666	298.75
604.875	292.75
605.084	309.75
605.292	312.75
605.501	322.75
605.709	298.75
605.918	305.75
606.126	309.75
606.334	311.75
606.543	317.75
606.751	323.75
606.96	306.75
607.168	301.75
607.376	271.75
607.585	305.75
607.793	286.75
608.001	293.75
608.21	297.75
608.418	305.75
608.626	299.75
608.834	299.75
609.043	297.75
609.251	293.75
609.459	279.75
609.667	295.75
609.875	288.75
610.083	289.75
610.291	270.75
610.499	296.75
610.707	286.75
610.916	291.75
611.124	298.75
611.332	282.75
611.54	297.75
611.748	286.75
611.955	280.75
612.163	296.75
612.371	280.75
612.579	288.75
612.787	290.75
612.995	278.75
613.203	302.75
613.411	268.75
613.618	266.75
613.826	291.75
614.034	285.75
614.242	285.75
614.449	284.75
614.657	282.75
614.865	281.75
615.072	297.75
615.28	293.75
615.488	282.75
615.695	271.75
615.903	273.75
616.111	282.75
616.318	281.75
616.526	261.75
616.733	263.75
616.941	273.75
617.148	276.75
617.356	267.75
617.563	277.75
617.771	278.75
617.978	280.75
618.185	282.75
618.393	276.75
618.6	299.75
618.807	259.75
619.015	282.75
619.222	274.75
619.429	272.75
619.637	272.75
619.844	260.75
620.051	261.75
620.258	275.75
620.466	264.75
620.673	250.75
620.88	263.75
621.087	275.75
621.294	262.75
621.501	251.75
621.708	246.75
621.915	271.75
622.122	263.75
622.329	266.75
622.536	274.75
622.743	254.75
622.95	270.75
623.157	261.75
623.364	260.75
623.571	268.75
623.778	264.75
623.985	253.75
624.192	248.75
624.399	267.75
624.606	239.75
624.812	263.75
625.019	245.75
625.226	246.75
625.433	253.75
625.639	261.75
625.846	259.75
626.053	254.75
626.259	238.75
626.466	255.75
626.673	253.75
626.879	223.75
627.086	233.75
627.293	229.75
627.499	242.75
627.706	233.75
627.912	237.75
628.119	238.75
628.325	235.75
628.532	241.75
628.738	237.75
628.945	242.75
629.151	240.75
629.357	232.75
629.564	233.75
629.77	223.75
629.976	226.75
630.183	233.75
630.389	229.75
630.595	207.75
630.802	227.75
631.008	233.75
631.214	214.75
631.42	235.75
631.627	233.75
631.833	226.75
632.039	222.75
632.245	230.75
632.451	216.75
632.657	238.75
632.863	223.75
633.069	226.75
633.275	241.75
633.481	198.75
633.688	210.75
633.893	212.75
634.099	239.75
634.305	218.75
634.511	238.75
634.717	230.75
634.923	217.75
635.129	196.75
635.335	217.75
635.541	211.75
635.747	232.75
635.952	222.75
636.158	227.75
636.364	209.75
636.57	217.75
636.775	202.75
636.981	216.75
637.187	218.75
637.392	196.75
637.598	218.75
637.804	217.75
638.009	211.75
638.215	223.75
638.421	222.75
638.626	213.75
638.832	218.75
639.037	219.75
639.243	217.75
639.448	200.75
639.654	205.75
639.859	201.75
640.065	208.75
640.27	232.75
640.475	199.75
640.681	197.75
640.886	194.75
641.091	197.75
641.297	215.75
641.502	188.75
641.707	201.75
641.913	196.75
642.118	200.75
642.323	203.75
642.528	200.75
642.733	199.75
642.939	199.75
643.144	197.75
643.349	198.75
643.554	209.75
643.759	218.75
643.964	191.75
644.169	215.75
644.374	202.75
644.579	202.75
644.784	198.75
644.989	202.75
645.194	201.75
645.399	214.75
645.604	209.75
645.809	204.75
646.014	205.75
646.219	197.75
646.423	200.75
646.628	203.75
646.833	197.75
647.038	201.75
647.243	224.75
647.447	203.75
647.652	214.75
647.857	209.75
648.062	202.75
648.266	190.75
648.471	192.75
648.676	196.75
648.88	217.75
649.085	198.75
649.289	214.75
649.494	201.75
649.698	193.75
649.903	208.75
650.107	200.75
650.312	214.75
650.516	210.75
650.721	211.75
650.925	201.75
651.13	198.75
651.334	203.75
651.539	183.75
651.743	191.75
651.947	192.75
652.152	196.75
652.356	197.75
652.56	185.75
652.764	180.75
652.969	181.75
653.173	173.75
653.377	154.75
653.581	196.75
653.785	185.75
653.99	177.75
654.194	169.75
654.398	168.75
654.602	197.75
654.806	187.75
655.01	184.75
655.214	170.75
655.418	183.75
655.622	177.75
655.826	187.75
656.03	182.75
656.234	162.75
656.438	171.75
656.642	177.75
656.846	185.75
657.049	176.75
657.253	173.75
657.457	153.75
657.661	150.75
657.865	145.75
658.068	143.75
658.272	137.75
658.476	152.75
658.68	121.75
658.883	122.75
659.087	133.75
659.291	125.75
659.494	105.75
659.698	104.75
659.901	102.75
660.105	95.75
660.309	96.75
660.512	97.75
660.716	105.75
660.919	99.75
661.123	106.75
661.326	95.75
661.53	98.75
661.733	86.75
661.936	105.75
662.14	92.75
662.343	93.75
662.546	88.75
662.75	76.75
662.953	79.75
663.156	85.75
663.36	80.75
663.563	83.75
663.766	74.75
663.969	81.75
664.173	93.75
664.376	92.75
664.579	88.75
664.782	76.75
664.985	80.75
665.188	81.75
665.391	85.75
665.594	82.75
665.797	88.75
666	84.75
666.203	76.75
666.406	89.75
666.609	68.75
666.812	77.75
667.015	61.75
667.218	73.75
667.421	84.75
667.624	71.75
667.827	85.75
668.03	75.75
668.232	78.75
668.435	91.75
668.638	74.75
668.841	69.75
669.043	82.75
669.246	85.75
669.449	80.75
669.651	75.75
669.854	76.75
670.057	70.75
670.259	81.75
670.462	80.75
670.665	74.75
670.867	69.75
671.07	72.75
671.272	77.75
671.475	87.75
671.677	78.75
671.88	86.75
672.082	84.75
672.284	82.75
672.487	81.75
672.689	67.75
672.892	70.75
