Data from Fe(NO3)3@0.0125M.TitratingCurve.Agarose3%dH2O.NegLispCup.LampEnergy10.LIBS07252019_HRD10591_17-00-49-337.txt Node
Date: Thu Jul 25 17:00:49 EDT 2019
User: cochatt
Spectrometer: HR+D1059
Trigger mode: 1
Integration Time (sec): 1.000000E-1
Scans to average: 1
Electric dark correction enabled: true
Nonlinearity correction enabled: false
Boxcar width: 0
XAxis mode: Wavelengths
Number of Pixels in Spectrum: 2048
>>>>>Begin Spectral Data<<<<<
223.165	-26.19
223.4	-26.19
223.635	-26.19
223.869	-19.19
224.104	-32.19
224.338	-25.19
224.573	-20.19
224.808	-9.19
225.042	-2.19
225.277	3.81
225.511	6.81
225.746	14.81
225.98	19.81
226.215	-1.19
226.449	26.81
226.683	17.81
226.918	17.81
227.152	27.81
227.387	36.81
227.621	50.81
227.856	48.81
228.09	49.81
228.324	54.81
228.559	59.81
228.793	69.81
229.027	77.81
229.262	108.81
229.496	112.81
229.73	105.81
229.964	98.81
230.199	103.81
230.433	98.81
230.667	107.81
230.901	130.81
231.136	112.81
231.37	99.81
231.604	112.81
231.838	115.81
232.072	125.81
232.306	116.81
232.541	115.81
232.775	112.81
233.009	126.81
233.243	124.81
233.477	126.81
233.711	127.81
233.945	130.81
234.179	117.81
234.413	117.81
234.647	127.81
234.881	138.81
235.115	131.81
235.349	132.81
235.583	113.81
235.817	124.81
236.051	114.81
236.285	127.81
236.519	136.81
236.753	135.81
236.987	125.81
237.221	124.81
237.455	128.81
237.689	157.81
237.922	133.81
238.156	139.81
238.39	143.81
238.624	146.81
238.858	154.81
239.091	146.81
239.325	151.81
239.559	152.81
239.793	152.81
240.027	169.81
240.26	165.81
240.494	153.81
240.728	160.81
240.961	165.81
241.195	148.81
241.429	130.81
241.662	139.81
241.896	138.81
242.13	146.81
242.363	138.81
242.597	142.81
242.83	155.81
243.064	163.81
243.298	162.81
243.531	160.81
243.765	178.81
243.998	156.81
244.232	158.81
244.465	142.81
244.699	164.81
244.932	172.81
245.166	148.81
245.399	156.81
245.633	177.81
245.866	171.81
246.099	154.81
246.333	172.81
246.566	182.81
246.8	165.81
247.033	186.81
247.266	182.81
247.5	167.81
247.733	164.81
247.966	185.81
248.2	170.81
248.433	185.81
248.666	190.81
248.899	200.81
249.133	182.81
249.366	195.81
249.599	200.81
249.832	196.81
250.066	203.81
250.299	187.81
250.532	184.81
250.765	200.81
250.998	182.81
251.231	185.81
251.465	188.81
251.698	197.81
251.931	206.81
252.164	213.81
252.397	204.81
252.63	198.81
252.863	213.81
253.096	190.81
253.329	219.81
253.562	192.81
253.795	218.81
254.028	204.81
254.261	213.81
254.494	219.81
254.727	217.81
254.96	213.81
255.193	221.81
255.426	226.81
255.659	230.81
255.892	217.81
256.124	205.81
256.357	223.81
256.59	236.81
256.823	207.81
257.056	221.81
257.289	219.81
257.521	216.81
257.754	228.81
257.987	230.81
258.22	244.81
258.452	228.81
258.685	240.81
258.918	242.81
259.151	244.81
259.383	237.81
259.616	231.81
259.849	252.81
260.081	258.81
260.314	281.81
260.547	263.81
260.779	248.81
261.012	250.81
261.244	251.81
261.477	267.81
261.71	249.81
261.942	262.81
262.175	245.81
262.407	247.81
262.64	268.81
262.872	264.81
263.105	262.81
263.337	272.81
263.57	280.81
263.802	218.81
264.035	260.81
264.267	225.81
264.499	243.81
264.732	251.81
264.964	252.81
265.197	246.81
265.429	234.81
265.661	235.81
265.894	261.81
266.126	241.81
266.358	262.81
266.591	263.81
266.823	275.81
267.055	258.81
267.287	266.81
267.52	273.81
267.752	259.81
267.984	265.81
268.216	269.81
268.448	266.81
268.681	276.81
268.913	256.81
269.145	261.81
269.377	274.81
269.609	274.81
269.841	270.81
270.073	277.81
270.306	276.81
270.538	276.81
270.77	257.81
271.002	281.81
271.234	294.81
271.466	285.81
271.698	287.81
271.93	285.81
272.162	277.81
272.394	284.81
272.626	286.81
272.858	310.81
273.09	288.81
273.322	307.81
273.553	292.81
273.785	314.81
274.017	331.81
274.249	330.81
274.481	321.81
274.713	334.81
274.945	368.81
275.176	345.81
275.408	349.81
275.64	345.81
275.872	334.81
276.104	310.81
276.335	301.81
276.567	295.81
276.799	322.81
277.031	315.81
277.262	331.81
277.494	313.81
277.726	290.81
277.957	312.81
278.189	306.81
278.421	318.81
278.652	318.81
278.884	314.81
279.115	302.81
279.347	341.81
279.579	326.81
279.81	332.81
280.042	328.81
280.273	334.81
280.505	329.81
280.736	339.81
280.968	333.81
281.199	341.81
281.431	340.81
281.662	336.81
281.894	311.81
282.125	335.81
282.356	347.81
282.588	336.81
282.819	336.81
283.051	351.81
283.282	345.81
283.513	353.81
283.745	346.81
283.976	342.81
284.207	355.81
284.439	325.81
284.67	329.81
284.901	371.81
285.132	348.81
285.364	363.81
285.595	346.81
285.826	361.81
286.057	343.81
286.288	364.81
286.52	358.81
286.751	371.81
286.982	354.81
287.213	355.81
287.444	368.81
287.675	342.81
287.906	360.81
288.138	371.81
288.369	362.81
288.6	370.81
288.831	359.81
289.062	350.81
289.293	392.81
289.524	371.81
289.755	360.81
289.986	367.81
290.217	372.81
290.448	361.81
290.679	360.81
290.91	368.81
291.141	362.81
291.371	364.81
291.602	377.81
291.833	371.81
292.064	382.81
292.295	378.81
292.526	380.81
292.757	377.81
292.987	368.81
293.218	349.81
293.449	381.81
293.68	388.81
293.91	385.81
294.141	370.81
294.372	378.81
294.603	381.81
294.833	399.81
295.064	394.81
295.295	385.81
295.525	370.81
295.756	380.81
295.987	410.81
296.217	391.81
296.448	388.81
296.679	387.81
296.909	381.81
297.14	396.81
297.37	399.81
297.601	412.81
297.831	390.81
298.062	388.81
298.292	418.81
298.523	414.81
298.753	397.81
298.984	392.81
299.214	414.81
299.445	422.81
299.675	420.81
299.905	401.81
300.136	423.81
300.366	422.81
300.597	392.81
300.827	413.81
301.057	425.81
301.288	414.81
301.518	412.81
301.748	413.81
301.979	420.81
302.209	435.81
302.439	429.81
302.669	422.81
302.9	426.81
303.13	436.81
303.36	446.81
303.59	427.81
303.82	426.81
304.051	433.81
304.281	429.81
304.511	418.81
304.741	420.81
304.971	441.81
305.201	434.81
305.431	446.81
305.661	447.81
305.891	435.81
306.121	433.81
306.352	455.81
306.582	448.81
306.812	444.81
307.042	440.81
307.272	442.81
307.502	424.81
307.731	437.81
307.961	442.81
308.191	452.81
308.421	450.81
308.651	458.81
308.881	438.81
309.111	464.81
309.341	436.81
309.571	465.81
309.8	451.81
310.03	446.81
310.26	432.81
310.49	438.81
310.72	427.81
310.949	443.81
311.179	444.81
311.409	452.81
311.639	454.81
311.868	454.81
312.098	462.81
312.328	475.81
312.557	456.81
312.787	443.81
313.017	477.81
313.246	460.81
313.476	457.81
313.706	468.81
313.935	462.81
314.165	454.81
314.394	460.81
314.624	461.81
314.853	452.81
315.083	472.81
315.312	476.81
315.542	493.81
315.771	461.81
316.001	481.81
316.23	499.81
316.46	458.81
316.689	474.81
316.919	490.81
317.148	486.81
317.377	483.81
317.607	485.81
317.836	481.81
318.065	481.81
318.295	479.81
318.524	475.81
318.753	474.81
318.983	468.81
319.212	478.81
319.441	490.81
319.67	488.81
319.9	501.81
320.129	493.81
320.358	475.81
320.587	484.81
320.816	468.81
321.046	488.81
321.275	497.81
321.504	498.81
321.733	507.81
321.962	494.81
322.191	494.81
322.42	515.81
322.649	512.81
322.878	493.81
323.108	489.81
323.337	516.81
323.566	514.81
323.795	512.81
324.024	512.81
324.253	524.81
324.482	527.81
324.71	517.81
324.939	534.81
325.168	517.81
325.397	518.81
325.626	521.81
325.855	510.81
326.084	521.81
326.313	529.81
326.542	497.81
326.77	529.81
326.999	520.81
327.228	521.81
327.457	527.81
327.686	518.81
327.914	540.81
328.143	538.81
328.372	543.81
328.6	539.81
328.829	527.81
329.058	536.81
329.287	549.81
329.515	533.81
329.744	552.81
329.972	536.81
330.201	530.81
330.43	535.81
330.658	539.81
330.887	576.81
331.115	547.81
331.344	554.81
331.572	582.81
331.801	571.81
332.03	552.81
332.258	556.81
332.486	549.81
332.715	528.81
332.943	563.81
333.172	571.81
333.4	589.81
333.629	620.81
333.857	594.81
334.085	611.81
334.314	582.81
334.542	599.81
334.771	604.81
334.999	605.81
335.227	611.81
335.455	609.81
335.684	612.81
335.912	593.81
336.14	601.81
336.369	594.81
336.597	602.81
336.825	598.81
337.053	589.81
337.281	589.81
337.51	601.81
337.738	602.81
337.966	584.81
338.194	577.81
338.422	603.81
338.65	586.81
338.878	577.81
339.106	561.81
339.334	580.81
339.562	596.81
339.79	581.81
340.018	551.81
340.246	580.81
340.474	571.81
340.702	544.81
340.93	571.81
341.158	572.81
341.386	564.81
341.614	551.81
341.842	553.81
342.07	554.81
342.298	577.81
342.526	582.81
342.754	561.81
342.981	585.81
343.209	570.81
343.437	596.81
343.665	601.81
343.893	603.81
344.12	614.81
344.348	597.81
344.576	590.81
344.804	579.81
345.031	586.81
345.259	580.81
345.487	580.81
345.714	560.81
345.942	560.81
346.17	553.81
346.397	569.81
346.625	571.81
346.853	566.81
347.08	542.81
347.308	537.81
347.535	546.81
347.763	542.81
347.99	554.81
348.218	562.81
348.445	551.81
348.673	555.81
348.9	550.81
349.128	566.81
349.355	530.81
349.583	568.81
349.81	550.81
350.037	532.81
350.265	532.81
350.492	551.81
350.72	538.81
350.947	533.81
351.174	537.81
351.402	562.81
351.629	569.81
351.856	570.81
352.083	557.81
352.311	560.81
352.538	558.81
352.765	541.81
352.992	539.81
353.22	526.81
353.447	545.81
353.674	548.81
353.901	560.81
354.128	540.81
354.355	540.81
354.583	548.81
354.81	544.81
355.037	545.81
355.264	540.81
355.491	522.81
355.718	544.81
355.945	562.81
356.172	557.81
356.399	563.81
356.626	548.81
356.853	545.81
357.08	576.81
357.307	550.81
357.534	570.81
357.761	534.81
357.988	534.81
358.215	573.81
358.441	578.81
358.668	553.81
358.895	576.81
359.122	560.81
359.349	538.81
359.576	536.81
359.802	564.81
360.029	546.81
360.256	571.81
360.483	567.81
360.709	545.81
360.936	562.81
361.163	563.81
361.39	571.81
361.616	547.81
361.843	564.81
362.07	558.81
362.296	536.81
362.523	546.81
362.749	581.81
362.976	562.81
363.203	546.81
363.429	551.81
363.656	527.81
363.882	554.81
364.109	550.81
364.335	549.81
364.562	553.81
364.788	555.81
365.015	586.81
365.241	571.81
365.468	571.81
365.694	558.81
365.92	569.81
366.147	570.81
366.373	565.81
366.599	549.81
366.826	572.81
367.052	554.81
367.278	562.81
367.505	573.81
367.731	573.81
367.957	537.81
368.184	594.81
368.41	593.81
368.636	568.81
368.862	594.81
369.089	573.81
369.315	571.81
369.541	597.81
369.767	589.81
369.993	560.81
370.219	580.81
370.445	592.81
370.672	610.81
370.898	577.81
371.124	596.81
371.35	595.81
371.576	599.81
371.802	608.81
372.028	601.81
372.254	632.81
372.48	605.81
372.706	605.81
372.932	605.81
373.158	591.81
373.384	599.81
373.61	602.81
373.835	614.81
374.061	615.81
374.287	613.81
374.513	620.81
374.739	642.81
374.965	616.81
375.191	612.81
375.416	637.81
375.642	637.81
375.868	617.81
376.094	620.81
376.319	616.81
376.545	612.81
376.771	585.81
376.997	586.81
377.222	589.81
377.448	590.81
377.674	605.81
377.899	591.81
378.125	614.81
378.35	592.81
378.576	576.81
378.802	562.81
379.027	601.81
379.253	594.81
379.478	598.81
379.704	626.81
379.929	600.81
380.155	617.81
380.38	580.81
380.606	611.81
380.831	593.81
381.057	589.81
381.282	605.81
381.507	613.81
381.733	630.81
381.958	626.81
382.184	633.81
382.409	644.81
382.634	640.81
382.86	634.81
383.085	654.81
383.31	622.81
383.535	628.81
383.761	655.81
383.986	655.81
384.211	640.81
384.436	652.81
384.662	666.81
384.887	656.81
385.112	628.81
385.337	654.81
385.562	668.81
385.787	668.81
386.013	670.81
386.238	682.81
386.463	664.81
386.688	664.81
386.913	689.81
387.138	663.81
387.363	670.81
387.588	682.81
387.813	698.81
388.038	690.81
388.263	692.81
388.488	667.81
388.713	685.81
388.938	667.81
389.163	673.81
389.387	684.81
389.612	676.81
389.837	711.81
390.062	670.81
390.287	693.81
390.512	671.81
390.736	678.81
390.961	696.81
391.186	692.81
391.411	709.81
391.636	723.81
391.86	737.81
392.085	731.81
392.31	706.81
392.534	716.81
392.759	723.81
392.984	701.81
393.208	708.81
393.433	748.81
393.658	730.81
393.882	708.81
394.107	730.81
394.331	708.81
394.556	725.81
394.78	729.81
395.005	715.81
395.229	702.81
395.454	713.81
395.678	745.81
395.903	744.81
396.127	768.81
396.352	745.81
396.576	758.81
396.801	744.81
397.025	756.81
397.249	737.81
397.474	727.81
397.698	748.81
397.922	752.81
398.147	748.81
398.371	740.81
398.595	781.81
398.82	799.81
399.044	800.81
399.268	839.81
399.492	887.81
399.717	910.81
399.941	907.81
400.165	896.81
400.389	883.81
400.613	877.81
400.837	813.81
401.062	827.81
401.286	816.81
401.51	811.81
401.734	774.81
401.958	797.81
402.182	790.81
402.406	796.81
402.63	777.81
402.854	826.81
403.078	787.81
403.302	772.81
403.526	810.81
403.75	820.81
403.974	811.81
404.198	789.81
404.422	802.81
404.645	818.81
404.869	790.81
405.093	812.81
405.317	814.81
405.541	824.81
405.765	844.81
405.988	845.81
406.212	846.81
406.436	846.81
406.66	874.81
406.883	850.81
407.107	888.81
407.331	891.81
407.555	903.81
407.778	930.81
408.002	900.81
408.226	911.81
408.449	911.81
408.673	856.81
408.896	896.81
409.12	844.81
409.344	871.81
409.567	847.81
409.791	856.81
410.014	864.81
410.238	857.81
410.461	864.81
410.685	840.81
410.908	841.81
411.132	830.81
411.355	809.81
411.578	821.81
411.802	837.81
412.025	826.81
412.249	819.81
412.472	832.81
412.695	808.81
412.919	783.81
413.142	806.81
413.365	833.81
413.589	802.81
413.812	810.81
414.035	801.81
414.258	832.81
414.482	780.81
414.705	773.81
414.928	794.81
415.151	811.81
415.374	771.81
415.597	794.81
415.821	793.81
416.044	782.81
416.267	792.81
416.49	806.81
416.713	795.81
416.936	780.81
417.159	772.81
417.382	760.81
417.605	755.81
417.828	752.81
418.051	792.81
418.274	756.81
418.497	789.81
418.72	762.81
418.943	756.81
419.166	792.81
419.389	833.81
419.611	848.81
419.834	802.81
420.057	783.81
420.28	779.81
420.503	740.81
420.726	733.81
420.948	737.81
421.171	747.81
421.394	761.81
421.617	731.81
421.839	769.81
422.062	782.81
422.285	733.81
422.507	747.81
422.73	772.81
422.953	748.81
423.175	757.81
423.398	750.81
423.621	768.81
423.843	745.81
424.066	747.81
424.288	769.81
424.511	754.81
424.733	764.81
424.956	773.81
425.178	749.81
425.401	761.81
425.623	774.81
425.846	744.81
426.068	738.81
426.291	738.81
426.513	737.81
426.735	731.81
426.958	769.81
427.18	736.81
427.402	732.81
427.625	733.81
427.847	738.81
428.069	736.81
428.292	730.81
428.514	727.81
428.736	727.81
428.958	745.81
429.181	737.81
429.403	683.81
429.625	744.81
429.847	710.81
430.069	698.81
430.292	730.81
430.514	723.81
430.736	727.81
430.958	729.81
431.18	739.81
431.402	745.81
431.624	730.81
431.846	711.81
432.068	718.81
432.29	728.81
432.512	744.81
432.734	749.81
432.956	717.81
433.178	745.81
433.4	728.81
433.622	756.81
433.844	752.81
434.066	734.81
434.287	717.81
434.509	757.81
434.731	761.81
434.953	748.81
435.175	745.81
435.397	749.81
435.618	744.81
435.84	738.81
436.062	715.81
436.284	739.81
436.505	706.81
436.727	700.81
436.949	706.81
437.17	695.81
437.392	689.81
437.614	711.81
437.835	702.81
438.057	713.81
438.278	707.81
438.5	700.81
438.721	698.81
438.943	706.81
439.165	708.81
439.386	683.81
439.608	727.81
439.829	716.81
440.05	713.81
440.272	702.81
440.493	683.81
440.715	702.81
440.936	714.81
441.158	722.81
441.379	713.81
441.6	752.81
441.822	745.81
442.043	745.81
442.264	739.81
442.486	711.81
442.707	715.81
442.928	740.81
443.149	736.81
443.371	734.81
443.592	735.81
443.813	726.81
444.034	721.81
444.255	738.81
444.476	776.81
444.698	757.81
444.919	775.81
445.14	851.81
445.361	794.81
445.582	758.81
445.803	744.81
446.024	738.81
446.245	720.81
446.466	701.81
446.687	713.81
446.908	721.81
447.129	708.81
447.35	707.81
447.571	662.81
447.792	669.81
448.013	690.81
448.234	673.81
448.455	641.81
448.675	680.81
448.896	668.81
449.117	682.81
449.338	659.81
449.559	656.81
449.779	651.81
450	646.81
450.221	654.81
450.442	655.81
450.662	636.81
450.883	666.81
451.104	672.81
451.324	636.81
451.545	656.81
451.766	664.81
451.986	650.81
452.207	650.81
452.428	650.81
452.648	654.81
452.869	636.81
453.089	630.81
453.31	652.81
453.53	645.81
453.751	644.81
453.971	629.81
454.192	635.81
454.412	601.81
454.633	658.81
454.853	616.81
455.073	614.81
455.294	620.81
455.514	631.81
455.734	640.81
455.955	615.81
456.175	624.81
456.395	618.81
456.616	638.81
456.836	646.81
457.056	628.81
457.276	646.81
457.497	644.81
457.717	612.81
457.937	644.81
458.157	662.81
458.377	652.81
458.598	654.81
458.818	653.81
459.038	692.81
459.258	695.81
459.478	698.81
459.698	685.81
459.918	715.81
460.138	730.81
460.358	732.81
460.578	721.81
460.798	740.81
461.018	733.81
461.238	753.81
461.458	759.81
461.678	762.81
461.898	790.81
462.118	771.81
462.338	791.81
462.558	781.81
462.777	810.81
462.997	808.81
463.217	876.81
463.437	854.81
463.657	810.81
463.876	826.81
464.096	808.81
464.316	794.81
464.536	809.81
464.755	827.81
464.975	794.81
465.195	789.81
465.414	773.81
465.634	746.81
465.854	721.81
466.073	694.81
466.293	709.81
466.512	716.81
466.732	714.81
466.951	726.81
467.171	707.81
467.391	684.81
467.61	678.81
467.829	705.81
468.049	706.81
468.268	683.81
468.488	678.81
468.707	696.81
468.927	706.81
469.146	700.81
469.365	708.81
469.585	684.81
469.804	722.81
470.023	728.81
470.243	694.81
470.462	688.81
470.681	705.81
470.901	693.81
471.12	708.81
471.339	720.81
471.558	698.81
471.777	699.81
471.997	701.81
472.216	707.81
472.435	693.81
472.654	709.81
472.873	701.81
473.092	689.81
473.311	705.81
473.53	689.81
473.749	708.81
473.968	688.81
474.187	695.81
474.406	698.81
474.625	705.81
474.844	721.81
475.063	704.81
475.282	720.81
475.501	694.81
475.72	730.81
475.939	708.81
476.158	741.81
476.377	746.81
476.596	747.81
476.814	781.81
477.033	766.81
477.252	773.81
477.471	748.81
477.69	793.81
477.908	784.81
478.127	780.81
478.346	809.81
478.564	824.81
478.783	834.81
479.002	818.81
479.22	807.81
479.439	848.81
479.658	831.81
479.876	844.81
480.095	841.81
480.313	842.81
480.532	842.81
480.751	852.81
480.969	816.81
481.188	861.81
481.406	852.81
481.624	861.81
481.843	832.81
482.061	856.81
482.28	842.81
482.498	875.81
482.717	838.81
482.935	831.81
483.153	847.81
483.372	861.81
483.59	856.81
483.808	849.81
484.027	870.81
484.245	892.81
484.463	838.81
484.681	899.81
484.9	891.81
485.118	890.81
485.336	867.81
485.554	870.81
485.772	845.81
485.99	870.81
486.209	886.81
486.427	864.81
486.645	864.81
486.863	864.81
487.081	877.81
487.299	897.81
487.517	865.81
487.735	873.81
487.953	899.81
488.171	898.81
488.389	879.81
488.607	887.81
488.825	897.81
489.043	903.81
489.261	893.81
489.479	867.81
489.696	866.81
489.914	868.81
490.132	873.81
490.35	891.81
490.568	873.81
490.786	865.81
491.003	899.81
491.221	880.81
491.439	896.81
491.657	875.81
491.874	847.81
492.092	887.81
492.31	902.81
492.527	876.81
492.745	874.81
492.963	887.81
493.18	910.81
493.398	886.81
493.615	905.81
493.833	899.81
494.05	918.81
494.268	911.81
494.485	885.81
494.703	873.81
494.92	904.81
495.138	900.81
495.355	910.81
495.573	901.81
495.79	913.81
496.008	926.81
496.225	907.81
496.442	954.81
496.66	962.81
496.877	973.81
497.094	956.81
497.312	966.81
497.529	995.81
497.746	995.81
497.963	996.81
498.181	1043.81
498.398	1059.81
498.615	1080.81
498.832	1128.81
499.049	1189.81
499.267	1184.81
499.484	1220.81
499.701	1290.81
499.918	1304.81
500.135	1371.81
500.352	1431.81
500.569	1429.81
500.786	1442.81
501.003	1449.81
501.22	1372.81
501.437	1326.81
501.654	1274.81
501.871	1203.81
502.088	1186.81
502.305	1173.81
502.522	1089.81
502.739	1098.81
502.956	1036.81
503.172	1046.81
503.389	979.81
503.606	976.81
503.823	996.81
504.04	967.81
504.256	946.81
504.473	937.81
504.69	942.81
504.907	931.81
505.123	919.81
505.34	902.81
505.557	862.81
505.773	856.81
505.99	866.81
506.207	837.81
506.423	818.81
506.64	820.81
506.856	824.81
507.073	833.81
507.289	801.81
507.506	808.81
507.722	792.81
507.939	800.81
508.155	786.81
508.372	796.81
508.588	753.81
508.805	755.81
509.021	781.81
509.238	759.81
509.454	739.81
509.67	781.81
509.887	783.81
510.103	756.81
510.319	761.81
510.536	733.81
510.752	710.81
510.968	729.81
511.184	708.81
511.401	712.81
511.617	728.81
511.833	709.81
512.049	734.81
512.265	730.81
512.481	713.81
512.698	741.81
512.914	729.81
513.13	723.81
513.346	741.81
513.562	734.81
513.778	757.81
513.994	725.81
514.21	690.81
514.426	717.81
514.642	724.81
514.858	716.81
515.074	740.81
515.29	765.81
515.506	726.81
515.721	770.81
515.937	747.81
516.153	772.81
516.369	770.81
516.585	790.81
516.801	781.81
517.016	768.81
517.232	803.81
517.448	814.81
517.664	840.81
517.879	806.81
518.095	805.81
518.311	794.81
518.527	810.81
518.742	798.81
518.958	746.81
519.173	785.81
519.389	784.81
519.605	740.81
519.82	778.81
520.036	755.81
520.251	731.81
520.467	721.81
520.682	714.81
520.898	710.81
521.113	712.81
521.329	695.81
521.544	704.81
521.76	715.81
521.975	707.81
522.19	707.81
522.406	690.81
522.621	686.81
522.836	690.81
523.052	688.81
523.267	682.81
523.482	686.81
523.698	678.81
523.913	680.81
524.128	664.81
524.343	660.81
524.559	699.81
524.774	675.81
524.989	652.81
525.204	659.81
525.419	660.81
525.634	676.81
525.849	691.81
526.064	652.81
526.28	672.81
526.495	681.81
526.71	660.81
526.925	660.81
527.14	641.81
527.355	636.81
527.57	646.81
527.785	660.81
527.999	641.81
528.214	653.81
528.429	643.81
528.644	654.81
528.859	633.81
529.074	630.81
529.289	659.81
529.503	648.81
529.718	653.81
529.933	637.81
530.148	648.81
530.363	636.81
530.577	636.81
530.792	639.81
531.007	620.81
531.221	654.81
531.436	629.81
531.651	628.81
531.865	627.81
532.08	639.81
532.295	633.81
532.509	624.81
532.724	630.81
532.938	635.81
533.153	632.81
533.367	644.81
533.582	649.81
533.796	617.81
534.011	633.81
534.225	633.81
534.44	640.81
534.654	597.81
534.868	626.81
535.083	637.81
535.297	647.81
535.511	628.81
535.726	597.81
535.94	635.81
536.154	607.81
536.369	590.81
536.583	610.81
536.797	610.81
537.011	624.81
537.225	610.81
537.44	609.81
537.654	598.81
537.868	603.81
538.082	609.81
538.296	611.81
538.51	578.81
538.724	615.81
538.938	604.81
539.153	611.81
539.367	586.81
539.581	589.81
539.795	600.81
540.009	588.81
540.222	595.81
540.436	587.81
540.65	587.81
540.864	578.81
541.078	589.81
541.292	582.81
541.506	598.81
541.72	599.81
541.934	594.81
542.147	614.81
542.361	605.81
542.575	590.81
542.789	613.81
543.002	572.81
543.216	589.81
543.43	617.81
543.644	612.81
543.857	595.81
544.071	594.81
544.285	598.81
544.498	567.81
544.712	591.81
544.925	576.81
545.139	544.81
545.352	592.81
545.566	605.81
545.779	582.81
545.993	598.81
546.206	577.81
546.42	595.81
546.633	585.81
546.847	590.81
547.06	599.81
547.274	578.81
547.487	600.81
547.7	595.81
547.914	590.81
548.127	581.81
548.34	579.81
548.554	579.81
548.767	569.81
548.98	596.81
549.193	562.81
549.407	588.81
549.62	605.81
549.833	592.81
550.046	557.81
550.259	594.81
550.473	588.81
550.686	575.81
550.899	595.81
551.112	561.81
551.325	590.81
551.538	586.81
551.751	565.81
551.964	577.81
552.177	570.81
552.39	590.81
552.603	586.81
552.816	594.81
553.029	598.81
553.242	571.81
553.455	566.81
553.667	599.81
553.88	582.81
554.093	578.81
554.306	549.81
554.519	568.81
554.732	586.81
554.944	562.81
555.157	531.81
555.37	555.81
555.583	539.81
555.795	556.81
556.008	542.81
556.221	548.81
556.433	540.81
556.646	527.81
556.859	529.81
557.071	542.81
557.284	514.81
557.496	520.81
557.709	538.81
557.921	513.81
558.134	520.81
558.346	537.81
558.559	518.81
558.771	511.81
558.984	507.81
559.196	502.81
559.409	498.81
559.621	482.81
559.833	510.81
560.046	487.81
560.258	503.81
560.47	498.81
560.683	507.81
560.895	487.81
561.107	494.81
561.32	510.81
561.532	501.81
561.744	490.81
561.956	503.81
562.168	491.81
562.381	498.81
562.593	504.81
562.805	518.81
563.017	479.81
563.229	492.81
563.441	507.81
563.653	509.81
563.865	533.81
564.077	524.81
564.289	501.81
564.501	519.81
564.713	542.81
564.925	545.81
565.137	527.81
565.349	536.81
565.561	564.81
565.773	562.81
565.985	563.81
566.197	575.81
566.408	595.81
566.62	601.81
566.832	599.81
567.044	612.81
567.255	623.81
567.467	611.81
567.679	613.81
567.891	605.81
568.102	651.81
568.314	616.81
568.526	578.81
568.737	555.81
568.949	531.81
569.161	539.81
569.372	523.81
569.584	512.81
569.795	501.81
570.007	510.81
570.218	480.81
570.43	473.81
570.641	496.81
570.853	454.81
571.064	475.81
571.276	468.81
571.487	471.81
571.698	471.81
571.91	464.81
572.121	453.81
572.333	452.81
572.544	437.81
572.755	422.81
572.966	424.81
573.178	406.81
573.389	436.81
573.6	421.81
573.811	434.81
574.023	428.81
574.234	418.81
574.445	411.81
574.656	400.81
574.867	407.81
575.078	411.81
575.289	430.81
575.501	405.81
575.712	394.81
575.923	420.81
576.134	393.81
576.345	389.81
576.556	397.81
576.767	382.81
576.978	376.81
577.188	397.81
577.399	387.81
577.61	384.81
577.821	372.81
578.032	373.81
578.243	387.81
578.454	371.81
578.665	385.81
578.875	396.81
579.086	366.81
579.297	377.81
579.508	390.81
579.718	373.81
579.929	382.81
580.14	367.81
580.35	364.81
580.561	372.81
580.772	398.81
580.982	366.81
581.193	370.81
581.403	377.81
581.614	347.81
581.825	361.81
582.035	355.81
582.246	335.81
582.456	354.81
582.667	363.81
582.877	354.81
583.087	360.81
583.298	348.81
583.508	346.81
583.719	344.81
583.929	357.81
584.139	359.81
584.35	366.81
584.56	347.81
584.77	353.81
584.981	347.81
585.191	348.81
585.401	341.81
585.611	374.81
585.821	358.81
586.032	333.81
586.242	341.81
586.452	352.81
586.662	355.81
586.872	321.81
587.082	343.81
587.292	336.81
587.502	338.81
587.713	360.81
587.923	345.81
588.133	334.81
588.343	333.81
588.553	331.81
588.762	352.81
588.972	350.81
589.182	392.81
589.392	378.81
589.602	349.81
589.812	374.81
590.022	352.81
590.232	322.81
590.441	333.81
590.651	354.81
590.861	339.81
591.071	353.81
591.281	342.81
591.49	347.81
591.7	354.81
591.91	350.81
592.119	346.81
592.329	335.81
592.539	353.81
592.748	358.81
592.958	362.81
593.167	372.81
593.377	346.81
593.587	354.81
593.796	369.81
594.006	355.81
594.215	367.81
594.424	344.81
594.634	347.81
594.843	341.81
595.053	335.81
595.262	349.81
595.472	335.81
595.681	321.81
595.89	321.81
596.1	327.81
596.309	319.81
596.518	328.81
596.727	322.81
596.937	315.81
597.146	324.81
597.355	289.81
597.564	304.81
597.774	317.81
597.983	299.81
598.192	297.81
598.401	302.81
598.61	298.81
598.819	298.81
599.028	307.81
599.237	310.81
599.446	301.81
599.655	295.81
599.864	294.81
600.073	288.81
600.282	281.81
600.491	291.81
600.7	290.81
600.909	288.81
601.118	291.81
601.327	274.81
601.536	276.81
601.745	284.81
601.953	284.81
602.162	273.81
602.371	280.81
602.58	291.81
602.789	302.81
602.997	290.81
603.206	267.81
603.415	278.81
603.623	277.81
603.832	286.81
604.041	266.81
604.249	275.81
604.458	248.81
604.666	283.81
604.875	283.81
605.084	283.81
605.292	254.81
605.501	288.81
605.709	272.81
605.918	276.81
606.126	293.81
606.334	280.81
606.543	269.81
606.751	258.81
606.96	263.81
607.168	276.81
607.376	249.81
607.585	250.81
607.793	256.81
608.001	273.81
608.21	263.81
608.418	266.81
608.626	278.81
608.834	262.81
609.043	275.81
609.251	274.81
609.459	279.81
609.667	276.81
609.875	269.81
610.083	249.81
610.291	246.81
610.499	241.81
610.707	261.81
610.916	264.81
611.124	257.81
611.332	243.81
611.54	266.81
611.748	269.81
611.955	265.81
612.163	258.81
612.371	266.81
612.579	248.81
612.787	254.81
612.995	246.81
613.203	256.81
613.411	258.81
613.618	256.81
613.826	265.81
614.034	245.81
614.242	273.81
614.449	257.81
614.657	277.81
614.865	246.81
615.072	254.81
615.28	257.81
615.488	251.81
615.695	268.81
615.903	256.81
616.111	245.81
616.318	255.81
616.526	257.81
616.733	260.81
616.941	250.81
617.148	252.81
617.356	246.81
617.563	246.81
617.771	259.81
617.978	265.81
618.185	254.81
618.393	250.81
618.6	247.81
618.807	259.81
619.015	249.81
619.222	231.81
619.429	236.81
619.637	235.81
619.844	236.81
620.051	245.81
620.258	239.81
620.466	226.81
620.673	242.81
620.88	235.81
621.087	243.81
621.294	227.81
621.501	250.81
621.708	235.81
621.915	228.81
622.122	247.81
622.329	245.81
622.536	241.81
622.743	224.81
622.95	240.81
623.157	246.81
623.364	225.81
623.571	219.81
623.778	232.81
623.985	226.81
624.192	221.81
624.399	225.81
624.606	237.81
624.812	231.81
625.019	203.81
625.226	224.81
625.433	236.81
625.639	233.81
625.846	218.81
626.053	225.81
626.259	225.81
626.466	223.81
626.673	215.81
626.879	220.81
627.086	230.81
627.293	221.81
627.499	214.81
627.706	199.81
627.912	219.81
628.119	224.81
628.325	213.81
628.532	215.81
628.738	222.81
628.945	212.81
629.151	243.81
629.357	221.81
629.564	214.81
629.77	205.81
629.976	213.81
630.183	216.81
630.389	209.81
630.595	206.81
630.802	217.81
631.008	210.81
631.214	211.81
631.42	204.81
631.627	211.81
631.833	213.81
632.039	203.81
632.245	203.81
632.451	221.81
632.657	215.81
632.863	209.81
633.069	208.81
633.275	205.81
633.481	212.81
633.688	181.81
633.893	209.81
634.099	195.81
634.305	198.81
634.511	208.81
634.717	188.81
634.923	204.81
635.129	205.81
635.335	197.81
635.541	189.81
635.747	211.81
635.952	202.81
636.158	194.81
636.364	200.81
636.57	190.81
636.775	199.81
636.981	197.81
637.187	184.81
637.392	199.81
637.598	181.81
637.804	183.81
638.009	192.81
638.215	187.81
638.421	200.81
638.626	195.81
638.832	193.81
639.037	193.81
639.243	198.81
639.448	197.81
639.654	202.81
639.859	202.81
640.065	203.81
640.27	185.81
640.475	205.81
640.681	172.81
640.886	202.81
641.091	188.81
641.297	214.81
641.502	199.81
641.707	200.81
641.913	213.81
642.118	191.81
642.323	193.81
642.528	201.81
642.733	205.81
642.939	203.81
643.144	195.81
643.349	193.81
643.554	197.81
643.759	184.81
643.964	187.81
644.169	201.81
644.374	197.81
644.579	196.81
644.784	192.81
644.989	197.81
645.194	202.81
645.399	193.81
645.604	203.81
645.809	198.81
646.014	202.81
646.219	217.81
646.423	192.81
646.628	206.81
646.833	190.81
647.038	196.81
647.243	198.81
647.447	201.81
647.652	188.81
647.857	190.81
648.062	198.81
648.266	195.81
648.471	192.81
648.676	186.81
648.88	203.81
649.085	198.81
649.289	205.81
649.494	191.81
649.698	192.81
649.903	193.81
650.107	209.81
650.312	201.81
650.516	197.81
650.721	191.81
650.925	197.81
651.13	194.81
651.334	198.81
651.539	186.81
651.743	190.81
651.947	193.81
652.152	197.81
652.356	198.81
652.56	190.81
652.764	192.81
652.969	190.81
653.173	199.81
653.377	190.81
653.581	200.81
653.785	196.81
653.99	189.81
654.194	180.81
654.398	204.81
654.602	205.81
654.806	201.81
655.01	208.81
655.214	189.81
655.418	202.81
655.622	217.81
655.826	223.81
656.03	208.81
656.234	214.81
656.438	229.81
656.642	226.81
656.846	230.81
657.049	194.81
657.253	201.81
657.457	192.81
657.661	180.81
657.865	184.81
658.068	171.81
658.272	168.81
658.476	164.81
658.68	147.81
658.883	148.81
659.087	137.81
659.291	132.81
659.494	121.81
659.698	124.81
659.901	121.81
660.105	132.81
660.309	97.81
660.512	98.81
660.716	114.81
660.919	118.81
661.123	111.81
661.326	117.81
661.53	110.81
661.733	103.81
661.936	88.81
662.14	99.81
662.343	82.81
662.546	91.81
662.75	88.81
662.953	103.81
663.156	91.81
663.36	92.81
663.563	84.81
663.766	91.81
663.969	87.81
664.173	80.81
664.376	83.81
664.579	89.81
664.782	100.81
664.985	73.81
665.188	88.81
665.391	82.81
665.594	93.81
665.797	93.81
666	78.81
666.203	81.81
666.406	81.81
666.609	84.81
666.812	72.81
667.015	69.81
667.218	91.81
667.421	80.81
667.624	85.81
667.827	71.81
668.03	89.81
668.232	76.81
668.435	87.81
668.638	78.81
668.841	83.81
669.043	78.81
669.246	93.81
669.449	81.81
669.651	81.81
669.854	86.81
670.057	88.81
670.259	70.81
670.462	88.81
670.665	93.81
670.867	90.81
671.07	73.81
671.272	78.81
671.475	77.81
671.677	77.81
671.88	81.81
672.082	96.81
672.284	91.81
672.487	85.81
672.689	88.81
672.892	72.81
