Data from Fe(NO3)3@0.05M.TitratingCurve.Agarose3%dH2O.NegLispCup.LampEnergy10.LIBS07252019_HRD10591_16-46-26-334.txt Node
Date: Thu Jul 25 16:46:26 EDT 2019
User: cochatt
Spectrometer: HR+D1059
Trigger mode: 1
Integration Time (sec): 1.000000E-1
Scans to average: 1
Electric dark correction enabled: true
Nonlinearity correction enabled: false
Boxcar width: 0
XAxis mode: Wavelengths
Number of Pixels in Spectrum: 2048
>>>>>Begin Spectral Data<<<<<
223.165	-7.94
223.4	-7.94
223.635	-7.94
223.869	-24.94
224.104	-19.94
224.338	-1.94
224.573	-7.94
224.808	-13.94
225.042	-10.94
225.277	-1.94
225.511	0.06
225.746	-0.94
225.98	0.06
226.215	11.06
226.449	-0.94
226.683	27.06
226.918	23.06
227.152	30.06
227.387	26.06
227.621	45.06
227.856	51.06
228.09	51.06
228.324	59.06
228.559	65.06
228.793	74.06
229.027	133.06
229.262	130.06
229.496	131.06
229.73	137.06
229.964	135.06
230.199	151.06
230.433	149.06
230.667	154.06
230.901	145.06
231.136	163.06
231.37	167.06
231.604	162.06
231.838	170.06
232.072	166.06
232.306	163.06
232.541	178.06
232.775	192.06
233.009	190.06
233.243	181.06
233.477	196.06
233.711	200.06
233.945	187.06
234.179	190.06
234.413	208.06
234.647	216.06
234.881	203.06
235.115	201.06
235.349	204.06
235.583	193.06
235.817	200.06
236.051	193.06
236.285	219.06
236.519	213.06
236.753	219.06
236.987	215.06
237.221	209.06
237.455	213.06
237.689	219.06
237.922	217.06
238.156	188.06
238.39	220.06
238.624	243.06
238.858	243.06
239.091	245.06
239.325	242.06
239.559	231.06
239.793	235.06
240.027	246.06
240.26	263.06
240.494	239.06
240.728	256.06
240.961	273.06
241.195	263.06
241.429	262.06
241.662	258.06
241.896	260.06
242.13	235.06
242.363	260.06
242.597	260.06
242.83	275.06
243.064	267.06
243.298	274.06
243.531	278.06
243.765	286.06
243.998	283.06
244.232	291.06
244.465	298.06
244.699	283.06
244.932	308.06
245.166	291.06
245.399	296.06
245.633	279.06
245.866	311.06
246.099	291.06
246.333	308.06
246.566	315.06
246.8	316.06
247.033	314.06
247.266	306.06
247.5	315.06
247.733	299.06
247.966	304.06
248.2	318.06
248.433	335.06
248.666	324.06
248.899	343.06
249.133	325.06
249.366	358.06
249.599	371.06
249.832	355.06
250.066	352.06
250.299	354.06
250.532	349.06
250.765	343.06
250.998	334.06
251.231	363.06
251.465	343.06
251.698	360.06
251.931	362.06
252.164	358.06
252.397	373.06
252.63	382.06
252.863	410.06
253.096	403.06
253.329	391.06
253.562	386.06
253.795	418.06
254.028	417.06
254.261	424.06
254.494	410.06
254.727	398.06
254.96	409.06
255.193	427.06
255.426	400.06
255.659	405.06
255.892	390.06
256.124	399.06
256.357	410.06
256.59	452.06
256.823	420.06
257.056	409.06
257.289	416.06
257.521	394.06
257.754	425.06
257.987	410.06
258.22	422.06
258.452	431.06
258.685	458.06
258.918	452.06
259.151	468.06
259.383	451.06
259.616	433.06
259.849	476.06
260.081	545.06
260.314	565.06
260.547	483.06
260.779	464.06
261.012	505.06
261.244	488.06
261.477	515.06
261.71	498.06
261.942	466.06
262.175	462.06
262.407	462.06
262.64	478.06
262.872	485.06
263.105	524.06
263.337	530.06
263.57	518.06
263.802	465.06
264.035	471.06
264.267	460.06
264.499	440.06
264.732	478.06
264.964	468.06
265.197	473.06
265.429	476.06
265.661	479.06
265.894	489.06
266.126	491.06
266.358	484.06
266.591	478.06
266.823	509.06
267.055	488.06
267.287	495.06
267.52	480.06
267.752	506.06
267.984	484.06
268.216	510.06
268.448	511.06
268.681	504.06
268.913	522.06
269.145	502.06
269.377	526.06
269.609	538.06
269.841	526.06
270.073	534.06
270.306	525.06
270.538	530.06
270.77	509.06
271.002	535.06
271.234	547.06
271.466	572.06
271.698	551.06
271.93	543.06
272.162	552.06
272.394	574.06
272.626	536.06
272.858	562.06
273.09	570.06
273.322	570.06
273.553	589.06
273.785	598.06
274.017	612.06
274.249	669.06
274.481	664.06
274.713	686.06
274.945	741.06
275.176	739.06
275.408	712.06
275.64	666.06
275.872	692.06
276.104	647.06
276.335	639.06
276.567	595.06
276.799	604.06
277.031	626.06
277.262	601.06
277.494	586.06
277.726	607.06
277.957	604.06
278.189	614.06
278.421	623.06
278.652	614.06
278.884	592.06
279.115	613.06
279.347	607.06
279.579	586.06
279.81	628.06
280.042	615.06
280.273	626.06
280.505	624.06
280.736	623.06
280.968	628.06
281.199	651.06
281.431	644.06
281.662	633.06
281.894	625.06
282.125	653.06
282.356	634.06
282.588	637.06
282.819	640.06
283.051	660.06
283.282	645.06
283.513	684.06
283.745	650.06
283.976	658.06
284.207	678.06
284.439	662.06
284.67	660.06
284.901	684.06
285.132	698.06
285.364	663.06
285.595	682.06
285.826	690.06
286.057	702.06
286.288	666.06
286.52	681.06
286.751	672.06
286.982	680.06
287.213	669.06
287.444	715.06
287.675	697.06
287.906	674.06
288.138	698.06
288.369	670.06
288.6	707.06
288.831	730.06
289.062	712.06
289.293	713.06
289.524	731.06
289.755	734.06
289.986	681.06
290.217	688.06
290.448	702.06
290.679	724.06
290.91	690.06
291.141	714.06
291.371	693.06
291.602	722.06
291.833	718.06
292.064	701.06
292.295	662.06
292.526	707.06
292.757	704.06
292.987	693.06
293.218	706.06
293.449	705.06
293.68	735.06
293.91	744.06
294.141	731.06
294.372	694.06
294.603	736.06
294.833	735.06
295.064	758.06
295.295	738.06
295.525	743.06
295.756	746.06
295.987	746.06
296.217	756.06
296.448	754.06
296.679	735.06
296.909	752.06
297.14	752.06
297.37	756.06
297.601	743.06
297.831	728.06
298.062	770.06
298.292	750.06
298.523	788.06
298.753	786.06
298.984	753.06
299.214	776.06
299.445	771.06
299.675	776.06
299.905	778.06
300.136	762.06
300.366	784.06
300.597	772.06
300.827	759.06
301.057	783.06
301.288	776.06
301.518	816.06
301.748	796.06
301.979	818.06
302.209	830.06
302.439	847.06
302.669	807.06
302.9	814.06
303.13	798.06
303.36	795.06
303.59	818.06
303.82	820.06
304.051	833.06
304.281	811.06
304.511	828.06
304.741	828.06
304.971	827.06
305.201	845.06
305.431	818.06
305.661	825.06
305.891	826.06
306.121	818.06
306.352	832.06
306.582	815.06
306.812	821.06
307.042	826.06
307.272	812.06
307.502	832.06
307.731	802.06
307.961	831.06
308.191	826.06
308.421	834.06
308.651	815.06
308.881	793.06
309.111	809.06
309.341	835.06
309.571	848.06
309.8	838.06
310.03	836.06
310.26	815.06
310.49	818.06
310.72	845.06
310.949	856.06
311.179	862.06
311.409	835.06
311.639	854.06
311.868	858.06
312.098	847.06
312.328	828.06
312.557	865.06
312.787	857.06
313.017	836.06
313.246	885.06
313.476	878.06
313.706	876.06
313.935	882.06
314.165	892.06
314.394	880.06
314.624	916.06
314.853	882.06
315.083	906.06
315.312	908.06
315.542	899.06
315.771	912.06
316.001	887.06
316.23	922.06
316.46	908.06
316.689	900.06
316.919	904.06
317.148	891.06
317.377	894.06
317.607	907.06
317.836	931.06
318.065	913.06
318.295	931.06
318.524	929.06
318.753	913.06
318.983	911.06
319.212	898.06
319.441	915.06
319.67	897.06
319.9	900.06
320.129	925.06
320.358	909.06
320.587	902.06
320.816	898.06
321.046	918.06
321.275	950.06
321.504	935.06
321.733	938.06
321.962	951.06
322.191	914.06
322.42	951.06
322.649	926.06
322.878	937.06
323.108	926.06
323.337	954.06
323.566	958.06
323.795	925.06
324.024	939.06
324.253	933.06
324.482	922.06
324.71	946.06
324.939	964.06
325.168	958.06
325.397	962.06
325.626	977.06
325.855	976.06
326.084	992.06
326.313	960.06
326.542	959.06
326.77	986.06
326.999	981.06
327.228	975.06
327.457	975.06
327.686	978.06
327.914	985.06
328.143	996.06
328.372	967.06
328.6	984.06
328.829	997.06
329.058	1003.06
329.287	1016.06
329.515	1002.06
329.744	998.06
329.972	999.06
330.201	1015.06
330.43	1003.06
330.658	994.06
330.887	1000.06
331.115	1018.06
331.344	1054.06
331.572	1020.06
331.801	1027.06
332.03	1062.06
332.258	1040.06
332.486	1066.06
332.715	1076.06
332.943	1068.06
333.172	1096.06
333.4	1081.06
333.629	1119.06
333.857	1137.06
334.085	1125.06
334.314	1138.06
334.542	1148.06
334.771	1147.06
334.999	1136.06
335.227	1136.06
335.455	1163.06
335.684	1120.06
335.912	1176.06
336.14	1146.06
336.369	1133.06
336.597	1174.06
336.825	1136.06
337.053	1123.06
337.281	1108.06
337.51	1080.06
337.738	1109.06
337.966	1091.06
338.194	1096.06
338.422	1115.06
338.65	1111.06
338.878	1099.06
339.106	1091.06
339.334	1061.06
339.562	1081.06
339.79	1066.06
340.018	1053.06
340.246	1051.06
340.474	1074.06
340.702	1058.06
340.93	1071.06
341.158	1067.06
341.386	1070.06
341.614	1072.06
341.842	1076.06
342.07	1042.06
342.298	1059.06
342.526	1055.06
342.754	1044.06
342.981	1066.06
343.209	1026.06
343.437	1052.06
343.665	1139.06
343.893	1148.06
344.12	1161.06
344.348	1101.06
344.576	1136.06
344.804	1125.06
345.031	1078.06
345.259	1079.06
345.487	1054.06
345.714	1054.06
345.942	1065.06
346.17	1058.06
346.397	1044.06
346.625	1041.06
346.853	1046.06
347.08	1030.06
347.308	1012.06
347.535	1016.06
347.763	1036.06
347.99	1015.06
348.218	1022.06
348.445	996.06
348.673	1010.06
348.9	1020.06
349.128	990.06
349.355	1012.06
349.583	1044.06
349.81	1037.06
350.037	987.06
350.265	990.06
350.492	989.06
350.72	1028.06
350.947	989.06
351.174	1021.06
351.402	964.06
351.629	1009.06
351.856	974.06
352.083	971.06
352.311	999.06
352.538	996.06
352.765	994.06
352.992	1017.06
353.22	983.06
353.447	993.06
353.674	1001.06
353.901	1010.06
354.128	983.06
354.355	993.06
354.583	985.06
354.81	1008.06
355.037	983.06
355.264	991.06
355.491	1012.06
355.718	1028.06
355.945	1007.06
356.172	1036.06
356.399	1028.06
356.626	1004.06
356.853	1026.06
357.08	1050.06
357.307	998.06
357.534	1019.06
357.761	1023.06
357.988	1030.06
358.215	1037.06
358.441	1023.06
358.668	1015.06
358.895	1026.06
359.122	982.06
359.349	984.06
359.576	986.06
359.802	1006.06
360.029	977.06
360.256	1024.06
360.483	1035.06
360.709	1027.06
360.936	1024.06
361.163	1032.06
361.39	1015.06
361.616	1021.06
361.843	1033.06
362.07	1046.06
362.296	1042.06
362.523	1002.06
362.749	1042.06
362.976	1036.06
363.203	1040.06
363.429	1049.06
363.656	1050.06
363.882	1041.06
364.109	1031.06
364.335	1025.06
364.562	1036.06
364.788	1042.06
365.015	1049.06
365.241	1030.06
365.468	990.06
365.694	1029.06
365.92	1054.06
366.147	1026.06
366.373	1006.06
366.599	1050.06
366.826	1027.06
367.052	1034.06
367.278	1041.06
367.505	1072.06
367.731	1076.06
367.957	1026.06
368.184	1061.06
368.41	1061.06
368.636	1053.06
368.862	1078.06
369.089	1082.06
369.315	1071.06
369.541	1062.06
369.767	1054.06
369.993	1083.06
370.219	1074.06
370.445	1099.06
370.672	1097.06
370.898	1116.06
371.124	1086.06
371.35	1091.06
371.576	1102.06
371.802	1110.06
372.028	1124.06
372.254	1136.06
372.48	1138.06
372.706	1139.06
372.932	1158.06
373.158	1157.06
373.384	1171.06
373.61	1168.06
373.835	1177.06
374.061	1154.06
374.287	1130.06
374.513	1155.06
374.739	1157.06
374.965	1215.06
375.191	1199.06
375.416	1202.06
375.642	1187.06
375.868	1202.06
376.094	1176.06
376.319	1142.06
376.545	1138.06
376.771	1126.06
376.997	1105.06
377.222	1098.06
377.448	1102.06
377.674	1086.06
377.899	1131.06
378.125	1104.06
378.35	1109.06
378.576	1103.06
378.802	1101.06
379.027	1145.06
379.253	1130.06
379.478	1124.06
379.704	1117.06
379.929	1125.06
380.155	1138.06
380.38	1127.06
380.606	1146.06
380.831	1122.06
381.057	1156.06
381.282	1132.06
381.507	1135.06
381.733	1170.06
381.958	1189.06
382.184	1223.06
382.409	1202.06
382.634	1186.06
382.86	1212.06
383.085	1210.06
383.31	1202.06
383.535	1227.06
383.761	1226.06
383.986	1237.06
384.211	1241.06
384.436	1245.06
384.662	1228.06
384.887	1239.06
385.112	1227.06
385.337	1259.06
385.562	1258.06
385.787	1290.06
386.013	1307.06
386.238	1333.06
386.463	1271.06
386.688	1300.06
386.913	1294.06
387.138	1299.06
387.363	1308.06
387.588	1314.06
387.813	1351.06
388.038	1287.06
388.263	1338.06
388.488	1340.06
388.713	1307.06
388.938	1323.06
389.163	1274.06
389.387	1314.06
389.612	1296.06
389.837	1336.06
390.062	1322.06
390.287	1336.06
390.512	1322.06
390.736	1346.06
390.961	1336.06
391.186	1357.06
391.411	1348.06
391.636	1365.06
391.86	1388.06
392.085	1348.06
392.31	1356.06
392.534	1397.06
392.759	1359.06
392.984	1377.06
393.208	1358.06
393.433	1377.06
393.658	1363.06
393.882	1388.06
394.107	1369.06
394.331	1386.06
394.556	1370.06
394.78	1399.06
395.005	1381.06
395.229	1365.06
395.454	1398.06
395.678	1424.06
395.903	1420.06
396.127	1412.06
396.352	1429.06
396.576	1413.06
396.801	1414.06
397.025	1424.06
397.249	1451.06
397.474	1438.06
397.698	1417.06
397.922	1468.06
398.147	1480.06
398.371	1485.06
398.595	1534.06
398.82	1572.06
399.044	1628.06
399.268	1657.06
399.492	1748.06
399.717	1809.06
399.941	1870.06
400.165	1827.06
400.389	1758.06
400.613	1724.06
400.837	1647.06
401.062	1641.06
401.286	1643.06
401.51	1589.06
401.734	1574.06
401.958	1586.06
402.182	1562.06
402.406	1555.06
402.63	1560.06
402.854	1585.06
403.078	1600.06
403.302	1588.06
403.526	1611.06
403.75	1630.06
403.974	1623.06
404.198	1628.06
404.422	1616.06
404.645	1632.06
404.869	1643.06
405.093	1642.06
405.317	1643.06
405.541	1657.06
405.765	1640.06
405.988	1651.06
406.212	1688.06
406.436	1664.06
406.66	1721.06
406.883	1702.06
407.107	1763.06
407.331	1770.06
407.555	1794.06
407.778	1816.06
408.002	1823.06
408.226	1819.06
408.449	1795.06
408.673	1748.06
408.896	1756.06
409.12	1727.06
409.344	1722.06
409.567	1688.06
409.791	1708.06
410.014	1679.06
410.238	1640.06
410.461	1677.06
410.685	1686.06
410.908	1668.06
411.132	1660.06
411.355	1632.06
411.578	1672.06
411.802	1623.06
412.025	1630.06
412.249	1649.06
412.472	1638.06
412.695	1626.06
412.919	1595.06
413.142	1605.06
413.365	1648.06
413.589	1626.06
413.812	1595.06
414.035	1603.06
414.258	1563.06
414.482	1601.06
414.705	1580.06
414.928	1587.06
415.151	1562.06
415.374	1583.06
415.597	1554.06
415.821	1529.06
416.044	1543.06
416.267	1522.06
416.49	1563.06
416.713	1546.06
416.936	1547.06
417.159	1519.06
417.382	1512.06
417.605	1529.06
417.828	1518.06
418.051	1545.06
418.274	1520.06
418.497	1480.06
418.72	1512.06
418.943	1497.06
419.166	1594.06
419.389	1702.06
419.611	1641.06
419.834	1574.06
420.057	1578.06
420.28	1518.06
420.503	1510.06
420.726	1460.06
420.948	1479.06
421.171	1490.06
421.394	1494.06
421.617	1477.06
421.839	1500.06
422.062	1512.06
422.285	1468.06
422.507	1493.06
422.73	1514.06
422.953	1476.06
423.175	1502.06
423.398	1507.06
423.621	1513.06
423.843	1474.06
424.066	1514.06
424.288	1483.06
424.511	1491.06
424.733	1477.06
424.956	1499.06
425.178	1466.06
425.401	1481.06
425.623	1507.06
425.846	1507.06
426.068	1486.06
426.291	1482.06
426.513	1465.06
426.735	1446.06
426.958	1479.06
427.18	1492.06
427.402	1475.06
427.625	1432.06
427.847	1439.06
428.069	1442.06
428.292	1479.06
428.514	1440.06
428.736	1462.06
428.958	1444.06
429.181	1420.06
429.403	1423.06
429.625	1413.06
429.847	1422.06
430.069	1429.06
430.292	1448.06
430.514	1450.06
430.736	1470.06
430.958	1430.06
431.18	1441.06
431.402	1448.06
431.624	1409.06
431.846	1410.06
432.068	1387.06
432.29	1428.06
432.512	1465.06
432.734	1463.06
432.956	1455.06
433.178	1479.06
433.4	1490.06
433.622	1448.06
433.844	1461.06
434.066	1474.06
434.287	1467.06
434.509	1486.06
434.731	1481.06
434.953	1498.06
435.175	1534.06
435.397	1515.06
435.618	1477.06
435.84	1466.06
436.062	1465.06
436.284	1436.06
436.505	1448.06
436.727	1429.06
436.949	1395.06
437.17	1437.06
437.392	1418.06
437.614	1391.06
437.835	1382.06
438.057	1373.06
438.278	1400.06
438.5	1435.06
438.721	1402.06
438.943	1402.06
439.165	1376.06
439.386	1428.06
439.608	1403.06
439.829	1424.06
440.05	1421.06
440.272	1433.06
440.493	1415.06
440.715	1458.06
440.936	1459.06
441.158	1444.06
441.379	1440.06
441.6	1473.06
441.822	1476.06
442.043	1490.06
442.264	1478.06
442.486	1484.06
442.707	1491.06
442.928	1479.06
443.149	1481.06
443.371	1457.06
443.592	1484.06
443.813	1512.06
444.034	1502.06
444.255	1526.06
444.476	1507.06
444.698	1571.06
444.919	1546.06
445.14	1691.06
445.361	1602.06
445.582	1504.06
445.803	1457.06
446.024	1504.06
446.245	1453.06
446.466	1455.06
446.687	1443.06
446.908	1430.06
447.129	1410.06
447.35	1400.06
447.571	1388.06
447.792	1376.06
448.013	1339.06
448.234	1310.06
448.455	1348.06
448.675	1355.06
448.896	1324.06
449.117	1329.06
449.338	1320.06
449.559	1311.06
449.779	1318.06
450	1322.06
450.221	1319.06
450.442	1291.06
450.662	1295.06
450.883	1278.06
451.104	1295.06
451.324	1269.06
451.545	1289.06
451.766	1306.06
451.986	1299.06
452.207	1291.06
452.428	1275.06
452.648	1276.06
452.869	1241.06
453.089	1243.06
453.31	1255.06
453.53	1229.06
453.751	1260.06
453.971	1228.06
454.192	1242.06
454.412	1232.06
454.633	1263.06
454.853	1282.06
455.073	1216.06
455.294	1266.06
455.514	1249.06
455.734	1242.06
455.955	1256.06
456.175	1223.06
456.395	1251.06
456.616	1237.06
456.836	1287.06
457.056	1246.06
457.276	1248.06
457.497	1310.06
457.717	1285.06
457.937	1290.06
458.157	1278.06
458.377	1311.06
458.598	1360.06
458.818	1327.06
459.038	1335.06
459.258	1379.06
459.478	1379.06
459.698	1432.06
459.918	1460.06
460.138	1459.06
460.358	1457.06
460.578	1480.06
460.798	1477.06
461.018	1530.06
461.238	1540.06
461.458	1542.06
461.678	1544.06
461.898	1588.06
462.118	1559.06
462.338	1619.06
462.558	1619.06
462.777	1667.06
462.997	1722.06
463.217	1717.06
463.437	1765.06
463.657	1712.06
463.876	1687.06
464.096	1683.06
464.316	1657.06
464.536	1653.06
464.755	1616.06
464.975	1618.06
465.195	1579.06
465.414	1548.06
465.634	1504.06
465.854	1456.06
466.073	1457.06
466.293	1435.06
466.512	1422.06
466.732	1412.06
466.951	1431.06
467.171	1422.06
467.391	1402.06
467.61	1361.06
467.829	1365.06
468.049	1384.06
468.268	1354.06
468.488	1375.06
468.707	1338.06
468.927	1406.06
469.146	1410.06
469.365	1410.06
469.585	1345.06
469.804	1385.06
470.023	1399.06
470.243	1342.06
470.462	1400.06
470.681	1366.06
470.901	1402.06
471.12	1383.06
471.339	1387.06
471.558	1410.06
471.777	1392.06
471.997	1392.06
472.216	1408.06
472.435	1403.06
472.654	1349.06
472.873	1364.06
473.092	1378.06
473.311	1372.06
473.53	1380.06
473.749	1407.06
473.968	1364.06
474.187	1376.06
474.406	1376.06
474.625	1400.06
474.844	1410.06
475.063	1435.06
475.282	1403.06
475.501	1415.06
475.72	1424.06
475.939	1417.06
476.158	1469.06
476.377	1510.06
476.596	1522.06
476.814	1546.06
477.033	1509.06
477.252	1521.06
477.471	1541.06
477.69	1536.06
477.908	1570.06
478.127	1578.06
478.346	1570.06
478.564	1654.06
478.783	1654.06
479.002	1625.06
479.22	1680.06
479.439	1727.06
479.658	1694.06
479.876	1642.06
480.095	1701.06
480.313	1705.06
480.532	1727.06
480.751	1720.06
480.969	1688.06
481.188	1744.06
481.406	1709.06
481.624	1662.06
481.843	1678.06
482.061	1687.06
482.28	1663.06
482.498	1748.06
482.717	1667.06
482.935	1702.06
483.153	1684.06
483.372	1688.06
483.59	1708.06
483.808	1692.06
484.027	1685.06
484.245	1705.06
484.463	1684.06
484.681	1685.06
484.9	1746.06
485.118	1710.06
485.336	1706.06
485.554	1692.06
485.772	1716.06
485.99	1689.06
486.209	1683.06
486.427	1752.06
486.645	1703.06
486.863	1770.06
487.081	1744.06
487.299	1742.06
487.517	1734.06
487.735	1743.06
487.953	1721.06
488.171	1753.06
488.389	1732.06
488.607	1753.06
488.825	1735.06
489.043	1716.06
489.261	1775.06
489.479	1776.06
489.696	1743.06
489.914	1762.06
490.132	1759.06
490.35	1718.06
490.568	1742.06
490.786	1712.06
491.003	1707.06
491.221	1746.06
491.439	1703.06
491.657	1775.06
491.874	1804.06
492.092	1791.06
492.31	1785.06
492.527	1820.06
492.745	1750.06
492.963	1762.06
493.18	1789.06
493.398	1794.06
493.615	1799.06
493.833	1779.06
494.05	1788.06
494.268	1794.06
494.485	1783.06
494.703	1792.06
494.92	1799.06
495.138	1814.06
495.355	1828.06
495.573	1810.06
495.79	1818.06
496.008	1839.06
496.225	1856.06
496.442	1904.06
496.66	1865.06
496.877	1888.06
497.094	1960.06
497.312	1959.06
497.529	1992.06
497.746	2010.06
497.963	2018.06
498.181	2070.06
498.398	2199.06
498.615	2178.06
498.832	2340.06
499.049	2418.06
499.267	2472.06
499.484	2538.06
499.701	2675.06
499.918	2775.06
500.135	2928.06
500.352	2966.06
500.569	3050.06
500.786	3018.06
501.003	2974.06
501.22	2907.06
501.437	2728.06
501.654	2637.06
501.871	2526.06
502.088	2389.06
502.305	2318.06
502.522	2256.06
502.739	2232.06
502.956	2122.06
503.172	2099.06
503.389	1993.06
503.606	1985.06
503.823	1946.06
504.04	1898.06
504.256	1867.06
504.473	1860.06
504.69	1860.06
504.907	1834.06
505.123	1807.06
505.34	1765.06
505.557	1735.06
505.773	1698.06
505.99	1696.06
506.207	1660.06
506.423	1657.06
506.64	1654.06
506.856	1610.06
507.073	1592.06
507.289	1577.06
507.506	1539.06
507.722	1594.06
507.939	1589.06
508.155	1543.06
508.372	1501.06
508.588	1540.06
508.805	1526.06
509.021	1494.06
509.238	1490.06
509.454	1461.06
509.67	1450.06
509.887	1460.06
510.103	1451.06
510.319	1427.06
510.536	1404.06
510.752	1412.06
510.968	1422.06
511.184	1428.06
511.401	1410.06
511.617	1405.06
511.833	1402.06
512.049	1423.06
512.265	1386.06
512.481	1402.06
512.698	1387.06
512.914	1422.06
513.13	1406.06
513.346	1406.06
513.562	1371.06
513.778	1399.06
513.994	1426.06
514.21	1407.06
514.426	1405.06
514.642	1415.06
514.858	1419.06
515.074	1390.06
515.29	1390.06
515.506	1429.06
515.721	1456.06
515.937	1479.06
516.153	1460.06
516.369	1449.06
516.585	1502.06
516.801	1493.06
517.016	1538.06
517.232	1552.06
517.448	1602.06
517.664	1606.06
517.879	1601.06
518.095	1583.06
518.311	1572.06
518.527	1536.06
518.742	1524.06
518.958	1500.06
519.173	1502.06
519.389	1452.06
519.605	1456.06
519.82	1441.06
520.036	1494.06
520.251	1449.06
520.467	1362.06
520.682	1380.06
520.898	1370.06
521.113	1350.06
521.329	1332.06
521.544	1341.06
521.76	1347.06
521.975	1305.06
522.19	1318.06
522.406	1320.06
522.621	1307.06
522.836	1308.06
523.052	1345.06
523.267	1256.06
523.482	1319.06
523.698	1317.06
523.913	1280.06
524.128	1259.06
524.343	1240.06
524.559	1284.06
524.774	1243.06
524.989	1239.06
525.204	1268.06
525.419	1246.06
525.634	1242.06
525.849	1246.06
526.064	1264.06
526.28	1224.06
526.495	1262.06
526.71	1210.06
526.925	1253.06
527.14	1200.06
527.355	1236.06
527.57	1246.06
527.785	1218.06
527.999	1173.06
528.214	1196.06
528.429	1224.06
528.644	1223.06
528.859	1243.06
529.074	1203.06
529.289	1220.06
529.503	1225.06
529.718	1191.06
529.933	1185.06
530.148	1200.06
530.363	1225.06
530.577	1200.06
530.792	1179.06
531.007	1176.06
531.221	1177.06
531.436	1198.06
531.651	1191.06
531.865	1183.06
532.08	1155.06
532.295	1178.06
532.509	1177.06
532.724	1156.06
532.938	1196.06
533.153	1211.06
533.367	1188.06
533.582	1168.06
533.796	1166.06
534.011	1157.06
534.225	1177.06
534.44	1154.06
534.654	1152.06
534.868	1163.06
535.083	1172.06
535.297	1149.06
535.511	1170.06
535.726	1148.06
535.94	1138.06
536.154	1128.06
536.369	1124.06
536.583	1114.06
536.797	1125.06
537.011	1122.06
537.225	1131.06
537.44	1107.06
537.654	1109.06
537.868	1110.06
538.082	1115.06
538.296	1121.06
538.51	1083.06
538.724	1086.06
538.938	1074.06
539.153	1087.06
539.367	1054.06
539.581	1096.06
539.795	1070.06
540.009	1101.06
540.222	1057.06
540.436	1091.06
540.65	1092.06
540.864	1075.06
541.078	1083.06
541.292	1069.06
541.506	1094.06
541.72	1074.06
541.934	1096.06
542.147	1092.06
542.361	1119.06
542.575	1081.06
542.789	1034.06
543.002	1045.06
543.216	1055.06
543.43	1058.06
543.644	1046.06
543.857	1060.06
544.071	1080.06
544.285	1068.06
544.498	1074.06
544.712	1067.06
544.925	1067.06
545.139	1063.06
545.352	1084.06
545.566	1080.06
545.779	1062.06
545.993	1068.06
546.206	1089.06
546.42	1083.06
546.633	1076.06
546.847	1072.06
547.06	1067.06
547.274	1048.06
547.487	1069.06
547.7	1046.06
547.914	1093.06
548.127	1102.06
548.34	1118.06
548.554	1056.06
548.767	1074.06
548.98	1069.06
549.193	1073.06
549.407	1056.06
549.62	1086.06
549.833	1074.06
550.046	1082.06
550.259	1075.06
550.473	1051.06
550.686	1062.06
550.899	1062.06
551.112	1080.06
551.325	1077.06
551.538	1079.06
551.751	1055.06
551.964	1060.06
552.177	1075.06
552.39	1046.06
552.603	1070.06
552.816	1065.06
553.029	1068.06
553.242	1087.06
553.455	1057.06
553.667	1070.06
553.88	1072.06
554.093	1057.06
554.306	1050.06
554.519	1032.06
554.732	1023.06
554.944	1010.06
555.157	995.06
555.37	980.06
555.583	971.06
555.795	1003.06
556.008	958.06
556.221	943.06
556.433	945.06
556.646	946.06
556.859	936.06
557.071	922.06
557.284	934.06
557.496	906.06
557.709	932.06
557.921	936.06
558.134	923.06
558.346	914.06
558.559	918.06
558.771	869.06
558.984	901.06
559.196	850.06
559.409	902.06
559.621	905.06
559.833	904.06
560.046	899.06
560.258	893.06
560.47	903.06
560.683	885.06
560.895	884.06
561.107	930.06
561.32	887.06
561.532	868.06
561.744	899.06
561.956	887.06
562.168	912.06
562.381	891.06
562.593	893.06
562.805	899.06
563.017	911.06
563.229	876.06
563.441	878.06
563.653	893.06
563.865	902.06
564.077	881.06
564.289	896.06
564.501	904.06
564.713	963.06
564.925	958.06
565.137	982.06
565.349	970.06
565.561	1022.06
565.773	990.06
565.985	1043.06
566.197	1020.06
566.408	1052.06
566.62	1051.06
566.832	1130.06
567.044	1122.06
567.255	1116.06
567.467	1131.06
567.679	1163.06
567.891	1163.06
568.102	1151.06
568.314	1148.06
568.526	1112.06
568.737	1031.06
568.949	1003.06
569.161	991.06
569.372	974.06
569.584	931.06
569.795	908.06
570.007	898.06
570.218	865.06
570.43	876.06
570.641	885.06
570.853	842.06
571.064	822.06
571.276	849.06
571.487	817.06
571.698	809.06
571.91	822.06
572.121	794.06
572.333	808.06
572.544	753.06
572.755	775.06
572.966	748.06
573.178	740.06
573.389	723.06
573.6	731.06
573.811	757.06
574.023	742.06
574.234	726.06
574.445	695.06
574.656	715.06
574.867	708.06
575.078	702.06
575.289	710.06
575.501	683.06
575.712	676.06
575.923	661.06
576.134	703.06
576.345	685.06
576.556	694.06
576.767	656.06
576.978	667.06
577.188	655.06
577.399	655.06
577.61	671.06
577.821	652.06
578.032	668.06
578.243	659.06
578.454	651.06
578.665	640.06
578.875	658.06
579.086	628.06
579.297	630.06
579.508	648.06
579.718	630.06
579.929	650.06
580.14	625.06
580.35	653.06
580.561	625.06
580.772	602.06
580.982	617.06
581.193	601.06
581.403	627.06
581.614	622.06
581.825	612.06
582.035	594.06
582.246	595.06
582.456	604.06
582.667	605.06
582.877	594.06
583.087	601.06
583.298	611.06
583.508	613.06
583.719	594.06
583.929	598.06
584.139	592.06
584.35	580.06
584.56	584.06
584.77	585.06
584.981	595.06
585.191	568.06
585.401	582.06
585.611	576.06
585.821	569.06
586.032	580.06
586.242	599.06
586.452	574.06
586.662	610.06
586.872	574.06
587.082	578.06
587.292	567.06
587.502	564.06
587.713	581.06
587.923	554.06
588.133	574.06
588.343	550.06
588.553	575.06
588.762	572.06
588.972	574.06
589.182	609.06
589.392	592.06
589.602	590.06
589.812	598.06
590.022	573.06
590.232	578.06
590.441	559.06
590.651	564.06
590.861	585.06
591.071	578.06
591.281	572.06
591.49	579.06
591.7	579.06
591.91	587.06
592.119	570.06
592.329	565.06
592.539	579.06
592.748	605.06
592.958	610.06
593.167	623.06
593.377	600.06
593.587	627.06
593.796	600.06
594.006	587.06
594.215	602.06
594.424	588.06
594.634	585.06
594.843	566.06
595.053	567.06
595.262	569.06
595.472	578.06
595.681	558.06
595.89	557.06
596.1	533.06
596.309	537.06
596.518	538.06
596.727	556.06
596.937	527.06
597.146	522.06
597.355	520.06
597.564	516.06
597.774	508.06
597.983	483.06
598.192	511.06
598.401	498.06
598.61	497.06
598.819	496.06
599.028	494.06
599.237	471.06
599.446	501.06
599.655	490.06
599.864	480.06
600.073	482.06
600.282	479.06
600.491	469.06
600.7	466.06
600.909	441.06
601.118	447.06
601.327	470.06
601.536	447.06
601.745	469.06
601.953	471.06
602.162	450.06
602.371	452.06
602.58	441.06
602.789	469.06
602.997	459.06
603.206	446.06
603.415	449.06
603.623	468.06
603.832	451.06
604.041	450.06
604.249	436.06
604.458	464.06
604.666	419.06
604.875	436.06
605.084	442.06
605.292	421.06
605.501	442.06
605.709	452.06
605.918	435.06
606.126	425.06
606.334	421.06
606.543	428.06
606.751	447.06
606.96	442.06
607.168	407.06
607.376	415.06
607.585	421.06
607.793	458.06
608.001	428.06
608.21	430.06
608.418	432.06
608.626	443.06
608.834	401.06
609.043	408.06
609.251	432.06
609.459	433.06
609.667	427.06
609.875	429.06
610.083	426.06
610.291	412.06
610.499	415.06
610.707	414.06
610.916	418.06
611.124	416.06
611.332	422.06
611.54	394.06
611.748	414.06
611.955	420.06
612.163	386.06
612.371	403.06
612.579	399.06
612.787	403.06
612.995	394.06
613.203	392.06
613.411	397.06
613.618	388.06
613.826	400.06
614.034	398.06
614.242	386.06
614.449	408.06
614.657	385.06
614.865	392.06
615.072	412.06
615.28	402.06
615.488	386.06
615.695	392.06
615.903	404.06
616.111	375.06
616.318	403.06
616.526	386.06
616.733	403.06
616.941	394.06
617.148	404.06
617.356	384.06
617.563	414.06
617.771	386.06
617.978	378.06
618.185	388.06
618.393	387.06
618.6	409.06
618.807	384.06
619.015	376.06
619.222	384.06
619.429	377.06
619.637	373.06
619.844	353.06
620.051	368.06
620.258	362.06
620.466	376.06
620.673	374.06
620.88	375.06
621.087	355.06
621.294	372.06
621.501	347.06
621.708	369.06
621.915	374.06
622.122	362.06
622.329	368.06
622.536	360.06
622.743	358.06
622.95	372.06
623.157	362.06
623.364	364.06
623.571	359.06
623.778	363.06
623.985	348.06
624.192	351.06
624.399	358.06
624.606	344.06
624.812	338.06
625.019	354.06
625.226	345.06
625.433	358.06
625.639	348.06
625.846	342.06
626.053	338.06
626.259	368.06
626.466	353.06
626.673	330.06
626.879	341.06
627.086	341.06
627.293	325.06
627.499	345.06
627.706	342.06
627.912	333.06
628.119	324.06
628.325	332.06
628.532	337.06
628.738	326.06
628.945	329.06
629.151	329.06
629.357	299.06
629.564	329.06
629.77	339.06
629.976	310.06
630.183	324.06
630.389	302.06
630.595	324.06
630.802	311.06
631.008	291.06
631.214	292.06
631.42	321.06
631.627	306.06
631.833	302.06
632.039	306.06
632.245	311.06
632.451	291.06
632.657	313.06
632.863	316.06
633.069	309.06
633.275	308.06
633.481	283.06
633.688	298.06
633.893	311.06
634.099	292.06
634.305	299.06
634.511	318.06
634.717	304.06
634.923	299.06
635.129	291.06
635.335	295.06
635.541	305.06
635.747	320.06
635.952	295.06
636.158	297.06
636.364	285.06
636.57	308.06
636.775	288.06
636.981	298.06
637.187	291.06
637.392	276.06
637.598	295.06
637.804	295.06
638.009	291.06
638.215	312.06
638.421	293.06
638.626	288.06
638.832	290.06
639.037	297.06
639.243	299.06
639.448	297.06
639.654	274.06
639.859	274.06
640.065	280.06
640.27	302.06
640.475	294.06
640.681	278.06
640.886	293.06
641.091	293.06
641.297	282.06
641.502	268.06
641.707	258.06
641.913	284.06
642.118	268.06
642.323	272.06
642.528	290.06
642.733	263.06
642.939	288.06
643.144	278.06
643.349	263.06
643.554	295.06
643.759	282.06
643.964	268.06
644.169	293.06
644.374	296.06
644.579	283.06
644.784	282.06
644.989	295.06
645.194	299.06
645.399	292.06
645.604	278.06
645.809	287.06
646.014	286.06
646.219	285.06
646.423	287.06
646.628	288.06
646.833	285.06
647.038	278.06
647.243	276.06
647.447	303.06
647.652	292.06
647.857	280.06
648.062	290.06
648.266	286.06
648.471	297.06
648.676	315.06
648.88	292.06
649.085	300.06
649.289	308.06
649.494	273.06
649.698	280.06
649.903	289.06
650.107	299.06
650.312	295.06
650.516	279.06
650.721	282.06
650.925	283.06
651.13	275.06
651.334	288.06
651.539	285.06
651.743	274.06
651.947	293.06
652.152	291.06
652.356	284.06
652.56	295.06
652.764	275.06
652.969	310.06
653.173	271.06
653.377	272.06
653.581	293.06
653.785	290.06
653.99	288.06
654.194	269.06
654.398	273.06
654.602	263.06
654.806	276.06
655.01	289.06
655.214	285.06
655.418	291.06
655.622	274.06
655.826	301.06
656.03	302.06
656.234	297.06
656.438	316.06
656.642	318.06
656.846	303.06
657.049	281.06
657.253	261.06
657.457	266.06
657.661	231.06
657.865	206.06
658.068	204.06
658.272	196.06
658.476	193.06
658.68	178.06
658.883	179.06
659.087	163.06
659.291	158.06
659.494	144.06
659.698	142.06
659.901	140.06
660.105	127.06
660.309	122.06
660.512	130.06
660.716	120.06
660.919	115.06
661.123	123.06
661.326	103.06
661.53	88.06
661.733	100.06
661.936	101.06
662.14	96.06
662.343	92.06
662.546	90.06
662.75	98.06
662.953	103.06
663.156	90.06
663.36	94.06
663.563	94.06
663.766	79.06
663.969	87.06
664.173	83.06
664.376	80.06
664.579	79.06
664.782	84.06
664.985	92.06
665.188	88.06
665.391	83.06
665.594	73.06
665.797	77.06
666	71.06
666.203	95.06
666.406	90.06
666.609	64.06
666.812	84.06
667.015	82.06
667.218	89.06
667.421	89.06
667.624	85.06
667.827	90.06
668.03	93.06
668.232	81.06
668.435	86.06
668.638	80.06
668.841	79.06
669.043	82.06
669.246	57.06
669.449	79.06
669.651	104.06
669.854	77.06
670.057	65.06
670.259	75.06
670.462	81.06
670.665	91.06
670.867	99.06
671.07	70.06
671.272	82.06
671.475	87.06
671.677	93.06
671.88	70.06
672.082	92.06
672.284	73.06
672.487	76.06
672.689	76.06
672.892	81.06
