Data from Fe(NO3)3@0.0125M.TitratingCurve.Agarose3%dH2O.NegLispCup.LampEnergy10.LIBS07252019_HRD10591_16-58-40-351.txt Node
Date: Thu Jul 25 16:58:40 EDT 2019
User: cochatt
Spectrometer: HR+D1059
Trigger mode: 1
Integration Time (sec): 1.000000E-1
Scans to average: 1
Electric dark correction enabled: true
Nonlinearity correction enabled: false
Boxcar width: 0
XAxis mode: Wavelengths
Number of Pixels in Spectrum: 2048
>>>>>Begin Spectral Data<<<<<
223.165	-9.94
223.4	-9.94
223.635	-9.94
223.869	-21.94
224.104	-12.94
224.338	-15.94
224.573	-7.94
224.808	-2.94
225.042	-8.94
225.277	-6.94
225.511	-9.94
225.746	0.06
225.98	10.06
226.215	10.06
226.449	12.06
226.683	4.06
226.918	27.06
227.152	34.06
227.387	30.06
227.621	37.06
227.856	43.06
228.09	42.06
228.324	39.06
228.559	69.06
228.793	77.06
229.027	95.06
229.262	100.06
229.496	112.06
229.73	108.06
229.964	126.06
230.199	104.06
230.433	117.06
230.667	128.06
230.901	117.06
231.136	126.06
231.37	123.06
231.604	122.06
231.838	134.06
232.072	133.06
232.306	132.06
232.541	137.06
232.775	138.06
233.009	140.06
233.243	142.06
233.477	140.06
233.711	160.06
233.945	153.06
234.179	154.06
234.413	148.06
234.647	147.06
234.881	145.06
235.115	141.06
235.349	149.06
235.583	152.06
235.817	147.06
236.051	138.06
236.285	154.06
236.519	152.06
236.753	153.06
236.987	163.06
237.221	144.06
237.455	150.06
237.689	146.06
237.922	160.06
238.156	154.06
238.39	157.06
238.624	163.06
238.858	157.06
239.091	161.06
239.325	170.06
239.559	170.06
239.793	176.06
240.027	176.06
240.26	184.06
240.494	167.06
240.728	176.06
240.961	182.06
241.195	180.06
241.429	182.06
241.662	176.06
241.896	174.06
242.13	197.06
242.363	188.06
242.597	169.06
242.83	184.06
243.064	169.06
243.298	184.06
243.531	188.06
243.765	194.06
243.998	187.06
244.232	182.06
244.465	184.06
244.699	200.06
244.932	201.06
245.166	211.06
245.399	213.06
245.633	216.06
245.866	210.06
246.099	199.06
246.333	212.06
246.566	189.06
246.8	213.06
247.033	227.06
247.266	211.06
247.5	219.06
247.733	219.06
247.966	225.06
248.2	210.06
248.433	230.06
248.666	217.06
248.899	210.06
249.133	228.06
249.366	240.06
249.599	245.06
249.832	220.06
250.066	233.06
250.299	240.06
250.532	240.06
250.765	243.06
250.998	230.06
251.231	240.06
251.465	245.06
251.698	244.06
251.931	243.06
252.164	241.06
252.397	248.06
252.63	248.06
252.863	254.06
253.096	261.06
253.329	268.06
253.562	264.06
253.795	281.06
254.028	272.06
254.261	264.06
254.494	268.06
254.727	254.06
254.96	271.06
255.193	261.06
255.426	264.06
255.659	277.06
255.892	266.06
256.124	260.06
256.357	267.06
256.59	281.06
256.823	288.06
257.056	299.06
257.289	280.06
257.521	277.06
257.754	299.06
257.987	274.06
258.22	268.06
258.452	290.06
258.685	281.06
258.918	288.06
259.151	307.06
259.383	296.06
259.616	306.06
259.849	301.06
260.081	298.06
260.314	316.06
260.547	321.06
260.779	304.06
261.012	320.06
261.244	323.06
261.477	316.06
261.71	323.06
261.942	309.06
262.175	325.06
262.407	308.06
262.64	329.06
262.872	321.06
263.105	319.06
263.337	320.06
263.57	325.06
263.802	344.06
264.035	338.06
264.267	310.06
264.499	313.06
264.732	333.06
264.964	350.06
265.197	326.06
265.429	335.06
265.661	326.06
265.894	349.06
266.126	348.06
266.358	322.06
266.591	329.06
266.823	356.06
267.055	343.06
267.287	348.06
267.52	357.06
267.752	354.06
267.984	357.06
268.216	362.06
268.448	333.06
268.681	352.06
268.913	359.06
269.145	361.06
269.377	385.06
269.609	354.06
269.841	382.06
270.073	352.06
270.306	358.06
270.538	376.06
270.77	354.06
271.002	380.06
271.234	384.06
271.466	386.06
271.698	373.06
271.93	377.06
272.162	373.06
272.394	378.06
272.626	385.06
272.858	378.06
273.09	411.06
273.322	396.06
273.553	402.06
273.785	411.06
274.017	406.06
274.249	414.06
274.481	435.06
274.713	397.06
274.945	421.06
275.176	434.06
275.408	410.06
275.64	440.06
275.872	410.06
276.104	410.06
276.335	420.06
276.567	439.06
276.799	410.06
277.031	429.06
277.262	451.06
277.494	422.06
277.726	408.06
277.957	429.06
278.189	434.06
278.421	416.06
278.652	452.06
278.884	437.06
279.115	435.06
279.347	460.06
279.579	468.06
279.81	440.06
280.042	457.06
280.273	447.06
280.505	458.06
280.736	481.06
280.968	444.06
281.199	451.06
281.431	461.06
281.662	465.06
281.894	472.06
282.125	454.06
282.356	449.06
282.588	458.06
282.819	470.06
283.051	488.06
283.282	473.06
283.513	481.06
283.745	493.06
283.976	485.06
284.207	504.06
284.439	474.06
284.67	476.06
284.901	482.06
285.132	491.06
285.364	475.06
285.595	488.06
285.826	494.06
286.057	489.06
286.288	503.06
286.52	502.06
286.751	492.06
286.982	492.06
287.213	489.06
287.444	510.06
287.675	505.06
287.906	514.06
288.138	513.06
288.369	513.06
288.6	498.06
288.831	515.06
289.062	523.06
289.293	517.06
289.524	501.06
289.755	526.06
289.986	525.06
290.217	519.06
290.448	545.06
290.679	518.06
290.91	517.06
291.141	525.06
291.371	515.06
291.602	527.06
291.833	540.06
292.064	550.06
292.295	534.06
292.526	541.06
292.757	541.06
292.987	531.06
293.218	540.06
293.449	552.06
293.68	542.06
293.91	542.06
294.141	542.06
294.372	551.06
294.603	541.06
294.833	567.06
295.064	554.06
295.295	571.06
295.525	536.06
295.756	566.06
295.987	572.06
296.217	556.06
296.448	550.06
296.679	544.06
296.909	569.06
297.14	570.06
297.37	585.06
297.601	573.06
297.831	555.06
298.062	581.06
298.292	536.06
298.523	587.06
298.753	584.06
298.984	565.06
299.214	603.06
299.445	598.06
299.675	588.06
299.905	583.06
300.136	585.06
300.366	593.06
300.597	592.06
300.827	613.06
301.057	587.06
301.288	618.06
301.518	613.06
301.748	579.06
301.979	628.06
302.209	615.06
302.439	616.06
302.669	593.06
302.9	620.06
303.13	630.06
303.36	636.06
303.59	628.06
303.82	649.06
304.051	635.06
304.281	646.06
304.511	649.06
304.741	622.06
304.971	654.06
305.201	625.06
305.431	632.06
305.661	643.06
305.891	650.06
306.121	627.06
306.352	646.06
306.582	648.06
306.812	653.06
307.042	640.06
307.272	646.06
307.502	617.06
307.731	651.06
307.961	650.06
308.191	663.06
308.421	668.06
308.651	662.06
308.881	629.06
309.111	648.06
309.341	646.06
309.571	649.06
309.8	667.06
310.03	662.06
310.26	683.06
310.49	663.06
310.72	654.06
310.949	660.06
311.179	659.06
311.409	666.06
311.639	678.06
311.868	658.06
312.098	667.06
312.328	683.06
312.557	701.06
312.787	663.06
313.017	680.06
313.246	709.06
313.476	698.06
313.706	685.06
313.935	693.06
314.165	700.06
314.394	687.06
314.624	720.06
314.853	720.06
315.083	713.06
315.312	712.06
315.542	689.06
315.771	730.06
316.001	685.06
316.23	709.06
316.46	708.06
316.689	728.06
316.919	721.06
317.148	717.06
317.377	730.06
317.607	718.06
317.836	726.06
318.065	739.06
318.295	743.06
318.524	726.06
318.753	713.06
318.983	743.06
319.212	732.06
319.441	736.06
319.67	728.06
319.9	744.06
320.129	740.06
320.358	754.06
320.587	734.06
320.816	742.06
321.046	741.06
321.275	738.06
321.504	755.06
321.733	756.06
321.962	782.06
322.191	733.06
322.42	757.06
322.649	766.06
322.878	777.06
323.108	743.06
323.337	774.06
323.566	765.06
323.795	800.06
324.024	760.06
324.253	788.06
324.482	768.06
324.71	774.06
324.939	764.06
325.168	787.06
325.397	773.06
325.626	781.06
325.855	794.06
326.084	782.06
326.313	816.06
326.542	794.06
326.77	806.06
326.999	810.06
327.228	801.06
327.457	801.06
327.686	805.06
327.914	783.06
328.143	811.06
328.372	795.06
328.6	808.06
328.829	814.06
329.058	789.06
329.287	802.06
329.515	805.06
329.744	792.06
329.972	792.06
330.201	811.06
330.43	787.06
330.658	817.06
330.887	834.06
331.115	805.06
331.344	822.06
331.572	818.06
331.801	820.06
332.03	837.06
332.258	859.06
332.486	840.06
332.715	848.06
332.943	833.06
333.172	853.06
333.4	856.06
333.629	842.06
333.857	856.06
334.085	850.06
334.314	881.06
334.542	856.06
334.771	894.06
334.999	871.06
335.227	862.06
335.455	878.06
335.684	853.06
335.912	882.06
336.14	875.06
336.369	887.06
336.597	873.06
336.825	885.06
337.053	886.06
337.281	895.06
337.51	859.06
337.738	863.06
337.966	873.06
338.194	845.06
338.422	837.06
338.65	882.06
338.878	881.06
339.106	856.06
339.334	854.06
339.562	842.06
339.79	846.06
340.018	857.06
340.246	853.06
340.474	871.06
340.702	862.06
340.93	882.06
341.158	857.06
341.386	844.06
341.614	843.06
341.842	857.06
342.07	869.06
342.298	849.06
342.526	867.06
342.754	859.06
342.981	852.06
343.209	847.06
343.437	844.06
343.665	840.06
343.893	862.06
344.12	877.06
344.348	871.06
344.576	884.06
344.804	856.06
345.031	856.06
345.259	851.06
345.487	869.06
345.714	856.06
345.942	824.06
346.17	873.06
346.397	850.06
346.625	812.06
346.853	830.06
347.08	824.06
347.308	837.06
347.535	848.06
347.763	807.06
347.99	824.06
348.218	832.06
348.445	806.06
348.673	810.06
348.9	840.06
349.128	852.06
349.355	830.06
349.583	828.06
349.81	856.06
350.037	812.06
350.265	824.06
350.492	844.06
350.72	785.06
350.947	829.06
351.174	839.06
351.402	850.06
351.629	841.06
351.856	828.06
352.083	855.06
352.311	834.06
352.538	806.06
352.765	806.06
352.992	837.06
353.22	829.06
353.447	810.06
353.674	828.06
353.901	801.06
354.128	820.06
354.355	824.06
354.583	797.06
354.81	804.06
355.037	817.06
355.264	852.06
355.491	816.06
355.718	812.06
355.945	824.06
356.172	835.06
356.399	798.06
356.626	845.06
356.853	833.06
357.08	828.06
357.307	840.06
357.534	798.06
357.761	832.06
357.988	836.06
358.215	820.06
358.441	849.06
358.668	826.06
358.895	830.06
359.122	818.06
359.349	823.06
359.576	813.06
359.802	844.06
360.029	803.06
360.256	791.06
360.483	836.06
360.709	828.06
360.936	831.06
361.163	813.06
361.39	825.06
361.616	824.06
361.843	850.06
362.07	841.06
362.296	818.06
362.523	846.06
362.749	842.06
362.976	857.06
363.203	848.06
363.429	864.06
363.656	837.06
363.882	838.06
364.109	844.06
364.335	822.06
364.562	836.06
364.788	839.06
365.015	846.06
365.241	862.06
365.468	861.06
365.694	834.06
365.92	858.06
366.147	858.06
366.373	851.06
366.599	860.06
366.826	846.06
367.052	853.06
367.278	840.06
367.505	843.06
367.731	872.06
367.957	858.06
368.184	864.06
368.41	850.06
368.636	880.06
368.862	883.06
369.089	854.06
369.315	882.06
369.541	873.06
369.767	901.06
369.993	882.06
370.219	871.06
370.445	877.06
370.672	883.06
370.898	900.06
371.124	873.06
371.35	874.06
371.576	896.06
371.802	873.06
372.028	907.06
372.254	901.06
372.48	885.06
372.706	890.06
372.932	890.06
373.158	882.06
373.384	911.06
373.61	897.06
373.835	917.06
374.061	902.06
374.287	884.06
374.513	892.06
374.739	876.06
374.965	916.06
375.191	932.06
375.416	926.06
375.642	906.06
375.868	885.06
376.094	874.06
376.319	889.06
376.545	889.06
376.771	874.06
376.997	901.06
377.222	895.06
377.448	871.06
377.674	890.06
377.899	865.06
378.125	887.06
378.35	863.06
378.576	877.06
378.802	887.06
379.027	878.06
379.253	881.06
379.478	890.06
379.704	888.06
379.929	887.06
380.155	862.06
380.38	866.06
380.606	877.06
380.831	863.06
381.057	884.06
381.282	864.06
381.507	893.06
381.733	863.06
381.958	889.06
382.184	890.06
382.409	881.06
382.634	906.06
382.86	908.06
383.085	917.06
383.31	911.06
383.535	887.06
383.761	904.06
383.986	930.06
384.211	913.06
384.436	915.06
384.662	924.06
384.887	936.06
385.112	948.06
385.337	961.06
385.562	958.06
385.787	933.06
386.013	936.06
386.238	941.06
386.463	961.06
386.688	964.06
386.913	944.06
387.138	955.06
387.363	974.06
387.588	960.06
387.813	959.06
388.038	964.06
388.263	933.06
388.488	938.06
388.713	974.06
388.938	963.06
389.163	954.06
389.387	971.06
389.612	986.06
389.837	971.06
390.062	954.06
390.287	957.06
390.512	961.06
390.736	962.06
390.961	963.06
391.186	981.06
391.411	997.06
391.636	970.06
391.86	999.06
392.085	993.06
392.31	991.06
392.534	986.06
392.759	1004.06
392.984	994.06
393.208	992.06
393.433	1025.06
393.658	1014.06
393.882	1000.06
394.107	973.06
394.331	978.06
394.556	980.06
394.78	981.06
395.005	989.06
395.229	974.06
395.454	971.06
395.678	991.06
395.903	999.06
396.127	1009.06
396.352	1002.06
396.576	998.06
396.801	994.06
397.025	1038.06
397.249	984.06
397.474	1036.06
397.698	998.06
397.922	1034.06
398.147	1031.06
398.371	1030.06
398.595	1037.06
398.82	1044.06
399.044	1054.06
399.268	1092.06
399.492	1115.06
399.717	1116.06
399.941	1099.06
400.165	1121.06
400.389	1124.06
400.613	1092.06
400.837	1091.06
401.062	1067.06
401.286	1090.06
401.51	1099.06
401.734	1046.06
401.958	1064.06
402.182	1068.06
402.406	1059.06
402.63	1073.06
402.854	1054.06
403.078	1051.06
403.302	1063.06
403.526	1066.06
403.75	1051.06
403.974	1051.06
404.198	1061.06
404.422	1096.06
404.645	1069.06
404.869	1080.06
405.093	1084.06
405.317	1062.06
405.541	1068.06
405.765	1085.06
405.988	1107.06
406.212	1067.06
406.436	1106.06
406.66	1107.06
406.883	1113.06
407.107	1131.06
407.331	1131.06
407.555	1148.06
407.778	1123.06
408.002	1138.06
408.226	1142.06
408.449	1170.06
408.673	1146.06
408.896	1146.06
409.12	1124.06
409.344	1122.06
409.567	1083.06
409.791	1111.06
410.014	1119.06
410.238	1083.06
410.461	1112.06
410.685	1097.06
410.908	1114.06
411.132	1128.06
411.355	1121.06
411.578	1070.06
411.802	1059.06
412.025	1061.06
412.249	1078.06
412.472	1045.06
412.695	1067.06
412.919	1106.06
413.142	1062.06
413.365	1045.06
413.589	1067.06
413.812	1097.06
414.035	1058.06
414.258	1049.06
414.482	1100.06
414.705	1059.06
414.928	1059.06
415.151	1037.06
415.374	1076.06
415.597	1048.06
415.821	1037.06
416.044	1034.06
416.267	1016.06
416.49	1023.06
416.713	1017.06
416.936	1064.06
417.159	1002.06
417.382	1018.06
417.605	1009.06
417.828	996.06
418.051	1020.06
418.274	1012.06
418.497	1013.06
418.72	1001.06
418.943	955.06
419.166	1066.06
419.389	1116.06
419.611	1085.06
419.834	1032.06
420.057	1015.06
420.28	981.06
420.503	995.06
420.726	981.06
420.948	965.06
421.171	1027.06
421.394	974.06
421.617	973.06
421.839	968.06
422.062	992.06
422.285	967.06
422.507	1010.06
422.73	995.06
422.953	1001.06
423.175	992.06
423.398	995.06
423.621	987.06
423.843	976.06
424.066	982.06
424.288	986.06
424.511	994.06
424.733	1003.06
424.956	994.06
425.178	957.06
425.401	968.06
425.623	982.06
425.846	944.06
426.068	966.06
426.291	993.06
426.513	975.06
426.735	988.06
426.958	968.06
427.18	962.06
427.402	967.06
427.625	977.06
427.847	971.06
428.069	932.06
428.292	1001.06
428.514	942.06
428.736	954.06
428.958	971.06
429.181	933.06
429.403	940.06
429.625	940.06
429.847	960.06
430.069	939.06
430.292	973.06
430.514	980.06
430.736	981.06
430.958	975.06
431.18	986.06
431.402	972.06
431.624	945.06
431.846	952.06
432.068	971.06
432.29	988.06
432.512	979.06
432.734	965.06
432.956	965.06
433.178	982.06
433.4	964.06
433.622	962.06
433.844	980.06
434.066	958.06
434.287	977.06
434.509	952.06
434.731	956.06
434.953	969.06
435.175	995.06
435.397	983.06
435.618	983.06
435.84	957.06
436.062	963.06
436.284	950.06
436.505	948.06
436.727	958.06
436.949	938.06
437.17	943.06
437.392	954.06
437.614	928.06
437.835	918.06
438.057	953.06
438.278	936.06
438.5	932.06
438.721	920.06
438.943	944.06
439.165	951.06
439.386	947.06
439.608	915.06
439.829	936.06
440.05	910.06
440.272	904.06
440.493	934.06
440.715	960.06
440.936	941.06
441.158	968.06
441.379	950.06
441.6	959.06
441.822	941.06
442.043	944.06
442.264	967.06
442.486	926.06
442.707	964.06
442.928	931.06
443.149	935.06
443.371	927.06
443.592	928.06
443.813	933.06
444.034	954.06
444.255	973.06
444.476	963.06
444.698	942.06
444.919	987.06
445.14	1086.06
445.361	967.06
445.582	938.06
445.803	970.06
446.024	940.06
446.245	934.06
446.466	950.06
446.687	940.06
446.908	886.06
447.129	927.06
447.35	921.06
447.571	903.06
447.792	891.06
448.013	897.06
448.234	893.06
448.455	893.06
448.675	895.06
448.896	889.06
449.117	859.06
449.338	857.06
449.559	875.06
449.779	856.06
450	878.06
450.221	892.06
450.442	874.06
450.662	880.06
450.883	846.06
451.104	885.06
451.324	888.06
451.545	887.06
451.766	856.06
451.986	857.06
452.207	849.06
452.428	854.06
452.648	849.06
452.869	848.06
453.089	853.06
453.31	822.06
453.53	861.06
453.751	851.06
453.971	850.06
454.192	851.06
454.412	860.06
454.633	842.06
454.853	850.06
455.073	824.06
455.294	841.06
455.514	838.06
455.734	842.06
455.955	834.06
456.175	835.06
456.395	848.06
456.616	852.06
456.836	875.06
457.056	827.06
457.276	850.06
457.497	858.06
457.717	860.06
457.937	862.06
458.157	855.06
458.377	865.06
458.598	893.06
458.818	868.06
459.038	876.06
459.258	912.06
459.478	884.06
459.698	905.06
459.918	886.06
460.138	914.06
460.358	935.06
460.578	940.06
460.798	923.06
461.018	961.06
461.238	952.06
461.458	968.06
461.678	937.06
461.898	985.06
462.118	985.06
462.338	980.06
462.558	966.06
462.777	979.06
462.997	982.06
463.217	1028.06
463.437	983.06
463.657	994.06
463.876	996.06
464.096	1009.06
464.316	983.06
464.536	999.06
464.755	988.06
464.975	966.06
465.195	973.06
465.414	945.06
465.634	918.06
465.854	941.06
466.073	919.06
466.293	904.06
466.512	922.06
466.732	924.06
466.951	907.06
467.171	896.06
467.391	908.06
467.61	934.06
467.829	876.06
468.049	933.06
468.268	918.06
468.488	931.06
468.707	903.06
468.927	941.06
469.146	931.06
469.365	919.06
469.585	905.06
469.804	930.06
470.023	940.06
470.243	892.06
470.462	933.06
470.681	902.06
470.901	926.06
471.12	932.06
471.339	902.06
471.558	918.06
471.777	952.06
471.997	930.06
472.216	902.06
472.435	945.06
472.654	938.06
472.873	933.06
473.092	933.06
473.311	936.06
473.53	941.06
473.749	948.06
473.968	947.06
474.187	961.06
474.406	949.06
474.625	921.06
474.844	944.06
475.063	956.06
475.282	942.06
475.501	941.06
475.72	958.06
475.939	991.06
476.158	968.06
476.377	1000.06
476.596	986.06
476.814	1028.06
477.033	1018.06
477.252	1019.06
477.471	1020.06
477.69	1014.06
477.908	996.06
478.127	1013.06
478.346	1051.06
478.564	1038.06
478.783	1034.06
479.002	1063.06
479.22	1088.06
479.439	1083.06
479.658	1086.06
479.876	1074.06
480.095	1097.06
480.313	1089.06
480.532	1101.06
480.751	1084.06
480.969	1073.06
481.188	1103.06
481.406	1115.06
481.624	1110.06
481.843	1106.06
482.061	1111.06
482.28	1108.06
482.498	1113.06
482.717	1074.06
482.935	1076.06
483.153	1110.06
483.372	1128.06
483.59	1112.06
483.808	1119.06
484.027	1101.06
484.245	1122.06
484.463	1113.06
484.681	1158.06
484.9	1132.06
485.118	1115.06
485.336	1138.06
485.554	1146.06
485.772	1167.06
485.99	1141.06
486.209	1128.06
486.427	1129.06
486.645	1169.06
486.863	1151.06
487.081	1147.06
487.299	1140.06
487.517	1141.06
487.735	1153.06
487.953	1161.06
488.171	1167.06
488.389	1106.06
488.607	1146.06
488.825	1140.06
489.043	1158.06
489.261	1142.06
489.479	1154.06
489.696	1152.06
489.914	1150.06
490.132	1138.06
490.35	1187.06
490.568	1171.06
490.786	1175.06
491.003	1155.06
491.221	1152.06
491.439	1164.06
491.657	1155.06
491.874	1160.06
492.092	1169.06
492.31	1184.06
492.527	1165.06
492.745	1146.06
492.963	1144.06
493.18	1163.06
493.398	1185.06
493.615	1188.06
493.833	1171.06
494.05	1178.06
494.268	1159.06
494.485	1186.06
494.703	1189.06
494.92	1186.06
495.138	1202.06
495.355	1185.06
495.573	1221.06
495.79	1222.06
496.008	1268.06
496.225	1210.06
496.442	1242.06
496.66	1252.06
496.877	1234.06
497.094	1244.06
497.312	1253.06
497.529	1281.06
497.746	1297.06
497.963	1305.06
498.181	1325.06
498.398	1325.06
498.615	1365.06
498.832	1366.06
499.049	1406.06
499.267	1416.06
499.484	1417.06
499.701	1462.06
499.918	1460.06
500.135	1491.06
500.352	1533.06
500.569	1518.06
500.786	1509.06
501.003	1548.06
501.22	1495.06
501.437	1502.06
501.654	1440.06
501.871	1432.06
502.088	1426.06
502.305	1376.06
502.522	1332.06
502.739	1332.06
502.956	1293.06
503.172	1304.06
503.389	1260.06
503.606	1268.06
503.823	1281.06
504.04	1227.06
504.256	1226.06
504.473	1220.06
504.69	1194.06
504.907	1225.06
505.123	1184.06
505.34	1150.06
505.557	1152.06
505.773	1162.06
505.99	1149.06
506.207	1124.06
506.423	1140.06
506.64	1099.06
506.856	1071.06
507.073	1089.06
507.289	1077.06
507.506	1062.06
507.722	1069.06
507.939	1054.06
508.155	1068.06
508.372	1020.06
508.588	1036.06
508.805	1039.06
509.021	1039.06
509.238	1030.06
509.454	1005.06
509.67	1013.06
509.887	1020.06
510.103	1017.06
510.319	1017.06
510.536	1024.06
510.752	987.06
510.968	990.06
511.184	998.06
511.401	988.06
511.617	980.06
511.833	981.06
512.049	1006.06
512.265	972.06
512.481	990.06
512.698	985.06
512.914	1008.06
513.13	958.06
513.346	974.06
513.562	1010.06
513.778	1017.06
513.994	986.06
514.21	986.06
514.426	990.06
514.642	987.06
514.858	986.06
515.074	984.06
515.29	970.06
515.506	1008.06
515.721	1020.06
515.937	1004.06
516.153	993.06
516.369	1025.06
516.585	1017.06
516.801	1009.06
517.016	993.06
517.232	1035.06
517.448	1022.06
517.664	1066.06
517.879	1043.06
518.095	999.06
518.311	1020.06
518.527	1029.06
518.742	1015.06
518.958	998.06
519.173	1008.06
519.389	986.06
519.605	994.06
519.82	992.06
520.036	985.06
520.251	994.06
520.467	996.06
520.682	964.06
520.898	970.06
521.113	954.06
521.329	907.06
521.544	911.06
521.76	938.06
521.975	938.06
522.19	934.06
522.406	906.06
522.621	960.06
522.836	936.06
523.052	960.06
523.267	933.06
523.482	934.06
523.698	905.06
523.913	915.06
524.128	920.06
524.343	876.06
524.559	914.06
524.774	933.06
524.989	908.06
525.204	894.06
525.419	900.06
525.634	901.06
525.849	887.06
526.064	906.06
526.28	902.06
526.495	884.06
526.71	891.06
526.925	902.06
527.14	897.06
527.355	876.06
527.57	902.06
527.785	875.06
527.999	880.06
528.214	871.06
528.429	912.06
528.644	908.06
528.859	873.06
529.074	915.06
529.289	868.06
529.503	850.06
529.718	867.06
529.933	856.06
530.148	890.06
530.363	864.06
530.577	868.06
530.792	886.06
531.007	862.06
531.221	861.06
531.436	865.06
531.651	843.06
531.865	881.06
532.08	870.06
532.295	850.06
532.509	848.06
532.724	870.06
532.938	877.06
533.153	838.06
533.367	881.06
533.582	858.06
533.796	850.06
534.011	845.06
534.225	833.06
534.44	829.06
534.654	830.06
534.868	854.06
535.083	846.06
535.297	831.06
535.511	841.06
535.726	820.06
535.94	846.06
536.154	830.06
536.369	850.06
536.583	794.06
536.797	822.06
537.011	789.06
537.225	803.06
537.44	803.06
537.654	810.06
537.868	805.06
538.082	812.06
538.296	823.06
538.51	813.06
538.724	794.06
538.938	797.06
539.153	789.06
539.367	804.06
539.581	783.06
539.795	783.06
540.009	789.06
540.222	818.06
540.436	792.06
540.65	798.06
540.864	802.06
541.078	791.06
541.292	796.06
541.506	773.06
541.72	792.06
541.934	800.06
542.147	801.06
542.361	788.06
542.575	782.06
542.789	792.06
543.002	774.06
543.216	772.06
543.43	768.06
543.644	784.06
543.857	770.06
544.071	791.06
544.285	768.06
544.498	791.06
544.712	783.06
544.925	800.06
545.139	772.06
545.352	747.06
545.566	771.06
545.779	749.06
545.993	772.06
546.206	790.06
546.42	768.06
546.633	771.06
546.847	748.06
547.06	756.06
547.274	761.06
547.487	760.06
547.7	748.06
547.914	757.06
548.127	744.06
548.34	748.06
548.554	767.06
548.767	736.06
548.98	746.06
549.193	766.06
549.407	773.06
549.62	793.06
549.833	756.06
550.046	747.06
550.259	771.06
550.473	755.06
550.686	730.06
550.899	749.06
551.112	746.06
551.325	730.06
551.538	752.06
551.751	746.06
551.964	748.06
552.177	732.06
552.39	723.06
552.603	736.06
552.816	749.06
553.029	756.06
553.242	732.06
553.455	736.06
553.667	772.06
553.88	732.06
554.093	736.06
554.306	733.06
554.519	738.06
554.732	734.06
554.944	698.06
555.157	700.06
555.37	700.06
555.583	720.06
555.795	698.06
556.008	689.06
556.221	679.06
556.433	680.06
556.646	682.06
556.859	714.06
557.071	670.06
557.284	668.06
557.496	674.06
557.709	661.06
557.921	681.06
558.134	693.06
558.346	674.06
558.559	672.06
558.771	660.06
558.984	663.06
559.196	652.06
559.409	659.06
559.621	642.06
559.833	642.06
560.046	654.06
560.258	651.06
560.47	668.06
560.683	648.06
560.895	649.06
561.107	637.06
561.32	666.06
561.532	644.06
561.744	654.06
561.956	654.06
562.168	612.06
562.381	658.06
562.593	653.06
562.805	642.06
563.017	640.06
563.229	649.06
563.441	642.06
563.653	647.06
563.865	669.06
564.077	648.06
564.289	650.06
564.501	644.06
564.713	670.06
564.925	666.06
565.137	646.06
565.349	688.06
565.561	680.06
565.773	655.06
565.985	675.06
566.197	675.06
566.408	684.06
566.62	695.06
566.832	712.06
567.044	685.06
567.255	691.06
567.467	686.06
567.679	688.06
567.891	691.06
568.102	684.06
568.314	677.06
568.526	672.06
568.737	646.06
568.949	648.06
569.161	650.06
569.372	645.06
569.584	638.06
569.795	631.06
570.007	603.06
570.218	620.06
570.43	603.06
570.641	599.06
570.853	584.06
571.064	604.06
571.276	600.06
571.487	607.06
571.698	555.06
571.91	570.06
572.121	581.06
572.333	563.06
572.544	550.06
572.755	532.06
572.966	532.06
573.178	555.06
573.389	554.06
573.6	546.06
573.811	550.06
574.023	529.06
574.234	525.06
574.445	523.06
574.656	525.06
574.867	520.06
575.078	515.06
575.289	516.06
575.501	520.06
575.712	511.06
575.923	518.06
576.134	519.06
576.345	522.06
576.556	503.06
576.767	535.06
576.978	507.06
577.188	485.06
577.399	499.06
577.61	501.06
577.821	504.06
578.032	491.06
578.243	481.06
578.454	514.06
578.665	498.06
578.875	478.06
579.086	490.06
579.297	470.06
579.508	483.06
579.718	487.06
579.929	478.06
580.14	478.06
580.35	483.06
580.561	475.06
580.772	460.06
580.982	459.06
581.193	460.06
581.403	466.06
581.614	459.06
581.825	480.06
582.035	474.06
582.246	459.06
582.456	449.06
582.667	456.06
582.877	454.06
583.087	458.06
583.298	432.06
583.508	464.06
583.719	455.06
583.929	433.06
584.139	438.06
584.35	446.06
584.56	448.06
584.77	442.06
584.981	458.06
585.191	436.06
585.401	450.06
585.611	418.06
585.821	429.06
586.032	422.06
586.242	420.06
586.452	416.06
586.662	436.06
586.872	450.06
587.082	411.06
587.292	448.06
587.502	429.06
587.713	420.06
587.923	430.06
588.133	426.06
588.343	432.06
588.553	433.06
588.762	441.06
588.972	427.06
589.182	441.06
589.392	433.06
589.602	414.06
589.812	447.06
590.022	419.06
590.232	421.06
590.441	419.06
590.651	415.06
590.861	445.06
591.071	410.06
591.281	425.06
591.49	420.06
591.7	431.06
591.91	420.06
592.119	399.06
592.329	412.06
592.539	402.06
592.748	406.06
592.958	413.06
593.167	440.06
593.377	427.06
593.587	428.06
593.796	408.06
594.006	411.06
594.215	424.06
594.424	434.06
594.634	396.06
594.843	415.06
595.053	408.06
595.262	412.06
595.472	428.06
595.681	391.06
595.89	396.06
596.1	394.06
596.309	407.06
596.518	386.06
596.727	390.06
596.937	389.06
597.146	409.06
597.355	362.06
597.564	370.06
597.774	368.06
597.983	381.06
598.192	376.06
598.401	386.06
598.61	374.06
598.819	361.06
599.028	368.06
599.237	372.06
599.446	360.06
599.655	358.06
599.864	366.06
600.073	356.06
600.282	361.06
600.491	363.06
600.7	369.06
600.909	354.06
601.118	354.06
601.327	334.06
601.536	365.06
601.745	372.06
601.953	353.06
602.162	362.06
602.371	349.06
602.58	346.06
602.789	355.06
602.997	340.06
603.206	331.06
603.415	343.06
603.623	323.06
603.832	360.06
604.041	338.06
604.249	342.06
604.458	346.06
604.666	340.06
604.875	330.06
605.084	346.06
605.292	338.06
605.501	348.06
605.709	347.06
605.918	345.06
606.126	332.06
606.334	336.06
606.543	329.06
606.751	345.06
606.96	310.06
607.168	313.06
607.376	326.06
607.585	346.06
607.793	331.06
608.001	341.06
608.21	317.06
608.418	329.06
608.626	320.06
608.834	304.06
609.043	329.06
609.251	334.06
609.459	309.06
609.667	329.06
609.875	325.06
610.083	326.06
610.291	324.06
610.499	302.06
610.707	321.06
610.916	315.06
611.124	309.06
611.332	330.06
611.54	325.06
611.748	294.06
611.955	310.06
612.163	319.06
612.371	300.06
612.579	306.06
612.787	302.06
612.995	316.06
613.203	300.06
613.411	321.06
613.618	310.06
613.826	300.06
614.034	324.06
614.242	318.06
614.449	324.06
614.657	301.06
614.865	309.06
615.072	320.06
615.28	300.06
615.488	312.06
615.695	307.06
615.903	306.06
616.111	310.06
616.318	307.06
616.526	323.06
616.733	300.06
616.941	299.06
617.148	290.06
617.356	304.06
617.563	303.06
617.771	295.06
617.978	305.06
618.185	306.06
618.393	310.06
618.6	308.06
618.807	282.06
619.015	310.06
619.222	288.06
619.429	295.06
619.637	296.06
619.844	300.06
620.051	297.06
620.258	283.06
620.466	272.06
620.673	279.06
620.88	283.06
621.087	277.06
621.294	278.06
621.501	273.06
621.708	277.06
621.915	276.06
622.122	282.06
622.329	285.06
622.536	299.06
622.743	278.06
622.95	293.06
623.157	285.06
623.364	262.06
623.571	261.06
623.778	278.06
623.985	276.06
624.192	291.06
624.399	273.06
624.606	270.06
624.812	286.06
625.019	263.06
625.226	247.06
625.433	261.06
625.639	264.06
625.846	276.06
626.053	278.06
626.259	273.06
626.466	272.06
626.673	262.06
626.879	249.06
627.086	253.06
627.293	260.06
627.499	262.06
627.706	284.06
627.912	270.06
628.119	280.06
628.325	258.06
628.532	260.06
628.738	250.06
628.945	240.06
629.151	256.06
629.357	232.06
629.564	260.06
629.77	261.06
629.976	268.06
630.183	234.06
630.389	245.06
630.595	244.06
630.802	253.06
631.008	245.06
631.214	244.06
631.42	282.06
631.627	250.06
631.833	252.06
632.039	229.06
632.245	230.06
632.451	246.06
632.657	235.06
632.863	234.06
633.069	244.06
633.275	238.06
633.481	219.06
633.688	230.06
633.893	230.06
634.099	248.06
634.305	256.06
634.511	241.06
634.717	236.06
634.923	223.06
635.129	227.06
635.335	235.06
635.541	231.06
635.747	242.06
635.952	236.06
636.158	229.06
636.364	218.06
636.57	232.06
636.775	253.06
636.981	226.06
637.187	222.06
637.392	235.06
637.598	220.06
637.804	233.06
638.009	228.06
638.215	227.06
638.421	198.06
638.626	196.06
638.832	229.06
639.037	228.06
639.243	225.06
639.448	219.06
639.654	222.06
639.859	222.06
640.065	213.06
640.27	231.06
640.475	225.06
640.681	225.06
640.886	227.06
641.091	224.06
641.297	231.06
641.502	226.06
641.707	234.06
641.913	222.06
642.118	226.06
642.323	240.06
642.528	231.06
642.733	217.06
642.939	217.06
643.144	216.06
643.349	216.06
643.554	227.06
643.759	217.06
643.964	229.06
644.169	214.06
644.374	227.06
644.579	213.06
644.784	226.06
644.989	209.06
645.194	213.06
645.399	214.06
645.604	220.06
645.809	212.06
646.014	213.06
646.219	231.06
646.423	227.06
646.628	223.06
646.833	205.06
647.038	195.06
647.243	232.06
647.447	224.06
647.652	225.06
647.857	206.06
648.062	225.06
648.266	219.06
648.471	204.06
648.676	219.06
648.88	230.06
649.085	216.06
649.289	214.06
649.494	216.06
649.698	242.06
649.903	220.06
650.107	213.06
650.312	226.06
650.516	213.06
650.721	206.06
650.925	204.06
651.13	201.06
651.334	218.06
651.539	209.06
651.743	210.06
651.947	186.06
652.152	212.06
652.356	212.06
652.56	189.06
652.764	199.06
652.969	192.06
653.173	194.06
653.377	204.06
653.581	196.06
653.785	194.06
653.99	192.06
654.194	187.06
654.398	195.06
654.602	176.06
654.806	194.06
655.01	192.06
655.214	201.06
655.418	188.06
655.622	182.06
655.826	188.06
656.03	169.06
656.234	176.06
656.438	186.06
656.642	172.06
656.846	178.06
657.049	187.06
657.253	174.06
657.457	164.06
657.661	153.06
657.865	154.06
658.068	156.06
658.272	131.06
658.476	140.06
658.68	137.06
658.883	139.06
659.087	126.06
659.291	126.06
659.494	126.06
659.698	127.06
659.901	114.06
660.105	122.06
660.309	115.06
660.512	103.06
660.716	98.06
660.919	107.06
661.123	92.06
661.326	85.06
661.53	93.06
661.733	88.06
661.936	97.06
662.14	97.06
662.343	84.06
662.546	85.06
662.75	84.06
662.953	82.06
663.156	75.06
663.36	93.06
663.563	85.06
663.766	85.06
663.969	91.06
664.173	87.06
664.376	86.06
664.579	76.06
664.782	92.06
664.985	95.06
665.188	78.06
665.391	89.06
665.594	87.06
665.797	97.06
666	90.06
666.203	81.06
666.406	83.06
666.609	73.06
666.812	105.06
667.015	82.06
667.218	74.06
667.421	84.06
667.624	89.06
667.827	96.06
668.03	100.06
668.232	95.06
668.435	85.06
668.638	79.06
668.841	85.06
669.043	89.06
669.246	78.06
669.449	93.06
669.651	73.06
669.854	84.06
670.057	86.06
670.259	77.06
670.462	68.06
670.665	82.06
670.867	82.06
671.07	89.06
671.272	89.06
671.475	98.06
671.677	87.06
671.88	76.06
672.082	84.06
672.284	91.06
672.487	77.06
672.689	76.06
672.892	72.06
