Data from Fe(NO3)3@0.1M.TitratingCurve.Agarose3%dH2O.NegLispCup.LampEnergy10.LIBS07252019_HRD10591_16-39-08-332.txt Node
Date: Thu Jul 25 16:39:08 EDT 2019
User: cochatt
Spectrometer: HR+D1059
Trigger mode: 1
Integration Time (sec): 1.000000E-1
Scans to average: 1
Electric dark correction enabled: true
Nonlinearity correction enabled: false
Boxcar width: 0
XAxis mode: Wavelengths
Number of Pixels in Spectrum: 2048
>>>>>Begin Spectral Data<<<<<
223.165	-17.19
223.4	-17.19
223.635	-17.19
223.869	-21.19
224.104	-26.19
224.338	-8.19
224.573	-6.19
224.808	-17.19
225.042	-22.19
225.277	-11.19
225.511	6.81
225.746	9.81
225.98	10.81
226.215	15.81
226.449	20.81
226.683	19.81
226.918	21.81
227.152	23.81
227.387	26.81
227.621	31.81
227.856	58.81
228.09	48.81
228.324	46.81
228.559	62.81
228.793	59.81
229.027	75.81
229.262	93.81
229.496	83.81
229.73	91.81
229.964	90.81
230.199	95.81
230.433	97.81
230.667	93.81
230.901	99.81
231.136	105.81
231.37	89.81
231.604	95.81
231.838	104.81
232.072	103.81
232.306	117.81
232.541	97.81
232.775	108.81
233.009	96.81
233.243	114.81
233.477	93.81
233.711	111.81
233.945	109.81
234.179	118.81
234.413	113.81
234.647	111.81
234.881	106.81
235.115	109.81
235.349	93.81
235.583	99.81
235.817	101.81
236.051	99.81
236.285	112.81
236.519	110.81
236.753	108.81
236.987	113.81
237.221	106.81
237.455	102.81
237.689	111.81
237.922	96.81
238.156	109.81
238.39	97.81
238.624	115.81
238.858	110.81
239.091	113.81
239.325	103.81
239.559	110.81
239.793	118.81
240.027	113.81
240.26	119.81
240.494	99.81
240.728	119.81
240.961	106.81
241.195	105.81
241.429	103.81
241.662	103.81
241.896	118.81
242.13	108.81
242.363	108.81
242.597	110.81
242.83	123.81
243.064	111.81
243.298	113.81
243.531	126.81
243.765	100.81
243.998	131.81
244.232	129.81
244.465	123.81
244.699	118.81
244.932	117.81
245.166	119.81
245.399	112.81
245.633	104.81
245.866	128.81
246.099	131.81
246.333	105.81
246.566	110.81
246.8	113.81
247.033	123.81
247.266	123.81
247.5	118.81
247.733	134.81
247.966	124.81
248.2	126.81
248.433	129.81
248.666	126.81
248.899	135.81
249.133	131.81
249.366	116.81
249.599	133.81
249.832	124.81
250.066	125.81
250.299	141.81
250.532	132.81
250.765	129.81
250.998	140.81
251.231	137.81
251.465	129.81
251.698	142.81
251.931	146.81
252.164	129.81
252.397	141.81
252.63	132.81
252.863	149.81
253.096	149.81
253.329	130.81
253.562	134.81
253.795	137.81
254.028	149.81
254.261	148.81
254.494	135.81
254.727	133.81
254.96	133.81
255.193	131.81
255.426	143.81
255.659	151.81
255.892	138.81
256.124	139.81
256.357	149.81
256.59	136.81
256.823	152.81
257.056	148.81
257.289	129.81
257.521	147.81
257.754	129.81
257.987	165.81
258.22	154.81
258.452	144.81
258.685	149.81
258.918	139.81
259.151	155.81
259.383	134.81
259.616	155.81
259.849	137.81
260.081	165.81
260.314	153.81
260.547	167.81
260.779	144.81
261.012	160.81
261.244	174.81
261.477	148.81
261.71	165.81
261.942	166.81
262.175	137.81
262.407	140.81
262.64	175.81
262.872	147.81
263.105	163.81
263.337	173.81
263.57	157.81
263.802	147.81
264.035	160.81
264.267	170.81
264.499	176.81
264.732	160.81
264.964	161.81
265.197	158.81
265.429	165.81
265.661	155.81
265.894	163.81
266.126	155.81
266.358	156.81
266.591	159.81
266.823	184.81
267.055	165.81
267.287	154.81
267.52	175.81
267.752	157.81
267.984	152.81
268.216	176.81
268.448	160.81
268.681	173.81
268.913	161.81
269.145	152.81
269.377	167.81
269.609	171.81
269.841	164.81
270.073	162.81
270.306	174.81
270.538	165.81
270.77	162.81
271.002	184.81
271.234	183.81
271.466	174.81
271.698	189.81
271.93	170.81
272.162	163.81
272.394	179.81
272.626	180.81
272.858	165.81
273.09	190.81
273.322	179.81
273.553	195.81
273.785	188.81
274.017	184.81
274.249	208.81
274.481	185.81
274.713	191.81
274.945	196.81
275.176	197.81
275.408	183.81
275.64	180.81
275.872	191.81
276.104	208.81
276.335	181.81
276.567	175.81
276.799	186.81
277.031	200.81
277.262	193.81
277.494	177.81
277.726	196.81
277.957	197.81
278.189	176.81
278.421	195.81
278.652	179.81
278.884	193.81
279.115	183.81
279.347	183.81
279.579	207.81
279.81	198.81
280.042	193.81
280.273	201.81
280.505	194.81
280.736	180.81
280.968	204.81
281.199	203.81
281.431	192.81
281.662	200.81
281.894	184.81
282.125	207.81
282.356	201.81
282.588	189.81
282.819	209.81
283.051	224.81
283.282	195.81
283.513	193.81
283.745	187.81
283.976	210.81
284.207	204.81
284.439	206.81
284.67	207.81
284.901	196.81
285.132	209.81
285.364	206.81
285.595	205.81
285.826	201.81
286.057	220.81
286.288	202.81
286.52	199.81
286.751	222.81
286.982	207.81
287.213	225.81
287.444	202.81
287.675	223.81
287.906	201.81
288.138	220.81
288.369	208.81
288.6	236.81
288.831	225.81
289.062	224.81
289.293	214.81
289.524	227.81
289.755	209.81
289.986	227.81
290.217	211.81
290.448	214.81
290.679	228.81
290.91	237.81
291.141	231.81
291.371	221.81
291.602	220.81
291.833	227.81
292.064	212.81
292.295	211.81
292.526	220.81
292.757	231.81
292.987	222.81
293.218	230.81
293.449	217.81
293.68	230.81
293.91	224.81
294.141	220.81
294.372	218.81
294.603	228.81
294.833	226.81
295.064	218.81
295.295	231.81
295.525	236.81
295.756	228.81
295.987	239.81
296.217	230.81
296.448	242.81
296.679	212.81
296.909	231.81
297.14	234.81
297.37	244.81
297.601	245.81
297.831	245.81
298.062	239.81
298.292	237.81
298.523	228.81
298.753	261.81
298.984	250.81
299.214	249.81
299.445	244.81
299.675	232.81
299.905	244.81
300.136	236.81
300.366	236.81
300.597	234.81
300.827	248.81
301.057	249.81
301.288	241.81
301.518	235.81
301.748	246.81
301.979	258.81
302.209	258.81
302.439	262.81
302.669	247.81
302.9	256.81
303.13	241.81
303.36	263.81
303.59	246.81
303.82	248.81
304.051	274.81
304.281	249.81
304.511	248.81
304.741	252.81
304.971	274.81
305.201	252.81
305.431	261.81
305.661	249.81
305.891	235.81
306.121	240.81
306.352	248.81
306.582	246.81
306.812	262.81
307.042	273.81
307.272	251.81
307.502	252.81
307.731	222.81
307.961	250.81
308.191	266.81
308.421	262.81
308.651	247.81
308.881	250.81
309.111	268.81
309.341	252.81
309.571	256.81
309.8	247.81
310.03	255.81
310.26	277.81
310.49	271.81
310.72	239.81
310.949	249.81
311.179	269.81
311.409	252.81
311.639	256.81
311.868	265.81
312.098	271.81
312.328	280.81
312.557	282.81
312.787	273.81
313.017	266.81
313.246	281.81
313.476	238.81
313.706	270.81
313.935	251.81
314.165	250.81
314.394	277.81
314.624	263.81
314.853	278.81
315.083	276.81
315.312	278.81
315.542	261.81
315.771	271.81
316.001	282.81
316.23	279.81
316.46	267.81
316.689	254.81
316.919	274.81
317.148	275.81
317.377	281.81
317.607	261.81
317.836	280.81
318.065	267.81
318.295	260.81
318.524	271.81
318.753	288.81
318.983	272.81
319.212	264.81
319.441	285.81
319.67	271.81
319.9	273.81
320.129	268.81
320.358	263.81
320.587	266.81
320.816	263.81
321.046	267.81
321.275	273.81
321.504	282.81
321.733	274.81
321.962	264.81
322.191	249.81
322.42	275.81
322.649	284.81
322.878	274.81
323.108	279.81
323.337	288.81
323.566	295.81
323.795	275.81
324.024	285.81
324.253	270.81
324.482	288.81
324.71	289.81
324.939	297.81
325.168	290.81
325.397	283.81
325.626	289.81
325.855	294.81
326.084	293.81
326.313	303.81
326.542	293.81
326.77	298.81
326.999	302.81
327.228	261.81
327.457	290.81
327.686	301.81
327.914	291.81
328.143	298.81
328.372	282.81
328.6	286.81
328.829	278.81
329.058	285.81
329.287	291.81
329.515	289.81
329.744	296.81
329.972	308.81
330.201	284.81
330.43	312.81
330.658	291.81
330.887	295.81
331.115	307.81
331.344	307.81
331.572	322.81
331.801	319.81
332.03	320.81
332.258	327.81
332.486	344.81
332.715	330.81
332.943	327.81
333.172	342.81
333.4	373.81
333.629	365.81
333.857	374.81
334.085	365.81
334.314	332.81
334.542	359.81
334.771	343.81
334.999	347.81
335.227	357.81
335.455	353.81
335.684	365.81
335.912	364.81
336.14	335.81
336.369	359.81
336.597	348.81
336.825	327.81
337.053	353.81
337.281	352.81
337.51	325.81
337.738	327.81
337.966	311.81
338.194	327.81
338.422	326.81
338.65	311.81
338.878	307.81
339.106	310.81
339.334	325.81
339.562	315.81
339.79	304.81
340.018	319.81
340.246	324.81
340.474	326.81
340.702	321.81
340.93	311.81
341.158	304.81
341.386	288.81
341.614	297.81
341.842	295.81
342.07	311.81
342.298	316.81
342.526	308.81
342.754	303.81
342.981	311.81
343.209	321.81
343.437	333.81
343.665	355.81
343.893	345.81
344.12	364.81
344.348	348.81
344.576	335.81
344.804	340.81
345.031	328.81
345.259	316.81
345.487	313.81
345.714	314.81
345.942	327.81
346.17	319.81
346.397	307.81
346.625	308.81
346.853	302.81
347.08	303.81
347.308	316.81
347.535	302.81
347.763	309.81
347.99	293.81
348.218	290.81
348.445	298.81
348.673	311.81
348.9	293.81
349.128	300.81
349.355	303.81
349.583	313.81
349.81	288.81
350.037	301.81
350.265	302.81
350.492	279.81
350.72	296.81
350.947	303.81
351.174	296.81
351.402	297.81
351.629	295.81
351.856	315.81
352.083	297.81
352.311	293.81
352.538	298.81
352.765	299.81
352.992	305.81
353.22	298.81
353.447	284.81
353.674	283.81
353.901	299.81
354.128	282.81
354.355	297.81
354.583	299.81
354.81	310.81
355.037	308.81
355.264	316.81
355.491	270.81
355.718	300.81
355.945	300.81
356.172	291.81
356.399	297.81
356.626	302.81
356.853	301.81
357.08	314.81
357.307	312.81
357.534	325.81
357.761	313.81
357.988	280.81
358.215	290.81
358.441	293.81
358.668	299.81
358.895	291.81
359.122	293.81
359.349	308.81
359.576	302.81
359.802	297.81
360.029	285.81
360.256	307.81
360.483	307.81
360.709	297.81
360.936	309.81
361.163	320.81
361.39	293.81
361.616	295.81
361.843	309.81
362.07	331.81
362.296	314.81
362.523	315.81
362.749	312.81
362.976	308.81
363.203	290.81
363.429	309.81
363.656	299.81
363.882	300.81
364.109	308.81
364.335	301.81
364.562	296.81
364.788	317.81
365.015	304.81
365.241	288.81
365.468	303.81
365.694	301.81
365.92	308.81
366.147	303.81
366.373	316.81
366.599	310.81
366.826	314.81
367.052	306.81
367.278	309.81
367.505	325.81
367.731	320.81
367.957	304.81
368.184	310.81
368.41	300.81
368.636	339.81
368.862	329.81
369.089	324.81
369.315	311.81
369.541	309.81
369.767	327.81
369.993	315.81
370.219	320.81
370.445	321.81
370.672	315.81
370.898	321.81
371.124	324.81
371.35	329.81
371.576	333.81
371.802	321.81
372.028	323.81
372.254	322.81
372.48	336.81
372.706	341.81
372.932	341.81
373.158	335.81
373.384	323.81
373.61	336.81
373.835	341.81
374.061	313.81
374.287	328.81
374.513	336.81
374.739	360.81
374.965	349.81
375.191	364.81
375.416	347.81
375.642	352.81
375.868	334.81
376.094	352.81
376.319	336.81
376.545	343.81
376.771	348.81
376.997	325.81
377.222	311.81
377.448	319.81
377.674	337.81
377.899	332.81
378.125	333.81
378.35	332.81
378.576	345.81
378.802	345.81
379.027	318.81
379.253	326.81
379.478	342.81
379.704	331.81
379.929	328.81
380.155	338.81
380.38	338.81
380.606	326.81
380.831	312.81
381.057	359.81
381.282	346.81
381.507	343.81
381.733	351.81
381.958	338.81
382.184	351.81
382.409	337.81
382.634	341.81
382.86	361.81
383.085	352.81
383.31	342.81
383.535	371.81
383.761	369.81
383.986	351.81
384.211	372.81
384.436	387.81
384.662	376.81
384.887	379.81
385.112	403.81
385.337	405.81
385.562	409.81
385.787	395.81
386.013	401.81
386.238	378.81
386.463	396.81
386.688	396.81
386.913	405.81
387.138	374.81
387.363	397.81
387.588	374.81
387.813	408.81
388.038	379.81
388.263	373.81
388.488	406.81
388.713	393.81
388.938	403.81
389.163	405.81
389.387	402.81
389.612	379.81
389.837	373.81
390.062	374.81
390.287	389.81
390.512	387.81
390.736	387.81
390.961	402.81
391.186	403.81
391.411	422.81
391.636	411.81
391.86	426.81
392.085	420.81
392.31	421.81
392.534	437.81
392.759	416.81
392.984	418.81
393.208	407.81
393.433	414.81
393.658	421.81
393.882	410.81
394.107	421.81
394.331	426.81
394.556	440.81
394.78	425.81
395.005	427.81
395.229	414.81
395.454	430.81
395.678	436.81
395.903	412.81
396.127	440.81
396.352	431.81
396.576	423.81
396.801	428.81
397.025	452.81
397.249	423.81
397.474	429.81
397.698	454.81
397.922	443.81
398.147	448.81
398.371	452.81
398.595	467.81
398.82	475.81
399.044	538.81
399.268	574.81
399.492	622.81
399.717	684.81
399.941	650.81
400.165	589.81
400.389	547.81
400.613	521.81
400.837	504.81
401.062	507.81
401.286	493.81
401.51	493.81
401.734	465.81
401.958	491.81
402.182	479.81
402.406	497.81
402.63	479.81
402.854	480.81
403.078	512.81
403.302	523.81
403.526	509.81
403.75	527.81
403.974	511.81
404.198	508.81
404.422	553.81
404.645	538.81
404.869	533.81
405.093	508.81
405.317	531.81
405.541	525.81
405.765	516.81
405.988	499.81
406.212	503.81
406.436	525.81
406.66	546.81
406.883	541.81
407.107	547.81
407.331	589.81
407.555	610.81
407.778	603.81
408.002	572.81
408.226	544.81
408.449	544.81
408.673	534.81
408.896	543.81
409.12	522.81
409.344	553.81
409.567	518.81
409.791	536.81
410.014	524.81
410.238	521.81
410.461	518.81
410.685	513.81
410.908	523.81
411.132	513.81
411.355	506.81
411.578	516.81
411.802	501.81
412.025	520.81
412.249	492.81
412.472	504.81
412.695	496.81
412.919	474.81
413.142	496.81
413.365	493.81
413.589	490.81
413.812	499.81
414.035	491.81
414.258	470.81
414.482	482.81
414.705	467.81
414.928	513.81
415.151	487.81
415.374	465.81
415.597	476.81
415.821	480.81
416.044	491.81
416.267	480.81
416.49	496.81
416.713	467.81
416.936	492.81
417.159	471.81
417.382	454.81
417.605	472.81
417.828	473.81
418.051	499.81
418.274	489.81
418.497	489.81
418.72	494.81
418.943	485.81
419.166	496.81
419.389	540.81
419.611	524.81
419.834	490.81
420.057	528.81
420.28	491.81
420.503	462.81
420.726	480.81
420.948	487.81
421.171	471.81
421.394	471.81
421.617	491.81
421.839	488.81
422.062	506.81
422.285	468.81
422.507	492.81
422.73	492.81
422.953	491.81
423.175	505.81
423.398	493.81
423.621	503.81
423.843	473.81
424.066	499.81
424.288	509.81
424.511	483.81
424.733	495.81
424.956	484.81
425.178	483.81
425.401	460.81
425.623	481.81
425.846	464.81
426.068	481.81
426.291	447.81
426.513	474.81
426.735	475.81
426.958	448.81
427.18	471.81
427.402	473.81
427.625	445.81
427.847	430.81
428.069	458.81
428.292	461.81
428.514	441.81
428.736	447.81
428.958	445.81
429.181	448.81
429.403	433.81
429.625	455.81
429.847	432.81
430.069	431.81
430.292	455.81
430.514	444.81
430.736	457.81
430.958	435.81
431.18	435.81
431.402	464.81
431.624	447.81
431.846	447.81
432.068	438.81
432.29	440.81
432.512	442.81
432.734	455.81
432.956	436.81
433.178	441.81
433.4	448.81
433.622	463.81
433.844	471.81
434.066	445.81
434.287	463.81
434.509	471.81
434.731	454.81
434.953	488.81
435.175	481.81
435.397	485.81
435.618	459.81
435.84	448.81
436.062	435.81
436.284	436.81
436.505	437.81
436.727	459.81
436.949	450.81
437.17	455.81
437.392	445.81
437.614	462.81
437.835	412.81
438.057	429.81
438.278	431.81
438.5	437.81
438.721	443.81
438.943	442.81
439.165	451.81
439.386	422.81
439.608	479.81
439.829	443.81
440.05	464.81
440.272	458.81
440.493	447.81
440.715	469.81
440.936	465.81
441.158	472.81
441.379	475.81
441.6	502.81
441.822	487.81
442.043	496.81
442.264	480.81
442.486	468.81
442.707	482.81
442.928	468.81
443.149	490.81
443.371	490.81
443.592	485.81
443.813	466.81
444.034	481.81
444.255	511.81
444.476	529.81
444.698	545.81
444.919	553.81
445.14	693.81
445.361	559.81
445.582	492.81
445.803	480.81
446.024	480.81
446.245	476.81
446.466	492.81
446.687	463.81
446.908	447.81
447.129	470.81
447.35	465.81
447.571	447.81
447.792	431.81
448.013	429.81
448.234	439.81
448.455	427.81
448.675	435.81
448.896	431.81
449.117	419.81
449.338	458.81
449.559	422.81
449.779	405.81
450	423.81
450.221	428.81
450.442	422.81
450.662	417.81
450.883	417.81
451.104	421.81
451.324	443.81
451.545	431.81
451.766	431.81
451.986	413.81
452.207	425.81
452.428	419.81
452.648	400.81
452.869	427.81
453.089	411.81
453.31	412.81
453.53	410.81
453.751	412.81
453.971	399.81
454.192	406.81
454.412	393.81
454.633	407.81
454.853	383.81
455.073	395.81
455.294	396.81
455.514	420.81
455.734	398.81
455.955	379.81
456.175	388.81
456.395	380.81
456.616	378.81
456.836	392.81
457.056	393.81
457.276	400.81
457.497	376.81
457.717	402.81
457.937	377.81
458.157	406.81
458.377	403.81
458.598	421.81
458.818	430.81
459.038	429.81
459.258	437.81
459.478	448.81
459.698	459.81
459.918	471.81
460.138	478.81
460.358	494.81
460.578	491.81
460.798	491.81
461.018	511.81
461.238	498.81
461.458	512.81
461.678	488.81
461.898	531.81
462.118	528.81
462.338	549.81
462.558	576.81
462.777	565.81
462.997	613.81
463.217	647.81
463.437	622.81
463.657	591.81
463.876	573.81
464.096	583.81
464.316	575.81
464.536	558.81
464.755	568.81
464.975	531.81
465.195	503.81
465.414	489.81
465.634	455.81
465.854	457.81
466.073	449.81
466.293	454.81
466.512	422.81
466.732	453.81
466.951	445.81
467.171	449.81
467.391	435.81
467.61	463.81
467.829	445.81
468.049	428.81
468.268	452.81
468.488	425.81
468.707	425.81
468.927	432.81
469.146	423.81
469.365	427.81
469.585	424.81
469.804	420.81
470.023	428.81
470.243	430.81
470.462	456.81
470.681	452.81
470.901	453.81
471.12	444.81
471.339	448.81
471.558	445.81
471.777	437.81
471.997	427.81
472.216	399.81
472.435	431.81
472.654	425.81
472.873	402.81
473.092	395.81
473.311	407.81
473.53	399.81
473.749	400.81
473.968	421.81
474.187	408.81
474.406	393.81
474.625	426.81
474.844	415.81
475.063	412.81
475.282	407.81
475.501	429.81
475.72	413.81
475.939	411.81
476.158	413.81
476.377	425.81
476.596	443.81
476.814	435.81
477.033	409.81
477.252	438.81
477.471	454.81
477.69	440.81
477.908	469.81
478.127	488.81
478.346	479.81
478.564	467.81
478.783	487.81
479.002	466.81
479.22	510.81
479.439	506.81
479.658	509.81
479.876	513.81
480.095	499.81
480.313	527.81
480.532	515.81
480.751	537.81
480.969	483.81
481.188	474.81
481.406	472.81
481.624	463.81
481.843	455.81
482.061	444.81
482.28	437.81
482.498	453.81
482.717	457.81
482.935	457.81
483.153	445.81
483.372	464.81
483.59	456.81
483.808	471.81
484.027	460.81
484.245	473.81
484.463	477.81
484.681	468.81
484.9	469.81
485.118	464.81
485.336	466.81
485.554	475.81
485.772	455.81
485.99	480.81
486.209	457.81
486.427	477.81
486.645	478.81
486.863	473.81
487.081	470.81
487.299	466.81
487.517	479.81
487.735	479.81
487.953	477.81
488.171	464.81
488.389	492.81
488.607	478.81
488.825	465.81
489.043	453.81
489.261	461.81
489.479	466.81
489.696	467.81
489.914	458.81
490.132	460.81
490.35	472.81
490.568	471.81
490.786	495.81
491.003	467.81
491.221	492.81
491.439	498.81
491.657	489.81
491.874	491.81
492.092	514.81
492.31	516.81
492.527	490.81
492.745	499.81
492.963	476.81
493.18	506.81
493.398	479.81
493.615	486.81
493.833	507.81
494.05	513.81
494.268	513.81
494.485	505.81
494.703	516.81
494.92	516.81
495.138	497.81
495.355	503.81
495.573	523.81
495.79	528.81
496.008	517.81
496.225	518.81
496.442	501.81
496.66	551.81
496.877	505.81
497.094	533.81
497.312	544.81
497.529	547.81
497.746	567.81
497.963	582.81
498.181	597.81
498.398	629.81
498.615	634.81
498.832	703.81
499.049	720.81
499.267	783.81
499.484	837.81
499.701	888.81
499.918	968.81
500.135	1068.81
500.352	1179.81
500.569	1212.81
500.786	1192.81
501.003	1132.81
501.22	1019.81
501.437	935.81
501.654	856.81
501.871	784.81
502.088	735.81
502.305	699.81
502.522	663.81
502.739	648.81
502.956	633.81
503.172	613.81
503.389	591.81
503.606	583.81
503.823	552.81
504.04	550.81
504.256	568.81
504.473	576.81
504.69	569.81
504.907	559.81
505.123	537.81
505.34	513.81
505.557	499.81
505.773	493.81
505.99	481.81
506.207	482.81
506.423	469.81
506.64	428.81
506.856	438.81
507.073	450.81
507.289	446.81
507.506	446.81
507.722	444.81
507.939	455.81
508.155	457.81
508.372	425.81
508.588	453.81
508.805	430.81
509.021	440.81
509.238	428.81
509.454	421.81
509.67	422.81
509.887	420.81
510.103	411.81
510.319	407.81
510.536	431.81
510.752	411.81
510.968	376.81
511.184	437.81
511.401	415.81
511.617	440.81
511.833	400.81
512.049	419.81
512.265	403.81
512.481	391.81
512.698	423.81
512.914	416.81
513.13	397.81
513.346	408.81
513.562	409.81
513.778	416.81
513.994	417.81
514.21	413.81
514.426	412.81
514.642	409.81
514.858	432.81
515.074	425.81
515.29	442.81
515.506	447.81
515.721	435.81
515.937	450.81
516.153	456.81
516.369	449.81
516.585	465.81
516.801	462.81
517.016	475.81
517.232	470.81
517.448	515.81
517.664	521.81
517.879	515.81
518.095	530.81
518.311	511.81
518.527	509.81
518.742	481.81
518.958	459.81
519.173	458.81
519.389	435.81
519.605	461.81
519.82	466.81
520.036	427.81
520.251	445.81
520.467	423.81
520.682	422.81
520.898	411.81
521.113	411.81
521.329	401.81
521.544	405.81
521.76	399.81
521.975	388.81
522.19	392.81
522.406	402.81
522.621	402.81
522.836	406.81
523.052	397.81
523.267	382.81
523.482	391.81
523.698	371.81
523.913	378.81
524.128	386.81
524.343	386.81
524.559	387.81
524.774	382.81
524.989	389.81
525.204	389.81
525.419	385.81
525.634	379.81
525.849	391.81
526.064	387.81
526.28	390.81
526.495	379.81
526.71	372.81
526.925	385.81
527.14	368.81
527.355	375.81
527.57	381.81
527.785	377.81
527.999	380.81
528.214	371.81
528.429	377.81
528.644	376.81
528.859	385.81
529.074	363.81
529.289	383.81
529.503	363.81
529.718	391.81
529.933	365.81
530.148	387.81
530.363	385.81
530.577	379.81
530.792	378.81
531.007	380.81
531.221	366.81
531.436	371.81
531.651	367.81
531.865	349.81
532.08	358.81
532.295	365.81
532.509	377.81
532.724	352.81
532.938	366.81
533.153	352.81
533.367	384.81
533.582	376.81
533.796	360.81
534.011	349.81
534.225	363.81
534.44	388.81
534.654	366.81
534.868	368.81
535.083	356.81
535.297	379.81
535.511	371.81
535.726	365.81
535.94	359.81
536.154	348.81
536.369	359.81
536.583	345.81
536.797	351.81
537.011	345.81
537.225	355.81
537.44	347.81
537.654	343.81
537.868	371.81
538.082	345.81
538.296	364.81
538.51	335.81
538.724	339.81
538.938	358.81
539.153	364.81
539.367	345.81
539.581	359.81
539.795	338.81
540.009	358.81
540.222	347.81
540.436	347.81
540.65	344.81
540.864	345.81
541.078	351.81
541.292	348.81
541.506	355.81
541.72	356.81
541.934	358.81
542.147	352.81
542.361	355.81
542.575	350.81
542.789	309.81
543.002	319.81
543.216	343.81
543.43	335.81
543.644	350.81
543.857	334.81
544.071	355.81
544.285	335.81
544.498	339.81
544.712	360.81
544.925	350.81
545.139	352.81
545.352	347.81
545.566	357.81
545.779	345.81
545.993	372.81
546.206	360.81
546.42	347.81
546.633	360.81
546.847	349.81
547.06	357.81
547.274	342.81
547.487	340.81
547.7	356.81
547.914	367.81
548.127	353.81
548.34	357.81
548.554	333.81
548.767	355.81
548.98	357.81
549.193	352.81
549.407	337.81
549.62	374.81
549.833	365.81
550.046	347.81
550.259	338.81
550.473	344.81
550.686	362.81
550.899	349.81
551.112	337.81
551.325	327.81
551.538	342.81
551.751	352.81
551.964	334.81
552.177	344.81
552.39	350.81
552.603	359.81
552.816	352.81
553.029	354.81
553.242	388.81
553.455	373.81
553.667	333.81
553.88	362.81
554.093	354.81
554.306	367.81
554.519	357.81
554.732	351.81
554.944	343.81
555.157	331.81
555.37	337.81
555.583	341.81
555.795	331.81
556.008	330.81
556.221	319.81
556.433	319.81
556.646	322.81
556.859	314.81
557.071	309.81
557.284	321.81
557.496	288.81
557.709	279.81
557.921	310.81
558.134	303.81
558.346	302.81
558.559	319.81
558.771	286.81
558.984	295.81
559.196	288.81
559.409	283.81
559.621	290.81
559.833	299.81
560.046	298.81
560.258	284.81
560.47	311.81
560.683	303.81
560.895	292.81
561.107	303.81
561.32	291.81
561.532	280.81
561.744	295.81
561.956	292.81
562.168	291.81
562.381	296.81
562.593	283.81
562.805	283.81
563.017	289.81
563.229	292.81
563.441	305.81
563.653	297.81
563.865	305.81
564.077	316.81
564.289	291.81
564.501	294.81
564.713	333.81
564.925	328.81
565.137	316.81
565.349	319.81
565.561	341.81
565.773	357.81
565.985	360.81
566.197	390.81
566.408	376.81
566.62	416.81
566.832	416.81
567.044	438.81
567.255	415.81
567.467	463.81
567.679	464.81
567.891	468.81
568.102	475.81
568.314	470.81
568.526	405.81
568.737	392.81
568.949	372.81
569.161	365.81
569.372	330.81
569.584	315.81
569.795	325.81
570.007	315.81
570.218	300.81
570.43	312.81
570.641	309.81
570.853	304.81
571.064	322.81
571.276	292.81
571.487	288.81
571.698	299.81
571.91	289.81
572.121	271.81
572.333	265.81
572.544	264.81
572.755	264.81
572.966	282.81
573.178	265.81
573.389	281.81
573.6	256.81
573.811	265.81
574.023	245.81
574.234	244.81
574.445	231.81
574.656	267.81
574.867	247.81
575.078	241.81
575.289	238.81
575.501	237.81
575.712	247.81
575.923	226.81
576.134	236.81
576.345	232.81
576.556	258.81
576.767	254.81
576.978	234.81
577.188	250.81
577.399	228.81
577.61	226.81
577.821	230.81
578.032	231.81
578.243	226.81
578.454	251.81
578.665	243.81
578.875	259.81
579.086	238.81
579.297	236.81
579.508	236.81
579.718	225.81
579.929	217.81
580.14	241.81
580.35	211.81
580.561	225.81
580.772	221.81
580.982	229.81
581.193	231.81
581.403	225.81
581.614	207.81
581.825	205.81
582.035	224.81
582.246	227.81
582.456	218.81
582.667	216.81
582.877	223.81
583.087	220.81
583.298	230.81
583.508	227.81
583.719	216.81
583.929	237.81
584.139	218.81
584.35	225.81
584.56	246.81
584.77	228.81
584.981	221.81
585.191	226.81
585.401	220.81
585.611	223.81
585.821	227.81
586.032	223.81
586.242	216.81
586.452	215.81
586.662	210.81
586.872	183.81
587.082	205.81
587.292	214.81
587.502	201.81
587.713	208.81
587.923	224.81
588.133	202.81
588.343	218.81
588.553	190.81
588.762	216.81
588.972	205.81
589.182	230.81
589.392	217.81
589.602	217.81
589.812	213.81
590.022	212.81
590.232	212.81
590.441	213.81
590.651	216.81
590.861	222.81
591.071	221.81
591.281	234.81
591.49	224.81
591.7	229.81
591.91	230.81
592.119	216.81
592.329	217.81
592.539	230.81
592.748	245.81
592.958	248.81
593.167	238.81
593.377	244.81
593.587	259.81
593.796	255.81
594.006	256.81
594.215	250.81
594.424	239.81
594.634	235.81
594.843	245.81
595.053	228.81
595.262	241.81
595.472	219.81
595.681	227.81
595.89	219.81
596.1	210.81
596.309	214.81
596.518	201.81
596.727	205.81
596.937	215.81
597.146	200.81
597.355	194.81
597.564	204.81
597.774	200.81
597.983	200.81
598.192	195.81
598.401	206.81
598.61	191.81
598.819	192.81
599.028	194.81
599.237	197.81
599.446	187.81
599.655	181.81
599.864	185.81
600.073	195.81
600.282	190.81
600.491	181.81
600.7	199.81
600.909	192.81
601.118	189.81
601.327	195.81
601.536	188.81
601.745	183.81
601.953	176.81
602.162	191.81
602.371	164.81
602.58	185.81
602.789	179.81
602.997	188.81
603.206	180.81
603.415	185.81
603.623	176.81
603.832	176.81
604.041	177.81
604.249	194.81
604.458	183.81
604.666	187.81
604.875	187.81
605.084	169.81
605.292	181.81
605.501	189.81
605.709	179.81
605.918	190.81
606.126	184.81
606.334	166.81
606.543	182.81
606.751	203.81
606.96	182.81
607.168	184.81
607.376	186.81
607.585	184.81
607.793	164.81
608.001	167.81
608.21	171.81
608.418	177.81
608.626	182.81
608.834	193.81
609.043	190.81
609.251	169.81
609.459	181.81
609.667	166.81
609.875	185.81
610.083	191.81
610.291	182.81
610.499	182.81
610.707	168.81
610.916	149.81
611.124	173.81
611.332	172.81
611.54	169.81
611.748	184.81
611.955	169.81
612.163	165.81
612.371	173.81
612.579	180.81
612.787	166.81
612.995	184.81
613.203	181.81
613.411	179.81
613.618	163.81
613.826	182.81
614.034	170.81
614.242	178.81
614.449	180.81
614.657	189.81
614.865	167.81
615.072	155.81
615.28	187.81
615.488	174.81
615.695	176.81
615.903	166.81
616.111	166.81
616.318	173.81
616.526	172.81
616.733	172.81
616.941	170.81
617.148	172.81
617.356	168.81
617.563	177.81
617.771	166.81
617.978	159.81
618.185	191.81
618.393	180.81
618.6	164.81
618.807	154.81
619.015	173.81
619.222	149.81
619.429	154.81
619.637	167.81
619.844	151.81
620.051	161.81
620.258	164.81
620.466	165.81
620.673	151.81
620.88	179.81
621.087	170.81
621.294	156.81
621.501	140.81
621.708	183.81
621.915	159.81
622.122	165.81
622.329	156.81
622.536	155.81
622.743	156.81
622.95	150.81
623.157	167.81
623.364	161.81
623.571	161.81
623.778	159.81
623.985	144.81
624.192	142.81
624.399	152.81
624.606	168.81
624.812	150.81
625.019	157.81
625.226	161.81
625.433	164.81
625.639	160.81
625.846	157.81
626.053	145.81
626.259	155.81
626.466	163.81
626.673	160.81
626.879	160.81
627.086	159.81
627.293	152.81
627.499	156.81
627.706	183.81
627.912	155.81
628.119	152.81
628.325	152.81
628.532	154.81
628.738	147.81
628.945	168.81
629.151	154.81
629.357	157.81
629.564	154.81
629.77	170.81
629.976	152.81
630.183	155.81
630.389	138.81
630.595	143.81
630.802	151.81
631.008	147.81
631.214	156.81
631.42	147.81
631.627	149.81
631.833	149.81
632.039	147.81
632.245	150.81
632.451	143.81
632.657	144.81
632.863	146.81
633.069	158.81
633.275	149.81
633.481	135.81
633.688	138.81
633.893	144.81
634.099	136.81
634.305	157.81
634.511	144.81
634.717	127.81
634.923	141.81
635.129	147.81
635.335	156.81
635.541	159.81
635.747	154.81
635.952	144.81
636.158	147.81
636.364	149.81
636.57	136.81
636.775	138.81
636.981	140.81
637.187	153.81
637.392	147.81
637.598	155.81
637.804	160.81
638.009	129.81
638.215	149.81
638.421	151.81
638.626	141.81
638.832	146.81
639.037	130.81
639.243	142.81
639.448	160.81
639.654	151.81
639.859	131.81
640.065	132.81
640.27	135.81
640.475	142.81
640.681	141.81
640.886	141.81
641.091	142.81
641.297	135.81
641.502	139.81
641.707	141.81
641.913	130.81
642.118	141.81
642.323	147.81
642.528	136.81
642.733	133.81
642.939	131.81
643.144	121.81
643.349	141.81
643.554	139.81
643.759	137.81
643.964	138.81
644.169	127.81
644.374	126.81
644.579	137.81
644.784	133.81
644.989	140.81
645.194	141.81
645.399	124.81
645.604	125.81
645.809	143.81
646.014	141.81
646.219	138.81
646.423	139.81
646.628	153.81
646.833	135.81
647.038	146.81
647.243	154.81
647.447	125.81
647.652	143.81
647.857	132.81
648.062	143.81
648.266	135.81
648.471	138.81
648.676	143.81
648.88	138.81
649.085	137.81
649.289	125.81
649.494	125.81
649.698	129.81
649.903	139.81
650.107	127.81
650.312	129.81
650.516	145.81
650.721	138.81
650.925	135.81
651.13	129.81
651.334	137.81
651.539	115.81
651.743	120.81
651.947	132.81
652.152	127.81
652.356	117.81
652.56	124.81
652.764	131.81
652.969	124.81
653.173	117.81
653.377	113.81
653.581	131.81
653.785	119.81
653.99	105.81
654.194	115.81
654.398	120.81
654.602	115.81
654.806	111.81
655.01	115.81
655.214	115.81
655.418	116.81
655.622	113.81
655.826	103.81
656.03	111.81
656.234	125.81
656.438	106.81
656.642	110.81
656.846	123.81
657.049	117.81
657.253	113.81
657.457	115.81
657.661	110.81
657.865	96.81
658.068	108.81
658.272	100.81
658.476	100.81
658.68	118.81
658.883	87.81
659.087	112.81
659.291	105.81
659.494	101.81
659.698	97.81
659.901	106.81
660.105	96.81
660.309	97.81
660.512	108.81
660.716	88.81
660.919	95.81
661.123	91.81
661.326	91.81
661.53	81.81
661.733	97.81
661.936	105.81
662.14	105.81
662.343	88.81
662.546	88.81
662.75	82.81
662.953	88.81
663.156	80.81
663.36	85.81
663.563	79.81
663.766	87.81
663.969	91.81
664.173	74.81
664.376	88.81
664.579	81.81
664.782	82.81
664.985	85.81
665.188	84.81
665.391	91.81
665.594	82.81
665.797	77.81
666	81.81
666.203	77.81
666.406	73.81
666.609	80.81
666.812	89.81
667.015	84.81
667.218	77.81
667.421	76.81
667.624	84.81
667.827	91.81
668.03	85.81
668.232	89.81
668.435	96.81
668.638	80.81
668.841	100.81
669.043	73.81
669.246	70.81
669.449	81.81
669.651	100.81
669.854	79.81
670.057	84.81
670.259	84.81
670.462	78.81
670.665	84.81
670.867	84.81
671.07	99.81
671.272	81.81
671.475	86.81
671.677	84.81
671.88	74.81
672.082	64.81
672.284	84.81
672.487	105.81
672.689	77.81
672.892	90.81
