Data from Fe(NO3)3@0.05M.TitratingCurve.Agarose3%dH2O.NegLispCup.LampEnergy10.LIBS07252019_HRD10591_16-45-57-334.txt Node
Date: Thu Jul 25 16:45:57 EDT 2019
User: cochatt
Spectrometer: HR+D1059
Trigger mode: 1
Integration Time (sec): 1.000000E-1
Scans to average: 1
Electric dark correction enabled: true
Nonlinearity correction enabled: false
Boxcar width: 0
XAxis mode: Wavelengths
Number of Pixels in Spectrum: 2048
>>>>>Begin Spectral Data<<<<<
223.165	-4.38
223.4	-4.38
223.635	-4.38
223.869	-19.38
224.104	-20.38
224.338	-21.38
224.573	-21.38
224.808	-8.38
225.042	-7.38
225.277	-18.38
225.511	-1.38
225.746	8.62
225.98	9.62
226.215	11.62
226.449	31.62
226.683	22.62
226.918	23.62
227.152	14.62
227.387	33.62
227.621	30.62
227.856	51.62
228.09	40.62
228.324	52.62
228.559	48.62
228.793	62.62
229.027	132.62
229.262	116.62
229.496	133.62
229.73	159.62
229.964	162.62
230.199	139.62
230.433	158.62
230.667	155.62
230.901	167.62
231.136	174.62
231.37	171.62
231.604	164.62
231.838	180.62
232.072	176.62
232.306	170.62
232.541	169.62
232.775	181.62
233.009	162.62
233.243	168.62
233.477	186.62
233.711	191.62
233.945	182.62
234.179	189.62
234.413	187.62
234.647	194.62
234.881	200.62
235.115	188.62
235.349	189.62
235.583	209.62
235.817	210.62
236.051	209.62
236.285	212.62
236.519	197.62
236.753	218.62
236.987	207.62
237.221	202.62
237.455	214.62
237.689	225.62
237.922	220.62
238.156	216.62
238.39	250.62
238.624	282.62
238.858	271.62
239.091	247.62
239.325	249.62
239.559	239.62
239.793	254.62
240.027	294.62
240.26	275.62
240.494	266.62
240.728	251.62
240.961	271.62
241.195	274.62
241.429	278.62
241.662	282.62
241.896	252.62
242.13	260.62
242.363	245.62
242.597	255.62
242.83	264.62
243.064	250.62
243.298	280.62
243.531	282.62
243.765	273.62
243.998	282.62
244.232	274.62
244.465	278.62
244.699	278.62
244.932	285.62
245.166	282.62
245.399	300.62
245.633	290.62
245.866	269.62
246.099	306.62
246.333	296.62
246.566	307.62
246.8	310.62
247.033	308.62
247.266	311.62
247.5	304.62
247.733	280.62
247.966	320.62
248.2	295.62
248.433	324.62
248.666	340.62
248.899	345.62
249.133	332.62
249.366	356.62
249.599	380.62
249.832	357.62
250.066	330.62
250.299	329.62
250.532	329.62
250.765	326.62
250.998	324.62
251.231	302.62
251.465	347.62
251.698	346.62
251.931	340.62
252.164	343.62
252.397	369.62
252.63	382.62
252.863	386.62
253.096	381.62
253.329	400.62
253.562	385.62
253.795	387.62
254.028	414.62
254.261	413.62
254.494	423.62
254.727	384.62
254.96	390.62
255.193	389.62
255.426	387.62
255.659	390.62
255.892	379.62
256.124	367.62
256.357	415.62
256.59	420.62
256.823	423.62
257.056	399.62
257.289	402.62
257.521	408.62
257.754	404.62
257.987	413.62
258.22	400.62
258.452	411.62
258.685	438.62
258.918	438.62
259.151	428.62
259.383	423.62
259.616	454.62
259.849	451.62
260.081	558.62
260.314	581.62
260.547	488.62
260.779	465.62
261.012	491.62
261.244	487.62
261.477	501.62
261.71	502.62
261.942	461.62
262.175	456.62
262.407	472.62
262.64	479.62
262.872	483.62
263.105	502.62
263.337	516.62
263.57	552.62
263.802	452.62
264.035	456.62
264.267	448.62
264.499	447.62
264.732	420.62
264.964	424.62
265.197	437.62
265.429	424.62
265.661	430.62
265.894	450.62
266.126	457.62
266.358	477.62
266.591	472.62
266.823	486.62
267.055	485.62
267.287	460.62
267.52	451.62
267.752	479.62
267.984	459.62
268.216	449.62
268.448	476.62
268.681	496.62
268.913	483.62
269.145	480.62
269.377	496.62
269.609	494.62
269.841	515.62
270.073	512.62
270.306	494.62
270.538	495.62
270.77	501.62
271.002	512.62
271.234	504.62
271.466	531.62
271.698	536.62
271.93	552.62
272.162	543.62
272.394	524.62
272.626	546.62
272.858	549.62
273.09	564.62
273.322	554.62
273.553	566.62
273.785	556.62
274.017	617.62
274.249	656.62
274.481	681.62
274.713	660.62
274.945	753.62
275.176	754.62
275.408	698.62
275.64	696.62
275.872	690.62
276.104	649.62
276.335	568.62
276.567	557.62
276.799	567.62
277.031	598.62
277.262	585.62
277.494	573.62
277.726	564.62
277.957	584.62
278.189	571.62
278.421	566.62
278.652	595.62
278.884	605.62
279.115	594.62
279.347	596.62
279.579	588.62
279.81	583.62
280.042	565.62
280.273	578.62
280.505	590.62
280.736	586.62
280.968	581.62
281.199	588.62
281.431	586.62
281.662	599.62
281.894	586.62
282.125	578.62
282.356	608.62
282.588	623.62
282.819	583.62
283.051	580.62
283.282	591.62
283.513	614.62
283.745	621.62
283.976	622.62
284.207	623.62
284.439	633.62
284.67	622.62
284.901	613.62
285.132	644.62
285.364	630.62
285.595	629.62
285.826	646.62
286.057	636.62
286.288	607.62
286.52	626.62
286.751	642.62
286.982	664.62
287.213	638.62
287.444	647.62
287.675	669.62
287.906	628.62
288.138	644.62
288.369	654.62
288.6	652.62
288.831	636.62
289.062	682.62
289.293	652.62
289.524	660.62
289.755	656.62
289.986	661.62
290.217	668.62
290.448	648.62
290.679	658.62
290.91	654.62
291.141	650.62
291.371	650.62
291.602	655.62
291.833	664.62
292.064	664.62
292.295	683.62
292.526	674.62
292.757	663.62
292.987	660.62
293.218	656.62
293.449	680.62
293.68	683.62
293.91	671.62
294.141	673.62
294.372	680.62
294.603	698.62
294.833	702.62
295.064	702.62
295.295	668.62
295.525	692.62
295.756	698.62
295.987	670.62
296.217	693.62
296.448	684.62
296.679	698.62
296.909	709.62
297.14	716.62
297.37	726.62
297.601	711.62
297.831	724.62
298.062	724.62
298.292	724.62
298.523	717.62
298.753	761.62
298.984	705.62
299.214	714.62
299.445	708.62
299.675	723.62
299.905	732.62
300.136	718.62
300.366	758.62
300.597	712.62
300.827	742.62
301.057	728.62
301.288	734.62
301.518	722.62
301.748	761.62
301.979	757.62
302.209	761.62
302.439	799.62
302.669	760.62
302.9	745.62
303.13	760.62
303.36	748.62
303.59	739.62
303.82	785.62
304.051	774.62
304.281	781.62
304.511	788.62
304.741	762.62
304.971	772.62
305.201	740.62
305.431	773.62
305.661	778.62
305.891	748.62
306.121	782.62
306.352	761.62
306.582	748.62
306.812	774.62
307.042	783.62
307.272	750.62
307.502	760.62
307.731	745.62
307.961	766.62
308.191	781.62
308.421	750.62
308.651	745.62
308.881	771.62
309.111	762.62
309.341	784.62
309.571	773.62
309.8	760.62
310.03	768.62
310.26	791.62
310.49	771.62
310.72	777.62
310.949	773.62
311.179	786.62
311.409	784.62
311.639	804.62
311.868	796.62
312.098	812.62
312.328	800.62
312.557	778.62
312.787	811.62
313.017	810.62
313.246	807.62
313.476	812.62
313.706	827.62
313.935	800.62
314.165	828.62
314.394	829.62
314.624	815.62
314.853	814.62
315.083	804.62
315.312	837.62
315.542	850.62
315.771	843.62
316.001	828.62
316.23	852.62
316.46	820.62
316.689	838.62
316.919	831.62
317.148	830.62
317.377	833.62
317.607	831.62
317.836	841.62
318.065	837.62
318.295	829.62
318.524	840.62
318.753	854.62
318.983	827.62
319.212	821.62
319.441	833.62
319.67	846.62
319.9	819.62
320.129	847.62
320.358	856.62
320.587	865.62
320.816	874.62
321.046	851.62
321.275	842.62
321.504	842.62
321.733	863.62
321.962	846.62
322.191	890.62
322.42	875.62
322.649	868.62
322.878	846.62
323.108	889.62
323.337	866.62
323.566	872.62
323.795	869.62
324.024	878.62
324.253	854.62
324.482	894.62
324.71	866.62
324.939	867.62
325.168	895.62
325.397	858.62
325.626	858.62
325.855	883.62
326.084	883.62
326.313	910.62
326.542	895.62
326.77	914.62
326.999	902.62
327.228	873.62
327.457	912.62
327.686	908.62
327.914	901.62
328.143	912.62
328.372	932.62
328.6	903.62
328.829	918.62
329.058	925.62
329.287	891.62
329.515	925.62
329.744	947.62
329.972	930.62
330.201	954.62
330.43	918.62
330.658	932.62
330.887	920.62
331.115	922.62
331.344	960.62
331.572	944.62
331.801	932.62
332.03	923.62
332.258	958.62
332.486	983.62
332.715	985.62
332.943	992.62
333.172	1011.62
333.4	973.62
333.629	1036.62
333.857	1007.62
334.085	1047.62
334.314	1016.62
334.542	1029.62
334.771	1048.62
334.999	1049.62
335.227	1057.62
335.455	1041.62
335.684	1035.62
335.912	1054.62
336.14	1039.62
336.369	1070.62
336.597	1045.62
336.825	1063.62
337.053	1045.62
337.281	1054.62
337.51	1056.62
337.738	1024.62
337.966	1034.62
338.194	1049.62
338.422	1010.62
338.65	981.62
338.878	995.62
339.106	1015.62
339.334	1000.62
339.562	1005.62
339.79	966.62
340.018	1018.62
340.246	972.62
340.474	973.62
340.702	1008.62
340.93	1018.62
341.158	996.62
341.386	971.62
341.614	994.62
341.842	971.62
342.07	976.62
342.298	958.62
342.526	982.62
342.754	985.62
342.981	982.62
343.209	979.62
343.437	1019.62
343.665	1002.62
343.893	1011.62
344.12	1052.62
344.348	1094.62
344.576	1050.62
344.804	1024.62
345.031	1023.62
345.259	976.62
345.487	982.62
345.714	1004.62
345.942	978.62
346.17	952.62
346.397	951.62
346.625	967.62
346.853	967.62
347.08	939.62
347.308	952.62
347.535	991.62
347.763	988.62
347.99	948.62
348.218	949.62
348.445	947.62
348.673	939.62
348.9	934.62
349.128	924.62
349.355	937.62
349.583	944.62
349.81	964.62
350.037	946.62
350.265	920.62
350.492	918.62
350.72	941.62
350.947	910.62
351.174	921.62
351.402	932.62
351.629	919.62
351.856	905.62
352.083	941.62
352.311	927.62
352.538	898.62
352.765	922.62
352.992	913.62
353.22	933.62
353.447	907.62
353.674	929.62
353.901	913.62
354.128	931.62
354.355	902.62
354.583	921.62
354.81	921.62
355.037	939.62
355.264	921.62
355.491	921.62
355.718	951.62
355.945	910.62
356.172	942.62
356.399	951.62
356.626	978.62
356.853	952.62
357.08	966.62
357.307	988.62
357.534	939.62
357.761	955.62
357.988	962.62
358.215	964.62
358.441	1001.62
358.668	954.62
358.895	935.62
359.122	932.62
359.349	940.62
359.576	912.62
359.802	910.62
360.029	908.62
360.256	927.62
360.483	946.62
360.709	986.62
360.936	958.62
361.163	970.62
361.39	949.62
361.616	935.62
361.843	947.62
362.07	991.62
362.296	953.62
362.523	971.62
362.749	950.62
362.976	948.62
363.203	982.62
363.429	993.62
363.656	966.62
363.882	938.62
364.109	970.62
364.335	952.62
364.562	947.62
364.788	959.62
365.015	975.62
365.241	963.62
365.468	929.62
365.694	931.62
365.92	929.62
366.147	941.62
366.373	955.62
366.599	979.62
366.826	983.62
367.052	948.62
367.278	954.62
367.505	994.62
367.731	971.62
367.957	972.62
368.184	968.62
368.41	982.62
368.636	979.62
368.862	990.62
369.089	976.62
369.315	948.62
369.541	1007.62
369.767	968.62
369.993	990.62
370.219	1008.62
370.445	1008.62
370.672	1008.62
370.898	1024.62
371.124	1028.62
371.35	1038.62
371.576	1041.62
371.802	1048.62
372.028	1031.62
372.254	1068.62
372.48	1076.62
372.706	1048.62
372.932	1024.62
373.158	1063.62
373.384	1070.62
373.61	1106.62
373.835	1122.62
374.061	1085.62
374.287	1071.62
374.513	1068.62
374.739	1153.62
374.965	1163.62
375.191	1147.62
375.416	1098.62
375.642	1058.62
375.868	1116.62
376.094	1102.62
376.319	1068.62
376.545	1058.62
376.771	1059.62
376.997	1037.62
377.222	1030.62
377.448	1043.62
377.674	1016.62
377.899	1017.62
378.125	1000.62
378.35	1028.62
378.576	1046.62
378.802	1014.62
379.027	1051.62
379.253	1033.62
379.478	1047.62
379.704	1051.62
379.929	1064.62
380.155	1055.62
380.38	1038.62
380.606	1044.62
380.831	1080.62
381.057	1057.62
381.282	1055.62
381.507	1064.62
381.733	1110.62
381.958	1127.62
382.184	1135.62
382.409	1162.62
382.634	1132.62
382.86	1154.62
383.085	1145.62
383.31	1131.62
383.535	1122.62
383.761	1154.62
383.986	1135.62
384.211	1161.62
384.436	1135.62
384.662	1120.62
384.887	1156.62
385.112	1133.62
385.337	1142.62
385.562	1176.62
385.787	1162.62
386.013	1198.62
386.238	1195.62
386.463	1215.62
386.688	1203.62
386.913	1220.62
387.138	1189.62
387.363	1214.62
387.588	1216.62
387.813	1209.62
388.038	1220.62
388.263	1204.62
388.488	1228.62
388.713	1234.62
388.938	1231.62
389.163	1198.62
389.387	1227.62
389.612	1226.62
389.837	1232.62
390.062	1198.62
390.287	1225.62
390.512	1233.62
390.736	1253.62
390.961	1258.62
391.186	1226.62
391.411	1274.62
391.636	1287.62
391.86	1271.62
392.085	1276.62
392.31	1301.62
392.534	1304.62
392.759	1296.62
392.984	1298.62
393.208	1281.62
393.433	1315.62
393.658	1332.62
393.882	1267.62
394.107	1318.62
394.331	1277.62
394.556	1307.62
394.78	1274.62
395.005	1325.62
395.229	1316.62
395.454	1307.62
395.678	1320.62
395.903	1321.62
396.127	1337.62
396.352	1315.62
396.576	1303.62
396.801	1307.62
397.025	1351.62
397.249	1370.62
397.474	1357.62
397.698	1372.62
397.922	1400.62
398.147	1399.62
398.371	1362.62
398.595	1423.62
398.82	1446.62
399.044	1482.62
399.268	1523.62
399.492	1596.62
399.717	1638.62
399.941	1651.62
400.165	1686.62
400.389	1606.62
400.613	1596.62
400.837	1558.62
401.062	1535.62
401.286	1508.62
401.51	1479.62
401.734	1482.62
401.958	1467.62
402.182	1495.62
402.406	1442.62
402.63	1452.62
402.854	1468.62
403.078	1465.62
403.302	1474.62
403.526	1476.62
403.75	1494.62
403.974	1494.62
404.198	1491.62
404.422	1493.62
404.645	1500.62
404.869	1542.62
405.093	1527.62
405.317	1513.62
405.541	1512.62
405.765	1501.62
405.988	1521.62
406.212	1526.62
406.436	1565.62
406.66	1629.62
406.883	1605.62
407.107	1615.62
407.331	1653.62
407.555	1718.62
407.778	1707.62
408.002	1656.62
408.226	1636.62
408.449	1693.62
408.673	1636.62
408.896	1631.62
409.12	1616.62
409.344	1608.62
409.567	1640.62
409.791	1628.62
410.014	1571.62
410.238	1566.62
410.461	1568.62
410.685	1592.62
410.908	1586.62
411.132	1574.62
411.355	1513.62
411.578	1529.62
411.802	1544.62
412.025	1540.62
412.249	1530.62
412.472	1565.62
412.695	1548.62
412.919	1497.62
413.142	1535.62
413.365	1518.62
413.589	1509.62
413.812	1517.62
414.035	1487.62
414.258	1484.62
414.482	1456.62
414.705	1504.62
414.928	1497.62
415.151	1493.62
415.374	1451.62
415.597	1453.62
415.821	1443.62
416.044	1452.62
416.267	1464.62
416.49	1436.62
416.713	1435.62
416.936	1438.62
417.159	1443.62
417.382	1422.62
417.605	1428.62
417.828	1431.62
418.051	1447.62
418.274	1391.62
418.497	1427.62
418.72	1442.62
418.943	1460.62
419.166	1503.62
419.389	1585.62
419.611	1558.62
419.834	1532.62
420.057	1452.62
420.28	1460.62
420.503	1409.62
420.726	1382.62
420.948	1399.62
421.171	1408.62
421.394	1418.62
421.617	1381.62
421.839	1430.62
422.062	1430.62
422.285	1388.62
422.507	1421.62
422.73	1402.62
422.953	1399.62
423.175	1443.62
423.398	1428.62
423.621	1416.62
423.843	1419.62
424.066	1406.62
424.288	1428.62
424.511	1434.62
424.733	1395.62
424.956	1411.62
425.178	1418.62
425.401	1412.62
425.623	1399.62
425.846	1380.62
426.068	1383.62
426.291	1403.62
426.513	1369.62
426.735	1369.62
426.958	1425.62
427.18	1405.62
427.402	1385.62
427.625	1400.62
427.847	1348.62
428.069	1364.62
428.292	1357.62
428.514	1368.62
428.736	1370.62
428.958	1369.62
429.181	1345.62
429.403	1322.62
429.625	1324.62
429.847	1341.62
430.069	1357.62
430.292	1364.62
430.514	1323.62
430.736	1366.62
430.958	1375.62
431.18	1364.62
431.402	1378.62
431.624	1315.62
431.846	1359.62
432.068	1344.62
432.29	1357.62
432.512	1343.62
432.734	1387.62
432.956	1398.62
433.178	1372.62
433.4	1386.62
433.622	1360.62
433.844	1406.62
434.066	1363.62
434.287	1368.62
434.509	1391.62
434.731	1412.62
434.953	1392.62
435.175	1461.62
435.397	1420.62
435.618	1444.62
435.84	1402.62
436.062	1380.62
436.284	1375.62
436.505	1339.62
436.727	1359.62
436.949	1357.62
437.17	1349.62
437.392	1340.62
437.614	1365.62
437.835	1343.62
438.057	1338.62
438.278	1335.62
438.5	1364.62
438.721	1315.62
438.943	1325.62
439.165	1337.62
439.386	1322.62
439.608	1346.62
439.829	1355.62
440.05	1340.62
440.272	1325.62
440.493	1310.62
440.715	1358.62
440.936	1383.62
441.158	1369.62
441.379	1374.62
441.6	1374.62
441.822	1400.62
442.043	1416.62
442.264	1399.62
442.486	1380.62
442.707	1409.62
442.928	1404.62
443.149	1394.62
443.371	1387.62
443.592	1382.62
443.813	1422.62
444.034	1426.62
444.255	1464.62
444.476	1449.62
444.698	1464.62
444.919	1466.62
445.14	1628.62
445.361	1465.62
445.582	1453.62
445.803	1387.62
446.024	1392.62
446.245	1373.62
446.466	1376.62
446.687	1386.62
446.908	1353.62
447.129	1348.62
447.35	1347.62
447.571	1307.62
447.792	1279.62
448.013	1306.62
448.234	1266.62
448.455	1285.62
448.675	1247.62
448.896	1241.62
449.117	1246.62
449.338	1258.62
449.559	1266.62
449.779	1253.62
450	1256.62
450.221	1214.62
450.442	1266.62
450.662	1262.62
450.883	1231.62
451.104	1202.62
451.324	1231.62
451.545	1248.62
451.766	1245.62
451.986	1231.62
452.207	1239.62
452.428	1207.62
452.648	1251.62
452.869	1215.62
453.089	1194.62
453.31	1228.62
453.53	1184.62
453.751	1180.62
453.971	1202.62
454.192	1234.62
454.412	1197.62
454.633	1202.62
454.853	1178.62
455.073	1188.62
455.294	1182.62
455.514	1188.62
455.734	1190.62
455.955	1187.62
456.175	1185.62
456.395	1199.62
456.616	1208.62
456.836	1204.62
457.056	1219.62
457.276	1178.62
457.497	1212.62
457.717	1200.62
457.937	1217.62
458.157	1229.62
458.377	1218.62
458.598	1253.62
458.818	1269.62
459.038	1279.62
459.258	1304.62
459.478	1316.62
459.698	1323.62
459.918	1384.62
460.138	1356.62
460.358	1412.62
460.578	1399.62
460.798	1466.62
461.018	1466.62
461.238	1473.62
461.458	1456.62
461.678	1474.62
461.898	1511.62
462.118	1465.62
462.338	1514.62
462.558	1559.62
462.777	1588.62
462.997	1588.62
463.217	1613.62
463.437	1612.62
463.657	1596.62
463.876	1609.62
464.096	1629.62
464.316	1574.62
464.536	1578.62
464.755	1574.62
464.975	1516.62
465.195	1463.62
465.414	1440.62
465.634	1419.62
465.854	1412.62
466.073	1416.62
466.293	1367.62
466.512	1349.62
466.732	1327.62
466.951	1355.62
467.171	1312.62
467.391	1348.62
467.61	1304.62
467.829	1304.62
468.049	1309.62
468.268	1281.62
468.488	1301.62
468.707	1300.62
468.927	1310.62
469.146	1363.62
469.365	1293.62
469.585	1288.62
469.804	1309.62
470.023	1350.62
470.243	1302.62
470.462	1321.62
470.681	1335.62
470.901	1337.62
471.12	1336.62
471.339	1332.62
471.558	1292.62
471.777	1319.62
471.997	1304.62
472.216	1289.62
472.435	1318.62
472.654	1340.62
472.873	1269.62
473.092	1291.62
473.311	1317.62
473.53	1301.62
473.749	1309.62
473.968	1285.62
474.187	1295.62
474.406	1308.62
474.625	1327.62
474.844	1338.62
475.063	1315.62
475.282	1355.62
475.501	1352.62
475.72	1327.62
475.939	1366.62
476.158	1410.62
476.377	1383.62
476.596	1446.62
476.814	1516.62
477.033	1428.62
477.252	1381.62
477.471	1434.62
477.69	1468.62
477.908	1481.62
478.127	1499.62
478.346	1482.62
478.564	1500.62
478.783	1470.62
479.002	1524.62
479.22	1533.62
479.439	1637.62
479.658	1572.62
479.876	1573.62
480.095	1569.62
480.313	1614.62
480.532	1573.62
480.751	1599.62
480.969	1604.62
481.188	1616.62
481.406	1596.62
481.624	1570.62
481.843	1552.62
482.061	1533.62
482.28	1558.62
482.498	1586.62
482.717	1568.62
482.935	1572.62
483.153	1573.62
483.372	1564.62
483.59	1546.62
483.808	1560.62
484.027	1609.62
484.245	1554.62
484.463	1598.62
484.681	1620.62
484.9	1636.62
485.118	1624.62
485.336	1565.62
485.554	1629.62
485.772	1646.62
485.99	1606.62
486.209	1604.62
486.427	1589.62
486.645	1598.62
486.863	1614.62
487.081	1582.62
487.299	1630.62
487.517	1617.62
487.735	1628.62
487.953	1604.62
488.171	1629.62
488.389	1593.62
488.607	1583.62
488.825	1588.62
489.043	1614.62
489.261	1562.62
489.479	1602.62
489.696	1605.62
489.914	1610.62
490.132	1604.62
490.35	1587.62
490.568	1579.62
490.786	1603.62
491.003	1604.62
491.221	1611.62
491.439	1619.62
491.657	1632.62
491.874	1654.62
492.092	1691.62
492.31	1666.62
492.527	1650.62
492.745	1700.62
492.963	1643.62
493.18	1660.62
493.398	1666.62
493.615	1645.62
493.833	1652.62
494.05	1640.62
494.268	1635.62
494.485	1622.62
494.703	1675.62
494.92	1675.62
495.138	1678.62
495.355	1686.62
495.573	1693.62
495.79	1748.62
496.008	1766.62
496.225	1742.62
496.442	1779.62
496.66	1764.62
496.877	1760.62
497.094	1837.62
497.312	1853.62
497.529	1883.62
497.746	1846.62
497.963	1886.62
498.181	1961.62
498.398	2023.62
498.615	2053.62
498.832	2157.62
499.049	2218.62
499.267	2276.62
499.484	2363.62
499.701	2458.62
499.918	2538.62
500.135	2680.62
500.352	2758.62
500.569	2837.62
500.786	2795.62
501.003	2801.62
501.22	2657.62
501.437	2567.62
501.654	2454.62
501.871	2377.62
502.088	2264.62
502.305	2174.62
502.522	2123.62
502.739	2089.62
502.956	2014.62
503.172	1936.62
503.389	1910.62
503.606	1862.62
503.823	1834.62
504.04	1836.62
504.256	1811.62
504.473	1801.62
504.69	1767.62
504.907	1802.62
505.123	1726.62
505.34	1672.62
505.557	1616.62
505.773	1627.62
505.99	1615.62
506.207	1591.62
506.423	1544.62
506.64	1516.62
506.856	1517.62
507.073	1490.62
507.289	1496.62
507.506	1441.62
507.722	1448.62
507.939	1477.62
508.155	1484.62
508.372	1419.62
508.588	1428.62
508.805	1424.62
509.021	1400.62
509.238	1384.62
509.454	1358.62
509.67	1364.62
509.887	1379.62
510.103	1398.62
510.319	1348.62
510.536	1381.62
510.752	1321.62
510.968	1350.62
511.184	1307.62
511.401	1311.62
511.617	1372.62
511.833	1316.62
512.049	1331.62
512.265	1310.62
512.481	1320.62
512.698	1303.62
512.914	1350.62
513.13	1308.62
513.346	1327.62
513.562	1340.62
513.778	1334.62
513.994	1303.62
514.21	1333.62
514.426	1311.62
514.642	1325.62
514.858	1347.62
515.074	1358.62
515.29	1371.62
515.506	1346.62
515.721	1355.62
515.937	1396.62
516.153	1410.62
516.369	1391.62
516.585	1406.62
516.801	1416.62
517.016	1412.62
517.232	1458.62
517.448	1499.62
517.664	1502.62
517.879	1487.62
518.095	1454.62
518.311	1470.62
518.527	1449.62
518.742	1439.62
518.958	1375.62
519.173	1418.62
519.389	1384.62
519.605	1350.62
519.82	1411.62
520.036	1443.62
520.251	1406.62
520.467	1368.62
520.682	1307.62
520.898	1324.62
521.113	1319.62
521.329	1268.62
521.544	1266.62
521.76	1272.62
521.975	1257.62
522.19	1253.62
522.406	1250.62
522.621	1232.62
522.836	1263.62
523.052	1275.62
523.267	1221.62
523.482	1231.62
523.698	1213.62
523.913	1192.62
524.128	1197.62
524.343	1190.62
524.559	1209.62
524.774	1175.62
524.989	1215.62
525.204	1197.62
525.419	1195.62
525.634	1173.62
525.849	1199.62
526.064	1192.62
526.28	1210.62
526.495	1198.62
526.71	1182.62
526.925	1150.62
527.14	1187.62
527.355	1180.62
527.57	1166.62
527.785	1172.62
527.999	1147.62
528.214	1167.62
528.429	1165.62
528.644	1128.62
528.859	1150.62
529.074	1147.62
529.289	1148.62
529.503	1153.62
529.718	1147.62
529.933	1159.62
530.148	1156.62
530.363	1128.62
530.577	1111.62
530.792	1114.62
531.007	1127.62
531.221	1148.62
531.436	1130.62
531.651	1129.62
531.865	1115.62
532.08	1102.62
532.295	1134.62
532.509	1114.62
532.724	1097.62
532.938	1135.62
533.153	1111.62
533.367	1142.62
533.582	1141.62
533.796	1109.62
534.011	1102.62
534.225	1095.62
534.44	1070.62
534.654	1086.62
534.868	1114.62
535.083	1108.62
535.297	1086.62
535.511	1082.62
535.726	1093.62
535.94	1096.62
536.154	1093.62
536.369	1088.62
536.583	1058.62
536.797	1050.62
537.011	1072.62
537.225	1065.62
537.44	1077.62
537.654	1061.62
537.868	1022.62
538.082	1007.62
538.296	1030.62
538.51	1041.62
538.724	1052.62
538.938	1054.62
539.153	1035.62
539.367	1048.62
539.581	1030.62
539.795	1013.62
540.009	1004.62
540.222	1037.62
540.436	1020.62
540.65	1007.62
540.864	1039.62
541.078	992.62
541.292	1020.62
541.506	1038.62
541.72	1044.62
541.934	1034.62
542.147	1039.62
542.361	1017.62
542.575	1007.62
542.789	1019.62
543.002	988.62
543.216	1012.62
543.43	995.62
543.644	1010.62
543.857	1018.62
544.071	1008.62
544.285	1003.62
544.498	1023.62
544.712	999.62
544.925	1030.62
545.139	1019.62
545.352	1020.62
545.566	1014.62
545.779	1030.62
545.993	1013.62
546.206	1005.62
546.42	996.62
546.633	984.62
546.847	1005.62
547.06	1030.62
547.274	999.62
547.487	1033.62
547.7	1028.62
547.914	1026.62
548.127	1030.62
548.34	1011.62
548.554	1014.62
548.767	1024.62
548.98	1017.62
549.193	1012.62
549.407	1018.62
549.62	1025.62
549.833	1032.62
550.046	1032.62
550.259	1032.62
550.473	1010.62
550.686	1024.62
550.899	1046.62
551.112	1006.62
551.325	995.62
551.538	1043.62
551.751	1008.62
551.964	984.62
552.177	997.62
552.39	980.62
552.603	990.62
552.816	1024.62
553.029	1013.62
553.242	1008.62
553.455	1020.62
553.667	1004.62
553.88	1001.62
554.093	999.62
554.306	988.62
554.519	962.62
554.732	961.62
554.944	940.62
555.157	936.62
555.37	942.62
555.583	904.62
555.795	921.62
556.008	934.62
556.221	895.62
556.433	890.62
556.646	939.62
556.859	874.62
557.071	879.62
557.284	879.62
557.496	893.62
557.709	880.62
557.921	863.62
558.134	866.62
558.346	879.62
558.559	882.62
558.771	857.62
558.984	880.62
559.196	887.62
559.409	846.62
559.621	870.62
559.833	877.62
560.046	874.62
560.258	847.62
560.47	874.62
560.683	851.62
560.895	828.62
561.107	870.62
561.32	862.62
561.532	870.62
561.744	857.62
561.956	832.62
562.168	837.62
562.381	853.62
562.593	844.62
562.805	859.62
563.017	865.62
563.229	868.62
563.441	867.62
563.653	827.62
563.865	841.62
564.077	844.62
564.289	862.62
564.501	894.62
564.713	904.62
564.925	915.62
565.137	928.62
565.349	909.62
565.561	911.62
565.773	954.62
565.985	976.62
566.197	966.62
566.408	989.62
566.62	1024.62
566.832	1044.62
567.044	1065.62
567.255	1071.62
567.467	1086.62
567.679	1079.62
567.891	1079.62
568.102	1077.62
568.314	1043.62
568.526	1026.62
568.737	1033.62
568.949	995.62
569.161	943.62
569.372	912.62
569.584	879.62
569.795	884.62
570.007	852.62
570.218	829.62
570.43	820.62
570.641	836.62
570.853	808.62
571.064	829.62
571.276	803.62
571.487	771.62
571.698	768.62
571.91	778.62
572.121	726.62
572.333	750.62
572.544	728.62
572.755	720.62
572.966	720.62
573.178	720.62
573.389	701.62
573.6	710.62
573.811	710.62
574.023	691.62
574.234	680.62
574.445	682.62
574.656	684.62
574.867	676.62
575.078	670.62
575.289	658.62
575.501	650.62
575.712	678.62
575.923	670.62
576.134	651.62
576.345	680.62
576.556	650.62
576.767	643.62
576.978	643.62
577.188	641.62
577.399	635.62
577.61	653.62
577.821	650.62
578.032	622.62
578.243	594.62
578.454	606.62
578.665	610.62
578.875	593.62
579.086	594.62
579.297	613.62
579.508	618.62
579.718	616.62
579.929	621.62
580.14	602.62
580.35	588.62
580.561	595.62
580.772	607.62
580.982	589.62
581.193	613.62
581.403	614.62
581.614	608.62
581.825	578.62
582.035	578.62
582.246	590.62
582.456	581.62
582.667	584.62
582.877	591.62
583.087	579.62
583.298	566.62
583.508	591.62
583.719	578.62
583.929	600.62
584.139	579.62
584.35	568.62
584.56	567.62
584.77	566.62
584.981	548.62
585.191	550.62
585.401	551.62
585.611	562.62
585.821	557.62
586.032	564.62
586.242	550.62
586.452	585.62
586.662	546.62
586.872	575.62
587.082	542.62
587.292	551.62
587.502	553.62
587.713	566.62
587.923	550.62
588.133	535.62
588.343	562.62
588.553	539.62
588.762	547.62
588.972	558.62
589.182	621.62
589.392	591.62
589.602	562.62
589.812	587.62
590.022	582.62
590.232	523.62
590.441	549.62
590.651	550.62
590.861	540.62
591.071	554.62
591.281	566.62
591.49	564.62
591.7	585.62
591.91	553.62
592.119	551.62
592.329	565.62
592.539	567.62
592.748	567.62
592.958	566.62
593.167	571.62
593.377	569.62
593.587	583.62
593.796	592.62
594.006	588.62
594.215	573.62
594.424	564.62
594.634	571.62
594.843	561.62
595.053	550.62
595.262	551.62
595.472	533.62
595.681	527.62
595.89	548.62
596.1	518.62
596.309	543.62
596.518	518.62
596.727	512.62
596.937	517.62
597.146	478.62
597.355	504.62
597.564	494.62
597.774	495.62
597.983	476.62
598.192	462.62
598.401	460.62
598.61	492.62
598.819	460.62
599.028	462.62
599.237	484.62
599.446	485.62
599.655	477.62
599.864	467.62
600.073	445.62
600.282	471.62
600.491	464.62
600.7	461.62
600.909	439.62
601.118	454.62
601.327	452.62
601.536	447.62
601.745	462.62
601.953	451.62
602.162	440.62
602.371	439.62
602.58	448.62
602.789	432.62
602.997	431.62
603.206	436.62
603.415	439.62
603.623	438.62
603.832	419.62
604.041	423.62
604.249	418.62
604.458	446.62
604.666	418.62
604.875	416.62
605.084	425.62
605.292	415.62
605.501	418.62
605.709	435.62
605.918	416.62
606.126	422.62
606.334	423.62
606.543	420.62
606.751	419.62
606.96	412.62
607.168	401.62
607.376	405.62
607.585	409.62
607.793	416.62
608.001	404.62
608.21	410.62
608.418	408.62
608.626	392.62
608.834	420.62
609.043	415.62
609.251	414.62
609.459	389.62
609.667	416.62
609.875	404.62
610.083	405.62
610.291	404.62
610.499	386.62
610.707	408.62
610.916	387.62
611.124	399.62
611.332	401.62
611.54	387.62
611.748	399.62
611.955	428.62
612.163	387.62
612.371	399.62
612.579	394.62
612.787	400.62
612.995	389.62
613.203	395.62
613.411	374.62
613.618	378.62
613.826	376.62
614.034	380.62
614.242	397.62
614.449	387.62
614.657	371.62
614.865	383.62
615.072	381.62
615.28	374.62
615.488	390.62
615.695	380.62
615.903	380.62
616.111	383.62
616.318	398.62
616.526	412.62
616.733	394.62
616.941	366.62
617.148	392.62
617.356	378.62
617.563	375.62
617.771	361.62
617.978	382.62
618.185	365.62
618.393	368.62
618.6	363.62
618.807	363.62
619.015	355.62
619.222	376.62
619.429	374.62
619.637	371.62
619.844	382.62
620.051	362.62
620.258	370.62
620.466	357.62
620.673	349.62
620.88	342.62
621.087	343.62
621.294	357.62
621.501	348.62
621.708	366.62
621.915	356.62
622.122	351.62
622.329	356.62
622.536	362.62
622.743	346.62
622.95	350.62
623.157	350.62
623.364	330.62
623.571	344.62
623.778	339.62
623.985	353.62
624.192	362.62
624.399	322.62
624.606	340.62
624.812	335.62
625.019	359.62
625.226	333.62
625.433	337.62
625.639	326.62
625.846	322.62
626.053	343.62
626.259	328.62
626.466	316.62
626.673	332.62
626.879	309.62
627.086	318.62
627.293	303.62
627.499	316.62
627.706	328.62
627.912	318.62
628.119	301.62
628.325	324.62
628.532	327.62
628.738	318.62
628.945	327.62
629.151	335.62
629.357	327.62
629.564	321.62
629.77	325.62
629.976	331.62
630.183	296.62
630.389	312.62
630.595	328.62
630.802	302.62
631.008	310.62
631.214	310.62
631.42	315.62
631.627	312.62
631.833	296.62
632.039	287.62
632.245	297.62
632.451	294.62
632.657	308.62
632.863	320.62
633.069	293.62
633.275	310.62
633.481	306.62
633.688	293.62
633.893	288.62
634.099	294.62
634.305	296.62
634.511	289.62
634.717	283.62
634.923	286.62
635.129	305.62
635.335	290.62
635.541	288.62
635.747	293.62
635.952	274.62
636.158	297.62
636.364	272.62
636.57	285.62
636.775	294.62
636.981	298.62
637.187	280.62
637.392	277.62
637.598	262.62
637.804	281.62
638.009	274.62
638.215	276.62
638.421	287.62
638.626	268.62
638.832	285.62
639.037	277.62
639.243	268.62
639.448	294.62
639.654	266.62
639.859	272.62
640.065	272.62
640.27	290.62
640.475	275.62
640.681	288.62
640.886	265.62
641.091	270.62
641.297	280.62
641.502	266.62
641.707	267.62
641.913	270.62
642.118	262.62
642.323	286.62
642.528	282.62
642.733	282.62
642.939	272.62
643.144	272.62
643.349	245.62
643.554	278.62
643.759	270.62
643.964	280.62
644.169	266.62
644.374	269.62
644.579	273.62
644.784	271.62
644.989	265.62
645.194	285.62
645.399	286.62
645.604	274.62
645.809	269.62
646.014	262.62
646.219	256.62
646.423	271.62
646.628	278.62
646.833	272.62
647.038	272.62
647.243	290.62
647.447	288.62
647.652	282.62
647.857	286.62
648.062	293.62
648.266	276.62
648.471	278.62
648.676	280.62
648.88	288.62
649.085	291.62
649.289	285.62
649.494	290.62
649.698	266.62
649.903	271.62
650.107	280.62
650.312	269.62
650.516	269.62
650.721	274.62
650.925	272.62
651.13	267.62
651.334	284.62
651.539	258.62
651.743	257.62
651.947	265.62
652.152	260.62
652.356	261.62
652.56	252.62
652.764	270.62
652.969	258.62
653.173	248.62
653.377	239.62
653.581	264.62
653.785	247.62
653.99	236.62
654.194	256.62
654.398	244.62
654.602	252.62
654.806	246.62
655.01	246.62
655.214	251.62
655.418	261.62
655.622	250.62
655.826	257.62
656.03	266.62
656.234	263.62
656.438	273.62
656.642	256.62
656.846	246.62
657.049	242.62
657.253	248.62
657.457	230.62
657.661	203.62
657.865	185.62
658.068	180.62
658.272	178.62
658.476	172.62
658.68	173.62
658.883	165.62
659.087	159.62
659.291	150.62
659.494	145.62
659.698	138.62
659.901	133.62
660.105	122.62
660.309	119.62
660.512	116.62
660.716	114.62
660.919	119.62
661.123	122.62
661.326	104.62
661.53	94.62
661.733	108.62
661.936	90.62
662.14	82.62
662.343	99.62
662.546	85.62
662.75	98.62
662.953	110.62
663.156	92.62
663.36	75.62
663.563	84.62
663.766	86.62
663.969	69.62
664.173	84.62
664.376	85.62
664.579	100.62
664.782	73.62
664.985	86.62
665.188	101.62
665.391	87.62
665.594	89.62
665.797	81.62
666	70.62
666.203	88.62
666.406	84.62
666.609	94.62
666.812	78.62
667.015	75.62
667.218	97.62
667.421	91.62
667.624	91.62
667.827	90.62
668.03	75.62
668.232	80.62
668.435	78.62
668.638	76.62
668.841	85.62
669.043	81.62
669.246	76.62
669.449	74.62
669.651	85.62
669.854	72.62
670.057	93.62
670.259	93.62
670.462	88.62
670.665	97.62
670.867	89.62
671.07	82.62
671.272	83.62
671.475	93.62
671.677	80.62
671.88	74.62
672.082	92.62
672.284	91.62
672.487	94.62
672.689	71.62
672.892	88.62
