Data from Fe(NO3)3@0.1M.TitratingCurve.Agarose3%dH2O.NegLispCup.LampEnergy10.LIBS07252019_HRD10591_16-41-35-332.txt Node
Date: Thu Jul 25 16:41:35 EDT 2019
User: cochatt
Spectrometer: HR+D1059
Trigger mode: 1
Integration Time (sec): 1.000000E-1
Scans to average: 1
Electric dark correction enabled: true
Nonlinearity correction enabled: false
Boxcar width: 0
XAxis mode: Wavelengths
Number of Pixels in Spectrum: 2048
>>>>>Begin Spectral Data<<<<<
223.165	-18.19
223.4	-18.19
223.635	-18.19
223.869	-18.19
224.104	-30.19
224.338	-16.19
224.573	-15.19
224.808	-8.19
225.042	-11.19
225.277	-19.19
225.511	-23.19
225.746	3.81
225.98	20.81
226.215	11.81
226.449	21.81
226.683	33.81
226.918	31.81
227.152	35.81
227.387	48.81
227.621	32.81
227.856	41.81
228.09	39.81
228.324	27.81
228.559	54.81
228.793	71.81
229.027	60.81
229.262	68.81
229.496	80.81
229.73	78.81
229.964	80.81
230.199	111.81
230.433	88.81
230.667	96.81
230.901	87.81
231.136	100.81
231.37	92.81
231.604	103.81
231.838	96.81
232.072	95.81
232.306	110.81
232.541	94.81
232.775	81.81
233.009	94.81
233.243	93.81
233.477	111.81
233.711	112.81
233.945	102.81
234.179	99.81
234.413	88.81
234.647	113.81
234.881	102.81
235.115	98.81
235.349	109.81
235.583	100.81
235.817	81.81
236.051	101.81
236.285	76.81
236.519	107.81
236.753	99.81
236.987	108.81
237.221	94.81
237.455	112.81
237.689	100.81
237.922	101.81
238.156	106.81
238.39	97.81
238.624	92.81
238.858	117.81
239.091	102.81
239.325	113.81
239.559	114.81
239.793	106.81
240.027	102.81
240.26	112.81
240.494	106.81
240.728	112.81
240.961	113.81
241.195	121.81
241.429	108.81
241.662	116.81
241.896	103.81
242.13	109.81
242.363	112.81
242.597	100.81
242.83	110.81
243.064	112.81
243.298	120.81
243.531	124.81
243.765	108.81
243.998	119.81
244.232	123.81
244.465	124.81
244.699	105.81
244.932	122.81
245.166	127.81
245.399	122.81
245.633	128.81
245.866	125.81
246.099	125.81
246.333	104.81
246.566	112.81
246.8	134.81
247.033	138.81
247.266	124.81
247.5	133.81
247.733	123.81
247.966	125.81
248.2	138.81
248.433	127.81
248.666	119.81
248.899	128.81
249.133	131.81
249.366	128.81
249.599	132.81
249.832	133.81
250.066	128.81
250.299	135.81
250.532	125.81
250.765	135.81
250.998	124.81
251.231	133.81
251.465	118.81
251.698	142.81
251.931	134.81
252.164	140.81
252.397	160.81
252.63	136.81
252.863	129.81
253.096	149.81
253.329	148.81
253.562	117.81
253.795	150.81
254.028	144.81
254.261	146.81
254.494	145.81
254.727	142.81
254.96	162.81
255.193	153.81
255.426	136.81
255.659	145.81
255.892	145.81
256.124	144.81
256.357	154.81
256.59	153.81
256.823	152.81
257.056	155.81
257.289	158.81
257.521	161.81
257.754	148.81
257.987	161.81
258.22	156.81
258.452	144.81
258.685	152.81
258.918	139.81
259.151	164.81
259.383	163.81
259.616	158.81
259.849	157.81
260.081	175.81
260.314	162.81
260.547	154.81
260.779	166.81
261.012	154.81
261.244	159.81
261.477	163.81
261.71	156.81
261.942	175.81
262.175	176.81
262.407	181.81
262.64	166.81
262.872	172.81
263.105	150.81
263.337	159.81
263.57	177.81
263.802	163.81
264.035	163.81
264.267	174.81
264.499	173.81
264.732	163.81
264.964	156.81
265.197	162.81
265.429	167.81
265.661	178.81
265.894	166.81
266.126	180.81
266.358	169.81
266.591	159.81
266.823	175.81
267.055	172.81
267.287	174.81
267.52	184.81
267.752	185.81
267.984	159.81
268.216	191.81
268.448	196.81
268.681	178.81
268.913	165.81
269.145	180.81
269.377	200.81
269.609	172.81
269.841	190.81
270.073	186.81
270.306	189.81
270.538	187.81
270.77	168.81
271.002	176.81
271.234	176.81
271.466	169.81
271.698	190.81
271.93	185.81
272.162	181.81
272.394	192.81
272.626	178.81
272.858	193.81
273.09	196.81
273.322	183.81
273.553	206.81
273.785	190.81
274.017	202.81
274.249	200.81
274.481	202.81
274.713	199.81
274.945	190.81
275.176	191.81
275.408	192.81
275.64	190.81
275.872	190.81
276.104	216.81
276.335	209.81
276.567	192.81
276.799	193.81
277.031	218.81
277.262	199.81
277.494	194.81
277.726	209.81
277.957	198.81
278.189	195.81
278.421	203.81
278.652	208.81
278.884	195.81
279.115	217.81
279.347	210.81
279.579	221.81
279.81	215.81
280.042	213.81
280.273	219.81
280.505	205.81
280.736	204.81
280.968	203.81
281.199	208.81
281.431	222.81
281.662	220.81
281.894	225.81
282.125	214.81
282.356	217.81
282.588	215.81
282.819	213.81
283.051	216.81
283.282	218.81
283.513	230.81
283.745	213.81
283.976	212.81
284.207	236.81
284.439	233.81
284.67	227.81
284.901	225.81
285.132	225.81
285.364	225.81
285.595	242.81
285.826	233.81
286.057	232.81
286.288	211.81
286.52	222.81
286.751	230.81
286.982	230.81
287.213	217.81
287.444	216.81
287.675	242.81
287.906	224.81
288.138	241.81
288.369	252.81
288.6	238.81
288.831	257.81
289.062	237.81
289.293	240.81
289.524	240.81
289.755	242.81
289.986	237.81
290.217	243.81
290.448	246.81
290.679	246.81
290.91	247.81
291.141	241.81
291.371	244.81
291.602	239.81
291.833	231.81
292.064	242.81
292.295	262.81
292.526	237.81
292.757	240.81
292.987	240.81
293.218	223.81
293.449	219.81
293.68	241.81
293.91	208.81
294.141	241.81
294.372	230.81
294.603	260.81
294.833	254.81
295.064	253.81
295.295	253.81
295.525	230.81
295.756	223.81
295.987	246.81
296.217	243.81
296.448	242.81
296.679	262.81
296.909	271.81
297.14	262.81
297.37	246.81
297.601	241.81
297.831	253.81
298.062	273.81
298.292	269.81
298.523	272.81
298.753	267.81
298.984	271.81
299.214	252.81
299.445	256.81
299.675	243.81
299.905	264.81
300.136	263.81
300.366	275.81
300.597	256.81
300.827	254.81
301.057	277.81
301.288	283.81
301.518	268.81
301.748	272.81
301.979	261.81
302.209	270.81
302.439	256.81
302.669	264.81
302.9	275.81
303.13	290.81
303.36	278.81
303.59	277.81
303.82	260.81
304.051	270.81
304.281	248.81
304.511	276.81
304.741	254.81
304.971	278.81
305.201	284.81
305.431	266.81
305.661	272.81
305.891	275.81
306.121	257.81
306.352	271.81
306.582	278.81
306.812	256.81
307.042	271.81
307.272	266.81
307.502	266.81
307.731	261.81
307.961	272.81
308.191	261.81
308.421	281.81
308.651	275.81
308.881	283.81
309.111	266.81
309.341	285.81
309.571	279.81
309.8	266.81
310.03	265.81
310.26	279.81
310.49	260.81
310.72	269.81
310.949	282.81
311.179	278.81
311.409	280.81
311.639	274.81
311.868	271.81
312.098	275.81
312.328	293.81
312.557	272.81
312.787	273.81
313.017	270.81
313.246	281.81
313.476	266.81
313.706	282.81
313.935	302.81
314.165	284.81
314.394	274.81
314.624	297.81
314.853	300.81
315.083	285.81
315.312	285.81
315.542	311.81
315.771	292.81
316.001	295.81
316.23	284.81
316.46	290.81
316.689	304.81
316.919	292.81
317.148	284.81
317.377	291.81
317.607	287.81
317.836	284.81
318.065	280.81
318.295	291.81
318.524	314.81
318.753	292.81
318.983	300.81
319.212	303.81
319.441	286.81
319.67	286.81
319.9	272.81
320.129	280.81
320.358	277.81
320.587	305.81
320.816	297.81
321.046	288.81
321.275	292.81
321.504	302.81
321.733	293.81
321.962	291.81
322.191	286.81
322.42	282.81
322.649	279.81
322.878	301.81
323.108	304.81
323.337	308.81
323.566	293.81
323.795	308.81
324.024	309.81
324.253	305.81
324.482	304.81
324.71	309.81
324.939	323.81
325.168	307.81
325.397	306.81
325.626	297.81
325.855	313.81
326.084	301.81
326.313	317.81
326.542	319.81
326.77	333.81
326.999	315.81
327.228	304.81
327.457	312.81
327.686	327.81
327.914	319.81
328.143	300.81
328.372	308.81
328.6	326.81
328.829	309.81
329.058	331.81
329.287	317.81
329.515	321.81
329.744	305.81
329.972	335.81
330.201	312.81
330.43	306.81
330.658	322.81
330.887	327.81
331.115	312.81
331.344	334.81
331.572	330.81
331.801	334.81
332.03	338.81
332.258	348.81
332.486	355.81
332.715	368.81
332.943	348.81
333.172	370.81
333.4	389.81
333.629	397.81
333.857	392.81
334.085	406.81
334.314	388.81
334.542	400.81
334.771	401.81
334.999	394.81
335.227	383.81
335.455	394.81
335.684	372.81
335.912	376.81
336.14	372.81
336.369	365.81
336.597	357.81
336.825	360.81
337.053	380.81
337.281	377.81
337.51	361.81
337.738	374.81
337.966	366.81
338.194	344.81
338.422	346.81
338.65	346.81
338.878	351.81
339.106	340.81
339.334	342.81
339.562	357.81
339.79	339.81
340.018	333.81
340.246	328.81
340.474	336.81
340.702	337.81
340.93	348.81
341.158	337.81
341.386	329.81
341.614	324.81
341.842	324.81
342.07	313.81
342.298	338.81
342.526	343.81
342.754	315.81
342.981	329.81
343.209	341.81
343.437	341.81
343.665	360.81
343.893	393.81
344.12	398.81
344.348	392.81
344.576	377.81
344.804	361.81
345.031	345.81
345.259	314.81
345.487	336.81
345.714	324.81
345.942	338.81
346.17	336.81
346.397	345.81
346.625	321.81
346.853	318.81
347.08	333.81
347.308	325.81
347.535	324.81
347.763	312.81
347.99	310.81
348.218	320.81
348.445	308.81
348.673	341.81
348.9	326.81
349.128	333.81
349.355	316.81
349.583	340.81
349.81	304.81
350.037	320.81
350.265	328.81
350.492	325.81
350.72	309.81
350.947	307.81
351.174	317.81
351.402	332.81
351.629	295.81
351.856	307.81
352.083	301.81
352.311	305.81
352.538	313.81
352.765	308.81
352.992	307.81
353.22	306.81
353.447	321.81
353.674	302.81
353.901	321.81
354.128	317.81
354.355	313.81
354.583	308.81
354.81	314.81
355.037	322.81
355.264	330.81
355.491	330.81
355.718	323.81
355.945	310.81
356.172	311.81
356.399	308.81
356.626	322.81
356.853	327.81
357.08	316.81
357.307	340.81
357.534	324.81
357.761	317.81
357.988	333.81
358.215	316.81
358.441	310.81
358.668	324.81
358.895	320.81
359.122	307.81
359.349	325.81
359.576	316.81
359.802	328.81
360.029	311.81
360.256	309.81
360.483	313.81
360.709	311.81
360.936	334.81
361.163	330.81
361.39	306.81
361.616	308.81
361.843	330.81
362.07	325.81
362.296	330.81
362.523	326.81
362.749	310.81
362.976	312.81
363.203	313.81
363.429	316.81
363.656	328.81
363.882	322.81
364.109	334.81
364.335	303.81
364.562	317.81
364.788	316.81
365.015	322.81
365.241	319.81
365.468	297.81
365.694	310.81
365.92	327.81
366.147	326.81
366.373	319.81
366.599	312.81
366.826	318.81
367.052	330.81
367.278	332.81
367.505	310.81
367.731	317.81
367.957	315.81
368.184	324.81
368.41	332.81
368.636	329.81
368.862	337.81
369.089	335.81
369.315	347.81
369.541	318.81
369.767	325.81
369.993	318.81
370.219	333.81
370.445	329.81
370.672	334.81
370.898	334.81
371.124	340.81
371.35	355.81
371.576	346.81
371.802	337.81
372.028	369.81
372.254	348.81
372.48	351.81
372.706	367.81
372.932	338.81
373.158	362.81
373.384	342.81
373.61	346.81
373.835	354.81
374.061	343.81
374.287	341.81
374.513	364.81
374.739	372.81
374.965	357.81
375.191	374.81
375.416	354.81
375.642	366.81
375.868	355.81
376.094	353.81
376.319	345.81
376.545	341.81
376.771	340.81
376.997	367.81
377.222	372.81
377.448	365.81
377.674	344.81
377.899	350.81
378.125	357.81
378.35	356.81
378.576	346.81
378.802	351.81
379.027	344.81
379.253	338.81
379.478	346.81
379.704	351.81
379.929	347.81
380.155	327.81
380.38	338.81
380.606	350.81
380.831	338.81
381.057	356.81
381.282	334.81
381.507	326.81
381.733	362.81
381.958	362.81
382.184	374.81
382.409	356.81
382.634	361.81
382.86	379.81
383.085	351.81
383.31	372.81
383.535	372.81
383.761	367.81
383.986	371.81
384.211	394.81
384.436	392.81
384.662	407.81
384.887	405.81
385.112	403.81
385.337	395.81
385.562	409.81
385.787	402.81
386.013	408.81
386.238	409.81
386.463	411.81
386.688	412.81
386.913	399.81
387.138	395.81
387.363	401.81
387.588	410.81
387.813	398.81
388.038	406.81
388.263	423.81
388.488	424.81
388.713	408.81
388.938	395.81
389.163	392.81
389.387	409.81
389.612	393.81
389.837	403.81
390.062	398.81
390.287	423.81
390.512	417.81
390.736	423.81
390.961	417.81
391.186	433.81
391.411	425.81
391.636	429.81
391.86	432.81
392.085	458.81
392.31	440.81
392.534	434.81
392.759	465.81
392.984	442.81
393.208	442.81
393.433	420.81
393.658	430.81
393.882	436.81
394.107	440.81
394.331	425.81
394.556	426.81
394.78	447.81
395.005	436.81
395.229	440.81
395.454	444.81
395.678	460.81
395.903	439.81
396.127	436.81
396.352	450.81
396.576	450.81
396.801	441.81
397.025	443.81
397.249	447.81
397.474	433.81
397.698	458.81
397.922	481.81
398.147	475.81
398.371	454.81
398.595	472.81
398.82	520.81
399.044	542.81
399.268	560.81
399.492	658.81
399.717	670.81
399.941	678.81
400.165	611.81
400.389	566.81
400.613	564.81
400.837	528.81
401.062	526.81
401.286	520.81
401.51	495.81
401.734	488.81
401.958	523.81
402.182	524.81
402.406	493.81
402.63	546.81
402.854	520.81
403.078	544.81
403.302	541.81
403.526	534.81
403.75	538.81
403.974	544.81
404.198	519.81
404.422	543.81
404.645	566.81
404.869	532.81
405.093	534.81
405.317	539.81
405.541	535.81
405.765	543.81
405.988	540.81
406.212	550.81
406.436	558.81
406.66	587.81
406.883	596.81
407.107	614.81
407.331	609.81
407.555	601.81
407.778	610.81
408.002	618.81
408.226	581.81
408.449	587.81
408.673	574.81
408.896	566.81
409.12	563.81
409.344	592.81
409.567	562.81
409.791	562.81
410.014	530.81
410.238	527.81
410.461	540.81
410.685	545.81
410.908	551.81
411.132	533.81
411.355	518.81
411.578	528.81
411.802	510.81
412.025	521.81
412.249	528.81
412.472	546.81
412.695	539.81
412.919	522.81
413.142	518.81
413.365	517.81
413.589	505.81
413.812	517.81
414.035	513.81
414.258	509.81
414.482	497.81
414.705	531.81
414.928	499.81
415.151	494.81
415.374	510.81
415.597	522.81
415.821	519.81
416.044	460.81
416.267	509.81
416.49	478.81
416.713	475.81
416.936	488.81
417.159	495.81
417.382	481.81
417.605	491.81
417.828	504.81
418.051	517.81
418.274	521.81
418.497	515.81
418.72	509.81
418.943	508.81
419.166	544.81
419.389	564.81
419.611	535.81
419.834	530.81
420.057	508.81
420.28	502.81
420.503	496.81
420.726	498.81
420.948	493.81
421.171	505.81
421.394	510.81
421.617	498.81
421.839	495.81
422.062	499.81
422.285	482.81
422.507	516.81
422.73	490.81
422.953	506.81
423.175	521.81
423.398	521.81
423.621	532.81
423.843	519.81
424.066	521.81
424.288	517.81
424.511	528.81
424.733	510.81
424.956	518.81
425.178	529.81
425.401	495.81
425.623	509.81
425.846	484.81
426.068	508.81
426.291	477.81
426.513	503.81
426.735	496.81
426.958	481.81
427.18	475.81
427.402	473.81
427.625	470.81
427.847	476.81
428.069	461.81
428.292	468.81
428.514	462.81
428.736	463.81
428.958	473.81
429.181	434.81
429.403	447.81
429.625	445.81
429.847	460.81
430.069	444.81
430.292	459.81
430.514	455.81
430.736	453.81
430.958	444.81
431.18	442.81
431.402	450.81
431.624	451.81
431.846	469.81
432.068	447.81
432.29	446.81
432.512	432.81
432.734	458.81
432.956	467.81
433.178	478.81
433.4	449.81
433.622	450.81
433.844	470.81
434.066	439.81
434.287	466.81
434.509	483.81
434.731	502.81
434.953	501.81
435.175	504.81
435.397	520.81
435.618	471.81
435.84	468.81
436.062	456.81
436.284	448.81
436.505	478.81
436.727	469.81
436.949	473.81
437.17	476.81
437.392	451.81
437.614	465.81
437.835	437.81
438.057	449.81
438.278	448.81
438.5	453.81
438.721	442.81
438.943	461.81
439.165	452.81
439.386	476.81
439.608	457.81
439.829	461.81
440.05	471.81
440.272	456.81
440.493	473.81
440.715	465.81
440.936	498.81
441.158	484.81
441.379	506.81
441.6	515.81
441.822	508.81
442.043	506.81
442.264	517.81
442.486	512.81
442.707	521.81
442.928	505.81
443.149	530.81
443.371	522.81
443.592	508.81
443.813	493.81
444.034	526.81
444.255	526.81
444.476	545.81
444.698	561.81
444.919	593.81
445.14	655.81
445.361	580.81
445.582	540.81
445.803	498.81
446.024	494.81
446.245	493.81
446.466	473.81
446.687	486.81
446.908	481.81
447.129	468.81
447.35	454.81
447.571	466.81
447.792	450.81
448.013	463.81
448.234	467.81
448.455	448.81
448.675	448.81
448.896	440.81
449.117	428.81
449.338	434.81
449.559	453.81
449.779	452.81
450	422.81
450.221	445.81
450.442	440.81
450.662	419.81
450.883	442.81
451.104	418.81
451.324	418.81
451.545	438.81
451.766	441.81
451.986	433.81
452.207	443.81
452.428	437.81
452.648	437.81
452.869	405.81
453.089	408.81
453.31	410.81
453.53	412.81
453.751	408.81
453.971	400.81
454.192	424.81
454.412	408.81
454.633	415.81
454.853	401.81
455.073	396.81
455.294	413.81
455.514	413.81
455.734	417.81
455.955	412.81
456.175	402.81
456.395	394.81
456.616	412.81
456.836	420.81
457.056	420.81
457.276	401.81
457.497	413.81
457.717	410.81
457.937	410.81
458.157	409.81
458.377	406.81
458.598	413.81
458.818	415.81
459.038	431.81
459.258	453.81
459.478	477.81
459.698	454.81
459.918	481.81
460.138	485.81
460.358	518.81
460.578	522.81
460.798	517.81
461.018	525.81
461.238	531.81
461.458	509.81
461.678	536.81
461.898	512.81
462.118	529.81
462.338	543.81
462.558	580.81
462.777	562.81
462.997	630.81
463.217	654.81
463.437	657.81
463.657	611.81
463.876	622.81
464.096	590.81
464.316	581.81
464.536	598.81
464.755	568.81
464.975	546.81
465.195	519.81
465.414	512.81
465.634	499.81
465.854	473.81
466.073	483.81
466.293	475.81
466.512	437.81
466.732	438.81
466.951	435.81
467.171	456.81
467.391	462.81
467.61	447.81
467.829	432.81
468.049	437.81
468.268	452.81
468.488	434.81
468.707	422.81
468.927	432.81
469.146	430.81
469.365	444.81
469.585	446.81
469.804	463.81
470.023	432.81
470.243	449.81
470.462	481.81
470.681	458.81
470.901	445.81
471.12	463.81
471.339	426.81
471.558	438.81
471.777	425.81
471.997	447.81
472.216	403.81
472.435	404.81
472.654	416.81
472.873	419.81
473.092	425.81
473.311	409.81
473.53	405.81
473.749	425.81
473.968	427.81
474.187	414.81
474.406	413.81
474.625	415.81
474.844	439.81
475.063	428.81
475.282	414.81
475.501	429.81
475.72	418.81
475.939	434.81
476.158	431.81
476.377	439.81
476.596	434.81
476.814	451.81
477.033	438.81
477.252	447.81
477.471	461.81
477.69	455.81
477.908	451.81
478.127	471.81
478.346	497.81
478.564	471.81
478.783	472.81
479.002	477.81
479.22	487.81
479.439	494.81
479.658	494.81
479.876	485.81
480.095	498.81
480.313	540.81
480.532	528.81
480.751	540.81
480.969	507.81
481.188	480.81
481.406	487.81
481.624	465.81
481.843	463.81
482.061	464.81
482.28	467.81
482.498	469.81
482.717	460.81
482.935	466.81
483.153	474.81
483.372	485.81
483.59	473.81
483.808	442.81
484.027	477.81
484.245	447.81
484.463	457.81
484.681	479.81
484.9	465.81
485.118	477.81
485.336	477.81
485.554	505.81
485.772	486.81
485.99	492.81
486.209	471.81
486.427	502.81
486.645	477.81
486.863	491.81
487.081	501.81
487.299	492.81
487.517	483.81
487.735	477.81
487.953	487.81
488.171	485.81
488.389	495.81
488.607	504.81
488.825	472.81
489.043	471.81
489.261	462.81
489.479	473.81
489.696	484.81
489.914	484.81
490.132	493.81
490.35	477.81
490.568	486.81
490.786	495.81
491.003	474.81
491.221	515.81
491.439	497.81
491.657	509.81
491.874	492.81
492.092	511.81
492.31	488.81
492.527	503.81
492.745	485.81
492.963	507.81
493.18	480.81
493.398	527.81
493.615	526.81
493.833	536.81
494.05	484.81
494.268	514.81
494.485	504.81
494.703	513.81
494.92	534.81
495.138	518.81
495.355	519.81
495.573	529.81
495.79	527.81
496.008	524.81
496.225	532.81
496.442	537.81
496.66	514.81
496.877	549.81
497.094	550.81
497.312	540.81
497.529	581.81
497.746	574.81
497.963	600.81
498.181	611.81
498.398	643.81
498.615	677.81
498.832	682.81
499.049	759.81
499.267	789.81
499.484	848.81
499.701	926.81
499.918	1034.81
500.135	1115.81
500.352	1225.81
500.569	1282.81
500.786	1222.81
501.003	1161.81
501.22	1074.81
501.437	943.81
501.654	856.81
501.871	818.81
502.088	773.81
502.305	736.81
502.522	688.81
502.739	664.81
502.956	629.81
503.172	607.81
503.389	604.81
503.606	610.81
503.823	579.81
504.04	574.81
504.256	585.81
504.473	583.81
504.69	585.81
504.907	574.81
505.123	546.81
505.34	502.81
505.557	521.81
505.773	495.81
505.99	502.81
506.207	469.81
506.423	477.81
506.64	462.81
506.856	451.81
507.073	442.81
507.289	434.81
507.506	439.81
507.722	445.81
507.939	435.81
508.155	446.81
508.372	434.81
508.588	426.81
508.805	424.81
509.021	435.81
509.238	424.81
509.454	426.81
509.67	417.81
509.887	427.81
510.103	408.81
510.319	414.81
510.536	426.81
510.752	424.81
510.968	410.81
511.184	420.81
511.401	400.81
511.617	415.81
511.833	420.81
512.049	409.81
512.265	406.81
512.481	416.81
512.698	398.81
512.914	418.81
513.13	406.81
513.346	404.81
513.562	409.81
513.778	413.81
513.994	424.81
514.21	425.81
514.426	413.81
514.642	433.81
514.858	435.81
515.074	429.81
515.29	415.81
515.506	429.81
515.721	426.81
515.937	430.81
516.153	445.81
516.369	455.81
516.585	469.81
516.801	483.81
517.016	489.81
517.232	520.81
517.448	516.81
517.664	524.81
517.879	528.81
518.095	535.81
518.311	540.81
518.527	519.81
518.742	493.81
518.958	478.81
519.173	467.81
519.389	462.81
519.605	432.81
519.82	441.81
520.036	437.81
520.251	452.81
520.467	434.81
520.682	406.81
520.898	419.81
521.113	422.81
521.329	421.81
521.544	424.81
521.76	377.81
521.975	384.81
522.19	391.81
522.406	397.81
522.621	388.81
522.836	402.81
523.052	388.81
523.267	382.81
523.482	376.81
523.698	392.81
523.913	372.81
524.128	388.81
524.343	397.81
524.559	388.81
524.774	392.81
524.989	396.81
525.204	390.81
525.419	386.81
525.634	384.81
525.849	381.81
526.064	362.81
526.28	388.81
526.495	372.81
526.71	371.81
526.925	377.81
527.14	392.81
527.355	374.81
527.57	382.81
527.785	369.81
527.999	394.81
528.214	384.81
528.429	376.81
528.644	358.81
528.859	378.81
529.074	390.81
529.289	383.81
529.503	388.81
529.718	384.81
529.933	377.81
530.148	376.81
530.363	368.81
530.577	362.81
530.792	355.81
531.007	383.81
531.221	375.81
531.436	383.81
531.651	398.81
531.865	380.81
532.08	365.81
532.295	391.81
532.509	366.81
532.724	373.81
532.938	351.81
533.153	380.81
533.367	380.81
533.582	389.81
533.796	363.81
534.011	376.81
534.225	376.81
534.44	384.81
534.654	360.81
534.868	373.81
535.083	376.81
535.297	369.81
535.511	371.81
535.726	367.81
535.94	372.81
536.154	369.81
536.369	339.81
536.583	357.81
536.797	360.81
537.011	344.81
537.225	365.81
537.44	356.81
537.654	352.81
537.868	347.81
538.082	330.81
538.296	354.81
538.51	357.81
538.724	375.81
538.938	350.81
539.153	332.81
539.367	363.81
539.581	340.81
539.795	336.81
540.009	350.81
540.222	336.81
540.436	339.81
540.65	345.81
540.864	343.81
541.078	347.81
541.292	363.81
541.506	340.81
541.72	354.81
541.934	340.81
542.147	360.81
542.361	338.81
542.575	326.81
542.789	346.81
543.002	345.81
543.216	333.81
543.43	345.81
543.644	335.81
543.857	355.81
544.071	357.81
544.285	359.81
544.498	341.81
544.712	349.81
544.925	348.81
545.139	348.81
545.352	338.81
545.566	325.81
545.779	346.81
545.993	355.81
546.206	368.81
546.42	348.81
546.633	344.81
546.847	343.81
547.06	350.81
547.274	349.81
547.487	341.81
547.7	344.81
547.914	361.81
548.127	346.81
548.34	362.81
548.554	370.81
548.767	370.81
548.98	350.81
549.193	345.81
549.407	355.81
549.62	354.81
549.833	357.81
550.046	357.81
550.259	366.81
550.473	335.81
550.686	329.81
550.899	361.81
551.112	342.81
551.325	343.81
551.538	336.81
551.751	351.81
551.964	323.81
552.177	355.81
552.39	365.81
552.603	377.81
552.816	381.81
553.029	362.81
553.242	374.81
553.455	382.81
553.667	381.81
553.88	364.81
554.093	365.81
554.306	359.81
554.519	345.81
554.732	342.81
554.944	351.81
555.157	337.81
555.37	341.81
555.583	321.81
555.795	323.81
556.008	327.81
556.221	296.81
556.433	316.81
556.646	317.81
556.859	315.81
557.071	330.81
557.284	319.81
557.496	307.81
557.709	308.81
557.921	321.81
558.134	313.81
558.346	290.81
558.559	314.81
558.771	300.81
558.984	300.81
559.196	293.81
559.409	297.81
559.621	307.81
559.833	284.81
560.046	288.81
560.258	280.81
560.47	298.81
560.683	294.81
560.895	296.81
561.107	289.81
561.32	303.81
561.532	280.81
561.744	303.81
561.956	306.81
562.168	289.81
562.381	290.81
562.593	296.81
562.805	297.81
563.017	324.81
563.229	305.81
563.441	280.81
563.653	290.81
563.865	298.81
564.077	310.81
564.289	298.81
564.501	302.81
564.713	316.81
564.925	312.81
565.137	324.81
565.349	325.81
565.561	337.81
565.773	346.81
565.985	346.81
566.197	358.81
566.408	364.81
566.62	387.81
566.832	414.81
567.044	429.81
567.255	434.81
567.467	430.81
567.679	461.81
567.891	475.81
568.102	493.81
568.314	465.81
568.526	400.81
568.737	374.81
568.949	375.81
569.161	356.81
569.372	353.81
569.584	316.81
569.795	308.81
570.007	309.81
570.218	302.81
570.43	302.81
570.641	304.81
570.853	301.81
571.064	296.81
571.276	298.81
571.487	280.81
571.698	271.81
571.91	287.81
572.121	278.81
572.333	246.81
572.544	262.81
572.755	289.81
572.966	245.81
573.178	246.81
573.389	263.81
573.6	270.81
573.811	248.81
574.023	269.81
574.234	250.81
574.445	242.81
574.656	258.81
574.867	249.81
575.078	246.81
575.289	266.81
575.501	240.81
575.712	244.81
575.923	258.81
576.134	252.81
576.345	244.81
576.556	252.81
576.767	254.81
576.978	230.81
577.188	226.81
577.399	231.81
577.61	234.81
577.821	238.81
578.032	232.81
578.243	238.81
578.454	242.81
578.665	237.81
578.875	220.81
579.086	252.81
579.297	226.81
579.508	217.81
579.718	216.81
579.929	228.81
580.14	238.81
580.35	223.81
580.561	239.81
580.772	207.81
580.982	216.81
581.193	217.81
581.403	211.81
581.614	217.81
581.825	222.81
582.035	227.81
582.246	225.81
582.456	216.81
582.667	227.81
582.877	206.81
583.087	220.81
583.298	223.81
583.508	193.81
583.719	229.81
583.929	231.81
584.139	218.81
584.35	211.81
584.56	215.81
584.77	236.81
584.981	209.81
585.191	204.81
585.401	213.81
585.611	219.81
585.821	217.81
586.032	213.81
586.242	206.81
586.452	213.81
586.662	206.81
586.872	213.81
587.082	197.81
587.292	206.81
587.502	205.81
587.713	202.81
587.923	213.81
588.133	221.81
588.343	220.81
588.553	219.81
588.762	220.81
588.972	204.81
589.182	188.81
589.392	210.81
589.602	217.81
589.812	216.81
590.022	212.81
590.232	195.81
590.441	206.81
590.651	212.81
590.861	213.81
591.071	211.81
591.281	214.81
591.49	209.81
591.7	212.81
591.91	210.81
592.119	220.81
592.329	225.81
592.539	240.81
592.748	225.81
592.958	218.81
593.167	254.81
593.377	250.81
593.587	250.81
593.796	252.81
594.006	256.81
594.215	237.81
594.424	262.81
594.634	238.81
594.843	231.81
595.053	224.81
595.262	222.81
595.472	214.81
595.681	201.81
595.89	213.81
596.1	210.81
596.309	212.81
596.518	191.81
596.727	213.81
596.937	209.81
597.146	197.81
597.355	204.81
597.564	197.81
597.774	208.81
597.983	188.81
598.192	184.81
598.401	187.81
598.61	200.81
598.819	185.81
599.028	185.81
599.237	186.81
599.446	176.81
599.655	188.81
599.864	184.81
600.073	180.81
600.282	178.81
600.491	185.81
600.7	190.81
600.909	178.81
601.118	175.81
601.327	166.81
601.536	188.81
601.745	164.81
601.953	174.81
602.162	203.81
602.371	195.81
602.58	187.81
602.789	177.81
602.997	166.81
603.206	195.81
603.415	162.81
603.623	177.81
603.832	178.81
604.041	168.81
604.249	180.81
604.458	188.81
604.666	168.81
604.875	157.81
605.084	178.81
605.292	182.81
605.501	176.81
605.709	198.81
605.918	178.81
606.126	159.81
606.334	172.81
606.543	181.81
606.751	176.81
606.96	169.81
607.168	169.81
607.376	176.81
607.585	166.81
607.793	170.81
608.001	164.81
608.21	174.81
608.418	181.81
608.626	170.81
608.834	189.81
609.043	182.81
609.251	158.81
609.459	174.81
609.667	172.81
609.875	187.81
610.083	160.81
610.291	180.81
610.499	154.81
610.707	165.81
610.916	179.81
611.124	167.81
611.332	168.81
611.54	161.81
611.748	159.81
611.955	163.81
612.163	159.81
612.371	180.81
612.579	166.81
612.787	157.81
612.995	172.81
613.203	160.81
613.411	181.81
613.618	160.81
613.826	168.81
614.034	166.81
614.242	170.81
614.449	162.81
614.657	168.81
614.865	174.81
615.072	160.81
615.28	167.81
615.488	178.81
615.695	152.81
615.903	162.81
616.111	167.81
616.318	178.81
616.526	180.81
616.733	166.81
616.941	162.81
617.148	188.81
617.356	168.81
617.563	180.81
617.771	161.81
617.978	170.81
618.185	166.81
618.393	160.81
618.6	163.81
618.807	157.81
619.015	163.81
619.222	156.81
619.429	161.81
619.637	169.81
619.844	142.81
620.051	163.81
620.258	164.81
620.466	167.81
620.673	151.81
620.88	142.81
621.087	157.81
621.294	162.81
621.501	150.81
621.708	165.81
621.915	143.81
622.122	177.81
622.329	168.81
622.536	157.81
622.743	142.81
622.95	158.81
623.157	156.81
623.364	160.81
623.571	148.81
623.778	169.81
623.985	166.81
624.192	165.81
624.399	144.81
624.606	162.81
624.812	143.81
625.019	152.81
625.226	144.81
625.433	154.81
625.639	161.81
625.846	164.81
626.053	157.81
626.259	135.81
626.466	137.81
626.673	143.81
626.879	164.81
627.086	130.81
627.293	153.81
627.499	141.81
627.706	144.81
627.912	145.81
628.119	157.81
628.325	150.81
628.532	148.81
628.738	136.81
628.945	137.81
629.151	145.81
629.357	145.81
629.564	150.81
629.77	156.81
629.976	156.81
630.183	151.81
630.389	142.81
630.595	154.81
630.802	133.81
631.008	142.81
631.214	132.81
631.42	144.81
631.627	144.81
631.833	134.81
632.039	132.81
632.245	131.81
632.451	128.81
632.657	145.81
632.863	138.81
633.069	142.81
633.275	134.81
633.481	129.81
633.688	140.81
633.893	143.81
634.099	143.81
634.305	151.81
634.511	128.81
634.717	144.81
634.923	133.81
635.129	144.81
635.335	137.81
635.541	130.81
635.747	128.81
635.952	136.81
636.158	130.81
636.364	135.81
636.57	124.81
636.775	138.81
636.981	134.81
637.187	139.81
637.392	136.81
637.598	137.81
637.804	119.81
638.009	127.81
638.215	136.81
638.421	120.81
638.626	135.81
638.832	128.81
639.037	129.81
639.243	115.81
639.448	117.81
639.654	124.81
639.859	124.81
640.065	122.81
640.27	144.81
640.475	135.81
640.681	125.81
640.886	117.81
641.091	134.81
641.297	129.81
641.502	135.81
641.707	128.81
641.913	136.81
642.118	122.81
642.323	133.81
642.528	146.81
642.733	141.81
642.939	138.81
643.144	121.81
643.349	132.81
643.554	128.81
643.759	127.81
643.964	124.81
644.169	144.81
644.374	133.81
644.579	130.81
644.784	129.81
644.989	128.81
645.194	137.81
645.399	135.81
645.604	125.81
645.809	138.81
646.014	130.81
646.219	128.81
646.423	118.81
646.628	125.81
646.833	137.81
647.038	141.81
647.243	123.81
647.447	115.81
647.652	122.81
647.857	142.81
648.062	130.81
648.266	129.81
648.471	128.81
648.676	133.81
648.88	128.81
649.085	129.81
649.289	121.81
649.494	119.81
649.698	122.81
649.903	129.81
650.107	127.81
650.312	136.81
650.516	120.81
650.721	122.81
650.925	125.81
651.13	120.81
651.334	128.81
651.539	128.81
651.743	131.81
651.947	125.81
652.152	134.81
652.356	116.81
652.56	115.81
652.764	118.81
652.969	122.81
653.173	115.81
653.377	109.81
653.581	109.81
653.785	105.81
653.99	109.81
654.194	111.81
654.398	96.81
654.602	117.81
654.806	113.81
655.01	116.81
655.214	115.81
655.418	119.81
655.622	109.81
655.826	94.81
656.03	120.81
656.234	111.81
656.438	103.81
656.642	117.81
656.846	113.81
657.049	112.81
657.253	119.81
657.457	118.81
657.661	109.81
657.865	93.81
658.068	85.81
658.272	99.81
658.476	101.81
658.68	102.81
658.883	77.81
659.087	93.81
659.291	73.81
659.494	89.81
659.698	77.81
659.901	86.81
660.105	99.81
660.309	93.81
660.512	92.81
660.716	89.81
660.919	74.81
661.123	92.81
661.326	103.81
661.53	79.81
661.733	83.81
661.936	69.81
662.14	67.81
662.343	77.81
662.546	81.81
662.75	69.81
662.953	82.81
663.156	92.81
663.36	73.81
663.563	69.81
663.766	60.81
663.969	78.81
664.173	81.81
664.376	58.81
664.579	90.81
664.782	87.81
664.985	78.81
665.188	70.81
665.391	78.81
665.594	78.81
665.797	74.81
666	78.81
666.203	79.81
666.406	77.81
666.609	71.81
666.812	83.81
667.015	70.81
667.218	74.81
667.421	92.81
667.624	80.81
667.827	77.81
668.03	81.81
668.232	77.81
668.435	70.81
668.638	80.81
668.841	76.81
669.043	68.81
669.246	70.81
669.449	79.81
669.651	87.81
669.854	76.81
670.057	70.81
670.259	64.81
670.462	70.81
670.665	82.81
670.867	82.81
671.07	78.81
671.272	75.81
671.475	77.81
671.677	90.81
671.88	74.81
672.082	70.81
672.284	74.81
672.487	85.81
672.689	74.81
672.892	72.81
