Data from Fe(NO3)3@0.05M.TitratingCurve.Agarose3%dH2O.NegLispCup.LampEnergy10.LIBS07252019_HRD10591_16-47-10-334.txt Node
Date: Thu Jul 25 16:47:10 EDT 2019
User: cochatt
Spectrometer: HR+D1059
Trigger mode: 1
Integration Time (sec): 1.000000E-1
Scans to average: 1
Electric dark correction enabled: true
Nonlinearity correction enabled: false
Boxcar width: 0
XAxis mode: Wavelengths
Number of Pixels in Spectrum: 2048
>>>>>Begin Spectral Data<<<<<
223.165	-24.19
223.4	-24.19
223.635	-24.19
223.869	-15.19
224.104	-20.19
224.338	-12.19
224.573	-3.19
224.808	-20.19
225.042	-19.19
225.277	-18.19
225.511	4.81
225.746	10.81
225.98	3.81
226.215	15.81
226.449	11.81
226.683	16.81
226.918	27.81
227.152	40.81
227.387	28.81
227.621	35.81
227.856	46.81
228.09	52.81
228.324	45.81
228.559	49.81
228.793	74.81
229.027	87.81
229.262	81.81
229.496	72.81
229.73	92.81
229.964	101.81
230.199	96.81
230.433	105.81
230.667	102.81
230.901	117.81
231.136	103.81
231.37	114.81
231.604	109.81
231.838	115.81
232.072	108.81
232.306	118.81
232.541	123.81
232.775	107.81
233.009	105.81
233.243	118.81
233.477	119.81
233.711	122.81
233.945	119.81
234.179	111.81
234.413	115.81
234.647	124.81
234.881	124.81
235.115	126.81
235.349	126.81
235.583	120.81
235.817	122.81
236.051	123.81
236.285	104.81
236.519	122.81
236.753	138.81
236.987	133.81
237.221	125.81
237.455	115.81
237.689	119.81
237.922	126.81
238.156	124.81
238.39	120.81
238.624	147.81
238.858	126.81
239.091	116.81
239.325	127.81
239.559	130.81
239.793	128.81
240.027	125.81
240.26	145.81
240.494	138.81
240.728	132.81
240.961	133.81
241.195	135.81
241.429	142.81
241.662	137.81
241.896	137.81
242.13	140.81
242.363	135.81
242.597	134.81
242.83	154.81
243.064	156.81
243.298	139.81
243.531	147.81
243.765	155.81
243.998	147.81
244.232	141.81
244.465	143.81
244.699	139.81
244.932	142.81
245.166	143.81
245.399	152.81
245.633	142.81
245.866	150.81
246.099	146.81
246.333	163.81
246.566	137.81
246.8	140.81
247.033	156.81
247.266	150.81
247.5	150.81
247.733	140.81
247.966	154.81
248.2	152.81
248.433	163.81
248.666	161.81
248.899	164.81
249.133	145.81
249.366	169.81
249.599	168.81
249.832	163.81
250.066	160.81
250.299	166.81
250.532	167.81
250.765	176.81
250.998	164.81
251.231	169.81
251.465	176.81
251.698	173.81
251.931	159.81
252.164	184.81
252.397	184.81
252.63	183.81
252.863	202.81
253.096	203.81
253.329	176.81
253.562	190.81
253.795	173.81
254.028	175.81
254.261	182.81
254.494	182.81
254.727	205.81
254.96	203.81
255.193	203.81
255.426	184.81
255.659	169.81
255.892	184.81
256.124	182.81
256.357	197.81
256.59	180.81
256.823	177.81
257.056	205.81
257.289	193.81
257.521	200.81
257.754	183.81
257.987	185.81
258.22	187.81
258.452	200.81
258.685	202.81
258.918	198.81
259.151	210.81
259.383	201.81
259.616	188.81
259.849	213.81
260.081	221.81
260.314	234.81
260.547	207.81
260.779	214.81
261.012	205.81
261.244	192.81
261.477	210.81
261.71	217.81
261.942	215.81
262.175	210.81
262.407	215.81
262.64	205.81
262.872	222.81
263.105	221.81
263.337	217.81
263.57	230.81
263.802	203.81
264.035	208.81
264.267	207.81
264.499	214.81
264.732	206.81
264.964	207.81
265.197	220.81
265.429	226.81
265.661	212.81
265.894	226.81
266.126	209.81
266.358	214.81
266.591	227.81
266.823	219.81
267.055	222.81
267.287	226.81
267.52	207.81
267.752	216.81
267.984	203.81
268.216	230.81
268.448	221.81
268.681	237.81
268.913	229.81
269.145	233.81
269.377	221.81
269.609	243.81
269.841	207.81
270.073	227.81
270.306	232.81
270.538	235.81
270.77	241.81
271.002	222.81
271.234	238.81
271.466	246.81
271.698	244.81
271.93	243.81
272.162	239.81
272.394	227.81
272.626	242.81
272.858	250.81
273.09	251.81
273.322	244.81
273.553	238.81
273.785	242.81
274.017	240.81
274.249	268.81
274.481	262.81
274.713	270.81
274.945	281.81
275.176	273.81
275.408	272.81
275.64	259.81
275.872	255.81
276.104	246.81
276.335	254.81
276.567	244.81
276.799	269.81
277.031	265.81
277.262	267.81
277.494	272.81
277.726	252.81
277.957	255.81
278.189	253.81
278.421	244.81
278.652	277.81
278.884	269.81
279.115	258.81
279.347	272.81
279.579	266.81
279.81	275.81
280.042	260.81
280.273	254.81
280.505	261.81
280.736	268.81
280.968	282.81
281.199	260.81
281.431	286.81
281.662	270.81
281.894	264.81
282.125	287.81
282.356	279.81
282.588	274.81
282.819	279.81
283.051	279.81
283.282	290.81
283.513	291.81
283.745	270.81
283.976	269.81
284.207	294.81
284.439	285.81
284.67	286.81
284.901	276.81
285.132	289.81
285.364	297.81
285.595	286.81
285.826	297.81
286.057	290.81
286.288	298.81
286.52	284.81
286.751	310.81
286.982	282.81
287.213	293.81
287.444	310.81
287.675	287.81
287.906	309.81
288.138	296.81
288.369	294.81
288.6	291.81
288.831	311.81
289.062	314.81
289.293	307.81
289.524	290.81
289.755	299.81
289.986	303.81
290.217	293.81
290.448	317.81
290.679	309.81
290.91	304.81
291.141	298.81
291.371	316.81
291.602	301.81
291.833	301.81
292.064	281.81
292.295	294.81
292.526	292.81
292.757	307.81
292.987	323.81
293.218	312.81
293.449	320.81
293.68	311.81
293.91	330.81
294.141	301.81
294.372	310.81
294.603	312.81
294.833	300.81
295.064	314.81
295.295	327.81
295.525	306.81
295.756	323.81
295.987	306.81
296.217	334.81
296.448	324.81
296.679	298.81
296.909	315.81
297.14	323.81
297.37	306.81
297.601	325.81
297.831	315.81
298.062	324.81
298.292	315.81
298.523	313.81
298.753	334.81
298.984	324.81
299.214	319.81
299.445	338.81
299.675	326.81
299.905	335.81
300.136	305.81
300.366	313.81
300.597	334.81
300.827	335.81
301.057	350.81
301.288	340.81
301.518	348.81
301.748	352.81
301.979	347.81
302.209	364.81
302.439	343.81
302.669	345.81
302.9	346.81
303.13	322.81
303.36	325.81
303.59	342.81
303.82	351.81
304.051	342.81
304.281	350.81
304.511	338.81
304.741	359.81
304.971	348.81
305.201	343.81
305.431	326.81
305.661	336.81
305.891	346.81
306.121	312.81
306.352	324.81
306.582	353.81
306.812	344.81
307.042	360.81
307.272	331.81
307.502	344.81
307.731	362.81
307.961	350.81
308.191	357.81
308.421	329.81
308.651	336.81
308.881	333.81
309.111	349.81
309.341	360.81
309.571	353.81
309.8	337.81
310.03	358.81
310.26	361.81
310.49	349.81
310.72	348.81
310.949	347.81
311.179	340.81
311.409	343.81
311.639	372.81
311.868	365.81
312.098	358.81
312.328	344.81
312.557	362.81
312.787	357.81
313.017	377.81
313.246	359.81
313.476	344.81
313.706	355.81
313.935	367.81
314.165	354.81
314.394	367.81
314.624	391.81
314.853	371.81
315.083	370.81
315.312	381.81
315.542	378.81
315.771	359.81
316.001	370.81
316.23	366.81
316.46	378.81
316.689	366.81
316.919	328.81
317.148	373.81
317.377	382.81
317.607	364.81
317.836	382.81
318.065	337.81
318.295	374.81
318.524	374.81
318.753	358.81
318.983	386.81
319.212	373.81
319.441	367.81
319.67	386.81
319.9	380.81
320.129	358.81
320.358	382.81
320.587	375.81
320.816	377.81
321.046	364.81
321.275	398.81
321.504	398.81
321.733	372.81
321.962	379.81
322.191	391.81
322.42	379.81
322.649	377.81
322.878	364.81
323.108	370.81
323.337	360.81
323.566	370.81
323.795	376.81
324.024	383.81
324.253	393.81
324.482	383.81
324.71	378.81
324.939	390.81
325.168	370.81
325.397	389.81
325.626	386.81
325.855	390.81
326.084	393.81
326.313	414.81
326.542	396.81
326.77	397.81
326.999	397.81
327.228	397.81
327.457	391.81
327.686	394.81
327.914	398.81
328.143	393.81
328.372	396.81
328.6	404.81
328.829	403.81
329.058	418.81
329.287	396.81
329.515	432.81
329.744	405.81
329.972	408.81
330.201	401.81
330.43	396.81
330.658	394.81
330.887	412.81
331.115	414.81
331.344	407.81
331.572	421.81
331.801	452.81
332.03	431.81
332.258	425.81
332.486	421.81
332.715	458.81
332.943	463.81
333.172	465.81
333.4	463.81
333.629	488.81
333.857	500.81
334.085	508.81
334.314	519.81
334.542	478.81
334.771	482.81
334.999	489.81
335.227	480.81
335.455	477.81
335.684	492.81
335.912	480.81
336.14	467.81
336.369	470.81
336.597	484.81
336.825	480.81
337.053	484.81
337.281	469.81
337.51	460.81
337.738	472.81
337.966	448.81
338.194	454.81
338.422	436.81
338.65	466.81
338.878	453.81
339.106	409.81
339.334	427.81
339.562	442.81
339.79	423.81
340.018	430.81
340.246	437.81
340.474	446.81
340.702	409.81
340.93	441.81
341.158	426.81
341.386	430.81
341.614	431.81
341.842	429.81
342.07	422.81
342.298	420.81
342.526	426.81
342.754	424.81
342.981	426.81
343.209	436.81
343.437	443.81
343.665	455.81
343.893	485.81
344.12	491.81
344.348	475.81
344.576	463.81
344.804	452.81
345.031	447.81
345.259	432.81
345.487	427.81
345.714	408.81
345.942	417.81
346.17	430.81
346.397	404.81
346.625	404.81
346.853	417.81
347.08	392.81
347.308	406.81
347.535	424.81
347.763	404.81
347.99	396.81
348.218	426.81
348.445	407.81
348.673	396.81
348.9	401.81
349.128	408.81
349.355	411.81
349.583	412.81
349.81	409.81
350.037	397.81
350.265	411.81
350.492	390.81
350.72	406.81
350.947	395.81
351.174	386.81
351.402	401.81
351.629	412.81
351.856	388.81
352.083	400.81
352.311	408.81
352.538	400.81
352.765	384.81
352.992	407.81
353.22	378.81
353.447	382.81
353.674	402.81
353.901	388.81
354.128	404.81
354.355	412.81
354.583	394.81
354.81	415.81
355.037	400.81
355.264	411.81
355.491	382.81
355.718	406.81
355.945	401.81
356.172	395.81
356.399	390.81
356.626	395.81
356.853	398.81
357.08	406.81
357.307	393.81
357.534	384.81
357.761	412.81
357.988	401.81
358.215	430.81
358.441	389.81
358.668	416.81
358.895	431.81
359.122	389.81
359.349	386.81
359.576	385.81
359.802	406.81
360.029	386.81
360.256	400.81
360.483	401.81
360.709	434.81
360.936	417.81
361.163	401.81
361.39	412.81
361.616	418.81
361.843	437.81
362.07	408.81
362.296	386.81
362.523	408.81
362.749	412.81
362.976	396.81
363.203	412.81
363.429	431.81
363.656	418.81
363.882	389.81
364.109	404.81
364.335	420.81
364.562	398.81
364.788	390.81
365.015	429.81
365.241	401.81
365.468	412.81
365.694	435.81
365.92	407.81
366.147	406.81
366.373	394.81
366.599	429.81
366.826	400.81
367.052	405.81
367.278	416.81
367.505	396.81
367.731	405.81
367.957	418.81
368.184	425.81
368.41	420.81
368.636	419.81
368.862	428.81
369.089	423.81
369.315	408.81
369.541	403.81
369.767	405.81
369.993	429.81
370.219	437.81
370.445	427.81
370.672	424.81
370.898	436.81
371.124	451.81
371.35	444.81
371.576	449.81
371.802	430.81
372.028	446.81
372.254	471.81
372.48	462.81
372.706	457.81
372.932	468.81
373.158	452.81
373.384	470.81
373.61	468.81
373.835	461.81
374.061	463.81
374.287	470.81
374.513	463.81
374.739	462.81
374.965	476.81
375.191	493.81
375.416	469.81
375.642	464.81
375.868	480.81
376.094	462.81
376.319	457.81
376.545	444.81
376.771	451.81
376.997	462.81
377.222	449.81
377.448	453.81
377.674	458.81
377.899	456.81
378.125	444.81
378.35	453.81
378.576	443.81
378.802	462.81
379.027	451.81
379.253	466.81
379.478	441.81
379.704	439.81
379.929	471.81
380.155	456.81
380.38	440.81
380.606	456.81
380.831	452.81
381.057	451.81
381.282	466.81
381.507	454.81
381.733	456.81
381.958	452.81
382.184	482.81
382.409	473.81
382.634	493.81
382.86	471.81
383.085	474.81
383.31	485.81
383.535	492.81
383.761	480.81
383.986	490.81
384.211	499.81
384.436	505.81
384.662	508.81
384.887	513.81
385.112	539.81
385.337	514.81
385.562	519.81
385.787	517.81
386.013	540.81
386.238	539.81
386.463	527.81
386.688	535.81
386.913	524.81
387.138	541.81
387.363	550.81
387.588	523.81
387.813	550.81
388.038	525.81
388.263	536.81
388.488	556.81
388.713	541.81
388.938	548.81
389.163	528.81
389.387	548.81
389.612	519.81
389.837	525.81
390.062	528.81
390.287	541.81
390.512	529.81
390.736	547.81
390.961	546.81
391.186	536.81
391.411	564.81
391.636	562.81
391.86	570.81
392.085	580.81
392.31	621.81
392.534	589.81
392.759	597.81
392.984	582.81
393.208	586.81
393.433	583.81
393.658	561.81
393.882	587.81
394.107	559.81
394.331	554.81
394.556	592.81
394.78	574.81
395.005	557.81
395.229	587.81
395.454	597.81
395.678	591.81
395.903	607.81
396.127	595.81
396.352	560.81
396.576	565.81
396.801	579.81
397.025	612.81
397.249	615.81
397.474	613.81
397.698	586.81
397.922	592.81
398.147	612.81
398.371	636.81
398.595	632.81
398.82	638.81
399.044	685.81
399.268	731.81
399.492	818.81
399.717	858.81
399.941	839.81
400.165	780.81
400.389	791.81
400.613	729.81
400.837	694.81
401.062	680.81
401.286	664.81
401.51	665.81
401.734	668.81
401.958	662.81
402.182	655.81
402.406	692.81
402.63	678.81
402.854	684.81
403.078	692.81
403.302	682.81
403.526	704.81
403.75	699.81
403.974	702.81
404.198	704.81
404.422	690.81
404.645	703.81
404.869	700.81
405.093	725.81
405.317	698.81
405.541	706.81
405.765	692.81
405.988	703.81
406.212	736.81
406.436	715.81
406.66	733.81
406.883	732.81
407.107	775.81
407.331	815.81
407.555	789.81
407.778	781.81
408.002	798.81
408.226	778.81
408.449	780.81
408.673	732.81
408.896	737.81
409.12	724.81
409.344	717.81
409.567	730.81
409.791	726.81
410.014	720.81
410.238	734.81
410.461	720.81
410.685	712.81
410.908	695.81
411.132	675.81
411.355	698.81
411.578	706.81
411.802	701.81
412.025	709.81
412.249	704.81
412.472	685.81
412.695	702.81
412.919	688.81
413.142	686.81
413.365	668.81
413.589	684.81
413.812	678.81
414.035	678.81
414.258	679.81
414.482	678.81
414.705	668.81
414.928	692.81
415.151	663.81
415.374	694.81
415.597	670.81
415.821	649.81
416.044	640.81
416.267	656.81
416.49	621.81
416.713	636.81
416.936	655.81
417.159	655.81
417.382	670.81
417.605	650.81
417.828	668.81
418.051	661.81
418.274	694.81
418.497	667.81
418.72	667.81
418.943	675.81
419.166	704.81
419.389	724.81
419.611	731.81
419.834	716.81
420.057	696.81
420.28	666.81
420.503	658.81
420.726	656.81
420.948	666.81
421.171	662.81
421.394	662.81
421.617	652.81
421.839	646.81
422.062	678.81
422.285	638.81
422.507	646.81
422.73	667.81
422.953	673.81
423.175	666.81
423.398	672.81
423.621	648.81
423.843	650.81
424.066	685.81
424.288	675.81
424.511	688.81
424.733	639.81
424.956	664.81
425.178	661.81
425.401	630.81
425.623	639.81
425.846	635.81
426.068	638.81
426.291	614.81
426.513	631.81
426.735	623.81
426.958	610.81
427.18	628.81
427.402	588.81
427.625	619.81
427.847	615.81
428.069	631.81
428.292	623.81
428.514	606.81
428.736	620.81
428.958	611.81
429.181	587.81
429.403	605.81
429.625	607.81
429.847	586.81
430.069	591.81
430.292	587.81
430.514	592.81
430.736	626.81
430.958	606.81
431.18	591.81
431.402	591.81
431.624	593.81
431.846	585.81
432.068	601.81
432.29	598.81
432.512	615.81
432.734	597.81
432.956	612.81
433.178	634.81
433.4	598.81
433.622	599.81
433.844	624.81
434.066	619.81
434.287	601.81
434.509	616.81
434.731	641.81
434.953	626.81
435.175	671.81
435.397	672.81
435.618	612.81
435.84	628.81
436.062	627.81
436.284	618.81
436.505	598.81
436.727	613.81
436.949	587.81
437.17	617.81
437.392	609.81
437.614	608.81
437.835	591.81
438.057	585.81
438.278	591.81
438.5	589.81
438.721	603.81
438.943	595.81
439.165	605.81
439.386	596.81
439.608	620.81
439.829	610.81
440.05	588.81
440.272	609.81
440.493	617.81
440.715	636.81
440.936	634.81
441.158	630.81
441.379	617.81
441.6	638.81
441.822	635.81
442.043	662.81
442.264	651.81
442.486	656.81
442.707	622.81
442.928	653.81
443.149	651.81
443.371	650.81
443.592	665.81
443.813	680.81
444.034	648.81
444.255	671.81
444.476	706.81
444.698	739.81
444.919	716.81
445.14	788.81
445.361	738.81
445.582	682.81
445.803	663.81
446.024	651.81
446.245	656.81
446.466	639.81
446.687	608.81
446.908	633.81
447.129	612.81
447.35	591.81
447.571	623.81
447.792	593.81
448.013	588.81
448.234	562.81
448.455	589.81
448.675	546.81
448.896	571.81
449.117	570.81
449.338	573.81
449.559	568.81
449.779	582.81
450	566.81
450.221	619.81
450.442	597.81
450.662	586.81
450.883	566.81
451.104	556.81
451.324	563.81
451.545	567.81
451.766	578.81
451.986	552.81
452.207	560.81
452.428	560.81
452.648	558.81
452.869	532.81
453.089	546.81
453.31	543.81
453.53	536.81
453.751	556.81
453.971	536.81
454.192	521.81
454.412	523.81
454.633	552.81
454.853	520.81
455.073	516.81
455.294	542.81
455.514	544.81
455.734	571.81
455.955	545.81
456.175	528.81
456.395	511.81
456.616	541.81
456.836	522.81
457.056	520.81
457.276	543.81
457.497	559.81
457.717	535.81
457.937	523.81
458.157	564.81
458.377	548.81
458.598	551.81
458.818	558.81
459.038	575.81
459.258	584.81
459.478	623.81
459.698	598.81
459.918	640.81
460.138	629.81
460.358	646.81
460.578	674.81
460.798	679.81
461.018	674.81
461.238	706.81
461.458	688.81
461.678	688.81
461.898	711.81
462.118	735.81
462.338	723.81
462.558	761.81
462.777	777.81
462.997	799.81
463.217	815.81
463.437	823.81
463.657	796.81
463.876	818.81
464.096	756.81
464.316	767.81
464.536	754.81
464.755	718.81
464.975	736.81
465.195	698.81
465.414	682.81
465.634	628.81
465.854	649.81
466.073	612.81
466.293	631.81
466.512	610.81
466.732	602.81
466.951	602.81
467.171	606.81
467.391	615.81
467.61	598.81
467.829	611.81
468.049	591.81
468.268	569.81
468.488	556.81
468.707	574.81
468.927	594.81
469.146	574.81
469.365	589.81
469.585	570.81
469.804	579.81
470.023	601.81
470.243	587.81
470.462	599.81
470.681	609.81
470.901	602.81
471.12	604.81
471.339	605.81
471.558	582.81
471.777	583.81
471.997	591.81
472.216	582.81
472.435	591.81
472.654	563.81
472.873	550.81
473.092	537.81
473.311	578.81
473.53	572.81
473.749	556.81
473.968	566.81
474.187	566.81
474.406	541.81
474.625	582.81
474.844	578.81
475.063	574.81
475.282	578.81
475.501	575.81
475.72	578.81
475.939	573.81
476.158	584.81
476.377	598.81
476.596	597.81
476.814	607.81
477.033	602.81
477.252	592.81
477.471	597.81
477.69	608.81
477.908	615.81
478.127	648.81
478.346	655.81
478.564	648.81
478.783	663.81
479.002	682.81
479.22	696.81
479.439	694.81
479.658	653.81
479.876	686.81
480.095	669.81
480.313	680.81
480.532	696.81
480.751	694.81
480.969	696.81
481.188	663.81
481.406	665.81
481.624	656.81
481.843	658.81
482.061	641.81
482.28	622.81
482.498	656.81
482.717	611.81
482.935	646.81
483.153	629.81
483.372	650.81
483.59	636.81
483.808	623.81
484.027	612.81
484.245	639.81
484.463	666.81
484.681	657.81
484.9	616.81
485.118	659.81
485.336	650.81
485.554	638.81
485.772	669.81
485.99	674.81
486.209	662.81
486.427	676.81
486.645	663.81
486.863	650.81
487.081	658.81
487.299	651.81
487.517	652.81
487.735	665.81
487.953	677.81
488.171	685.81
488.389	680.81
488.607	644.81
488.825	639.81
489.043	661.81
489.261	644.81
489.479	688.81
489.696	647.81
489.914	651.81
490.132	665.81
490.35	656.81
490.568	663.81
490.786	692.81
491.003	670.81
491.221	684.81
491.439	662.81
491.657	674.81
491.874	684.81
492.092	714.81
492.31	702.81
492.527	718.81
492.745	685.81
492.963	685.81
493.18	692.81
493.398	702.81
493.615	698.81
493.833	713.81
494.05	724.81
494.268	724.81
494.485	685.81
494.703	692.81
494.92	702.81
495.138	696.81
495.355	731.81
495.573	726.81
495.79	710.81
496.008	716.81
496.225	738.81
496.442	745.81
496.66	743.81
496.877	775.81
497.094	779.81
497.312	802.81
497.529	794.81
497.746	815.81
497.963	846.81
498.181	839.81
498.398	888.81
498.615	909.81
498.832	959.81
499.049	1023.81
499.267	1079.81
499.484	1113.81
499.701	1257.81
499.918	1327.81
500.135	1422.81
500.352	1540.81
500.569	1575.81
500.786	1558.81
501.003	1510.81
501.22	1401.81
501.437	1286.81
501.654	1200.81
501.871	1112.81
502.088	1081.81
502.305	997.81
502.522	959.81
502.739	938.81
502.956	877.81
503.172	847.81
503.389	845.81
503.606	800.81
503.823	788.81
504.04	796.81
504.256	791.81
504.473	807.81
504.69	784.81
504.907	800.81
505.123	739.81
505.34	727.81
505.557	700.81
505.773	718.81
505.99	678.81
506.207	678.81
506.423	650.81
506.64	662.81
506.856	656.81
507.073	654.81
507.289	640.81
507.506	607.81
507.722	623.81
507.939	646.81
508.155	630.81
508.372	585.81
508.588	602.81
508.805	598.81
509.021	607.81
509.238	601.81
509.454	595.81
509.67	576.81
509.887	582.81
510.103	580.81
510.319	583.81
510.536	583.81
510.752	580.81
510.968	578.81
511.184	560.81
511.401	552.81
511.617	574.81
511.833	556.81
512.049	553.81
512.265	567.81
512.481	564.81
512.698	570.81
512.914	573.81
513.13	569.81
513.346	593.81
513.562	566.81
513.778	566.81
513.994	601.81
514.21	571.81
514.426	588.81
514.642	580.81
514.858	578.81
515.074	584.81
515.29	555.81
515.506	601.81
515.721	598.81
515.937	590.81
516.153	598.81
516.369	601.81
516.585	660.81
516.801	660.81
517.016	675.81
517.232	690.81
517.448	711.81
517.664	713.81
517.879	715.81
518.095	715.81
518.311	701.81
518.527	701.81
518.742	697.81
518.958	661.81
519.173	642.81
519.389	618.81
519.605	632.81
519.82	592.81
520.036	604.81
520.251	584.81
520.467	584.81
520.682	551.81
520.898	574.81
521.113	574.81
521.329	558.81
521.544	557.81
521.76	558.81
521.975	536.81
522.19	543.81
522.406	554.81
522.621	535.81
522.836	528.81
523.052	537.81
523.267	539.81
523.482	543.81
523.698	539.81
523.913	528.81
524.128	543.81
524.343	537.81
524.559	525.81
524.774	528.81
524.989	528.81
525.204	535.81
525.419	518.81
525.634	512.81
525.849	526.81
526.064	525.81
526.28	516.81
526.495	532.81
526.71	532.81
526.925	511.81
527.14	527.81
527.355	518.81
527.57	506.81
527.785	508.81
527.999	505.81
528.214	534.81
528.429	506.81
528.644	524.81
528.859	509.81
529.074	514.81
529.289	518.81
529.503	519.81
529.718	520.81
529.933	521.81
530.148	508.81
530.363	522.81
530.577	518.81
530.792	504.81
531.007	496.81
531.221	504.81
531.436	528.81
531.651	519.81
531.865	508.81
532.08	496.81
532.295	527.81
532.509	498.81
532.724	510.81
532.938	500.81
533.153	522.81
533.367	492.81
533.582	504.81
533.796	516.81
534.011	547.81
534.225	499.81
534.44	503.81
534.654	490.81
534.868	494.81
535.083	492.81
535.297	487.81
535.511	476.81
535.726	486.81
535.94	475.81
536.154	489.81
536.369	491.81
536.583	501.81
536.797	487.81
537.011	492.81
537.225	476.81
537.44	478.81
537.654	475.81
537.868	468.81
538.082	484.81
538.296	478.81
538.51	484.81
538.724	457.81
538.938	468.81
539.153	458.81
539.367	458.81
539.581	444.81
539.795	464.81
540.009	470.81
540.222	474.81
540.436	483.81
540.65	475.81
540.864	467.81
541.078	447.81
541.292	472.81
541.506	493.81
541.72	488.81
541.934	491.81
542.147	493.81
542.361	461.81
542.575	457.81
542.789	470.81
543.002	482.81
543.216	449.81
543.43	450.81
543.644	470.81
543.857	465.81
544.071	484.81
544.285	471.81
544.498	462.81
544.712	463.81
544.925	503.81
545.139	467.81
545.352	454.81
545.566	474.81
545.779	483.81
545.993	466.81
546.206	478.81
546.42	488.81
546.633	483.81
546.847	463.81
547.06	504.81
547.274	469.81
547.487	491.81
547.7	482.81
547.914	489.81
548.127	496.81
548.34	484.81
548.554	490.81
548.767	479.81
548.98	484.81
549.193	474.81
549.407	491.81
549.62	488.81
549.833	497.81
550.046	496.81
550.259	494.81
550.473	468.81
550.686	475.81
550.899	476.81
551.112	469.81
551.325	467.81
551.538	496.81
551.751	468.81
551.964	458.81
552.177	478.81
552.39	473.81
552.603	478.81
552.816	509.81
553.029	501.81
553.242	493.81
553.455	501.81
553.667	501.81
553.88	474.81
554.093	499.81
554.306	472.81
554.519	468.81
554.732	464.81
554.944	452.81
555.157	460.81
555.37	458.81
555.583	443.81
555.795	444.81
556.008	462.81
556.221	448.81
556.433	423.81
556.646	414.81
556.859	437.81
557.071	422.81
557.284	424.81
557.496	421.81
557.709	416.81
557.921	415.81
558.134	419.81
558.346	418.81
558.559	409.81
558.771	405.81
558.984	393.81
559.196	414.81
559.409	408.81
559.621	411.81
559.833	406.81
560.046	408.81
560.258	410.81
560.47	417.81
560.683	382.81
560.895	403.81
561.107	418.81
561.32	398.81
561.532	406.81
561.744	389.81
561.956	420.81
562.168	399.81
562.381	397.81
562.593	413.81
562.805	410.81
563.017	412.81
563.229	425.81
563.441	380.81
563.653	412.81
563.865	406.81
564.077	416.81
564.289	397.81
564.501	428.81
564.713	452.81
564.925	450.81
565.137	437.81
565.349	449.81
565.561	453.81
565.773	473.81
565.985	463.81
566.197	471.81
566.408	534.81
566.62	541.81
566.832	558.81
567.044	571.81
567.255	585.81
567.467	584.81
567.679	603.81
567.891	612.81
568.102	629.81
568.314	589.81
568.526	560.81
568.737	511.81
568.949	512.81
569.161	458.81
569.372	462.81
569.584	460.81
569.795	445.81
570.007	428.81
570.218	420.81
570.43	415.81
570.641	411.81
570.853	418.81
571.064	418.81
571.276	401.81
571.487	393.81
571.698	385.81
571.91	385.81
572.121	366.81
572.333	370.81
572.544	348.81
572.755	354.81
572.966	344.81
573.178	351.81
573.389	334.81
573.6	344.81
573.811	326.81
574.023	315.81
574.234	326.81
574.445	345.81
574.656	340.81
574.867	334.81
575.078	332.81
575.289	321.81
575.501	338.81
575.712	326.81
575.923	313.81
576.134	322.81
576.345	324.81
576.556	323.81
576.767	313.81
576.978	330.81
577.188	326.81
577.399	336.81
577.61	327.81
577.821	325.81
578.032	337.81
578.243	318.81
578.454	320.81
578.665	295.81
578.875	322.81
579.086	302.81
579.297	300.81
579.508	304.81
579.718	310.81
579.929	300.81
580.14	290.81
580.35	300.81
580.561	320.81
580.772	312.81
580.982	282.81
581.193	297.81
581.403	301.81
581.614	287.81
581.825	282.81
582.035	279.81
582.246	304.81
582.456	296.81
582.667	272.81
582.877	297.81
583.087	297.81
583.298	294.81
583.508	287.81
583.719	284.81
583.929	292.81
584.139	285.81
584.35	278.81
584.56	280.81
584.77	283.81
584.981	276.81
585.191	279.81
585.401	287.81
585.611	286.81
585.821	276.81
586.032	299.81
586.242	288.81
586.452	291.81
586.662	295.81
586.872	274.81
587.082	280.81
587.292	288.81
587.502	291.81
587.713	292.81
587.923	273.81
588.133	262.81
588.343	270.81
588.553	261.81
588.762	279.81
588.972	275.81
589.182	285.81
589.392	294.81
589.602	276.81
589.812	288.81
590.022	293.81
590.232	294.81
590.441	266.81
590.651	283.81
590.861	294.81
591.071	270.81
591.281	299.81
591.49	294.81
591.7	284.81
591.91	278.81
592.119	289.81
592.329	290.81
592.539	299.81
592.748	303.81
592.958	316.81
593.167	315.81
593.377	328.81
593.587	326.81
593.796	334.81
594.006	324.81
594.215	324.81
594.424	323.81
594.634	318.81
594.843	312.81
595.053	302.81
595.262	287.81
595.472	307.81
595.681	299.81
595.89	277.81
596.1	295.81
596.309	271.81
596.518	278.81
596.727	254.81
596.937	266.81
597.146	258.81
597.355	259.81
597.564	259.81
597.774	268.81
597.983	267.81
598.192	249.81
598.401	256.81
598.61	257.81
598.819	259.81
599.028	228.81
599.237	235.81
599.446	235.81
599.655	239.81
599.864	247.81
600.073	219.81
600.282	258.81
600.491	239.81
600.7	246.81
600.909	250.81
601.118	242.81
601.327	240.81
601.536	218.81
601.745	231.81
601.953	229.81
602.162	246.81
602.371	251.81
602.58	232.81
602.789	218.81
602.997	225.81
603.206	244.81
603.415	235.81
603.623	231.81
603.832	244.81
604.041	246.81
604.249	211.81
604.458	239.81
604.666	224.81
604.875	221.81
605.084	219.81
605.292	215.81
605.501	232.81
605.709	221.81
605.918	232.81
606.126	235.81
606.334	217.81
606.543	213.81
606.751	230.81
606.96	227.81
607.168	228.81
607.376	231.81
607.585	224.81
607.793	220.81
608.001	231.81
608.21	238.81
608.418	219.81
608.626	219.81
608.834	220.81
609.043	211.81
609.251	239.81
609.459	219.81
609.667	234.81
609.875	222.81
610.083	229.81
610.291	223.81
610.499	236.81
610.707	218.81
610.916	214.81
611.124	199.81
611.332	207.81
611.54	210.81
611.748	220.81
611.955	232.81
612.163	215.81
612.371	205.81
612.579	190.81
612.787	206.81
612.995	221.81
613.203	207.81
613.411	197.81
613.618	215.81
613.826	218.81
614.034	213.81
614.242	219.81
614.449	219.81
614.657	207.81
614.865	207.81
615.072	203.81
615.28	219.81
615.488	227.81
615.695	206.81
615.903	221.81
616.111	219.81
616.318	219.81
616.526	202.81
616.733	210.81
616.941	198.81
617.148	207.81
617.356	208.81
617.563	218.81
617.771	199.81
617.978	219.81
618.185	201.81
618.393	208.81
618.6	196.81
618.807	211.81
619.015	222.81
619.222	201.81
619.429	214.81
619.637	221.81
619.844	204.81
620.051	216.81
620.258	201.81
620.466	200.81
620.673	206.81
620.88	201.81
621.087	199.81
621.294	199.81
621.501	194.81
621.708	210.81
621.915	215.81
622.122	200.81
622.329	196.81
622.536	207.81
622.743	203.81
622.95	186.81
623.157	207.81
623.364	194.81
623.571	206.81
623.778	186.81
623.985	186.81
624.192	187.81
624.399	203.81
624.606	197.81
624.812	190.81
625.019	197.81
625.226	199.81
625.433	187.81
625.639	184.81
625.846	191.81
626.053	187.81
626.259	181.81
626.466	184.81
626.673	194.81
626.879	176.81
627.086	174.81
627.293	173.81
627.499	192.81
627.706	186.81
627.912	198.81
628.119	189.81
628.325	184.81
628.532	172.81
628.738	175.81
628.945	183.81
629.151	196.81
629.357	180.81
629.564	188.81
629.77	173.81
629.976	192.81
630.183	186.81
630.389	179.81
630.595	179.81
630.802	179.81
631.008	182.81
631.214	182.81
631.42	171.81
631.627	170.81
631.833	176.81
632.039	183.81
632.245	190.81
632.451	180.81
632.657	168.81
632.863	187.81
633.069	174.81
633.275	172.81
633.481	181.81
633.688	174.81
633.893	171.81
634.099	171.81
634.305	171.81
634.511	171.81
634.717	173.81
634.923	173.81
635.129	168.81
635.335	183.81
635.541	177.81
635.747	178.81
635.952	153.81
636.158	154.81
636.364	153.81
636.57	181.81
636.775	168.81
636.981	181.81
637.187	170.81
637.392	169.81
637.598	157.81
637.804	160.81
638.009	143.81
638.215	178.81
638.421	165.81
638.626	152.81
638.832	174.81
639.037	162.81
639.243	150.81
639.448	144.81
639.654	163.81
639.859	166.81
640.065	172.81
640.27	169.81
640.475	159.81
640.681	144.81
640.886	150.81
641.091	174.81
641.297	171.81
641.502	158.81
641.707	165.81
641.913	167.81
642.118	150.81
642.323	159.81
642.528	153.81
642.733	148.81
642.939	151.81
643.144	165.81
643.349	165.81
643.554	147.81
643.759	167.81
643.964	144.81
644.169	156.81
644.374	170.81
644.579	155.81
644.784	168.81
644.989	154.81
645.194	159.81
645.399	144.81
645.604	158.81
645.809	147.81
646.014	142.81
646.219	140.81
646.423	155.81
646.628	156.81
646.833	152.81
647.038	158.81
647.243	157.81
647.447	144.81
647.652	150.81
647.857	173.81
648.062	148.81
648.266	150.81
648.471	152.81
648.676	159.81
648.88	148.81
649.085	158.81
649.289	148.81
649.494	149.81
649.698	152.81
649.903	152.81
650.107	159.81
650.312	146.81
650.516	152.81
650.721	143.81
650.925	166.81
651.13	148.81
651.334	145.81
651.539	137.81
651.743	147.81
651.947	150.81
652.152	147.81
652.356	139.81
652.56	144.81
652.764	142.81
652.969	141.81
653.173	151.81
653.377	138.81
653.581	131.81
653.785	148.81
653.99	132.81
654.194	145.81
654.398	141.81
654.602	135.81
654.806	140.81
655.01	125.81
655.214	128.81
655.418	131.81
655.622	124.81
655.826	109.81
656.03	136.81
656.234	134.81
656.438	130.81
656.642	116.81
656.846	136.81
657.049	108.81
657.253	120.81
657.457	129.81
657.661	128.81
657.865	125.81
658.068	118.81
658.272	120.81
658.476	117.81
658.68	128.81
658.883	116.81
659.087	103.81
659.291	102.81
659.494	110.81
659.698	102.81
659.901	99.81
660.105	110.81
660.309	111.81
660.512	102.81
660.716	93.81
660.919	98.81
661.123	93.81
661.326	98.81
661.53	90.81
661.733	85.81
661.936	85.81
662.14	87.81
662.343	89.81
662.546	98.81
662.75	90.81
662.953	89.81
663.156	93.81
663.36	92.81
663.563	71.81
663.766	75.81
663.969	80.81
664.173	96.81
664.376	86.81
664.579	82.81
664.782	84.81
664.985	84.81
665.188	78.81
665.391	83.81
665.594	73.81
665.797	84.81
666	67.81
666.203	86.81
666.406	93.81
666.609	74.81
666.812	90.81
667.015	95.81
667.218	88.81
667.421	84.81
667.624	74.81
667.827	76.81
668.03	80.81
668.232	83.81
668.435	85.81
668.638	86.81
668.841	92.81
669.043	87.81
669.246	83.81
669.449	95.81
669.651	91.81
669.854	81.81
670.057	98.81
670.259	84.81
670.462	78.81
670.665	79.81
670.867	90.81
671.07	101.81
671.272	89.81
671.475	82.81
671.677	86.81
671.88	88.81
672.082	92.81
672.284	97.81
672.487	82.81
672.689	79.81
672.892	85.81
