Data from Fe(NO3)3@0.05M.TitratingCurve.Agarose3%dH2O.NegLispCup.LampEnergy10.LIBS07252019_HRD10591_16-46-37-334.txt Node
Date: Thu Jul 25 16:46:37 EDT 2019
User: cochatt
Spectrometer: HR+D1059
Trigger mode: 1
Integration Time (sec): 1.000000E-1
Scans to average: 1
Electric dark correction enabled: true
Nonlinearity correction enabled: false
Boxcar width: 0
XAxis mode: Wavelengths
Number of Pixels in Spectrum: 2048
>>>>>Begin Spectral Data<<<<<
223.165	-27.19
223.4	-27.19
223.635	-27.19
223.869	-33.19
224.104	-10.19
224.338	-8.19
224.573	-9.19
224.808	-15.19
225.042	-7.19
225.277	-2.19
225.511	-15.19
225.746	14.81
225.98	1.81
226.215	8.81
226.449	32.81
226.683	20.81
226.918	22.81
227.152	25.81
227.387	46.81
227.621	45.81
227.856	42.81
228.09	24.81
228.324	51.81
228.559	52.81
228.793	48.81
229.027	89.81
229.262	94.81
229.496	96.81
229.73	109.81
229.964	108.81
230.199	112.81
230.433	110.81
230.667	117.81
230.901	133.81
231.136	129.81
231.37	121.81
231.604	118.81
231.838	121.81
232.072	132.81
232.306	141.81
232.541	108.81
232.775	120.81
233.009	126.81
233.243	128.81
233.477	124.81
233.711	141.81
233.945	127.81
234.179	138.81
234.413	144.81
234.647	146.81
234.881	133.81
235.115	126.81
235.349	143.81
235.583	130.81
235.817	142.81
236.051	148.81
236.285	136.81
236.519	140.81
236.753	138.81
236.987	141.81
237.221	134.81
237.455	124.81
237.689	139.81
237.922	144.81
238.156	148.81
238.39	161.81
238.624	162.81
238.858	152.81
239.091	142.81
239.325	145.81
239.559	148.81
239.793	160.81
240.027	168.81
240.26	153.81
240.494	156.81
240.728	172.81
240.961	180.81
241.195	170.81
241.429	166.81
241.662	165.81
241.896	151.81
242.13	157.81
242.363	166.81
242.597	156.81
242.83	176.81
243.064	167.81
243.298	181.81
243.531	164.81
243.765	167.81
243.998	185.81
244.232	188.81
244.465	176.81
244.699	173.81
244.932	194.81
245.166	190.81
245.399	184.81
245.633	178.81
245.866	189.81
246.099	174.81
246.333	174.81
246.566	201.81
246.8	207.81
247.033	206.81
247.266	195.81
247.5	176.81
247.733	177.81
247.966	199.81
248.2	189.81
248.433	205.81
248.666	201.81
248.899	206.81
249.133	186.81
249.366	215.81
249.599	217.81
249.832	201.81
250.066	208.81
250.299	211.81
250.532	206.81
250.765	213.81
250.998	217.81
251.231	199.81
251.465	219.81
251.698	208.81
251.931	218.81
252.164	196.81
252.397	221.81
252.63	234.81
252.863	233.81
253.096	232.81
253.329	248.81
253.562	252.81
253.795	234.81
254.028	249.81
254.261	254.81
254.494	227.81
254.727	246.81
254.96	256.81
255.193	229.81
255.426	237.81
255.659	225.81
255.892	236.81
256.124	224.81
256.357	241.81
256.59	248.81
256.823	225.81
257.056	241.81
257.289	237.81
257.521	236.81
257.754	241.81
257.987	264.81
258.22	264.81
258.452	255.81
258.685	244.81
258.918	266.81
259.151	284.81
259.383	256.81
259.616	263.81
259.849	274.81
260.081	301.81
260.314	302.81
260.547	259.81
260.779	263.81
261.012	294.81
261.244	302.81
261.477	307.81
261.71	300.81
261.942	290.81
262.175	265.81
262.407	272.81
262.64	294.81
262.872	295.81
263.105	292.81
263.337	305.81
263.57	300.81
263.802	297.81
264.035	248.81
264.267	283.81
264.499	278.81
264.732	268.81
264.964	285.81
265.197	259.81
265.429	292.81
265.661	288.81
265.894	286.81
266.126	293.81
266.358	289.81
266.591	301.81
266.823	309.81
267.055	280.81
267.287	304.81
267.52	285.81
267.752	288.81
267.984	306.81
268.216	300.81
268.448	295.81
268.681	282.81
268.913	305.81
269.145	312.81
269.377	317.81
269.609	277.81
269.841	301.81
270.073	309.81
270.306	295.81
270.538	304.81
270.77	309.81
271.002	314.81
271.234	325.81
271.466	330.81
271.698	321.81
271.93	301.81
272.162	312.81
272.394	336.81
272.626	321.81
272.858	317.81
273.09	320.81
273.322	312.81
273.553	339.81
273.785	346.81
274.017	352.81
274.249	364.81
274.481	382.81
274.713	371.81
274.945	390.81
275.176	396.81
275.408	387.81
275.64	378.81
275.872	384.81
276.104	349.81
276.335	355.81
276.567	323.81
276.799	343.81
277.031	350.81
277.262	337.81
277.494	336.81
277.726	351.81
277.957	353.81
278.189	351.81
278.421	365.81
278.652	338.81
278.884	344.81
279.115	345.81
279.347	360.81
279.579	349.81
279.81	346.81
280.042	354.81
280.273	346.81
280.505	354.81
280.736	345.81
280.968	375.81
281.199	367.81
281.431	369.81
281.662	393.81
281.894	360.81
282.125	374.81
282.356	370.81
282.588	367.81
282.819	366.81
283.051	371.81
283.282	370.81
283.513	372.81
283.745	377.81
283.976	368.81
284.207	390.81
284.439	386.81
284.67	387.81
284.901	380.81
285.132	385.81
285.364	383.81
285.595	377.81
285.826	392.81
286.057	393.81
286.288	386.81
286.52	383.81
286.751	399.81
286.982	407.81
287.213	393.81
287.444	404.81
287.675	380.81
287.906	408.81
288.138	393.81
288.369	404.81
288.6	421.81
288.831	397.81
289.062	397.81
289.293	409.81
289.524	408.81
289.755	404.81
289.986	422.81
290.217	404.81
290.448	397.81
290.679	421.81
290.91	381.81
291.141	398.81
291.371	400.81
291.602	418.81
291.833	419.81
292.064	387.81
292.295	413.81
292.526	409.81
292.757	414.81
292.987	400.81
293.218	402.81
293.449	430.81
293.68	410.81
293.91	435.81
294.141	438.81
294.372	414.81
294.603	426.81
294.833	394.81
295.064	438.81
295.295	401.81
295.525	429.81
295.756	424.81
295.987	418.81
296.217	415.81
296.448	416.81
296.679	411.81
296.909	423.81
297.14	450.81
297.37	431.81
297.601	446.81
297.831	422.81
298.062	461.81
298.292	429.81
298.523	433.81
298.753	463.81
298.984	436.81
299.214	462.81
299.445	439.81
299.675	464.81
299.905	451.81
300.136	461.81
300.366	434.81
300.597	446.81
300.827	461.81
301.057	449.81
301.288	471.81
301.518	457.81
301.748	450.81
301.979	470.81
302.209	456.81
302.439	476.81
302.669	464.81
302.9	470.81
303.13	439.81
303.36	452.81
303.59	456.81
303.82	467.81
304.051	481.81
304.281	469.81
304.511	464.81
304.741	479.81
304.971	461.81
305.201	481.81
305.431	465.81
305.661	466.81
305.891	465.81
306.121	482.81
306.352	464.81
306.582	477.81
306.812	479.81
307.042	458.81
307.272	478.81
307.502	451.81
307.731	472.81
307.961	475.81
308.191	473.81
308.421	462.81
308.651	485.81
308.881	462.81
309.111	466.81
309.341	469.81
309.571	462.81
309.8	468.81
310.03	447.81
310.26	471.81
310.49	453.81
310.72	486.81
310.949	490.81
311.179	467.81
311.409	485.81
311.639	472.81
311.868	456.81
312.098	466.81
312.328	494.81
312.557	488.81
312.787	484.81
313.017	494.81
313.246	506.81
313.476	500.81
313.706	505.81
313.935	505.81
314.165	508.81
314.394	530.81
314.624	483.81
314.853	482.81
315.083	497.81
315.312	508.81
315.542	506.81
315.771	508.81
316.001	512.81
316.23	534.81
316.46	483.81
316.689	528.81
316.919	528.81
317.148	508.81
317.377	512.81
317.607	492.81
317.836	502.81
318.065	487.81
318.295	488.81
318.524	499.81
318.753	486.81
318.983	499.81
319.212	514.81
319.441	517.81
319.67	520.81
319.9	489.81
320.129	518.81
320.358	514.81
320.587	510.81
320.816	547.81
321.046	520.81
321.275	520.81
321.504	513.81
321.733	502.81
321.962	505.81
322.191	526.81
322.42	534.81
322.649	540.81
322.878	527.81
323.108	531.81
323.337	538.81
323.566	531.81
323.795	548.81
324.024	536.81
324.253	538.81
324.482	514.81
324.71	532.81
324.939	549.81
325.168	536.81
325.397	556.81
325.626	535.81
325.855	556.81
326.084	555.81
326.313	536.81
326.542	551.81
326.77	549.81
326.999	536.81
327.228	531.81
327.457	542.81
327.686	543.81
327.914	558.81
328.143	554.81
328.372	555.81
328.6	570.81
328.829	564.81
329.058	565.81
329.287	580.81
329.515	561.81
329.744	565.81
329.972	539.81
330.201	561.81
330.43	569.81
330.658	565.81
330.887	547.81
331.115	583.81
331.344	554.81
331.572	573.81
331.801	575.81
332.03	591.81
332.258	600.81
332.486	599.81
332.715	623.81
332.943	626.81
333.172	648.81
333.4	632.81
333.629	657.81
333.857	668.81
334.085	633.81
334.314	645.81
334.542	656.81
334.771	665.81
334.999	643.81
335.227	653.81
335.455	669.81
335.684	671.81
335.912	680.81
336.14	650.81
336.369	638.81
336.597	642.81
336.825	637.81
337.053	628.81
337.281	632.81
337.51	618.81
337.738	652.81
337.966	614.81
338.194	589.81
338.422	579.81
338.65	613.81
338.878	582.81
339.106	607.81
339.334	587.81
339.562	610.81
339.79	614.81
340.018	614.81
340.246	569.81
340.474	590.81
340.702	599.81
340.93	604.81
341.158	593.81
341.386	606.81
341.614	606.81
341.842	600.81
342.07	578.81
342.298	597.81
342.526	586.81
342.754	585.81
342.981	602.81
343.209	590.81
343.437	621.81
343.665	612.81
343.893	636.81
344.12	641.81
344.348	633.81
344.576	633.81
344.804	628.81
345.031	597.81
345.259	615.81
345.487	603.81
345.714	579.81
345.942	586.81
346.17	596.81
346.397	572.81
346.625	581.81
346.853	592.81
347.08	568.81
347.308	582.81
347.535	583.81
347.763	553.81
347.99	569.81
348.218	581.81
348.445	561.81
348.673	595.81
348.9	592.81
349.128	571.81
349.355	580.81
349.583	574.81
349.81	553.81
350.037	558.81
350.265	562.81
350.492	573.81
350.72	545.81
350.947	568.81
351.174	562.81
351.402	568.81
351.629	541.81
351.856	570.81
352.083	568.81
352.311	563.81
352.538	553.81
352.765	569.81
352.992	543.81
353.22	559.81
353.447	523.81
353.674	568.81
353.901	548.81
354.128	552.81
354.355	558.81
354.583	563.81
354.81	560.81
355.037	566.81
355.264	574.81
355.491	568.81
355.718	573.81
355.945	567.81
356.172	553.81
356.399	534.81
356.626	548.81
356.853	563.81
357.08	567.81
357.307	589.81
357.534	574.81
357.761	560.81
357.988	549.81
358.215	570.81
358.441	565.81
358.668	552.81
358.895	591.81
359.122	581.81
359.349	580.81
359.576	566.81
359.802	572.81
360.029	554.81
360.256	571.81
360.483	573.81
360.709	569.81
360.936	587.81
361.163	574.81
361.39	568.81
361.616	572.81
361.843	584.81
362.07	588.81
362.296	560.81
362.523	585.81
362.749	572.81
362.976	558.81
363.203	600.81
363.429	591.81
363.656	593.81
363.882	574.81
364.109	585.81
364.335	558.81
364.562	572.81
364.788	563.81
365.015	586.81
365.241	572.81
365.468	570.81
365.694	558.81
365.92	579.81
366.147	580.81
366.373	572.81
366.599	595.81
366.826	591.81
367.052	578.81
367.278	574.81
367.505	577.81
367.731	591.81
367.957	591.81
368.184	605.81
368.41	609.81
368.636	600.81
368.862	611.81
369.089	593.81
369.315	605.81
369.541	608.81
369.767	607.81
369.993	595.81
370.219	601.81
370.445	608.81
370.672	610.81
370.898	630.81
371.124	630.81
371.35	641.81
371.576	651.81
371.802	636.81
372.028	630.81
372.254	640.81
372.48	650.81
372.706	644.81
372.932	631.81
373.158	645.81
373.384	672.81
373.61	646.81
373.835	641.81
374.061	658.81
374.287	640.81
374.513	656.81
374.739	659.81
374.965	689.81
375.191	673.81
375.416	671.81
375.642	675.81
375.868	698.81
376.094	655.81
376.319	651.81
376.545	659.81
376.771	632.81
376.997	640.81
377.222	625.81
377.448	626.81
377.674	634.81
377.899	617.81
378.125	644.81
378.35	625.81
378.576	623.81
378.802	616.81
379.027	622.81
379.253	636.81
379.478	648.81
379.704	631.81
379.929	645.81
380.155	646.81
380.38	624.81
380.606	634.81
380.831	634.81
381.057	620.81
381.282	643.81
381.507	660.81
381.733	654.81
381.958	658.81
382.184	677.81
382.409	691.81
382.634	663.81
382.86	681.81
383.085	668.81
383.31	686.81
383.535	700.81
383.761	702.81
383.986	687.81
384.211	676.81
384.436	706.81
384.662	721.81
384.887	688.81
385.112	687.81
385.337	712.81
385.562	725.81
385.787	712.81
386.013	759.81
386.238	735.81
386.463	738.81
386.688	754.81
386.913	710.81
387.138	736.81
387.363	756.81
387.588	732.81
387.813	769.81
388.038	757.81
388.263	755.81
388.488	723.81
388.713	782.81
388.938	727.81
389.163	740.81
389.387	742.81
389.612	743.81
389.837	743.81
390.062	739.81
390.287	732.81
390.512	748.81
390.736	746.81
390.961	754.81
391.186	776.81
391.411	754.81
391.636	789.81
391.86	799.81
392.085	788.81
392.31	792.81
392.534	787.81
392.759	773.81
392.984	796.81
393.208	776.81
393.433	795.81
393.658	753.81
393.882	786.81
394.107	757.81
394.331	780.81
394.556	784.81
394.78	774.81
395.005	810.81
395.229	792.81
395.454	814.81
395.678	791.81
395.903	824.81
396.127	782.81
396.352	792.81
396.576	814.81
396.801	804.81
397.025	812.81
397.249	830.81
397.474	857.81
397.698	809.81
397.922	861.81
398.147	845.81
398.371	862.81
398.595	876.81
398.82	878.81
399.044	928.81
399.268	949.81
399.492	1017.81
399.717	1076.81
399.941	1063.81
400.165	1058.81
400.389	1024.81
400.613	979.81
400.837	966.81
401.062	923.81
401.286	925.81
401.51	933.81
401.734	902.81
401.958	908.81
402.182	888.81
402.406	902.81
402.63	911.81
402.854	904.81
403.078	912.81
403.302	952.81
403.526	924.81
403.75	946.81
403.974	961.81
404.198	938.81
404.422	943.81
404.645	968.81
404.869	962.81
405.093	945.81
405.317	962.81
405.541	953.81
405.765	979.81
405.988	960.81
406.212	950.81
406.436	974.81
406.66	1033.81
406.883	1013.81
407.107	1024.81
407.331	1030.81
407.555	1059.81
407.778	1055.81
408.002	1047.81
408.226	1032.81
408.449	1062.81
408.673	1000.81
408.896	1018.81
409.12	991.81
409.344	1036.81
409.567	1016.81
409.791	983.81
410.014	980.81
410.238	960.81
410.461	988.81
410.685	987.81
410.908	987.81
411.132	960.81
411.355	941.81
411.578	960.81
411.802	951.81
412.025	955.81
412.249	968.81
412.472	949.81
412.695	932.81
412.919	932.81
413.142	966.81
413.365	928.81
413.589	933.81
413.812	906.81
414.035	922.81
414.258	913.81
414.482	949.81
414.705	935.81
414.928	937.81
415.151	930.81
415.374	944.81
415.597	906.81
415.821	916.81
416.044	902.81
416.267	895.81
416.49	899.81
416.713	892.81
416.936	913.81
417.159	892.81
417.382	881.81
417.605	881.81
417.828	887.81
418.051	873.81
418.274	906.81
418.497	855.81
418.72	900.81
418.943	898.81
419.166	918.81
419.389	990.81
419.611	981.81
419.834	964.81
420.057	929.81
420.28	901.81
420.503	873.81
420.726	880.81
420.948	887.81
421.171	870.81
421.394	886.81
421.617	872.81
421.839	892.81
422.062	900.81
422.285	883.81
422.507	870.81
422.73	864.81
422.953	879.81
423.175	885.81
423.398	866.81
423.621	901.81
423.843	924.81
424.066	876.81
424.288	890.81
424.511	896.81
424.733	899.81
424.956	900.81
425.178	872.81
425.401	888.81
425.623	866.81
425.846	843.81
426.068	845.81
426.291	882.81
426.513	846.81
426.735	832.81
426.958	882.81
427.18	820.81
427.402	834.81
427.625	832.81
427.847	856.81
428.069	838.81
428.292	860.81
428.514	840.81
428.736	840.81
428.958	814.81
429.181	821.81
429.403	837.81
429.625	839.81
429.847	818.81
430.069	806.81
430.292	823.81
430.514	809.81
430.736	854.81
430.958	827.81
431.18	850.81
431.402	826.81
431.624	846.81
431.846	844.81
432.068	827.81
432.29	852.81
432.512	813.81
432.734	832.81
432.956	827.81
433.178	814.81
433.4	833.81
433.622	850.81
433.844	848.81
434.066	846.81
434.287	843.81
434.509	857.81
434.731	873.81
434.953	849.81
435.175	888.81
435.397	880.81
435.618	881.81
435.84	842.81
436.062	833.81
436.284	836.81
436.505	819.81
436.727	809.81
436.949	827.81
437.17	829.81
437.392	845.81
437.614	814.81
437.835	833.81
438.057	821.81
438.278	805.81
438.5	816.81
438.721	828.81
438.943	817.81
439.165	814.81
439.386	801.81
439.608	825.81
439.829	833.81
440.05	830.81
440.272	828.81
440.493	855.81
440.715	850.81
440.936	852.81
441.158	862.81
441.379	855.81
441.6	891.81
441.822	867.81
442.043	889.81
442.264	892.81
442.486	859.81
442.707	866.81
442.928	865.81
443.149	895.81
443.371	900.81
443.592	857.81
443.813	898.81
444.034	883.81
444.255	884.81
444.476	926.81
444.698	911.81
444.919	970.81
445.14	1046.81
445.361	947.81
445.582	908.81
445.803	900.81
446.024	868.81
446.245	887.81
446.466	864.81
446.687	844.81
446.908	832.81
447.129	819.81
447.35	801.81
447.571	830.81
447.792	823.81
448.013	801.81
448.234	786.81
448.455	783.81
448.675	788.81
448.896	792.81
449.117	781.81
449.338	804.81
449.559	792.81
449.779	767.81
450	749.81
450.221	770.81
450.442	757.81
450.662	764.81
450.883	761.81
451.104	771.81
451.324	777.81
451.545	760.81
451.766	766.81
451.986	756.81
452.207	762.81
452.428	754.81
452.648	761.81
452.869	725.81
453.089	746.81
453.31	722.81
453.53	738.81
453.751	734.81
453.971	739.81
454.192	710.81
454.412	728.81
454.633	730.81
454.853	745.81
455.073	712.81
455.294	736.81
455.514	750.81
455.734	732.81
455.955	709.81
456.175	723.81
456.395	715.81
456.616	726.81
456.836	728.81
457.056	730.81
457.276	719.81
457.497	711.81
457.717	732.81
457.937	749.81
458.157	737.81
458.377	752.81
458.598	781.81
458.818	778.81
459.038	801.81
459.258	797.81
459.478	832.81
459.698	830.81
459.918	849.81
460.138	885.81
460.358	858.81
460.578	890.81
460.798	904.81
461.018	892.81
461.238	886.81
461.458	886.81
461.678	896.81
461.898	913.81
462.118	928.81
462.338	933.81
462.558	958.81
462.777	952.81
462.997	1022.81
463.217	1038.81
463.437	1045.81
463.657	1009.81
463.876	1018.81
464.096	1008.81
464.316	999.81
464.536	995.81
464.755	986.81
464.975	975.81
465.195	963.81
465.414	904.81
465.634	850.81
465.854	853.81
466.073	856.81
466.293	855.81
466.512	807.81
466.732	817.81
466.951	834.81
467.171	847.81
467.391	807.81
467.61	818.81
467.829	798.81
468.049	807.81
468.268	822.81
468.488	806.81
468.707	814.81
468.927	793.81
469.146	795.81
469.365	822.81
469.585	796.81
469.804	818.81
470.023	829.81
470.243	820.81
470.462	807.81
470.681	820.81
470.901	805.81
471.12	805.81
471.339	809.81
471.558	790.81
471.777	809.81
471.997	783.81
472.216	785.81
472.435	808.81
472.654	780.81
472.873	792.81
473.092	792.81
473.311	795.81
473.53	776.81
473.749	797.81
473.968	804.81
474.187	764.81
474.406	806.81
474.625	798.81
474.844	785.81
475.063	808.81
475.282	793.81
475.501	798.81
475.72	824.81
475.939	807.81
476.158	821.81
476.377	832.81
476.596	858.81
476.814	856.81
477.033	836.81
477.252	858.81
477.471	857.81
477.69	883.81
477.908	888.81
478.127	897.81
478.346	918.81
478.564	921.81
478.783	925.81
479.002	937.81
479.22	962.81
479.439	962.81
479.658	924.81
479.876	936.81
480.095	962.81
480.313	979.81
480.532	993.81
480.751	965.81
480.969	945.81
481.188	959.81
481.406	948.81
481.624	960.81
481.843	929.81
482.061	930.81
482.28	937.81
482.498	933.81
482.717	912.81
482.935	916.81
483.153	945.81
483.372	933.81
483.59	940.81
483.808	907.81
484.027	916.81
484.245	947.81
484.463	912.81
484.681	942.81
484.9	946.81
485.118	941.81
485.336	936.81
485.554	943.81
485.772	947.81
485.99	951.81
486.209	947.81
486.427	938.81
486.645	973.81
486.863	965.81
487.081	949.81
487.299	935.81
487.517	970.81
487.735	969.81
487.953	964.81
488.171	963.81
488.389	985.81
488.607	941.81
488.825	959.81
489.043	938.81
489.261	972.81
489.479	938.81
489.696	936.81
489.914	935.81
490.132	956.81
490.35	932.81
490.568	949.81
490.786	970.81
491.003	956.81
491.221	969.81
491.439	946.81
491.657	984.81
491.874	957.81
492.092	1010.81
492.31	1021.81
492.527	987.81
492.745	1024.81
492.963	1009.81
493.18	1016.81
493.398	996.81
493.615	1007.81
493.833	1028.81
494.05	991.81
494.268	1024.81
494.485	991.81
494.703	1014.81
494.92	1025.81
495.138	1055.81
495.355	1042.81
495.573	1029.81
495.79	1023.81
496.008	1053.81
496.225	1033.81
496.442	1047.81
496.66	1047.81
496.877	1077.81
497.094	1078.81
497.312	1093.81
497.529	1114.81
497.746	1136.81
497.963	1151.81
498.181	1198.81
498.398	1204.81
498.615	1278.81
498.832	1288.81
499.049	1330.81
499.267	1411.81
499.484	1492.81
499.701	1567.81
499.918	1640.81
500.135	1736.81
500.352	1841.81
500.569	1858.81
500.786	1841.81
501.003	1803.81
501.22	1725.81
501.437	1635.81
501.654	1546.81
501.871	1480.81
502.088	1376.81
502.305	1366.81
502.522	1276.81
502.739	1263.81
502.956	1252.81
503.172	1200.81
503.389	1159.81
503.606	1102.81
503.823	1093.81
504.04	1092.81
504.256	1078.81
504.473	1093.81
504.69	1077.81
504.907	1084.81
505.123	1022.81
505.34	1006.81
505.557	994.81
505.773	981.81
505.99	958.81
506.207	945.81
506.423	923.81
506.64	926.81
506.856	935.81
507.073	903.81
507.289	922.81
507.506	884.81
507.722	890.81
507.939	897.81
508.155	874.81
508.372	841.81
508.588	857.81
508.805	859.81
509.021	862.81
509.238	836.81
509.454	819.81
509.67	822.81
509.887	847.81
510.103	812.81
510.319	804.81
510.536	797.81
510.752	804.81
510.968	815.81
511.184	809.81
511.401	820.81
511.617	809.81
511.833	794.81
512.049	815.81
512.265	791.81
512.481	801.81
512.698	807.81
512.914	803.81
513.13	818.81
513.346	794.81
513.562	776.81
513.778	804.81
513.994	821.81
514.21	803.81
514.426	791.81
514.642	789.81
514.858	824.81
515.074	823.81
515.29	816.81
515.506	815.81
515.721	839.81
515.937	829.81
516.153	850.81
516.369	857.81
516.585	893.81
516.801	881.81
517.016	894.81
517.232	900.81
517.448	901.81
517.664	964.81
517.879	914.81
518.095	905.81
518.311	914.81
518.527	881.81
518.742	871.81
518.958	881.81
519.173	860.81
519.389	843.81
519.605	849.81
519.82	847.81
520.036	865.81
520.251	837.81
520.467	796.81
520.682	801.81
520.898	806.81
521.113	768.81
521.329	784.81
521.544	778.81
521.76	779.81
521.975	740.81
522.19	758.81
522.406	747.81
522.621	758.81
522.836	742.81
523.052	742.81
523.267	730.81
523.482	734.81
523.698	725.81
523.913	754.81
524.128	755.81
524.343	716.81
524.559	716.81
524.774	707.81
524.989	708.81
525.204	722.81
525.419	745.81
525.634	702.81
525.849	723.81
526.064	721.81
526.28	743.81
526.495	710.81
526.71	723.81
526.925	710.81
527.14	684.81
527.355	719.81
527.57	673.81
527.785	693.81
527.999	688.81
528.214	712.81
528.429	697.81
528.644	729.81
528.859	705.81
529.074	729.81
529.289	696.81
529.503	710.81
529.718	713.81
529.933	709.81
530.148	685.81
530.363	691.81
530.577	707.81
530.792	688.81
531.007	667.81
531.221	688.81
531.436	690.81
531.651	669.81
531.865	674.81
532.08	698.81
532.295	672.81
532.509	660.81
532.724	696.81
532.938	687.81
533.153	706.81
533.367	680.81
533.582	686.81
533.796	673.81
534.011	679.81
534.225	665.81
534.44	693.81
534.654	678.81
534.868	659.81
535.083	670.81
535.297	662.81
535.511	666.81
535.726	665.81
535.94	666.81
536.154	651.81
536.369	673.81
536.583	635.81
536.797	650.81
537.011	638.81
537.225	657.81
537.44	637.81
537.654	657.81
537.868	656.81
538.082	648.81
538.296	610.81
538.51	622.81
538.724	651.81
538.938	634.81
539.153	660.81
539.367	662.81
539.581	617.81
539.795	626.81
540.009	635.81
540.222	643.81
540.436	640.81
540.65	632.81
540.864	654.81
541.078	609.81
541.292	630.81
541.506	632.81
541.72	636.81
541.934	640.81
542.147	630.81
542.361	636.81
542.575	649.81
542.789	629.81
543.002	611.81
543.216	620.81
543.43	612.81
543.644	611.81
543.857	612.81
544.071	638.81
544.285	610.81
544.498	648.81
544.712	618.81
544.925	640.81
545.139	657.81
545.352	608.81
545.566	640.81
545.779	647.81
545.993	640.81
546.206	630.81
546.42	623.81
546.633	621.81
546.847	633.81
547.06	631.81
547.274	628.81
547.487	632.81
547.7	640.81
547.914	661.81
548.127	638.81
548.34	644.81
548.554	634.81
548.767	646.81
548.98	638.81
549.193	645.81
549.407	654.81
549.62	647.81
549.833	628.81
550.046	625.81
550.259	642.81
550.473	622.81
550.686	626.81
550.899	645.81
551.112	618.81
551.325	601.81
551.538	618.81
551.751	617.81
551.964	614.81
552.177	616.81
552.39	640.81
552.603	623.81
552.816	648.81
553.029	651.81
553.242	622.81
553.455	638.81
553.667	639.81
553.88	668.81
554.093	633.81
554.306	638.81
554.519	602.81
554.732	602.81
554.944	627.81
555.157	611.81
555.37	594.81
555.583	576.81
555.795	580.81
556.008	567.81
556.221	584.81
556.433	576.81
556.646	589.81
556.859	565.81
557.071	561.81
557.284	574.81
557.496	553.81
557.709	548.81
557.921	543.81
558.134	547.81
558.346	530.81
558.559	548.81
558.771	525.81
558.984	519.81
559.196	539.81
559.409	544.81
559.621	528.81
559.833	550.81
560.046	541.81
560.258	521.81
560.47	513.81
560.683	549.81
560.895	545.81
561.107	526.81
561.32	558.81
561.532	535.81
561.744	538.81
561.956	537.81
562.168	534.81
562.381	529.81
562.593	555.81
562.805	542.81
563.017	518.81
563.229	522.81
563.441	530.81
563.653	523.81
563.865	560.81
564.077	551.81
564.289	537.81
564.501	521.81
564.713	564.81
564.925	577.81
565.137	556.81
565.349	584.81
565.561	591.81
565.773	590.81
565.985	602.81
566.197	610.81
566.408	648.81
566.62	670.81
566.832	669.81
567.044	660.81
567.255	672.81
567.467	701.81
567.679	720.81
567.891	737.81
568.102	726.81
568.314	691.81
568.526	640.81
568.737	650.81
568.949	623.81
569.161	597.81
569.372	565.81
569.584	548.81
569.795	532.81
570.007	557.81
570.218	532.81
570.43	527.81
570.641	536.81
570.853	527.81
571.064	515.81
571.276	510.81
571.487	507.81
571.698	509.81
571.91	489.81
572.121	488.81
572.333	450.81
572.544	471.81
572.755	465.81
572.966	467.81
573.178	453.81
573.389	458.81
573.6	449.81
573.811	455.81
574.023	460.81
574.234	433.81
574.445	439.81
574.656	437.81
574.867	428.81
575.078	440.81
575.289	443.81
575.501	412.81
575.712	420.81
575.923	418.81
576.134	428.81
576.345	420.81
576.556	405.81
576.767	421.81
576.978	413.81
577.188	417.81
577.399	393.81
577.61	420.81
577.821	404.81
578.032	406.81
578.243	397.81
578.454	400.81
578.665	400.81
578.875	400.81
579.086	377.81
579.297	385.81
579.508	389.81
579.718	400.81
579.929	392.81
580.14	394.81
580.35	402.81
580.561	388.81
580.772	382.81
580.982	381.81
581.193	367.81
581.403	380.81
581.614	373.81
581.825	378.81
582.035	377.81
582.246	381.81
582.456	373.81
582.667	372.81
582.877	371.81
583.087	369.81
583.298	362.81
583.508	364.81
583.719	345.81
583.929	360.81
584.139	346.81
584.35	356.81
584.56	366.81
584.77	366.81
584.981	351.81
585.191	368.81
585.401	342.81
585.611	349.81
585.821	375.81
586.032	380.81
586.242	354.81
586.452	377.81
586.662	345.81
586.872	356.81
587.082	364.81
587.292	354.81
587.502	349.81
587.713	348.81
587.923	362.81
588.133	351.81
588.343	325.81
588.553	350.81
588.762	325.81
588.972	337.81
589.182	380.81
589.392	381.81
589.602	352.81
589.812	362.81
590.022	370.81
590.232	351.81
590.441	345.81
590.651	370.81
590.861	346.81
591.071	352.81
591.281	352.81
591.49	376.81
591.7	363.81
591.91	348.81
592.119	358.81
592.329	372.81
592.539	380.81
592.748	372.81
592.958	373.81
593.167	385.81
593.377	384.81
593.587	387.81
593.796	391.81
594.006	387.81
594.215	365.81
594.424	387.81
594.634	367.81
594.843	369.81
595.053	368.81
595.262	372.81
595.472	361.81
595.681	356.81
595.89	338.81
596.1	366.81
596.309	354.81
596.518	328.81
596.727	332.81
596.937	331.81
597.146	331.81
597.355	327.81
597.564	314.81
597.774	303.81
597.983	312.81
598.192	319.81
598.401	292.81
598.61	320.81
598.819	317.81
599.028	301.81
599.237	301.81
599.446	303.81
599.655	311.81
599.864	321.81
600.073	292.81
600.282	293.81
600.491	311.81
600.7	293.81
600.909	298.81
601.118	311.81
601.327	288.81
601.536	317.81
601.745	320.81
601.953	300.81
602.162	278.81
602.371	308.81
602.58	288.81
602.789	285.81
602.997	280.81
603.206	276.81
603.415	307.81
603.623	295.81
603.832	282.81
604.041	284.81
604.249	288.81
604.458	289.81
604.666	263.81
604.875	285.81
605.084	282.81
605.292	276.81
605.501	274.81
605.709	278.81
605.918	294.81
606.126	288.81
606.334	279.81
606.543	265.81
606.751	281.81
606.96	286.81
607.168	271.81
607.376	282.81
607.585	259.81
607.793	288.81
608.001	262.81
608.21	278.81
608.418	272.81
608.626	269.81
608.834	292.81
609.043	292.81
609.251	273.81
609.459	269.81
609.667	291.81
609.875	276.81
610.083	276.81
610.291	265.81
610.499	271.81
610.707	265.81
610.916	255.81
611.124	245.81
611.332	262.81
611.54	271.81
611.748	268.81
611.955	261.81
612.163	268.81
612.371	276.81
612.579	270.81
612.787	266.81
612.995	267.81
613.203	262.81
613.411	257.81
613.618	277.81
613.826	266.81
614.034	254.81
614.242	246.81
614.449	272.81
614.657	256.81
614.865	253.81
615.072	261.81
615.28	257.81
615.488	264.81
615.695	270.81
615.903	265.81
616.111	256.81
616.318	239.81
616.526	262.81
616.733	262.81
616.941	248.81
617.148	245.81
617.356	258.81
617.563	255.81
617.771	228.81
617.978	240.81
618.185	243.81
618.393	272.81
618.6	258.81
618.807	266.81
619.015	240.81
619.222	243.81
619.429	253.81
619.637	264.81
619.844	237.81
620.051	242.81
620.258	238.81
620.466	227.81
620.673	225.81
620.88	231.81
621.087	248.81
621.294	241.81
621.501	238.81
621.708	227.81
621.915	227.81
622.122	229.81
622.329	244.81
622.536	244.81
622.743	223.81
622.95	246.81
623.157	228.81
623.364	232.81
623.571	234.81
623.778	239.81
623.985	230.81
624.192	225.81
624.399	233.81
624.606	246.81
624.812	222.81
625.019	216.81
625.226	224.81
625.433	217.81
625.639	235.81
625.846	222.81
626.053	225.81
626.259	220.81
626.466	226.81
626.673	216.81
626.879	218.81
627.086	221.81
627.293	223.81
627.499	216.81
627.706	215.81
627.912	213.81
628.119	210.81
628.325	225.81
628.532	225.81
628.738	201.81
628.945	211.81
629.151	232.81
629.357	223.81
629.564	202.81
629.77	217.81
629.976	213.81
630.183	213.81
630.389	209.81
630.595	202.81
630.802	205.81
631.008	212.81
631.214	220.81
631.42	197.81
631.627	195.81
631.833	205.81
632.039	215.81
632.245	198.81
632.451	202.81
632.657	184.81
632.863	209.81
633.069	216.81
633.275	207.81
633.481	205.81
633.688	212.81
633.893	209.81
634.099	190.81
634.305	179.81
634.511	195.81
634.717	201.81
634.923	209.81
635.129	191.81
635.335	166.81
635.541	198.81
635.747	209.81
635.952	213.81
636.158	203.81
636.364	206.81
636.57	198.81
636.775	199.81
636.981	192.81
637.187	194.81
637.392	184.81
637.598	196.81
637.804	200.81
638.009	195.81
638.215	201.81
638.421	181.81
638.626	204.81
638.832	193.81
639.037	196.81
639.243	195.81
639.448	189.81
639.654	190.81
639.859	193.81
640.065	189.81
640.27	197.81
640.475	200.81
640.681	189.81
640.886	186.81
641.091	192.81
641.297	192.81
641.502	175.81
641.707	187.81
641.913	171.81
642.118	184.81
642.323	181.81
642.528	189.81
642.733	173.81
642.939	197.81
643.144	192.81
643.349	191.81
643.554	200.81
643.759	198.81
643.964	173.81
644.169	177.81
644.374	183.81
644.579	198.81
644.784	195.81
644.989	184.81
645.194	176.81
645.399	190.81
645.604	180.81
645.809	169.81
646.014	189.81
646.219	179.81
646.423	182.81
646.628	196.81
646.833	190.81
647.038	181.81
647.243	199.81
647.447	170.81
647.652	178.81
647.857	185.81
648.062	191.81
648.266	182.81
648.471	195.81
648.676	189.81
648.88	206.81
649.085	205.81
649.289	177.81
649.494	205.81
649.698	183.81
649.903	198.81
650.107	178.81
650.312	188.81
650.516	185.81
650.721	185.81
650.925	173.81
651.13	174.81
651.334	181.81
651.539	166.81
651.743	192.81
651.947	180.81
652.152	182.81
652.356	168.81
652.56	164.81
652.764	165.81
652.969	182.81
653.173	158.81
653.377	177.81
653.581	177.81
653.785	180.81
653.99	160.81
654.194	158.81
654.398	176.81
654.602	166.81
654.806	176.81
655.01	164.81
655.214	153.81
655.418	174.81
655.622	174.81
655.826	171.81
656.03	176.81
656.234	148.81
656.438	161.81
656.642	162.81
656.846	158.81
657.049	150.81
657.253	145.81
657.457	143.81
657.661	134.81
657.865	148.81
658.068	132.81
658.272	141.81
658.476	126.81
658.68	127.81
658.883	121.81
659.087	111.81
659.291	114.81
659.494	105.81
659.698	121.81
659.901	108.81
660.105	97.81
660.309	94.81
660.512	99.81
660.716	87.81
660.919	77.81
661.123	90.81
661.326	84.81
661.53	88.81
661.733	86.81
661.936	94.81
662.14	79.81
662.343	80.81
662.546	69.81
662.75	92.81
662.953	88.81
663.156	86.81
663.36	85.81
663.563	85.81
663.766	83.81
663.969	69.81
664.173	67.81
664.376	79.81
664.579	81.81
664.782	81.81
664.985	87.81
665.188	79.81
665.391	74.81
665.594	82.81
665.797	84.81
666	72.81
666.203	65.81
666.406	78.81
666.609	91.81
666.812	76.81
667.015	68.81
667.218	84.81
667.421	86.81
667.624	77.81
667.827	87.81
668.03	81.81
668.232	89.81
668.435	67.81
668.638	80.81
668.841	84.81
669.043	78.81
669.246	79.81
669.449	85.81
669.651	75.81
669.854	65.81
670.057	96.81
670.259	62.81
670.462	87.81
670.665	88.81
670.867	84.81
671.07	71.81
671.272	76.81
671.475	68.81
671.677	74.81
671.88	77.81
672.082	87.81
672.284	77.81
672.487	87.81
672.689	78.81
672.892	84.81
