Data from Fe(NO3)3@0.025M.TitratingCurve.Agarose3%dH2O.NegLispCup.LampEnergy10.LIBS07252019_HRD10591_16-54-34-335.txt Node
Date: Thu Jul 25 16:54:34 EDT 2019
User: cochatt
Spectrometer: HR+D1059
Trigger mode: 1
Integration Time (sec): 1.000000E-1
Scans to average: 1
Electric dark correction enabled: true
Nonlinearity correction enabled: false
Boxcar width: 0
XAxis mode: Wavelengths
Number of Pixels in Spectrum: 2048
>>>>>Begin Spectral Data<<<<<
223.165	-17.06
223.4	-17.06
223.635	-17.06
223.869	-16.06
224.104	-17.06
224.338	-6.06
224.573	-7.06
224.808	-17.06
225.042	-13.06
225.277	-7.06
225.511	-1.06
225.746	0.94
225.98	-3.06
226.215	22.94
226.449	16.94
226.683	21.94
226.918	10.94
227.152	30.94
227.387	32.94
227.621	32.94
227.856	35.94
228.09	38.94
228.324	42.94
228.559	50.94
228.793	50.94
229.027	88.94
229.262	88.94
229.496	92.94
229.73	89.94
229.964	105.94
230.199	100.94
230.433	95.94
230.667	86.94
230.901	94.94
231.136	102.94
231.37	102.94
231.604	126.94
231.838	111.94
232.072	116.94
232.306	126.94
232.541	95.94
232.775	112.94
233.009	116.94
233.243	121.94
233.477	126.94
233.711	112.94
233.945	127.94
234.179	122.94
234.413	124.94
234.647	116.94
234.881	124.94
235.115	112.94
235.349	130.94
235.583	121.94
235.817	121.94
236.051	115.94
236.285	117.94
236.519	129.94
236.753	122.94
236.987	136.94
237.221	121.94
237.455	118.94
237.689	121.94
237.922	135.94
238.156	132.94
238.39	118.94
238.624	138.94
238.858	136.94
239.091	130.94
239.325	112.94
239.559	141.94
239.793	141.94
240.027	133.94
240.26	130.94
240.494	138.94
240.728	134.94
240.961	140.94
241.195	147.94
241.429	137.94
241.662	131.94
241.896	136.94
242.13	130.94
242.363	131.94
242.597	142.94
242.83	130.94
243.064	147.94
243.298	139.94
243.531	148.94
243.765	134.94
243.998	154.94
244.232	137.94
244.465	145.94
244.699	139.94
244.932	145.94
245.166	151.94
245.399	158.94
245.633	146.94
245.866	144.94
246.099	149.94
246.333	148.94
246.566	175.94
246.8	154.94
247.033	162.94
247.266	139.94
247.5	147.94
247.733	158.94
247.966	154.94
248.2	166.94
248.433	161.94
248.666	157.94
248.899	189.94
249.133	183.94
249.366	171.94
249.599	183.94
249.832	154.94
250.066	171.94
250.299	178.94
250.532	171.94
250.765	176.94
250.998	176.94
251.231	181.94
251.465	172.94
251.698	162.94
251.931	170.94
252.164	166.94
252.397	180.94
252.63	187.94
252.863	185.94
253.096	187.94
253.329	182.94
253.562	187.94
253.795	188.94
254.028	190.94
254.261	204.94
254.494	183.94
254.727	190.94
254.96	187.94
255.193	193.94
255.426	189.94
255.659	191.94
255.892	200.94
256.124	191.94
256.357	204.94
256.59	216.94
256.823	200.94
257.056	185.94
257.289	182.94
257.521	183.94
257.754	203.94
257.987	192.94
258.22	196.94
258.452	200.94
258.685	211.94
258.918	198.94
259.151	203.94
259.383	212.94
259.616	204.94
259.849	217.94
260.081	232.94
260.314	239.94
260.547	214.94
260.779	203.94
261.012	219.94
261.244	225.94
261.477	216.94
261.71	223.94
261.942	219.94
262.175	224.94
262.407	219.94
262.64	223.94
262.872	209.94
263.105	216.94
263.337	232.94
263.57	226.94
263.802	228.94
264.035	224.94
264.267	230.94
264.499	211.94
264.732	228.94
264.964	215.94
265.197	214.94
265.429	218.94
265.661	218.94
265.894	216.94
266.126	223.94
266.358	233.94
266.591	226.94
266.823	233.94
267.055	233.94
267.287	215.94
267.52	209.94
267.752	225.94
267.984	252.94
268.216	229.94
268.448	242.94
268.681	238.94
268.913	238.94
269.145	241.94
269.377	249.94
269.609	252.94
269.841	218.94
270.073	238.94
270.306	240.94
270.538	247.94
270.77	244.94
271.002	261.94
271.234	246.94
271.466	246.94
271.698	244.94
271.93	252.94
272.162	258.94
272.394	255.94
272.626	264.94
272.858	264.94
273.09	266.94
273.322	259.94
273.553	266.94
273.785	256.94
274.017	286.94
274.249	307.94
274.481	302.94
274.713	288.94
274.945	284.94
275.176	305.94
275.408	304.94
275.64	269.94
275.872	296.94
276.104	275.94
276.335	252.94
276.567	278.94
276.799	286.94
277.031	261.94
277.262	276.94
277.494	292.94
277.726	265.94
277.957	286.94
278.189	299.94
278.421	266.94
278.652	282.94
278.884	300.94
279.115	283.94
279.347	276.94
279.579	282.94
279.81	295.94
280.042	286.94
280.273	295.94
280.505	310.94
280.736	295.94
280.968	311.94
281.199	312.94
281.431	304.94
281.662	292.94
281.894	301.94
282.125	300.94
282.356	316.94
282.588	293.94
282.819	291.94
283.051	286.94
283.282	298.94
283.513	318.94
283.745	302.94
283.976	290.94
284.207	306.94
284.439	314.94
284.67	312.94
284.901	307.94
285.132	330.94
285.364	294.94
285.595	330.94
285.826	328.94
286.057	324.94
286.288	320.94
286.52	312.94
286.751	320.94
286.982	316.94
287.213	324.94
287.444	323.94
287.675	314.94
287.906	332.94
288.138	313.94
288.369	342.94
288.6	316.94
288.831	322.94
289.062	332.94
289.293	338.94
289.524	324.94
289.755	335.94
289.986	335.94
290.217	337.94
290.448	323.94
290.679	327.94
290.91	325.94
291.141	334.94
291.371	345.94
291.602	331.94
291.833	324.94
292.064	322.94
292.295	319.94
292.526	338.94
292.757	328.94
292.987	334.94
293.218	348.94
293.449	328.94
293.68	358.94
293.91	351.94
294.141	354.94
294.372	337.94
294.603	343.94
294.833	349.94
295.064	338.94
295.295	342.94
295.525	350.94
295.756	332.94
295.987	339.94
296.217	320.94
296.448	348.94
296.679	332.94
296.909	340.94
297.14	373.94
297.37	351.94
297.601	370.94
297.831	353.94
298.062	352.94
298.292	350.94
298.523	357.94
298.753	361.94
298.984	369.94
299.214	386.94
299.445	365.94
299.675	374.94
299.905	371.94
300.136	356.94
300.366	360.94
300.597	371.94
300.827	370.94
301.057	372.94
301.288	395.94
301.518	376.94
301.748	382.94
301.979	386.94
302.209	377.94
302.439	384.94
302.669	389.94
302.9	380.94
303.13	400.94
303.36	380.94
303.59	365.94
303.82	402.94
304.051	404.94
304.281	376.94
304.511	394.94
304.741	400.94
304.971	390.94
305.201	387.94
305.431	380.94
305.661	400.94
305.891	385.94
306.121	396.94
306.352	384.94
306.582	384.94
306.812	377.94
307.042	410.94
307.272	393.94
307.502	406.94
307.731	412.94
307.961	384.94
308.191	385.94
308.421	392.94
308.651	376.94
308.881	394.94
309.111	389.94
309.341	400.94
309.571	384.94
309.8	411.94
310.03	402.94
310.26	405.94
310.49	390.94
310.72	418.94
310.949	406.94
311.179	390.94
311.409	417.94
311.639	398.94
311.868	425.94
312.098	428.94
312.328	410.94
312.557	408.94
312.787	415.94
313.017	413.94
313.246	443.94
313.476	430.94
313.706	417.94
313.935	422.94
314.165	424.94
314.394	432.94
314.624	425.94
314.853	432.94
315.083	428.94
315.312	431.94
315.542	436.94
315.771	433.94
316.001	433.94
316.23	457.94
316.46	442.94
316.689	452.94
316.919	446.94
317.148	420.94
317.377	433.94
317.607	436.94
317.836	409.94
318.065	418.94
318.295	440.94
318.524	434.94
318.753	412.94
318.983	425.94
319.212	433.94
319.441	444.94
319.67	438.94
319.9	412.94
320.129	444.94
320.358	430.94
320.587	454.94
320.816	448.94
321.046	466.94
321.275	450.94
321.504	435.94
321.733	435.94
321.962	439.94
322.191	446.94
322.42	448.94
322.649	466.94
322.878	453.94
323.108	440.94
323.337	464.94
323.566	449.94
323.795	454.94
324.024	446.94
324.253	489.94
324.482	466.94
324.71	452.94
324.939	441.94
325.168	442.94
325.397	451.94
325.626	460.94
325.855	469.94
326.084	472.94
326.313	452.94
326.542	466.94
326.77	466.94
326.999	473.94
327.228	480.94
327.457	468.94
327.686	473.94
327.914	456.94
328.143	471.94
328.372	462.94
328.6	475.94
328.829	481.94
329.058	472.94
329.287	473.94
329.515	480.94
329.744	491.94
329.972	477.94
330.201	480.94
330.43	475.94
330.658	487.94
330.887	500.94
331.115	499.94
331.344	487.94
331.572	494.94
331.801	514.94
332.03	504.94
332.258	523.94
332.486	512.94
332.715	526.94
332.943	535.94
333.172	534.94
333.4	532.94
333.629	549.94
333.857	554.94
334.085	568.94
334.314	556.94
334.542	567.94
334.771	576.94
334.999	555.94
335.227	552.94
335.455	548.94
335.684	570.94
335.912	565.94
336.14	580.94
336.369	562.94
336.597	549.94
336.825	538.94
337.053	528.94
337.281	547.94
337.51	549.94
337.738	542.94
337.966	550.94
338.194	537.94
338.422	527.94
338.65	526.94
338.878	532.94
339.106	526.94
339.334	530.94
339.562	536.94
339.79	515.94
340.018	508.94
340.246	523.94
340.474	502.94
340.702	519.94
340.93	516.94
341.158	496.94
341.386	521.94
341.614	528.94
341.842	494.94
342.07	522.94
342.298	502.94
342.526	501.94
342.754	532.94
342.981	506.94
343.209	501.94
343.437	531.94
343.665	549.94
343.893	546.94
344.12	561.94
344.348	574.94
344.576	539.94
344.804	540.94
345.031	524.94
345.259	537.94
345.487	522.94
345.714	503.94
345.942	506.94
346.17	503.94
346.397	498.94
346.625	512.94
346.853	499.94
347.08	505.94
347.308	497.94
347.535	514.94
347.763	506.94
347.99	497.94
348.218	495.94
348.445	498.94
348.673	481.94
348.9	469.94
349.128	464.94
349.355	470.94
349.583	479.94
349.81	518.94
350.037	484.94
350.265	505.94
350.492	487.94
350.72	481.94
350.947	478.94
351.174	488.94
351.402	484.94
351.629	495.94
351.856	486.94
352.083	490.94
352.311	511.94
352.538	487.94
352.765	470.94
352.992	504.94
353.22	480.94
353.447	470.94
353.674	496.94
353.901	479.94
354.128	482.94
354.355	496.94
354.583	489.94
354.81	490.94
355.037	487.94
355.264	482.94
355.491	505.94
355.718	513.94
355.945	509.94
356.172	502.94
356.399	479.94
356.626	489.94
356.853	507.94
357.08	491.94
357.307	498.94
357.534	491.94
357.761	488.94
357.988	487.94
358.215	497.94
358.441	523.94
358.668	496.94
358.895	480.94
359.122	497.94
359.349	502.94
359.576	488.94
359.802	503.94
360.029	497.94
360.256	492.94
360.483	490.94
360.709	504.94
360.936	491.94
361.163	506.94
361.39	492.94
361.616	503.94
361.843	508.94
362.07	496.94
362.296	509.94
362.523	487.94
362.749	506.94
362.976	503.94
363.203	508.94
363.429	474.94
363.656	502.94
363.882	495.94
364.109	510.94
364.335	507.94
364.562	497.94
364.788	510.94
365.015	487.94
365.241	538.94
365.468	510.94
365.694	481.94
365.92	508.94
366.147	495.94
366.373	490.94
366.599	496.94
366.826	491.94
367.052	504.94
367.278	518.94
367.505	499.94
367.731	518.94
367.957	522.94
368.184	512.94
368.41	522.94
368.636	516.94
368.862	531.94
369.089	511.94
369.315	517.94
369.541	534.94
369.767	510.94
369.993	530.94
370.219	523.94
370.445	544.94
370.672	543.94
370.898	531.94
371.124	559.94
371.35	552.94
371.576	523.94
371.802	533.94
372.028	544.94
372.254	540.94
372.48	548.94
372.706	561.94
372.932	543.94
373.158	562.94
373.384	547.94
373.61	548.94
373.835	560.94
374.061	552.94
374.287	571.94
374.513	555.94
374.739	578.94
374.965	575.94
375.191	577.94
375.416	572.94
375.642	568.94
375.868	571.94
376.094	540.94
376.319	566.94
376.545	542.94
376.771	533.94
376.997	532.94
377.222	540.94
377.448	537.94
377.674	512.94
377.899	527.94
378.125	535.94
378.35	534.94
378.576	528.94
378.802	551.94
379.027	530.94
379.253	540.94
379.478	538.94
379.704	508.94
379.929	540.94
380.155	540.94
380.38	528.94
380.606	533.94
380.831	537.94
381.057	531.94
381.282	539.94
381.507	562.94
381.733	564.94
381.958	550.94
382.184	554.94
382.409	570.94
382.634	562.94
382.86	575.94
383.085	562.94
383.31	586.94
383.535	581.94
383.761	586.94
383.986	569.94
384.211	586.94
384.436	586.94
384.662	586.94
384.887	616.94
385.112	612.94
385.337	603.94
385.562	603.94
385.787	604.94
386.013	614.94
386.238	630.94
386.463	632.94
386.688	619.94
386.913	598.94
387.138	622.94
387.363	632.94
387.588	620.94
387.813	640.94
388.038	626.94
388.263	626.94
388.488	644.94
388.713	628.94
388.938	601.94
389.163	626.94
389.387	628.94
389.612	628.94
389.837	627.94
390.062	618.94
390.287	634.94
390.512	629.94
390.736	636.94
390.961	626.94
391.186	647.94
391.411	666.94
391.636	657.94
391.86	638.94
392.085	669.94
392.31	690.94
392.534	666.94
392.759	658.94
392.984	652.94
393.208	656.94
393.433	636.94
393.658	659.94
393.882	658.94
394.107	658.94
394.331	661.94
394.556	640.94
394.78	657.94
395.005	660.94
395.229	658.94
395.454	667.94
395.678	660.94
395.903	666.94
396.127	703.94
396.352	684.94
396.576	684.94
396.801	676.94
397.025	691.94
397.249	675.94
397.474	709.94
397.698	730.94
397.922	707.94
398.147	738.94
398.371	699.94
398.595	739.94
398.82	777.94
399.044	788.94
399.268	796.94
399.492	856.94
399.717	850.94
399.941	888.94
400.165	865.94
400.389	847.94
400.613	809.94
400.837	781.94
401.062	798.94
401.286	743.94
401.51	784.94
401.734	736.94
401.958	762.94
402.182	780.94
402.406	728.94
402.63	768.94
402.854	740.94
403.078	776.94
403.302	750.94
403.526	774.94
403.75	760.94
403.974	743.94
404.198	748.94
404.422	775.94
404.645	778.94
404.869	736.94
405.093	775.94
405.317	776.94
405.541	769.94
405.765	781.94
405.988	782.94
406.212	820.94
406.436	795.94
406.66	821.94
406.883	786.94
407.107	833.94
407.331	840.94
407.555	874.94
407.778	845.94
408.002	857.94
408.226	831.94
408.449	829.94
408.673	815.94
408.896	823.94
409.12	811.94
409.344	793.94
409.567	777.94
409.791	793.94
410.014	792.94
410.238	788.94
410.461	760.94
410.685	759.94
410.908	788.94
411.132	757.94
411.355	754.94
411.578	756.94
411.802	772.94
412.025	745.94
412.249	779.94
412.472	762.94
412.695	757.94
412.919	744.94
413.142	766.94
413.365	753.94
413.589	752.94
413.812	748.94
414.035	746.94
414.258	765.94
414.482	735.94
414.705	730.94
414.928	742.94
415.151	711.94
415.374	728.94
415.597	744.94
415.821	707.94
416.044	681.94
416.267	711.94
416.49	722.94
416.713	718.94
416.936	719.94
417.159	722.94
417.382	710.94
417.605	699.94
417.828	699.94
418.051	684.94
418.274	700.94
418.497	697.94
418.72	722.94
418.943	700.94
419.166	759.94
419.389	799.94
419.611	758.94
419.834	769.94
420.057	734.94
420.28	728.94
420.503	707.94
420.726	694.94
420.948	700.94
421.171	691.94
421.394	690.94
421.617	703.94
421.839	713.94
422.062	720.94
422.285	693.94
422.507	730.94
422.73	695.94
422.953	724.94
423.175	702.94
423.398	718.94
423.621	694.94
423.843	720.94
424.066	706.94
424.288	690.94
424.511	707.94
424.733	696.94
424.956	694.94
425.178	691.94
425.401	691.94
425.623	703.94
425.846	681.94
426.068	677.94
426.291	690.94
426.513	672.94
426.735	666.94
426.958	690.94
427.18	665.94
427.402	671.94
427.625	651.94
427.847	646.94
428.069	657.94
428.292	664.94
428.514	658.94
428.736	663.94
428.958	659.94
429.181	666.94
429.403	659.94
429.625	658.94
429.847	640.94
430.069	672.94
430.292	651.94
430.514	652.94
430.736	659.94
430.958	654.94
431.18	665.94
431.402	685.94
431.624	665.94
431.846	648.94
432.068	662.94
432.29	658.94
432.512	653.94
432.734	648.94
432.956	655.94
433.178	647.94
433.4	675.94
433.622	676.94
433.844	678.94
434.066	682.94
434.287	671.94
434.509	674.94
434.731	707.94
434.953	666.94
435.175	696.94
435.397	681.94
435.618	675.94
435.84	667.94
436.062	666.94
436.284	644.94
436.505	653.94
436.727	678.94
436.949	651.94
437.17	656.94
437.392	640.94
437.614	646.94
437.835	613.94
438.057	634.94
438.278	595.94
438.5	644.94
438.721	644.94
438.943	643.94
439.165	615.94
439.386	622.94
439.608	656.94
439.829	644.94
440.05	640.94
440.272	639.94
440.493	646.94
440.715	664.94
440.936	672.94
441.158	653.94
441.379	663.94
441.6	670.94
441.822	680.94
442.043	671.94
442.264	683.94
442.486	671.94
442.707	656.94
442.928	696.94
443.149	679.94
443.371	676.94
443.592	638.94
443.813	672.94
444.034	672.94
444.255	689.94
444.476	694.94
444.698	702.94
444.919	697.94
445.14	824.94
445.361	759.94
445.582	695.94
445.803	695.94
446.024	686.94
446.245	659.94
446.466	663.94
446.687	639.94
446.908	640.94
447.129	643.94
447.35	613.94
447.571	640.94
447.792	624.94
448.013	617.94
448.234	630.94
448.455	610.94
448.675	606.94
448.896	605.94
449.117	594.94
449.338	595.94
449.559	599.94
449.779	574.94
450	612.94
450.221	595.94
450.442	587.94
450.662	586.94
450.883	566.94
451.104	603.94
451.324	568.94
451.545	588.94
451.766	581.94
451.986	587.94
452.207	590.94
452.428	566.94
452.648	567.94
452.869	586.94
453.089	558.94
453.31	558.94
453.53	576.94
453.751	587.94
453.971	580.94
454.192	546.94
454.412	556.94
454.633	561.94
454.853	563.94
455.073	575.94
455.294	562.94
455.514	562.94
455.734	553.94
455.955	571.94
456.175	585.94
456.395	550.94
456.616	602.94
456.836	597.94
457.056	578.94
457.276	566.94
457.497	567.94
457.717	554.94
457.937	558.94
458.157	606.94
458.377	595.94
458.598	611.94
458.818	624.94
459.038	597.94
459.258	606.94
459.478	647.94
459.698	665.94
459.918	656.94
460.138	686.94
460.358	687.94
460.578	698.94
460.798	702.94
461.018	692.94
461.238	697.94
461.458	716.94
461.678	692.94
461.898	743.94
462.118	719.94
462.338	754.94
462.558	745.94
462.777	768.94
462.997	786.94
463.217	818.94
463.437	809.94
463.657	809.94
463.876	778.94
464.096	768.94
464.316	773.94
464.536	754.94
464.755	766.94
464.975	726.94
465.195	704.94
465.414	703.94
465.634	671.94
465.854	673.94
466.073	690.94
466.293	656.94
466.512	627.94
466.732	669.94
466.951	640.94
467.171	634.94
467.391	636.94
467.61	629.94
467.829	607.94
468.049	611.94
468.268	608.94
468.488	621.94
468.707	605.94
468.927	628.94
469.146	612.94
469.365	642.94
469.585	617.94
469.804	630.94
470.023	635.94
470.243	636.94
470.462	637.94
470.681	622.94
470.901	614.94
471.12	624.94
471.339	624.94
471.558	624.94
471.777	633.94
471.997	649.94
472.216	636.94
472.435	615.94
472.654	629.94
472.873	632.94
473.092	648.94
473.311	606.94
473.53	615.94
473.749	635.94
473.968	628.94
474.187	605.94
474.406	633.94
474.625	646.94
474.844	624.94
475.063	617.94
475.282	629.94
475.501	608.94
475.72	645.94
475.939	622.94
476.158	659.94
476.377	656.94
476.596	662.94
476.814	688.94
477.033	669.94
477.252	681.94
477.471	696.94
477.69	694.94
477.908	722.94
478.127	705.94
478.346	698.94
478.564	710.94
478.783	731.94
479.002	721.94
479.22	748.94
479.439	739.94
479.658	732.94
479.876	738.94
480.095	742.94
480.313	749.94
480.532	770.94
480.751	731.94
480.969	770.94
481.188	754.94
481.406	741.94
481.624	750.94
481.843	740.94
482.061	737.94
482.28	728.94
482.498	715.94
482.717	688.94
482.935	702.94
483.153	737.94
483.372	715.94
483.59	722.94
483.808	749.94
484.027	723.94
484.245	723.94
484.463	735.94
484.681	725.94
484.9	745.94
485.118	741.94
485.336	739.94
485.554	758.94
485.772	750.94
485.99	759.94
486.209	742.94
486.427	745.94
486.645	754.94
486.863	790.94
487.081	743.94
487.299	742.94
487.517	740.94
487.735	757.94
487.953	775.94
488.171	774.94
488.389	747.94
488.607	733.94
488.825	739.94
489.043	745.94
489.261	762.94
489.479	771.94
489.696	737.94
489.914	757.94
490.132	772.94
490.35	754.94
490.568	747.94
490.786	758.94
491.003	750.94
491.221	772.94
491.439	745.94
491.657	740.94
491.874	803.94
492.092	766.94
492.31	772.94
492.527	764.94
492.745	755.94
492.963	765.94
493.18	778.94
493.398	758.94
493.615	790.94
493.833	790.94
494.05	785.94
494.268	793.94
494.485	777.94
494.703	796.94
494.92	795.94
495.138	791.94
495.355	769.94
495.573	789.94
495.79	819.94
496.008	802.94
496.225	828.94
496.442	827.94
496.66	828.94
496.877	839.94
497.094	868.94
497.312	861.94
497.529	870.94
497.746	908.94
497.963	940.94
498.181	954.94
498.398	977.94
498.615	1023.94
498.832	1066.94
499.049	1095.94
499.267	1138.94
499.484	1184.94
499.701	1238.94
499.918	1300.94
500.135	1300.94
500.352	1383.94
500.569	1415.94
500.786	1398.94
501.003	1390.94
501.22	1330.94
501.437	1255.94
501.654	1220.94
501.871	1131.94
502.088	1104.94
502.305	1090.94
502.522	1057.94
502.739	1003.94
502.956	943.94
503.172	954.94
503.389	912.94
503.606	896.94
503.823	898.94
504.04	867.94
504.256	889.94
504.473	863.94
504.69	846.94
504.907	853.94
505.123	819.94
505.34	818.94
505.557	802.94
505.773	802.94
505.99	765.94
506.207	743.94
506.423	758.94
506.64	735.94
506.856	727.94
507.073	734.94
507.289	717.94
507.506	724.94
507.722	706.94
507.939	725.94
508.155	666.94
508.372	714.94
508.588	703.94
508.805	686.94
509.021	674.94
509.238	662.94
509.454	661.94
509.67	660.94
509.887	673.94
510.103	654.94
510.319	652.94
510.536	646.94
510.752	648.94
510.968	643.94
511.184	658.94
511.401	640.94
511.617	654.94
511.833	625.94
512.049	640.94
512.265	642.94
512.481	642.94
512.698	645.94
512.914	654.94
513.13	667.94
513.346	668.94
513.562	655.94
513.778	632.94
513.994	663.94
514.21	653.94
514.426	640.94
514.642	666.94
514.858	670.94
515.074	661.94
515.29	689.94
515.506	666.94
515.721	672.94
515.937	683.94
516.153	675.94
516.369	693.94
516.585	684.94
516.801	717.94
517.016	730.94
517.232	724.94
517.448	728.94
517.664	747.94
517.879	712.94
518.095	741.94
518.311	750.94
518.527	741.94
518.742	724.94
518.958	711.94
519.173	686.94
519.389	671.94
519.605	673.94
519.82	652.94
520.036	690.94
520.251	677.94
520.467	669.94
520.682	644.94
520.898	631.94
521.113	634.94
521.329	609.94
521.544	614.94
521.76	646.94
521.975	619.94
522.19	606.94
522.406	589.94
522.621	618.94
522.836	628.94
523.052	609.94
523.267	609.94
523.482	589.94
523.698	579.94
523.913	615.94
524.128	608.94
524.343	601.94
524.559	571.94
524.774	574.94
524.989	572.94
525.204	578.94
525.419	597.94
525.634	580.94
525.849	571.94
526.064	599.94
526.28	584.94
526.495	578.94
526.71	578.94
526.925	607.94
527.14	564.94
527.355	582.94
527.57	565.94
527.785	573.94
527.999	562.94
528.214	587.94
528.429	576.94
528.644	566.94
528.859	560.94
529.074	569.94
529.289	567.94
529.503	570.94
529.718	560.94
529.933	564.94
530.148	560.94
530.363	562.94
530.577	557.94
530.792	558.94
531.007	555.94
531.221	584.94
531.436	563.94
531.651	559.94
531.865	552.94
532.08	563.94
532.295	567.94
532.509	560.94
532.724	559.94
532.938	571.94
533.153	572.94
533.367	559.94
533.582	559.94
533.796	540.94
534.011	554.94
534.225	558.94
534.44	526.94
534.654	562.94
534.868	566.94
535.083	542.94
535.297	541.94
535.511	546.94
535.726	543.94
535.94	538.94
536.154	534.94
536.369	539.94
536.583	510.94
536.797	538.94
537.011	548.94
537.225	507.94
537.44	530.94
537.654	523.94
537.868	536.94
538.082	516.94
538.296	531.94
538.51	512.94
538.724	543.94
538.938	523.94
539.153	519.94
539.367	532.94
539.581	506.94
539.795	515.94
540.009	499.94
540.222	519.94
540.436	521.94
540.65	534.94
540.864	522.94
541.078	516.94
541.292	537.94
541.506	522.94
541.72	495.94
541.934	498.94
542.147	515.94
542.361	532.94
542.575	486.94
542.789	524.94
543.002	539.94
543.216	510.94
543.43	506.94
543.644	515.94
543.857	517.94
544.071	516.94
544.285	499.94
544.498	514.94
544.712	516.94
544.925	510.94
545.139	533.94
545.352	522.94
545.566	528.94
545.779	509.94
545.993	516.94
546.206	508.94
546.42	510.94
546.633	518.94
546.847	524.94
547.06	516.94
547.274	514.94
547.487	536.94
547.7	518.94
547.914	524.94
548.127	528.94
548.34	538.94
548.554	520.94
548.767	506.94
548.98	491.94
549.193	518.94
549.407	510.94
549.62	515.94
549.833	540.94
550.046	516.94
550.259	498.94
550.473	522.94
550.686	517.94
550.899	515.94
551.112	505.94
551.325	499.94
551.538	507.94
551.751	519.94
551.964	512.94
552.177	520.94
552.39	529.94
552.603	508.94
552.816	523.94
553.029	545.94
553.242	519.94
553.455	531.94
553.667	535.94
553.88	534.94
554.093	510.94
554.306	520.94
554.519	510.94
554.732	509.94
554.944	489.94
555.157	492.94
555.37	491.94
555.583	482.94
555.795	479.94
556.008	469.94
556.221	509.94
556.433	464.94
556.646	476.94
556.859	447.94
557.071	465.94
557.284	459.94
557.496	451.94
557.709	461.94
557.921	467.94
558.134	446.94
558.346	452.94
558.559	452.94
558.771	446.94
558.984	464.94
559.196	471.94
559.409	471.94
559.621	445.94
559.833	440.94
560.046	451.94
560.258	445.94
560.47	444.94
560.683	436.94
560.895	418.94
561.107	437.94
561.32	452.94
561.532	443.94
561.744	462.94
561.956	450.94
562.168	452.94
562.381	442.94
562.593	422.94
562.805	454.94
563.017	447.94
563.229	449.94
563.441	446.94
563.653	434.94
563.865	470.94
564.077	446.94
564.289	464.94
564.501	478.94
564.713	453.94
564.925	482.94
565.137	475.94
565.349	486.94
565.561	486.94
565.773	515.94
565.985	521.94
566.197	546.94
566.408	540.94
566.62	541.94
566.832	552.94
567.044	580.94
567.255	582.94
567.467	566.94
567.679	590.94
567.891	585.94
568.102	581.94
568.314	570.94
568.526	570.94
568.737	551.94
568.949	521.94
569.161	492.94
569.372	476.94
569.584	480.94
569.795	456.94
570.007	443.94
570.218	434.94
570.43	454.94
570.641	443.94
570.853	430.94
571.064	435.94
571.276	422.94
571.487	426.94
571.698	413.94
571.91	427.94
572.121	416.94
572.333	399.94
572.544	395.94
572.755	372.94
572.966	370.94
573.178	386.94
573.389	380.94
573.6	377.94
573.811	374.94
574.023	370.94
574.234	359.94
574.445	380.94
574.656	359.94
574.867	360.94
575.078	360.94
575.289	367.94
575.501	352.94
575.712	368.94
575.923	352.94
576.134	344.94
576.345	364.94
576.556	348.94
576.767	352.94
576.978	371.94
577.188	355.94
577.399	347.94
577.61	352.94
577.821	339.94
578.032	354.94
578.243	320.94
578.454	344.94
578.665	337.94
578.875	338.94
579.086	344.94
579.297	330.94
579.508	334.94
579.718	330.94
579.929	346.94
580.14	321.94
580.35	336.94
580.561	315.94
580.772	329.94
580.982	315.94
581.193	303.94
581.403	316.94
581.614	312.94
581.825	311.94
582.035	319.94
582.246	313.94
582.456	315.94
582.667	318.94
582.877	309.94
583.087	304.94
583.298	298.94
583.508	304.94
583.719	313.94
583.929	301.94
584.139	311.94
584.35	312.94
584.56	317.94
584.77	303.94
584.981	287.94
585.191	319.94
585.401	312.94
585.611	318.94
585.821	308.94
586.032	295.94
586.242	293.94
586.452	323.94
586.662	308.94
586.872	326.94
587.082	296.94
587.292	287.94
587.502	314.94
587.713	288.94
587.923	303.94
588.133	296.94
588.343	304.94
588.553	289.94
588.762	314.94
588.972	334.94
589.182	316.94
589.392	329.94
589.602	298.94
589.812	318.94
590.022	317.94
590.232	312.94
590.441	302.94
590.651	313.94
590.861	306.94
591.071	296.94
591.281	313.94
591.49	320.94
591.7	324.94
591.91	316.94
592.119	310.94
592.329	341.94
592.539	317.94
592.748	324.94
592.958	322.94
593.167	331.94
593.377	336.94
593.587	333.94
593.796	325.94
594.006	322.94
594.215	324.94
594.424	311.94
594.634	310.94
594.843	315.94
595.053	306.94
595.262	307.94
595.472	321.94
595.681	299.94
595.89	292.94
596.1	295.94
596.309	308.94
596.518	292.94
596.727	290.94
596.937	291.94
597.146	290.94
597.355	305.94
597.564	298.94
597.774	262.94
597.983	305.94
598.192	280.94
598.401	289.94
598.61	264.94
598.819	274.94
599.028	266.94
599.237	260.94
599.446	245.94
599.655	256.94
599.864	240.94
600.073	258.94
600.282	263.94
600.491	261.94
600.7	276.94
600.909	266.94
601.118	266.94
601.327	240.94
601.536	251.94
601.745	258.94
601.953	251.94
602.162	257.94
602.371	238.94
602.58	258.94
602.789	244.94
602.997	259.94
603.206	256.94
603.415	247.94
603.623	238.94
603.832	263.94
604.041	253.94
604.249	251.94
604.458	246.94
604.666	251.94
604.875	232.94
605.084	261.94
605.292	245.94
605.501	246.94
605.709	235.94
605.918	225.94
606.126	233.94
606.334	241.94
606.543	255.94
606.751	243.94
606.96	230.94
607.168	254.94
607.376	236.94
607.585	244.94
607.793	243.94
608.001	239.94
608.21	239.94
608.418	249.94
608.626	230.94
608.834	238.94
609.043	238.94
609.251	237.94
609.459	220.94
609.667	234.94
609.875	226.94
610.083	229.94
610.291	223.94
610.499	237.94
610.707	230.94
610.916	234.94
611.124	254.94
611.332	246.94
611.54	223.94
611.748	232.94
611.955	223.94
612.163	210.94
612.371	224.94
612.579	228.94
612.787	236.94
612.995	227.94
613.203	225.94
613.411	231.94
613.618	229.94
613.826	221.94
614.034	232.94
614.242	243.94
614.449	223.94
614.657	234.94
614.865	208.94
615.072	212.94
615.28	216.94
615.488	216.94
615.695	224.94
615.903	228.94
616.111	231.94
616.318	217.94
616.526	225.94
616.733	210.94
616.941	217.94
617.148	235.94
617.356	220.94
617.563	219.94
617.771	225.94
617.978	243.94
618.185	219.94
618.393	214.94
618.6	222.94
618.807	222.94
619.015	224.94
619.222	236.94
619.429	204.94
619.637	203.94
619.844	214.94
620.051	195.94
620.258	231.94
620.466	213.94
620.673	204.94
620.88	213.94
621.087	220.94
621.294	213.94
621.501	210.94
621.708	217.94
621.915	216.94
622.122	225.94
622.329	207.94
622.536	217.94
622.743	187.94
622.95	216.94
623.157	202.94
623.364	212.94
623.571	217.94
623.778	204.94
623.985	193.94
624.192	204.94
624.399	194.94
624.606	201.94
624.812	211.94
625.019	191.94
625.226	211.94
625.433	208.94
625.639	206.94
625.846	180.94
626.053	190.94
626.259	202.94
626.466	209.94
626.673	195.94
626.879	192.94
627.086	182.94
627.293	213.94
627.499	199.94
627.706	202.94
627.912	201.94
628.119	188.94
628.325	211.94
628.532	191.94
628.738	210.94
628.945	193.94
629.151	185.94
629.357	188.94
629.564	180.94
629.77	195.94
629.976	189.94
630.183	198.94
630.389	202.94
630.595	207.94
630.802	191.94
631.008	176.94
631.214	183.94
631.42	189.94
631.627	187.94
631.833	191.94
632.039	189.94
632.245	170.94
632.451	183.94
632.657	194.94
632.863	195.94
633.069	191.94
633.275	190.94
633.481	201.94
633.688	183.94
633.893	199.94
634.099	182.94
634.305	189.94
634.511	180.94
634.717	186.94
634.923	185.94
635.129	176.94
635.335	201.94
635.541	175.94
635.747	190.94
635.952	174.94
636.158	184.94
636.364	210.94
636.57	166.94
636.775	174.94
636.981	183.94
637.187	178.94
637.392	190.94
637.598	195.94
637.804	172.94
638.009	182.94
638.215	195.94
638.421	181.94
638.626	178.94
638.832	177.94
639.037	159.94
639.243	178.94
639.448	177.94
639.654	167.94
639.859	170.94
640.065	183.94
640.27	188.94
640.475	183.94
640.681	185.94
640.886	153.94
641.091	174.94
641.297	179.94
641.502	172.94
641.707	165.94
641.913	187.94
642.118	189.94
642.323	184.94
642.528	195.94
642.733	165.94
642.939	184.94
643.144	176.94
643.349	175.94
643.554	201.94
643.759	177.94
643.964	185.94
644.169	182.94
644.374	172.94
644.579	164.94
644.784	192.94
644.989	179.94
645.194	166.94
645.399	189.94
645.604	161.94
645.809	168.94
646.014	171.94
646.219	177.94
646.423	164.94
646.628	169.94
646.833	191.94
647.038	171.94
647.243	176.94
647.447	186.94
647.652	197.94
647.857	183.94
648.062	183.94
648.266	174.94
648.471	178.94
648.676	186.94
648.88	171.94
649.085	174.94
649.289	186.94
649.494	177.94
649.698	187.94
649.903	182.94
650.107	171.94
650.312	184.94
650.516	167.94
650.721	161.94
650.925	178.94
651.13	168.94
651.334	174.94
651.539	167.94
651.743	153.94
651.947	161.94
652.152	164.94
652.356	155.94
652.56	164.94
652.764	167.94
652.969	169.94
653.173	158.94
653.377	169.94
653.581	173.94
653.785	158.94
653.99	170.94
654.194	174.94
654.398	166.94
654.602	153.94
654.806	168.94
655.01	164.94
655.214	172.94
655.418	159.94
655.622	158.94
655.826	164.94
656.03	175.94
656.234	170.94
656.438	168.94
656.642	176.94
656.846	174.94
657.049	161.94
657.253	155.94
657.457	163.94
657.661	148.94
657.865	138.94
658.068	126.94
658.272	123.94
658.476	117.94
658.68	114.94
658.883	126.94
659.087	120.94
659.291	103.94
659.494	113.94
659.698	110.94
659.901	115.94
660.105	115.94
660.309	98.94
660.512	98.94
660.716	98.94
660.919	112.94
661.123	103.94
661.326	99.94
661.53	103.94
661.733	100.94
661.936	101.94
662.14	96.94
662.343	92.94
662.546	92.94
662.75	87.94
662.953	86.94
663.156	88.94
663.36	91.94
663.563	104.94
663.766	82.94
663.969	87.94
664.173	75.94
664.376	74.94
664.579	75.94
664.782	78.94
664.985	82.94
665.188	70.94
665.391	88.94
665.594	77.94
665.797	80.94
666	77.94
666.203	82.94
666.406	89.94
666.609	88.94
666.812	76.94
667.015	84.94
667.218	83.94
667.421	81.94
667.624	78.94
667.827	90.94
668.03	76.94
668.232	85.94
668.435	89.94
668.638	84.94
668.841	78.94
669.043	80.94
669.246	68.94
669.449	60.94
669.651	82.94
669.854	83.94
670.057	101.94
670.259	76.94
670.462	74.94
670.665	78.94
670.867	71.94
671.07	81.94
671.272	95.94
671.475	88.94
671.677	86.94
671.88	81.94
672.082	95.94
672.284	76.94
672.487	84.94
672.689	80.94
672.892	80.94
