Data from Fe(NO3)3@0.0125M.TitratingCurve.Agarose3%dH2O.NegLispCup.LampEnergy10.LIBS07252019_HRD10591_16-58-47-338.txt Node
Date: Thu Jul 25 16:58:47 EDT 2019
User: cochatt
Spectrometer: HR+D1059
Trigger mode: 1
Integration Time (sec): 1.000000E-1
Scans to average: 1
Electric dark correction enabled: true
Nonlinearity correction enabled: false
Boxcar width: 0
XAxis mode: Wavelengths
Number of Pixels in Spectrum: 2048
>>>>>Begin Spectral Data<<<<<
223.165	-27.56
223.4	-27.56
223.635	-27.56
223.869	-10.56
224.104	-17.56
224.338	-11.56
224.573	-17.56
224.808	-18.56
225.042	3.44
225.277	-0.56
225.511	11.44
225.746	14.44
225.98	7.44
226.215	0.44
226.449	9.44
226.683	12.44
226.918	24.44
227.152	20.44
227.387	28.44
227.621	41.44
227.856	50.44
228.09	44.44
228.324	52.44
228.559	48.44
228.793	70.44
229.027	101.44
229.262	105.44
229.496	113.44
229.73	113.44
229.964	112.44
230.199	114.44
230.433	121.44
230.667	131.44
230.901	135.44
231.136	123.44
231.37	142.44
231.604	141.44
231.838	132.44
232.072	142.44
232.306	132.44
232.541	133.44
232.775	135.44
233.009	148.44
233.243	138.44
233.477	140.44
233.711	152.44
233.945	144.44
234.179	136.44
234.413	145.44
234.647	148.44
234.881	171.44
235.115	144.44
235.349	149.44
235.583	152.44
235.817	145.44
236.051	149.44
236.285	147.44
236.519	160.44
236.753	159.44
236.987	151.44
237.221	170.44
237.455	156.44
237.689	165.44
237.922	159.44
238.156	185.44
238.39	171.44
238.624	197.44
238.858	163.44
239.091	163.44
239.325	168.44
239.559	170.44
239.793	178.44
240.027	187.44
240.26	178.44
240.494	178.44
240.728	185.44
240.961	200.44
241.195	184.44
241.429	188.44
241.662	205.44
241.896	188.44
242.13	185.44
242.363	195.44
242.597	188.44
242.83	203.44
243.064	207.44
243.298	192.44
243.531	191.44
243.765	202.44
243.998	209.44
244.232	203.44
244.465	202.44
244.699	194.44
244.932	205.44
245.166	205.44
245.399	212.44
245.633	211.44
245.866	206.44
246.099	220.44
246.333	219.44
246.566	215.44
246.8	212.44
247.033	222.44
247.266	229.44
247.5	220.44
247.733	225.44
247.966	227.44
248.2	224.44
248.433	244.44
248.666	243.44
248.899	229.44
249.133	233.44
249.366	246.44
249.599	248.44
249.832	255.44
250.066	241.44
250.299	236.44
250.532	231.44
250.765	255.44
250.998	262.44
251.231	248.44
251.465	275.44
251.698	262.44
251.931	254.44
252.164	253.44
252.397	280.44
252.63	258.44
252.863	258.44
253.096	274.44
253.329	278.44
253.562	277.44
253.795	275.44
254.028	261.44
254.261	277.44
254.494	275.44
254.727	299.44
254.96	263.44
255.193	297.44
255.426	305.44
255.659	270.44
255.892	286.44
256.124	287.44
256.357	298.44
256.59	290.44
256.823	292.44
257.056	285.44
257.289	284.44
257.521	300.44
257.754	302.44
257.987	292.44
258.22	291.44
258.452	294.44
258.685	299.44
258.918	331.44
259.151	316.44
259.383	335.44
259.616	319.44
259.849	315.44
260.081	328.44
260.314	347.44
260.547	339.44
260.779	316.44
261.012	313.44
261.244	328.44
261.477	325.44
261.71	338.44
261.942	327.44
262.175	327.44
262.407	348.44
262.64	315.44
262.872	347.44
263.105	345.44
263.337	352.44
263.57	352.44
263.802	338.44
264.035	351.44
264.267	353.44
264.499	340.44
264.732	331.44
264.964	338.44
265.197	337.44
265.429	345.44
265.661	355.44
265.894	346.44
266.126	336.44
266.358	352.44
266.591	363.44
266.823	351.44
267.055	369.44
267.287	355.44
267.52	331.44
267.752	368.44
267.984	371.44
268.216	361.44
268.448	359.44
268.681	385.44
268.913	394.44
269.145	401.44
269.377	361.44
269.609	374.44
269.841	382.44
270.073	377.44
270.306	404.44
270.538	385.44
270.77	384.44
271.002	393.44
271.234	398.44
271.466	402.44
271.698	407.44
271.93	395.44
272.162	404.44
272.394	405.44
272.626	404.44
272.858	417.44
273.09	411.44
273.322	434.44
273.553	425.44
273.785	425.44
274.017	447.44
274.249	443.44
274.481	444.44
274.713	456.44
274.945	459.44
275.176	464.44
275.408	468.44
275.64	437.44
275.872	465.44
276.104	446.44
276.335	429.44
276.567	443.44
276.799	430.44
277.031	435.44
277.262	457.44
277.494	461.44
277.726	449.44
277.957	457.44
278.189	456.44
278.421	439.44
278.652	442.44
278.884	453.44
279.115	456.44
279.347	433.44
279.579	447.44
279.81	457.44
280.042	468.44
280.273	479.44
280.505	473.44
280.736	471.44
280.968	475.44
281.199	472.44
281.431	487.44
281.662	482.44
281.894	481.44
282.125	491.44
282.356	487.44
282.588	497.44
282.819	467.44
283.051	495.44
283.282	470.44
283.513	504.44
283.745	472.44
283.976	484.44
284.207	508.44
284.439	498.44
284.67	470.44
284.901	490.44
285.132	503.44
285.364	520.44
285.595	525.44
285.826	500.44
286.057	519.44
286.288	540.44
286.52	504.44
286.751	503.44
286.982	523.44
287.213	519.44
287.444	530.44
287.675	518.44
287.906	509.44
288.138	528.44
288.369	514.44
288.6	542.44
288.831	520.44
289.062	523.44
289.293	526.44
289.524	524.44
289.755	536.44
289.986	534.44
290.217	533.44
290.448	536.44
290.679	544.44
290.91	525.44
291.141	545.44
291.371	549.44
291.602	531.44
291.833	548.44
292.064	554.44
292.295	541.44
292.526	542.44
292.757	539.44
292.987	542.44
293.218	527.44
293.449	548.44
293.68	533.44
293.91	554.44
294.141	554.44
294.372	547.44
294.603	542.44
294.833	566.44
295.064	567.44
295.295	558.44
295.525	546.44
295.756	573.44
295.987	537.44
296.217	549.44
296.448	557.44
296.679	560.44
296.909	589.44
297.14	581.44
297.37	585.44
297.601	575.44
297.831	585.44
298.062	576.44
298.292	581.44
298.523	594.44
298.753	598.44
298.984	602.44
299.214	597.44
299.445	610.44
299.675	598.44
299.905	612.44
300.136	625.44
300.366	595.44
300.597	617.44
300.827	607.44
301.057	618.44
301.288	586.44
301.518	604.44
301.748	618.44
301.979	625.44
302.209	610.44
302.439	610.44
302.669	612.44
302.9	640.44
303.13	630.44
303.36	626.44
303.59	607.44
303.82	637.44
304.051	644.44
304.281	640.44
304.511	666.44
304.741	649.44
304.971	628.44
305.201	616.44
305.431	632.44
305.661	672.44
305.891	647.44
306.121	650.44
306.352	625.44
306.582	636.44
306.812	642.44
307.042	656.44
307.272	646.44
307.502	625.44
307.731	642.44
307.961	646.44
308.191	642.44
308.421	641.44
308.651	644.44
308.881	642.44
309.111	664.44
309.341	666.44
309.571	647.44
309.8	680.44
310.03	667.44
310.26	683.44
310.49	644.44
310.72	690.44
310.949	672.44
311.179	684.44
311.409	675.44
311.639	684.44
311.868	673.44
312.098	672.44
312.328	684.44
312.557	673.44
312.787	684.44
313.017	683.44
313.246	680.44
313.476	673.44
313.706	672.44
313.935	711.44
314.165	700.44
314.394	726.44
314.624	697.44
314.853	707.44
315.083	678.44
315.312	726.44
315.542	709.44
315.771	717.44
316.001	700.44
316.23	715.44
316.46	697.44
316.689	713.44
316.919	694.44
317.148	734.44
317.377	721.44
317.607	714.44
317.836	729.44
318.065	727.44
318.295	739.44
318.524	757.44
318.753	734.44
318.983	711.44
319.212	716.44
319.441	750.44
319.67	727.44
319.9	737.44
320.129	743.44
320.358	753.44
320.587	733.44
320.816	742.44
321.046	739.44
321.275	757.44
321.504	743.44
321.733	770.44
321.962	781.44
322.191	744.44
322.42	736.44
322.649	780.44
322.878	769.44
323.108	766.44
323.337	737.44
323.566	737.44
323.795	796.44
324.024	772.44
324.253	781.44
324.482	780.44
324.71	781.44
324.939	785.44
325.168	792.44
325.397	780.44
325.626	771.44
325.855	778.44
326.084	792.44
326.313	795.44
326.542	781.44
326.77	792.44
326.999	792.44
327.228	757.44
327.457	802.44
327.686	804.44
327.914	814.44
328.143	809.44
328.372	788.44
328.6	760.44
328.829	773.44
329.058	800.44
329.287	798.44
329.515	799.44
329.744	795.44
329.972	802.44
330.201	799.44
330.43	785.44
330.658	802.44
330.887	811.44
331.115	808.44
331.344	821.44
331.572	807.44
331.801	810.44
332.03	845.44
332.258	839.44
332.486	842.44
332.715	826.44
332.943	827.44
333.172	827.44
333.4	869.44
333.629	844.44
333.857	838.44
334.085	872.44
334.314	885.44
334.542	876.44
334.771	888.44
334.999	860.44
335.227	884.44
335.455	900.44
335.684	893.44
335.912	888.44
336.14	893.44
336.369	873.44
336.597	916.44
336.825	893.44
337.053	862.44
337.281	869.44
337.51	887.44
337.738	865.44
337.966	869.44
338.194	867.44
338.422	841.44
338.65	864.44
338.878	849.44
339.106	857.44
339.334	859.44
339.562	866.44
339.79	844.44
340.018	854.44
340.246	861.44
340.474	865.44
340.702	846.44
340.93	838.44
341.158	873.44
341.386	863.44
341.614	859.44
341.842	823.44
342.07	833.44
342.298	864.44
342.526	843.44
342.754	831.44
342.981	832.44
343.209	850.44
343.437	876.44
343.665	864.44
343.893	880.44
344.12	872.44
344.348	862.44
344.576	855.44
344.804	884.44
345.031	840.44
345.259	881.44
345.487	842.44
345.714	870.44
345.942	852.44
346.17	844.44
346.397	839.44
346.625	854.44
346.853	829.44
347.08	826.44
347.308	876.44
347.535	832.44
347.763	822.44
347.99	827.44
348.218	835.44
348.445	820.44
348.673	831.44
348.9	823.44
349.128	814.44
349.355	832.44
349.583	860.44
349.81	835.44
350.037	830.44
350.265	818.44
350.492	829.44
350.72	834.44
350.947	835.44
351.174	833.44
351.402	802.44
351.629	831.44
351.856	813.44
352.083	821.44
352.311	816.44
352.538	822.44
352.765	804.44
352.992	861.44
353.22	823.44
353.447	853.44
353.674	820.44
353.901	825.44
354.128	816.44
354.355	821.44
354.583	824.44
354.81	818.44
355.037	824.44
355.264	818.44
355.491	818.44
355.718	804.44
355.945	832.44
356.172	805.44
356.399	821.44
356.626	808.44
356.853	844.44
357.08	827.44
357.307	845.44
357.534	835.44
357.761	828.44
357.988	841.44
358.215	834.44
358.441	836.44
358.668	822.44
358.895	813.44
359.122	837.44
359.349	844.44
359.576	790.44
359.802	817.44
360.029	820.44
360.256	839.44
360.483	822.44
360.709	822.44
360.936	853.44
361.163	842.44
361.39	808.44
361.616	845.44
361.843	825.44
362.07	832.44
362.296	859.44
362.523	838.44
362.749	839.44
362.976	822.44
363.203	850.44
363.429	855.44
363.656	814.44
363.882	862.44
364.109	846.44
364.335	844.44
364.562	859.44
364.788	858.44
365.015	851.44
365.241	855.44
365.468	851.44
365.694	860.44
365.92	859.44
366.147	834.44
366.373	870.44
366.599	867.44
366.826	852.44
367.052	834.44
367.278	870.44
367.505	864.44
367.731	880.44
367.957	854.44
368.184	854.44
368.41	877.44
368.636	856.44
368.862	887.44
369.089	872.44
369.315	846.44
369.541	865.44
369.767	864.44
369.993	872.44
370.219	890.44
370.445	859.44
370.672	901.44
370.898	894.44
371.124	876.44
371.35	893.44
371.576	869.44
371.802	884.44
372.028	896.44
372.254	883.44
372.48	893.44
372.706	907.44
372.932	929.44
373.158	914.44
373.384	922.44
373.61	920.44
373.835	892.44
374.061	894.44
374.287	871.44
374.513	902.44
374.739	872.44
374.965	903.44
375.191	917.44
375.416	896.44
375.642	890.44
375.868	916.44
376.094	908.44
376.319	902.44
376.545	895.44
376.771	893.44
376.997	889.44
377.222	868.44
377.448	907.44
377.674	895.44
377.899	860.44
378.125	882.44
378.35	896.44
378.576	890.44
378.802	866.44
379.027	886.44
379.253	916.44
379.478	888.44
379.704	886.44
379.929	890.44
380.155	899.44
380.38	880.44
380.606	902.44
380.831	888.44
381.057	913.44
381.282	894.44
381.507	874.44
381.733	912.44
381.958	875.44
382.184	918.44
382.409	932.44
382.634	906.44
382.86	918.44
383.085	902.44
383.31	916.44
383.535	929.44
383.761	908.44
383.986	932.44
384.211	944.44
384.436	945.44
384.662	923.44
384.887	944.44
385.112	953.44
385.337	931.44
385.562	921.44
385.787	947.44
386.013	970.44
386.238	941.44
386.463	961.44
386.688	985.44
386.913	974.44
387.138	940.44
387.363	941.44
387.588	968.44
387.813	984.44
388.038	948.44
388.263	982.44
388.488	988.44
388.713	984.44
388.938	974.44
389.163	977.44
389.387	981.44
389.612	974.44
389.837	967.44
390.062	993.44
390.287	963.44
390.512	981.44
390.736	1010.44
390.961	996.44
391.186	986.44
391.411	987.44
391.636	1011.44
391.86	988.44
392.085	1017.44
392.31	982.44
392.534	998.44
392.759	992.44
392.984	978.44
393.208	1014.44
393.433	1013.44
393.658	1012.44
393.882	999.44
394.107	1001.44
394.331	1002.44
394.556	1004.44
394.78	1009.44
395.005	1014.44
395.229	985.44
395.454	1016.44
395.678	1032.44
395.903	1011.44
396.127	1022.44
396.352	1021.44
396.576	1030.44
396.801	1027.44
397.025	1014.44
397.249	1028.44
397.474	1043.44
397.698	1032.44
397.922	1067.44
398.147	1050.44
398.371	1052.44
398.595	1072.44
398.82	1060.44
399.044	1080.44
399.268	1121.44
399.492	1098.44
399.717	1131.44
399.941	1172.44
400.165	1141.44
400.389	1161.44
400.613	1149.44
400.837	1111.44
401.062	1104.44
401.286	1099.44
401.51	1106.44
401.734	1040.44
401.958	1107.44
402.182	1068.44
402.406	1069.44
402.63	1063.44
402.854	1059.44
403.078	1073.44
403.302	1069.44
403.526	1053.44
403.75	1061.44
403.974	1083.44
404.198	1074.44
404.422	1054.44
404.645	1032.44
404.869	1065.44
405.093	1109.44
405.317	1090.44
405.541	1111.44
405.765	1088.44
405.988	1079.44
406.212	1110.44
406.436	1113.44
406.66	1139.44
406.883	1144.44
407.107	1141.44
407.331	1141.44
407.555	1180.44
407.778	1179.44
408.002	1155.44
408.226	1136.44
408.449	1195.44
408.673	1180.44
408.896	1144.44
409.12	1153.44
409.344	1147.44
409.567	1140.44
409.791	1131.44
410.014	1104.44
410.238	1117.44
410.461	1139.44
410.685	1144.44
410.908	1114.44
411.132	1116.44
411.355	1095.44
411.578	1099.44
411.802	1101.44
412.025	1079.44
412.249	1073.44
412.472	1133.44
412.695	1115.44
412.919	1063.44
413.142	1060.44
413.365	1080.44
413.589	1089.44
413.812	1078.44
414.035	1064.44
414.258	1098.44
414.482	1092.44
414.705	1085.44
414.928	1067.44
415.151	1056.44
415.374	1061.44
415.597	1048.44
415.821	1053.44
416.044	1045.44
416.267	1051.44
416.49	1026.44
416.713	1036.44
416.936	1052.44
417.159	1029.44
417.382	1008.44
417.605	1010.44
417.828	989.44
418.051	1060.44
418.274	1046.44
418.497	1028.44
418.72	991.44
418.943	988.44
419.166	1036.44
419.389	1077.44
419.611	1094.44
419.834	1066.44
420.057	1052.44
420.28	1004.44
420.503	968.44
420.726	966.44
420.948	1000.44
421.171	1029.44
421.394	1000.44
421.617	1011.44
421.839	1014.44
422.062	1027.44
422.285	1016.44
422.507	1013.44
422.73	1006.44
422.953	1029.44
423.175	1001.44
423.398	1037.44
423.621	1002.44
423.843	1005.44
424.066	1045.44
424.288	1003.44
424.511	990.44
424.733	1032.44
424.956	987.44
425.178	979.44
425.401	1006.44
425.623	1022.44
425.846	1009.44
426.068	1035.44
426.291	987.44
426.513	1014.44
426.735	982.44
426.958	1001.44
427.18	979.44
427.402	993.44
427.625	983.44
427.847	1003.44
428.069	1006.44
428.292	1014.44
428.514	991.44
428.736	1014.44
428.958	1005.44
429.181	982.44
429.403	988.44
429.625	978.44
429.847	980.44
430.069	977.44
430.292	1001.44
430.514	991.44
430.736	995.44
430.958	996.44
431.18	998.44
431.402	993.44
431.624	949.44
431.846	977.44
432.068	969.44
432.29	992.44
432.512	977.44
432.734	995.44
432.956	948.44
433.178	999.44
433.4	999.44
433.622	996.44
433.844	1017.44
434.066	995.44
434.287	988.44
434.509	997.44
434.731	992.44
434.953	1001.44
435.175	979.44
435.397	1005.44
435.618	996.44
435.84	996.44
436.062	976.44
436.284	958.44
436.505	972.44
436.727	994.44
436.949	990.44
437.17	982.44
437.392	980.44
437.614	962.44
437.835	946.44
438.057	946.44
438.278	938.44
438.5	989.44
438.721	954.44
438.943	936.44
439.165	965.44
439.386	932.44
439.608	968.44
439.829	942.44
440.05	920.44
440.272	946.44
440.493	971.44
440.715	973.44
440.936	971.44
441.158	969.44
441.379	989.44
441.6	970.44
441.822	984.44
442.043	993.44
442.264	985.44
442.486	975.44
442.707	988.44
442.928	948.44
443.149	992.44
443.371	954.44
443.592	972.44
443.813	992.44
444.034	968.44
444.255	1008.44
444.476	955.44
444.698	1020.44
444.919	990.44
445.14	1066.44
445.361	1015.44
445.582	980.44
445.803	996.44
446.024	973.44
446.245	974.44
446.466	966.44
446.687	951.44
446.908	942.44
447.129	926.44
447.35	956.44
447.571	934.44
447.792	939.44
448.013	945.44
448.234	923.44
448.455	909.44
448.675	917.44
448.896	903.44
449.117	902.44
449.338	892.44
449.559	916.44
449.779	894.44
450	907.44
450.221	874.44
450.442	910.44
450.662	871.44
450.883	892.44
451.104	910.44
451.324	890.44
451.545	889.44
451.766	906.44
451.986	892.44
452.207	878.44
452.428	892.44
452.648	892.44
452.869	878.44
453.089	865.44
453.31	867.44
453.53	871.44
453.751	893.44
453.971	887.44
454.192	886.44
454.412	864.44
454.633	850.44
454.853	911.44
455.073	889.44
455.294	892.44
455.514	874.44
455.734	871.44
455.955	860.44
456.175	871.44
456.395	895.44
456.616	892.44
456.836	884.44
457.056	898.44
457.276	861.44
457.497	898.44
457.717	865.44
457.937	886.44
458.157	896.44
458.377	881.44
458.598	896.44
458.818	894.44
459.038	914.44
459.258	902.44
459.478	924.44
459.698	952.44
459.918	952.44
460.138	934.44
460.358	966.44
460.578	1005.44
460.798	944.44
461.018	965.44
461.238	980.44
461.458	983.44
461.678	995.44
461.898	988.44
462.118	1003.44
462.338	996.44
462.558	1027.44
462.777	1014.44
462.997	1051.44
463.217	1039.44
463.437	1074.44
463.657	1048.44
463.876	1031.44
464.096	1012.44
464.316	1031.44
464.536	1011.44
464.755	1017.44
464.975	1011.44
465.195	1003.44
465.414	985.44
465.634	975.44
465.854	983.44
466.073	973.44
466.293	975.44
466.512	930.44
466.732	965.44
466.951	936.44
467.171	960.44
467.391	950.44
467.61	969.44
467.829	919.44
468.049	924.44
468.268	917.44
468.488	948.44
468.707	953.44
468.927	932.44
469.146	934.44
469.365	924.44
469.585	903.44
469.804	934.44
470.023	972.44
470.243	944.44
470.462	933.44
470.681	962.44
470.901	963.44
471.12	916.44
471.339	957.44
471.558	943.44
471.777	976.44
471.997	961.44
472.216	948.44
472.435	981.44
472.654	969.44
472.873	974.44
473.092	956.44
473.311	934.44
473.53	946.44
473.749	939.44
473.968	958.44
474.187	961.44
474.406	962.44
474.625	959.44
474.844	986.44
475.063	983.44
475.282	977.44
475.501	997.44
475.72	1016.44
475.939	1010.44
476.158	1011.44
476.377	1045.44
476.596	1018.44
476.814	1049.44
477.033	1014.44
477.252	1047.44
477.471	1054.44
477.69	1019.44
477.908	1061.44
478.127	1086.44
478.346	1058.44
478.564	1074.44
478.783	1063.44
479.002	1096.44
479.22	1098.44
479.439	1141.44
479.658	1127.44
479.876	1126.44
480.095	1133.44
480.313	1104.44
480.532	1146.44
480.751	1141.44
480.969	1143.44
481.188	1128.44
481.406	1147.44
481.624	1122.44
481.843	1116.44
482.061	1140.44
482.28	1146.44
482.498	1103.44
482.717	1115.44
482.935	1142.44
483.153	1172.44
483.372	1149.44
483.59	1149.44
483.808	1175.44
484.027	1166.44
484.245	1166.44
484.463	1149.44
484.681	1171.44
484.9	1154.44
485.118	1174.44
485.336	1187.44
485.554	1193.44
485.772	1167.44
485.99	1174.44
486.209	1178.44
486.427	1187.44
486.645	1161.44
486.863	1211.44
487.081	1204.44
487.299	1196.44
487.517	1172.44
487.735	1152.44
487.953	1190.44
488.171	1198.44
488.389	1185.44
488.607	1194.44
488.825	1181.44
489.043	1190.44
489.261	1198.44
489.479	1182.44
489.696	1169.44
489.914	1181.44
490.132	1222.44
490.35	1224.44
490.568	1204.44
490.786	1173.44
491.003	1172.44
491.221	1212.44
491.439	1215.44
491.657	1187.44
491.874	1213.44
492.092	1214.44
492.31	1200.44
492.527	1206.44
492.745	1212.44
492.963	1216.44
493.18	1242.44
493.398	1237.44
493.615	1236.44
493.833	1236.44
494.05	1229.44
494.268	1231.44
494.485	1248.44
494.703	1253.44
494.92	1231.44
495.138	1194.44
495.355	1221.44
495.573	1249.44
495.79	1259.44
496.008	1280.44
496.225	1309.44
496.442	1276.44
496.66	1285.44
496.877	1274.44
497.094	1268.44
497.312	1320.44
497.529	1330.44
497.746	1346.44
497.963	1337.44
498.181	1384.44
498.398	1400.44
498.615	1408.44
498.832	1422.44
499.049	1480.44
499.267	1484.44
499.484	1531.44
499.701	1547.44
499.918	1523.44
500.135	1592.44
500.352	1603.44
500.569	1594.44
500.786	1616.44
501.003	1625.44
501.22	1570.44
501.437	1586.44
501.654	1520.44
501.871	1489.44
502.088	1454.44
502.305	1423.44
502.522	1428.44
502.739	1390.44
502.956	1389.44
503.172	1385.44
503.389	1335.44
503.606	1299.44
503.823	1321.44
504.04	1290.44
504.256	1293.44
504.473	1245.44
504.69	1268.44
504.907	1256.44
505.123	1236.44
505.34	1189.44
505.557	1193.44
505.773	1198.44
505.99	1143.44
506.207	1161.44
506.423	1158.44
506.64	1140.44
506.856	1116.44
507.073	1129.44
507.289	1134.44
507.506	1123.44
507.722	1133.44
507.939	1115.44
508.155	1101.44
508.372	1115.44
508.588	1081.44
508.805	1113.44
509.021	1057.44
509.238	1077.44
509.454	1041.44
509.67	1075.44
509.887	1056.44
510.103	1069.44
510.319	1079.44
510.536	1060.44
510.752	1020.44
510.968	1073.44
511.184	1067.44
511.401	1040.44
511.617	1026.44
511.833	1037.44
512.049	996.44
512.265	1028.44
512.481	1008.44
512.698	1026.44
512.914	1034.44
513.13	1030.44
513.346	1011.44
513.562	1014.44
513.778	1027.44
513.994	1020.44
514.21	1031.44
514.426	1023.44
514.642	1023.44
514.858	1044.44
515.074	1035.44
515.29	1039.44
515.506	1011.44
515.721	1025.44
515.937	1031.44
516.153	1032.44
516.369	1034.44
516.585	1035.44
516.801	1052.44
517.016	1049.44
517.232	1070.44
517.448	1053.44
517.664	1072.44
517.879	1057.44
518.095	1039.44
518.311	1097.44
518.527	1033.44
518.742	1064.44
518.958	1045.44
519.173	1054.44
519.389	1035.44
519.605	1037.44
519.82	1021.44
520.036	1043.44
520.251	1013.44
520.467	1011.44
520.682	1011.44
520.898	994.44
521.113	994.44
521.329	972.44
521.544	993.44
521.76	983.44
521.975	983.44
522.19	964.44
522.406	993.44
522.621	983.44
522.836	968.44
523.052	989.44
523.267	957.44
523.482	965.44
523.698	963.44
523.913	969.44
524.128	965.44
524.343	950.44
524.559	945.44
524.774	928.44
524.989	952.44
525.204	945.44
525.419	924.44
525.634	921.44
525.849	924.44
526.064	932.44
526.28	886.44
526.495	932.44
526.71	939.44
526.925	924.44
527.14	923.44
527.355	934.44
527.57	900.44
527.785	914.44
527.999	913.44
528.214	925.44
528.429	899.44
528.644	929.44
528.859	909.44
529.074	908.44
529.289	915.44
529.503	913.44
529.718	911.44
529.933	897.44
530.148	916.44
530.363	910.44
530.577	907.44
530.792	892.44
531.007	906.44
531.221	882.44
531.436	925.44
531.651	893.44
531.865	906.44
532.08	901.44
532.295	893.44
532.509	843.44
532.724	865.44
532.938	876.44
533.153	896.44
533.367	901.44
533.582	916.44
533.796	892.44
534.011	880.44
534.225	870.44
534.44	831.44
534.654	866.44
534.868	846.44
535.083	865.44
535.297	858.44
535.511	856.44
535.726	869.44
535.94	874.44
536.154	868.44
536.369	828.44
536.583	846.44
536.797	848.44
537.011	860.44
537.225	835.44
537.44	844.44
537.654	846.44
537.868	848.44
538.082	847.44
538.296	849.44
538.51	821.44
538.724	875.44
538.938	820.44
539.153	840.44
539.367	851.44
539.581	842.44
539.795	818.44
540.009	817.44
540.222	813.44
540.436	844.44
540.65	816.44
540.864	804.44
541.078	827.44
541.292	831.44
541.506	837.44
541.72	825.44
541.934	796.44
542.147	834.44
542.361	824.44
542.575	820.44
542.789	785.44
543.002	817.44
543.216	812.44
543.43	802.44
543.644	782.44
543.857	797.44
544.071	800.44
544.285	793.44
544.498	802.44
544.712	806.44
544.925	784.44
545.139	793.44
545.352	787.44
545.566	789.44
545.779	782.44
545.993	820.44
546.206	782.44
546.42	776.44
546.633	794.44
546.847	824.44
547.06	795.44
547.274	811.44
547.487	781.44
547.7	795.44
547.914	793.44
548.127	789.44
548.34	797.44
548.554	743.44
548.767	781.44
548.98	781.44
549.193	796.44
549.407	785.44
549.62	774.44
549.833	779.44
550.046	769.44
550.259	759.44
550.473	758.44
550.686	775.44
550.899	768.44
551.112	768.44
551.325	775.44
551.538	806.44
551.751	747.44
551.964	766.44
552.177	758.44
552.39	771.44
552.603	779.44
552.816	761.44
553.029	761.44
553.242	782.44
553.455	777.44
553.667	757.44
553.88	781.44
554.093	766.44
554.306	750.44
554.519	747.44
554.732	773.44
554.944	745.44
555.157	758.44
555.37	738.44
555.583	717.44
555.795	731.44
556.008	716.44
556.221	719.44
556.433	708.44
556.646	699.44
556.859	724.44
557.071	728.44
557.284	712.44
557.496	694.44
557.709	702.44
557.921	706.44
558.134	679.44
558.346	685.44
558.559	714.44
558.771	689.44
558.984	705.44
559.196	693.44
559.409	696.44
559.621	670.44
559.833	690.44
560.046	664.44
560.258	662.44
560.47	697.44
560.683	681.44
560.895	692.44
561.107	661.44
561.32	679.44
561.532	662.44
561.744	666.44
561.956	667.44
562.168	678.44
562.381	666.44
562.593	674.44
562.805	693.44
563.017	670.44
563.229	670.44
563.441	681.44
563.653	672.44
563.865	659.44
564.077	695.44
564.289	678.44
564.501	676.44
564.713	691.44
564.925	696.44
565.137	697.44
565.349	690.44
565.561	717.44
565.773	682.44
565.985	710.44
566.197	691.44
566.408	706.44
566.62	722.44
566.832	754.44
567.044	730.44
567.255	707.44
567.467	700.44
567.679	718.44
567.891	723.44
568.102	726.44
568.314	730.44
568.526	710.44
568.737	661.44
568.949	678.44
569.161	642.44
569.372	664.44
569.584	635.44
569.795	669.44
570.007	663.44
570.218	637.44
570.43	587.44
570.641	612.44
570.853	619.44
571.064	621.44
571.276	592.44
571.487	608.44
571.698	603.44
571.91	611.44
572.121	585.44
572.333	595.44
572.544	579.44
572.755	582.44
572.966	563.44
573.178	576.44
573.389	566.44
573.6	563.44
573.811	576.44
574.023	568.44
574.234	597.44
574.445	562.44
574.656	563.44
574.867	537.44
575.078	548.44
575.289	523.44
575.501	521.44
575.712	518.44
575.923	516.44
576.134	513.44
576.345	534.44
576.556	535.44
576.767	535.44
576.978	516.44
577.188	532.44
577.399	498.44
577.61	496.44
577.821	530.44
578.032	491.44
578.243	518.44
578.454	512.44
578.665	500.44
578.875	502.44
579.086	467.44
579.297	489.44
579.508	481.44
579.718	500.44
579.929	504.44
580.14	482.44
580.35	485.44
580.561	498.44
580.772	474.44
580.982	484.44
581.193	492.44
581.403	458.44
581.614	476.44
581.825	476.44
582.035	462.44
582.246	469.44
582.456	475.44
582.667	490.44
582.877	467.44
583.087	470.44
583.298	454.44
583.508	446.44
583.719	471.44
583.929	469.44
584.139	466.44
584.35	453.44
584.56	481.44
584.77	459.44
584.981	458.44
585.191	447.44
585.401	452.44
585.611	461.44
585.821	445.44
586.032	454.44
586.242	452.44
586.452	437.44
586.662	456.44
586.872	441.44
587.082	447.44
587.292	450.44
587.502	440.44
587.713	424.44
587.923	450.44
588.133	441.44
588.343	436.44
588.553	427.44
588.762	448.44
588.972	434.44
589.182	484.44
589.392	476.44
589.602	457.44
589.812	460.44
590.022	433.44
590.232	420.44
590.441	427.44
590.651	421.44
590.861	409.44
591.071	442.44
591.281	440.44
591.49	445.44
591.7	463.44
591.91	427.44
592.119	421.44
592.329	433.44
592.539	435.44
592.748	426.44
592.958	443.44
593.167	436.44
593.377	436.44
593.587	443.44
593.796	422.44
594.006	428.44
594.215	430.44
594.424	420.44
594.634	414.44
594.843	418.44
595.053	411.44
595.262	434.44
595.472	423.44
595.681	410.44
595.89	400.44
596.1	410.44
596.309	420.44
596.518	405.44
596.727	377.44
596.937	387.44
597.146	402.44
597.355	397.44
597.564	394.44
597.774	407.44
597.983	405.44
598.192	394.44
598.401	419.44
598.61	386.44
598.819	374.44
599.028	375.44
599.237	378.44
599.446	393.44
599.655	386.44
599.864	370.44
600.073	366.44
600.282	377.44
600.491	347.44
600.7	370.44
600.909	366.44
601.118	380.44
601.327	364.44
601.536	376.44
601.745	378.44
601.953	372.44
602.162	354.44
602.371	343.44
602.58	365.44
602.789	361.44
602.997	379.44
603.206	368.44
603.415	364.44
603.623	339.44
603.832	364.44
604.041	351.44
604.249	329.44
604.458	349.44
604.666	345.44
604.875	355.44
605.084	344.44
605.292	342.44
605.501	365.44
605.709	354.44
605.918	342.44
606.126	353.44
606.334	338.44
606.543	355.44
606.751	357.44
606.96	352.44
607.168	354.44
607.376	332.44
607.585	341.44
607.793	339.44
608.001	353.44
608.21	320.44
608.418	343.44
608.626	323.44
608.834	340.44
609.043	363.44
609.251	313.44
609.459	327.44
609.667	349.44
609.875	354.44
610.083	345.44
610.291	327.44
610.499	346.44
610.707	333.44
610.916	336.44
611.124	318.44
611.332	329.44
611.54	332.44
611.748	323.44
611.955	334.44
612.163	323.44
612.371	341.44
612.579	323.44
612.787	332.44
612.995	321.44
613.203	319.44
613.411	316.44
613.618	318.44
613.826	327.44
614.034	325.44
614.242	332.44
614.449	309.44
614.657	322.44
614.865	331.44
615.072	302.44
615.28	309.44
615.488	312.44
615.695	327.44
615.903	326.44
616.111	309.44
616.318	311.44
616.526	318.44
616.733	304.44
616.941	311.44
617.148	322.44
617.356	326.44
617.563	316.44
617.771	302.44
617.978	300.44
618.185	306.44
618.393	326.44
618.6	319.44
618.807	308.44
619.015	322.44
619.222	308.44
619.429	298.44
619.637	299.44
619.844	297.44
620.051	316.44
620.258	314.44
620.466	295.44
620.673	297.44
620.88	281.44
621.087	297.44
621.294	289.44
621.501	294.44
621.708	300.44
621.915	285.44
622.122	293.44
622.329	300.44
622.536	280.44
622.743	293.44
622.95	299.44
623.157	294.44
623.364	314.44
623.571	288.44
623.778	281.44
623.985	283.44
624.192	287.44
624.399	299.44
624.606	279.44
624.812	278.44
625.019	283.44
625.226	291.44
625.433	291.44
625.639	294.44
625.846	270.44
626.053	263.44
626.259	282.44
626.466	268.44
626.673	282.44
626.879	277.44
627.086	263.44
627.293	258.44
627.499	267.44
627.706	280.44
627.912	282.44
628.119	269.44
628.325	265.44
628.532	265.44
628.738	256.44
628.945	243.44
629.151	271.44
629.357	267.44
629.564	244.44
629.77	255.44
629.976	260.44
630.183	268.44
630.389	245.44
630.595	247.44
630.802	267.44
631.008	259.44
631.214	271.44
631.42	236.44
631.627	260.44
631.833	249.44
632.039	231.44
632.245	265.44
632.451	243.44
632.657	253.44
632.863	262.44
633.069	235.44
633.275	237.44
633.481	236.44
633.688	243.44
633.893	245.44
634.099	247.44
634.305	245.44
634.511	237.44
634.717	246.44
634.923	246.44
635.129	240.44
635.335	243.44
635.541	233.44
635.747	248.44
635.952	249.44
636.158	257.44
636.364	237.44
636.57	244.44
636.775	245.44
636.981	236.44
637.187	235.44
637.392	241.44
637.598	224.44
637.804	243.44
638.009	243.44
638.215	242.44
638.421	232.44
638.626	231.44
638.832	244.44
639.037	249.44
639.243	243.44
639.448	223.44
639.654	217.44
639.859	235.44
640.065	215.44
640.27	225.44
640.475	227.44
640.681	227.44
640.886	234.44
641.091	231.44
641.297	233.44
641.502	236.44
641.707	235.44
641.913	227.44
642.118	225.44
642.323	234.44
642.528	220.44
642.733	207.44
642.939	217.44
643.144	216.44
643.349	229.44
643.554	220.44
643.759	224.44
643.964	227.44
644.169	228.44
644.374	216.44
644.579	223.44
644.784	225.44
644.989	228.44
645.194	236.44
645.399	227.44
645.604	213.44
645.809	220.44
646.014	230.44
646.219	228.44
646.423	223.44
646.628	228.44
646.833	218.44
647.038	225.44
647.243	217.44
647.447	217.44
647.652	227.44
647.857	232.44
648.062	226.44
648.266	228.44
648.471	219.44
648.676	222.44
648.88	238.44
649.085	223.44
649.289	234.44
649.494	208.44
649.698	213.44
649.903	221.44
650.107	220.44
650.312	227.44
650.516	216.44
650.721	218.44
650.925	208.44
651.13	208.44
651.334	222.44
651.539	199.44
651.743	224.44
651.947	223.44
652.152	219.44
652.356	227.44
652.56	199.44
652.764	209.44
652.969	206.44
653.173	201.44
653.377	191.44
653.581	189.44
653.785	188.44
653.99	194.44
654.194	198.44
654.398	187.44
654.602	202.44
654.806	198.44
655.01	199.44
655.214	192.44
655.418	184.44
655.622	209.44
655.826	220.44
656.03	210.44
656.234	188.44
656.438	209.44
656.642	205.44
656.846	211.44
657.049	183.44
657.253	173.44
657.457	187.44
657.661	170.44
657.865	152.44
658.068	160.44
658.272	152.44
658.476	137.44
658.68	138.44
658.883	158.44
659.087	130.44
659.291	134.44
659.494	122.44
659.698	130.44
659.901	99.44
660.105	116.44
660.309	100.44
660.512	105.44
660.716	108.44
660.919	107.44
661.123	113.44
661.326	115.44
661.53	87.44
661.733	86.44
661.936	100.44
662.14	91.44
662.343	102.44
662.546	97.44
662.75	96.44
662.953	100.44
663.156	90.44
663.36	89.44
663.563	93.44
663.766	78.44
663.969	79.44
664.173	91.44
664.376	80.44
664.579	96.44
664.782	87.44
664.985	84.44
665.188	95.44
665.391	86.44
665.594	83.44
665.797	87.44
666	78.44
666.203	86.44
666.406	95.44
666.609	79.44
666.812	74.44
667.015	82.44
667.218	91.44
667.421	83.44
667.624	83.44
667.827	87.44
668.03	72.44
668.232	92.44
668.435	74.44
668.638	81.44
668.841	91.44
669.043	94.44
669.246	82.44
669.449	99.44
669.651	86.44
669.854	84.44
670.057	76.44
670.259	86.44
670.462	86.44
670.665	74.44
670.867	91.44
671.07	78.44
671.272	98.44
671.475	70.44
671.677	80.44
671.88	77.44
672.082	64.44
672.284	96.44
672.487	88.44
672.689	89.44
672.892	72.44
