Data from Fe(NO3)3@0.0125M.TitratingCurve.Agarose3%dH2O.NegLispCup.LampEnergy10.LIBS07252019_HRD10591_16-59-08-336.txt Node
Date: Thu Jul 25 16:59:08 EDT 2019
User: cochatt
Spectrometer: HR+D1059
Trigger mode: 1
Integration Time (sec): 1.000000E-1
Scans to average: 1
Electric dark correction enabled: true
Nonlinearity correction enabled: false
Boxcar width: 0
XAxis mode: Wavelengths
Number of Pixels in Spectrum: 2048
>>>>>Begin Spectral Data<<<<<
223.165	-14.12
223.4	-14.12
223.635	-14.12
223.869	-1.12
224.104	-15.12
224.338	-21.12
224.573	-28.12
224.808	-26.12
225.042	-1.12
225.277	-12.12
225.511	3.88
225.746	1.88
225.98	3.88
226.215	2.88
226.449	25.88
226.683	33.88
226.918	20.88
227.152	25.88
227.387	24.88
227.621	37.88
227.856	43.88
228.09	37.88
228.324	49.88
228.559	39.88
228.793	61.88
229.027	86.88
229.262	94.88
229.496	97.88
229.73	101.88
229.964	103.88
230.199	116.88
230.433	107.88
230.667	102.88
230.901	111.88
231.136	113.88
231.37	106.88
231.604	127.88
231.838	117.88
232.072	119.88
232.306	129.88
232.541	123.88
232.775	127.88
233.009	127.88
233.243	121.88
233.477	131.88
233.711	119.88
233.945	130.88
234.179	127.88
234.413	120.88
234.647	117.88
234.881	119.88
235.115	137.88
235.349	116.88
235.583	130.88
235.817	126.88
236.051	121.88
236.285	125.88
236.519	118.88
236.753	129.88
236.987	121.88
237.221	135.88
237.455	133.88
237.689	116.88
237.922	147.88
238.156	133.88
238.39	135.88
238.624	151.88
238.858	133.88
239.091	143.88
239.325	144.88
239.559	148.88
239.793	143.88
240.027	147.88
240.26	150.88
240.494	151.88
240.728	154.88
240.961	147.88
241.195	154.88
241.429	161.88
241.662	161.88
241.896	144.88
242.13	158.88
242.363	157.88
242.597	157.88
242.83	157.88
243.064	149.88
243.298	151.88
243.531	156.88
243.765	156.88
243.998	169.88
244.232	158.88
244.465	163.88
244.699	165.88
244.932	170.88
245.166	176.88
245.399	160.88
245.633	163.88
245.866	191.88
246.099	166.88
246.333	181.88
246.566	181.88
246.8	172.88
247.033	180.88
247.266	167.88
247.5	179.88
247.733	178.88
247.966	177.88
248.2	179.88
248.433	191.88
248.666	198.88
248.899	192.88
249.133	187.88
249.366	202.88
249.599	192.88
249.832	184.88
250.066	207.88
250.299	187.88
250.532	189.88
250.765	198.88
250.998	202.88
251.231	190.88
251.465	204.88
251.698	197.88
251.931	203.88
252.164	202.88
252.397	211.88
252.63	215.88
252.863	195.88
253.096	189.88
253.329	206.88
253.562	201.88
253.795	225.88
254.028	202.88
254.261	213.88
254.494	207.88
254.727	220.88
254.96	222.88
255.193	215.88
255.426	226.88
255.659	222.88
255.892	226.88
256.124	207.88
256.357	225.88
256.59	209.88
256.823	222.88
257.056	209.88
257.289	202.88
257.521	232.88
257.754	220.88
257.987	229.88
258.22	234.88
258.452	224.88
258.685	262.88
258.918	248.88
259.151	230.88
259.383	242.88
259.616	247.88
259.849	261.88
260.081	263.88
260.314	271.88
260.547	264.88
260.779	249.88
261.012	258.88
261.244	269.88
261.477	258.88
261.71	264.88
261.942	244.88
262.175	262.88
262.407	265.88
262.64	251.88
262.872	262.88
263.105	261.88
263.337	273.88
263.57	272.88
263.802	283.88
264.035	282.88
264.267	257.88
264.499	275.88
264.732	271.88
264.964	273.88
265.197	273.88
265.429	277.88
265.661	267.88
265.894	274.88
266.126	261.88
266.358	271.88
266.591	275.88
266.823	284.88
267.055	279.88
267.287	282.88
267.52	290.88
267.752	280.88
267.984	295.88
268.216	282.88
268.448	291.88
268.681	305.88
268.913	283.88
269.145	305.88
269.377	305.88
269.609	314.88
269.841	305.88
270.073	278.88
270.306	307.88
270.538	289.88
270.77	295.88
271.002	316.88
271.234	305.88
271.466	303.88
271.698	316.88
271.93	324.88
272.162	291.88
272.394	317.88
272.626	305.88
272.858	311.88
273.09	318.88
273.322	321.88
273.553	312.88
273.785	320.88
274.017	333.88
274.249	339.88
274.481	326.88
274.713	335.88
274.945	360.88
275.176	353.88
275.408	335.88
275.64	351.88
275.872	357.88
276.104	344.88
276.335	342.88
276.567	344.88
276.799	332.88
277.031	343.88
277.262	344.88
277.494	345.88
277.726	360.88
277.957	338.88
278.189	354.88
278.421	354.88
278.652	344.88
278.884	344.88
279.115	358.88
279.347	358.88
279.579	379.88
279.81	353.88
280.042	375.88
280.273	361.88
280.505	349.88
280.736	390.88
280.968	377.88
281.199	367.88
281.431	379.88
281.662	371.88
281.894	362.88
282.125	373.88
282.356	374.88
282.588	362.88
282.819	375.88
283.051	403.88
283.282	363.88
283.513	383.88
283.745	393.88
283.976	368.88
284.207	373.88
284.439	392.88
284.67	397.88
284.901	386.88
285.132	401.88
285.364	383.88
285.595	381.88
285.826	401.88
286.057	409.88
286.288	407.88
286.52	417.88
286.751	396.88
286.982	398.88
287.213	415.88
287.444	396.88
287.675	413.88
287.906	404.88
288.138	407.88
288.369	400.88
288.6	396.88
288.831	422.88
289.062	406.88
289.293	417.88
289.524	403.88
289.755	419.88
289.986	439.88
290.217	414.88
290.448	434.88
290.679	423.88
290.91	417.88
291.141	431.88
291.371	431.88
291.602	421.88
291.833	419.88
292.064	421.88
292.295	431.88
292.526	430.88
292.757	432.88
292.987	429.88
293.218	434.88
293.449	425.88
293.68	428.88
293.91	449.88
294.141	440.88
294.372	433.88
294.603	436.88
294.833	438.88
295.064	431.88
295.295	423.88
295.525	430.88
295.756	449.88
295.987	433.88
296.217	451.88
296.448	441.88
296.679	462.88
296.909	446.88
297.14	473.88
297.37	455.88
297.601	454.88
297.831	464.88
298.062	468.88
298.292	478.88
298.523	455.88
298.753	469.88
298.984	444.88
299.214	465.88
299.445	483.88
299.675	476.88
299.905	469.88
300.136	478.88
300.366	470.88
300.597	479.88
300.827	467.88
301.057	487.88
301.288	498.88
301.518	489.88
301.748	478.88
301.979	493.88
302.209	479.88
302.439	475.88
302.669	493.88
302.9	488.88
303.13	497.88
303.36	513.88
303.59	497.88
303.82	500.88
304.051	510.88
304.281	480.88
304.511	506.88
304.741	499.88
304.971	496.88
305.201	513.88
305.431	524.88
305.661	521.88
305.891	510.88
306.121	514.88
306.352	511.88
306.582	497.88
306.812	498.88
307.042	532.88
307.272	496.88
307.502	503.88
307.731	503.88
307.961	527.88
308.191	512.88
308.421	519.88
308.651	495.88
308.881	519.88
309.111	503.88
309.341	504.88
309.571	506.88
309.8	529.88
310.03	527.88
310.26	536.88
310.49	529.88
310.72	513.88
310.949	541.88
311.179	522.88
311.409	529.88
311.639	537.88
311.868	547.88
312.098	551.88
312.328	545.88
312.557	523.88
312.787	538.88
313.017	570.88
313.246	557.88
313.476	547.88
313.706	568.88
313.935	549.88
314.165	546.88
314.394	570.88
314.624	546.88
314.853	590.88
315.083	565.88
315.312	553.88
315.542	576.88
315.771	591.88
316.001	557.88
316.23	557.88
316.46	572.88
316.689	563.88
316.919	566.88
317.148	568.88
317.377	568.88
317.607	586.88
317.836	589.88
318.065	601.88
318.295	582.88
318.524	602.88
318.753	591.88
318.983	575.88
319.212	584.88
319.441	589.88
319.67	593.88
319.9	597.88
320.129	593.88
320.358	625.88
320.587	599.88
320.816	583.88
321.046	597.88
321.275	603.88
321.504	611.88
321.733	609.88
321.962	602.88
322.191	596.88
322.42	601.88
322.649	587.88
322.878	618.88
323.108	607.88
323.337	626.88
323.566	614.88
323.795	627.88
324.024	608.88
324.253	613.88
324.482	597.88
324.71	625.88
324.939	637.88
325.168	653.88
325.397	603.88
325.626	592.88
325.855	607.88
326.084	648.88
326.313	642.88
326.542	610.88
326.77	630.88
326.999	624.88
327.228	624.88
327.457	639.88
327.686	650.88
327.914	639.88
328.143	642.88
328.372	631.88
328.6	663.88
328.829	646.88
329.058	635.88
329.287	665.88
329.515	640.88
329.744	663.88
329.972	636.88
330.201	637.88
330.43	654.88
330.658	665.88
330.887	655.88
331.115	660.88
331.344	673.88
331.572	655.88
331.801	674.88
332.03	671.88
332.258	679.88
332.486	669.88
332.715	679.88
332.943	675.88
333.172	667.88
333.4	665.88
333.629	712.88
333.857	690.88
334.085	705.88
334.314	698.88
334.542	691.88
334.771	663.88
334.999	698.88
335.227	705.88
335.455	712.88
335.684	696.88
335.912	708.88
336.14	715.88
336.369	684.88
336.597	735.88
336.825	701.88
337.053	719.88
337.281	689.88
337.51	709.88
337.738	699.88
337.966	701.88
338.194	706.88
338.422	700.88
338.65	732.88
338.878	694.88
339.106	689.88
339.334	682.88
339.562	669.88
339.79	702.88
340.018	715.88
340.246	692.88
340.474	715.88
340.702	682.88
340.93	687.88
341.158	706.88
341.386	689.88
341.614	700.88
341.842	682.88
342.07	695.88
342.298	664.88
342.526	684.88
342.754	704.88
342.981	696.88
343.209	689.88
343.437	716.88
343.665	715.88
343.893	717.88
344.12	716.88
344.348	714.88
344.576	714.88
344.804	714.88
345.031	694.88
345.259	682.88
345.487	685.88
345.714	701.88
345.942	684.88
346.17	671.88
346.397	696.88
346.625	693.88
346.853	695.88
347.08	696.88
347.308	685.88
347.535	671.88
347.763	690.88
347.99	694.88
348.218	682.88
348.445	683.88
348.673	679.88
348.9	685.88
349.128	681.88
349.355	661.88
349.583	670.88
349.81	691.88
350.037	667.88
350.265	688.88
350.492	673.88
350.72	677.88
350.947	650.88
351.174	672.88
351.402	665.88
351.629	650.88
351.856	678.88
352.083	670.88
352.311	670.88
352.538	664.88
352.765	654.88
352.992	660.88
353.22	685.88
353.447	674.88
353.674	637.88
353.901	649.88
354.128	653.88
354.355	657.88
354.583	663.88
354.81	667.88
355.037	695.88
355.264	670.88
355.491	687.88
355.718	655.88
355.945	690.88
356.172	666.88
356.399	681.88
356.626	669.88
356.853	672.88
357.08	699.88
357.307	670.88
357.534	673.88
357.761	655.88
357.988	693.88
358.215	682.88
358.441	666.88
358.668	679.88
358.895	678.88
359.122	690.88
359.349	666.88
359.576	665.88
359.802	671.88
360.029	690.88
360.256	669.88
360.483	660.88
360.709	688.88
360.936	683.88
361.163	689.88
361.39	701.88
361.616	680.88
361.843	680.88
362.07	679.88
362.296	690.88
362.523	684.88
362.749	686.88
362.976	700.88
363.203	676.88
363.429	687.88
363.656	694.88
363.882	690.88
364.109	679.88
364.335	689.88
364.562	712.88
364.788	709.88
365.015	702.88
365.241	692.88
365.468	695.88
365.694	713.88
365.92	700.88
366.147	688.88
366.373	713.88
366.599	706.88
366.826	686.88
367.052	677.88
367.278	699.88
367.505	708.88
367.731	691.88
367.957	701.88
368.184	703.88
368.41	713.88
368.636	726.88
368.862	711.88
369.089	728.88
369.315	709.88
369.541	733.88
369.767	719.88
369.993	722.88
370.219	714.88
370.445	715.88
370.672	712.88
370.898	711.88
371.124	703.88
371.35	708.88
371.576	713.88
371.802	737.88
372.028	722.88
372.254	715.88
372.48	765.88
372.706	732.88
372.932	751.88
373.158	740.88
373.384	736.88
373.61	755.88
373.835	740.88
374.061	744.88
374.287	753.88
374.513	753.88
374.739	764.88
374.965	767.88
375.191	756.88
375.416	723.88
375.642	713.88
375.868	730.88
376.094	739.88
376.319	744.88
376.545	733.88
376.771	756.88
376.997	743.88
377.222	754.88
377.448	726.88
377.674	734.88
377.899	709.88
378.125	710.88
378.35	735.88
378.576	726.88
378.802	736.88
379.027	718.88
379.253	724.88
379.478	726.88
379.704	723.88
379.929	722.88
380.155	715.88
380.38	734.88
380.606	738.88
380.831	740.88
381.057	721.88
381.282	741.88
381.507	737.88
381.733	761.88
381.958	742.88
382.184	753.88
382.409	755.88
382.634	743.88
382.86	780.88
383.085	769.88
383.31	777.88
383.535	757.88
383.761	757.88
383.986	771.88
384.211	780.88
384.436	795.88
384.662	791.88
384.887	798.88
385.112	771.88
385.337	774.88
385.562	804.88
385.787	801.88
386.013	821.88
386.238	800.88
386.463	817.88
386.688	803.88
386.913	801.88
387.138	782.88
387.363	825.88
387.588	804.88
387.813	808.88
388.038	801.88
388.263	813.88
388.488	801.88
388.713	837.88
388.938	825.88
389.163	805.88
389.387	810.88
389.612	777.88
389.837	831.88
390.062	826.88
390.287	818.88
390.512	809.88
390.736	815.88
390.961	823.88
391.186	820.88
391.411	794.88
391.636	840.88
391.86	824.88
392.085	851.88
392.31	845.88
392.534	831.88
392.759	837.88
392.984	828.88
393.208	845.88
393.433	839.88
393.658	856.88
393.882	820.88
394.107	839.88
394.331	832.88
394.556	811.88
394.78	809.88
395.005	838.88
395.229	820.88
395.454	832.88
395.678	815.88
395.903	837.88
396.127	853.88
396.352	850.88
396.576	851.88
396.801	868.88
397.025	882.88
397.249	858.88
397.474	851.88
397.698	855.88
397.922	885.88
398.147	865.88
398.371	900.88
398.595	895.88
398.82	879.88
399.044	921.88
399.268	904.88
399.492	933.88
399.717	934.88
399.941	943.88
400.165	916.88
400.389	953.88
400.613	929.88
400.837	906.88
401.062	900.88
401.286	911.88
401.51	921.88
401.734	892.88
401.958	865.88
402.182	885.88
402.406	875.88
402.63	888.88
402.854	915.88
403.078	905.88
403.302	909.88
403.526	888.88
403.75	869.88
403.974	923.88
404.198	896.88
404.422	930.88
404.645	900.88
404.869	917.88
405.093	913.88
405.317	928.88
405.541	920.88
405.765	941.88
405.988	936.88
406.212	933.88
406.436	950.88
406.66	950.88
406.883	907.88
407.107	953.88
407.331	945.88
407.555	971.88
407.778	978.88
408.002	975.88
408.226	963.88
408.449	985.88
408.673	983.88
408.896	945.88
409.12	957.88
409.344	945.88
409.567	944.88
409.791	917.88
410.014	922.88
410.238	931.88
410.461	929.88
410.685	903.88
410.908	946.88
411.132	931.88
411.355	900.88
411.578	909.88
411.802	910.88
412.025	915.88
412.249	938.88
412.472	922.88
412.695	933.88
412.919	929.88
413.142	920.88
413.365	918.88
413.589	935.88
413.812	904.88
414.035	909.88
414.258	921.88
414.482	897.88
414.705	902.88
414.928	868.88
415.151	929.88
415.374	904.88
415.597	877.88
415.821	873.88
416.044	869.88
416.267	892.88
416.49	886.88
416.713	903.88
416.936	867.88
417.159	881.88
417.382	856.88
417.605	855.88
417.828	865.88
418.051	865.88
418.274	867.88
418.497	864.88
418.72	853.88
418.943	822.88
419.166	883.88
419.389	917.88
419.611	904.88
419.834	900.88
420.057	895.88
420.28	880.88
420.503	854.88
420.726	849.88
420.948	850.88
421.171	834.88
421.394	841.88
421.617	833.88
421.839	826.88
422.062	854.88
422.285	827.88
422.507	849.88
422.73	836.88
422.953	862.88
423.175	830.88
423.398	824.88
423.621	859.88
423.843	870.88
424.066	861.88
424.288	850.88
424.511	857.88
424.733	835.88
424.956	849.88
425.178	835.88
425.401	823.88
425.623	849.88
425.846	848.88
426.068	858.88
426.291	846.88
426.513	829.88
426.735	829.88
426.958	854.88
427.18	840.88
427.402	852.88
427.625	836.88
427.847	837.88
428.069	833.88
428.292	856.88
428.514	836.88
428.736	813.88
428.958	819.88
429.181	846.88
429.403	826.88
429.625	817.88
429.847	848.88
430.069	809.88
430.292	855.88
430.514	820.88
430.736	840.88
430.958	858.88
431.18	831.88
431.402	847.88
431.624	814.88
431.846	834.88
432.068	831.88
432.29	829.88
432.512	799.88
432.734	833.88
432.956	846.88
433.178	856.88
433.4	833.88
433.622	819.88
433.844	854.88
434.066	818.88
434.287	825.88
434.509	816.88
434.731	834.88
434.953	849.88
435.175	827.88
435.397	850.88
435.618	823.88
435.84	831.88
436.062	812.88
436.284	819.88
436.505	834.88
436.727	843.88
436.949	822.88
437.17	822.88
437.392	823.88
437.614	819.88
437.835	808.88
438.057	829.88
438.278	798.88
438.5	801.88
438.721	809.88
438.943	799.88
439.165	779.88
439.386	838.88
439.608	811.88
439.829	814.88
440.05	802.88
440.272	823.88
440.493	812.88
440.715	835.88
440.936	813.88
441.158	827.88
441.379	806.88
441.6	817.88
441.822	831.88
442.043	815.88
442.264	811.88
442.486	816.88
442.707	789.88
442.928	833.88
443.149	830.88
443.371	841.88
443.592	827.88
443.813	838.88
444.034	821.88
444.255	815.88
444.476	822.88
444.698	849.88
444.919	842.88
445.14	942.88
445.361	859.88
445.582	822.88
445.803	843.88
446.024	813.88
446.245	826.88
446.466	821.88
446.687	769.88
446.908	805.88
447.129	797.88
447.35	777.88
447.571	785.88
447.792	788.88
448.013	774.88
448.234	769.88
448.455	799.88
448.675	767.88
448.896	772.88
449.117	777.88
449.338	779.88
449.559	756.88
449.779	751.88
450	747.88
450.221	780.88
450.442	752.88
450.662	767.88
450.883	777.88
451.104	769.88
451.324	771.88
451.545	755.88
451.766	764.88
451.986	743.88
452.207	769.88
452.428	732.88
452.648	753.88
452.869	757.88
453.089	759.88
453.31	745.88
453.53	752.88
453.751	742.88
453.971	739.88
454.192	749.88
454.412	744.88
454.633	740.88
454.853	746.88
455.073	726.88
455.294	735.88
455.514	742.88
455.734	769.88
455.955	740.88
456.175	751.88
456.395	722.88
456.616	760.88
456.836	738.88
457.056	766.88
457.276	746.88
457.497	762.88
457.717	771.88
457.937	774.88
458.157	767.88
458.377	764.88
458.598	765.88
458.818	751.88
459.038	769.88
459.258	783.88
459.478	789.88
459.698	784.88
459.918	807.88
460.138	774.88
460.358	836.88
460.578	825.88
460.798	838.88
461.018	831.88
461.238	842.88
461.458	819.88
461.678	842.88
461.898	835.88
462.118	835.88
462.338	862.88
462.558	849.88
462.777	835.88
462.997	872.88
463.217	906.88
463.437	893.88
463.657	898.88
463.876	869.88
464.096	887.88
464.316	876.88
464.536	851.88
464.755	872.88
464.975	845.88
465.195	854.88
465.414	860.88
465.634	819.88
465.854	820.88
466.073	828.88
466.293	838.88
466.512	804.88
466.732	818.88
466.951	791.88
467.171	817.88
467.391	797.88
467.61	819.88
467.829	821.88
468.049	806.88
468.268	780.88
468.488	778.88
468.707	792.88
468.927	809.88
469.146	818.88
469.365	819.88
469.585	774.88
469.804	809.88
470.023	789.88
470.243	817.88
470.462	811.88
470.681	829.88
470.901	804.88
471.12	838.88
471.339	837.88
471.558	818.88
471.777	828.88
471.997	825.88
472.216	850.88
472.435	826.88
472.654	822.88
472.873	808.88
473.092	828.88
473.311	817.88
473.53	822.88
473.749	860.88
473.968	839.88
474.187	848.88
474.406	840.88
474.625	817.88
474.844	820.88
475.063	865.88
475.282	863.88
475.501	852.88
475.72	849.88
475.939	840.88
476.158	880.88
476.377	887.88
476.596	883.88
476.814	909.88
477.033	907.88
477.252	879.88
477.471	885.88
477.69	898.88
477.908	905.88
478.127	915.88
478.346	919.88
478.564	931.88
478.783	919.88
479.002	957.88
479.22	914.88
479.439	921.88
479.658	953.88
479.876	944.88
480.095	964.88
480.313	987.88
480.532	973.88
480.751	989.88
480.969	982.88
481.188	954.88
481.406	992.88
481.624	981.88
481.843	966.88
482.061	960.88
482.28	977.88
482.498	977.88
482.717	999.88
482.935	990.88
483.153	967.88
483.372	979.88
483.59	993.88
483.808	1002.88
484.027	1025.88
484.245	1024.88
484.463	996.88
484.681	986.88
484.9	1021.88
485.118	1022.88
485.336	992.88
485.554	995.88
485.772	1030.88
485.99	1041.88
486.209	1001.88
486.427	1013.88
486.645	1029.88
486.863	1001.88
487.081	1023.88
487.299	1025.88
487.517	1040.88
487.735	1055.88
487.953	1034.88
488.171	1050.88
488.389	1044.88
488.607	1027.88
488.825	1021.88
489.043	1011.88
489.261	1025.88
489.479	1033.88
489.696	1045.88
489.914	1028.88
490.132	1048.88
490.35	1045.88
490.568	1046.88
490.786	1058.88
491.003	1035.88
491.221	1051.88
491.439	1050.88
491.657	1044.88
491.874	1035.88
492.092	1057.88
492.31	1048.88
492.527	1037.88
492.745	1052.88
492.963	1037.88
493.18	1049.88
493.398	1061.88
493.615	1065.88
493.833	1048.88
494.05	1077.88
494.268	1047.88
494.485	1057.88
494.703	1077.88
494.92	1073.88
495.138	1085.88
495.355	1098.88
495.573	1086.88
495.79	1076.88
496.008	1092.88
496.225	1101.88
496.442	1109.88
496.66	1081.88
496.877	1082.88
497.094	1129.88
497.312	1110.88
497.529	1115.88
497.746	1147.88
497.963	1152.88
498.181	1167.88
498.398	1161.88
498.615	1182.88
498.832	1222.88
499.049	1216.88
499.267	1261.88
499.484	1297.88
499.701	1259.88
499.918	1305.88
500.135	1353.88
500.352	1355.88
500.569	1322.88
500.786	1346.88
501.003	1323.88
501.22	1333.88
501.437	1322.88
501.654	1294.88
501.871	1277.88
502.088	1220.88
502.305	1235.88
502.522	1185.88
502.739	1184.88
502.956	1165.88
503.172	1164.88
503.389	1135.88
503.606	1126.88
503.823	1158.88
504.04	1121.88
504.256	1075.88
504.473	1069.88
504.69	1073.88
504.907	1079.88
505.123	1066.88
505.34	1057.88
505.557	1033.88
505.773	1027.88
505.99	1036.88
506.207	1007.88
506.423	1007.88
506.64	989.88
506.856	991.88
507.073	999.88
507.289	982.88
507.506	958.88
507.722	976.88
507.939	953.88
508.155	930.88
508.372	959.88
508.588	935.88
508.805	928.88
509.021	951.88
509.238	935.88
509.454	903.88
509.67	913.88
509.887	894.88
510.103	918.88
510.319	909.88
510.536	920.88
510.752	908.88
510.968	898.88
511.184	905.88
511.401	890.88
511.617	890.88
511.833	902.88
512.049	890.88
512.265	901.88
512.481	882.88
512.698	854.88
512.914	905.88
513.13	906.88
513.346	907.88
513.562	895.88
513.778	870.88
513.994	880.88
514.21	903.88
514.426	901.88
514.642	885.88
514.858	901.88
515.074	866.88
515.29	897.88
515.506	877.88
515.721	932.88
515.937	922.88
516.153	922.88
516.369	884.88
516.585	902.88
516.801	926.88
517.016	935.88
517.232	914.88
517.448	922.88
517.664	929.88
517.879	927.88
518.095	933.88
518.311	904.88
518.527	919.88
518.742	907.88
518.958	913.88
519.173	899.88
519.389	903.88
519.605	897.88
519.82	891.88
520.036	914.88
520.251	895.88
520.467	873.88
520.682	864.88
520.898	843.88
521.113	880.88
521.329	854.88
521.544	846.88
521.76	842.88
521.975	836.88
522.19	836.88
522.406	841.88
522.621	871.88
522.836	825.88
523.052	879.88
523.267	833.88
523.482	827.88
523.698	863.88
523.913	819.88
524.128	831.88
524.343	845.88
524.559	839.88
524.774	807.88
524.989	847.88
525.204	813.88
525.419	826.88
525.634	826.88
525.849	816.88
526.064	810.88
526.28	821.88
526.495	817.88
526.71	800.88
526.925	792.88
527.14	770.88
527.355	844.88
527.57	779.88
527.785	800.88
527.999	800.88
528.214	806.88
528.429	808.88
528.644	783.88
528.859	803.88
529.074	792.88
529.289	800.88
529.503	775.88
529.718	777.88
529.933	778.88
530.148	806.88
530.363	798.88
530.577	786.88
530.792	771.88
531.007	789.88
531.221	792.88
531.436	804.88
531.651	793.88
531.865	797.88
532.08	785.88
532.295	774.88
532.509	771.88
532.724	795.88
532.938	765.88
533.153	795.88
533.367	787.88
533.582	747.88
533.796	779.88
534.011	780.88
534.225	771.88
534.44	748.88
534.654	769.88
534.868	757.88
535.083	789.88
535.297	779.88
535.511	785.88
535.726	769.88
535.94	771.88
536.154	763.88
536.369	745.88
536.583	737.88
536.797	751.88
537.011	745.88
537.225	741.88
537.44	746.88
537.654	726.88
537.868	722.88
538.082	750.88
538.296	749.88
538.51	738.88
538.724	775.88
538.938	743.88
539.153	743.88
539.367	737.88
539.581	737.88
539.795	720.88
540.009	707.88
540.222	721.88
540.436	711.88
540.65	709.88
540.864	706.88
541.078	734.88
541.292	714.88
541.506	730.88
541.72	724.88
541.934	741.88
542.147	742.88
542.361	728.88
542.575	710.88
542.789	692.88
543.002	703.88
543.216	707.88
543.43	691.88
543.644	685.88
543.857	738.88
544.071	695.88
544.285	713.88
544.498	705.88
544.712	693.88
544.925	718.88
545.139	709.88
545.352	721.88
545.566	708.88
545.779	717.88
545.993	718.88
546.206	711.88
546.42	718.88
546.633	690.88
546.847	698.88
547.06	692.88
547.274	714.88
547.487	693.88
547.7	723.88
547.914	717.88
548.127	701.88
548.34	709.88
548.554	702.88
548.767	679.88
548.98	698.88
549.193	707.88
549.407	711.88
549.62	694.88
549.833	689.88
550.046	722.88
550.259	705.88
550.473	683.88
550.686	678.88
550.899	672.88
551.112	666.88
551.325	684.88
551.538	673.88
551.751	676.88
551.964	683.88
552.177	709.88
552.39	685.88
552.603	683.88
552.816	691.88
553.029	664.88
553.242	664.88
553.455	699.88
553.667	667.88
553.88	672.88
554.093	695.88
554.306	681.88
554.519	646.88
554.732	638.88
554.944	641.88
555.157	664.88
555.37	666.88
555.583	652.88
555.795	636.88
556.008	645.88
556.221	642.88
556.433	634.88
556.646	631.88
556.859	617.88
557.071	609.88
557.284	607.88
557.496	639.88
557.709	632.88
557.921	613.88
558.134	603.88
558.346	612.88
558.559	621.88
558.771	613.88
558.984	598.88
559.196	598.88
559.409	626.88
559.621	608.88
559.833	611.88
560.046	619.88
560.258	602.88
560.47	606.88
560.683	597.88
560.895	604.88
561.107	600.88
561.32	606.88
561.532	607.88
561.744	609.88
561.956	597.88
562.168	593.88
562.381	590.88
562.593	602.88
562.805	619.88
563.017	610.88
563.229	600.88
563.441	594.88
563.653	615.88
563.865	623.88
564.077	592.88
564.289	596.88
564.501	614.88
564.713	615.88
564.925	613.88
565.137	636.88
565.349	621.88
565.561	631.88
565.773	621.88
565.985	627.88
566.197	609.88
566.408	622.88
566.62	638.88
566.832	643.88
567.044	631.88
567.255	642.88
567.467	631.88
567.679	650.88
567.891	645.88
568.102	633.88
568.314	659.88
568.526	600.88
568.737	628.88
568.949	593.88
569.161	614.88
569.372	575.88
569.584	584.88
569.795	561.88
570.007	566.88
570.218	563.88
570.43	568.88
570.641	555.88
570.853	559.88
571.064	530.88
571.276	533.88
571.487	529.88
571.698	555.88
571.91	546.88
572.121	520.88
572.333	530.88
572.544	489.88
572.755	509.88
572.966	500.88
573.178	515.88
573.389	529.88
573.6	486.88
573.811	498.88
574.023	496.88
574.234	495.88
574.445	497.88
574.656	485.88
574.867	491.88
575.078	506.88
575.289	502.88
575.501	495.88
575.712	473.88
575.923	462.88
576.134	470.88
576.345	481.88
576.556	468.88
576.767	467.88
576.978	471.88
577.188	464.88
577.399	451.88
577.61	459.88
577.821	464.88
578.032	461.88
578.243	455.88
578.454	457.88
578.665	447.88
578.875	439.88
579.086	423.88
579.297	451.88
579.508	454.88
579.718	452.88
579.929	444.88
580.14	466.88
580.35	451.88
580.561	445.88
580.772	446.88
580.982	441.88
581.193	437.88
581.403	441.88
581.614	426.88
581.825	425.88
582.035	430.88
582.246	436.88
582.456	437.88
582.667	433.88
582.877	437.88
583.087	421.88
583.298	423.88
583.508	435.88
583.719	420.88
583.929	409.88
584.139	426.88
584.35	416.88
584.56	431.88
584.77	424.88
584.981	403.88
585.191	419.88
585.401	425.88
585.611	413.88
585.821	413.88
586.032	411.88
586.242	410.88
586.452	414.88
586.662	402.88
586.872	406.88
587.082	394.88
587.292	411.88
587.502	408.88
587.713	411.88
587.923	381.88
588.133	401.88
588.343	409.88
588.553	394.88
588.762	396.88
588.972	375.88
589.182	426.88
589.392	398.88
589.602	385.88
589.812	425.88
590.022	418.88
590.232	397.88
590.441	400.88
590.651	378.88
590.861	375.88
591.071	413.88
591.281	395.88
591.49	397.88
591.7	412.88
591.91	381.88
592.119	376.88
592.329	398.88
592.539	400.88
592.748	386.88
592.958	394.88
593.167	395.88
593.377	406.88
593.587	401.88
593.796	381.88
594.006	363.88
594.215	373.88
594.424	377.88
594.634	400.88
594.843	376.88
595.053	362.88
595.262	379.88
595.472	381.88
595.681	374.88
595.89	388.88
596.1	376.88
596.309	375.88
596.518	365.88
596.727	375.88
596.937	376.88
597.146	363.88
597.355	367.88
597.564	343.88
597.774	343.88
597.983	350.88
598.192	369.88
598.401	356.88
598.61	338.88
598.819	331.88
599.028	332.88
599.237	343.88
599.446	350.88
599.655	351.88
599.864	342.88
600.073	354.88
600.282	325.88
600.491	331.88
600.7	339.88
600.909	343.88
601.118	330.88
601.327	350.88
601.536	333.88
601.745	338.88
601.953	321.88
602.162	347.88
602.371	325.88
602.58	325.88
602.789	310.88
602.997	323.88
603.206	309.88
603.415	317.88
603.623	312.88
603.832	315.88
604.041	303.88
604.249	324.88
604.458	321.88
604.666	307.88
604.875	337.88
605.084	313.88
605.292	312.88
605.501	321.88
605.709	324.88
605.918	327.88
606.126	315.88
606.334	329.88
606.543	325.88
606.751	323.88
606.96	329.88
607.168	331.88
607.376	296.88
607.585	301.88
607.793	306.88
608.001	321.88
608.21	302.88
608.418	305.88
608.626	321.88
608.834	307.88
609.043	322.88
609.251	327.88
609.459	312.88
609.667	301.88
609.875	311.88
610.083	321.88
610.291	313.88
610.499	295.88
610.707	303.88
610.916	312.88
611.124	311.88
611.332	327.88
611.54	301.88
611.748	302.88
611.955	307.88
612.163	302.88
612.371	297.88
612.579	299.88
612.787	297.88
612.995	290.88
613.203	303.88
613.411	314.88
613.618	289.88
613.826	294.88
614.034	295.88
614.242	290.88
614.449	281.88
614.657	307.88
614.865	289.88
615.072	301.88
615.28	290.88
615.488	271.88
615.695	287.88
615.903	310.88
616.111	291.88
616.318	303.88
616.526	297.88
616.733	281.88
616.941	274.88
617.148	288.88
617.356	275.88
617.563	283.88
617.771	281.88
617.978	269.88
618.185	275.88
618.393	288.88
618.6	283.88
618.807	273.88
619.015	277.88
619.222	277.88
619.429	287.88
619.637	272.88
619.844	265.88
620.051	282.88
620.258	262.88
620.466	267.88
620.673	277.88
620.88	255.88
621.087	285.88
621.294	266.88
621.501	276.88
621.708	266.88
621.915	283.88
622.122	279.88
622.329	273.88
622.536	286.88
622.743	279.88
622.95	262.88
623.157	260.88
623.364	271.88
623.571	283.88
623.778	268.88
623.985	255.88
624.192	267.88
624.399	287.88
624.606	266.88
624.812	270.88
625.019	253.88
625.226	256.88
625.433	251.88
625.639	263.88
625.846	249.88
626.053	247.88
626.259	266.88
626.466	265.88
626.673	248.88
626.879	249.88
627.086	243.88
627.293	233.88
627.499	229.88
627.706	238.88
627.912	258.88
628.119	245.88
628.325	244.88
628.532	254.88
628.738	235.88
628.945	223.88
629.151	232.88
629.357	251.88
629.564	241.88
629.77	249.88
629.976	225.88
630.183	231.88
630.389	224.88
630.595	241.88
630.802	243.88
631.008	245.88
631.214	253.88
631.42	256.88
631.627	235.88
631.833	257.88
632.039	238.88
632.245	242.88
632.451	215.88
632.657	236.88
632.863	225.88
633.069	228.88
633.275	226.88
633.481	231.88
633.688	235.88
633.893	223.88
634.099	228.88
634.305	207.88
634.511	229.88
634.717	223.88
634.923	223.88
635.129	230.88
635.335	222.88
635.541	229.88
635.747	241.88
635.952	221.88
636.158	224.88
636.364	216.88
636.57	239.88
636.775	243.88
636.981	218.88
637.187	226.88
637.392	221.88
637.598	229.88
637.804	202.88
638.009	216.88
638.215	215.88
638.421	215.88
638.626	217.88
638.832	219.88
639.037	206.88
639.243	201.88
639.448	211.88
639.654	215.88
639.859	231.88
640.065	215.88
640.27	197.88
640.475	209.88
640.681	213.88
640.886	200.88
641.091	230.88
641.297	227.88
641.502	210.88
641.707	214.88
641.913	215.88
642.118	194.88
642.323	208.88
642.528	217.88
642.733	218.88
642.939	203.88
643.144	219.88
643.349	198.88
643.554	220.88
643.759	199.88
643.964	212.88
644.169	214.88
644.374	216.88
644.579	207.88
644.784	214.88
644.989	209.88
645.194	209.88
645.399	199.88
645.604	223.88
645.809	203.88
646.014	218.88
646.219	204.88
646.423	195.88
646.628	193.88
646.833	216.88
647.038	218.88
647.243	204.88
647.447	198.88
647.652	202.88
647.857	205.88
648.062	215.88
648.266	209.88
648.471	215.88
648.676	217.88
648.88	211.88
649.085	223.88
649.289	208.88
649.494	204.88
649.698	206.88
649.903	225.88
650.107	199.88
650.312	201.88
650.516	202.88
650.721	206.88
650.925	207.88
651.13	202.88
651.334	190.88
651.539	191.88
651.743	198.88
651.947	182.88
652.152	189.88
652.356	204.88
652.56	199.88
652.764	204.88
652.969	196.88
653.173	209.88
653.377	204.88
653.581	177.88
653.785	189.88
653.99	175.88
654.194	186.88
654.398	185.88
654.602	188.88
654.806	185.88
655.01	188.88
655.214	185.88
655.418	176.88
655.622	187.88
655.826	177.88
656.03	181.88
656.234	177.88
656.438	179.88
656.642	196.88
656.846	194.88
657.049	159.88
657.253	163.88
657.457	154.88
657.661	148.88
657.865	155.88
658.068	145.88
658.272	136.88
658.476	145.88
658.68	125.88
658.883	125.88
659.087	124.88
659.291	132.88
659.494	119.88
659.698	103.88
659.901	114.88
660.105	107.88
660.309	97.88
660.512	114.88
660.716	114.88
660.919	93.88
661.123	101.88
661.326	93.88
661.53	84.88
661.733	106.88
661.936	103.88
662.14	83.88
662.343	82.88
662.546	99.88
662.75	79.88
662.953	90.88
663.156	83.88
663.36	84.88
663.563	81.88
663.766	79.88
663.969	84.88
664.173	88.88
664.376	81.88
664.579	72.88
664.782	81.88
664.985	80.88
665.188	80.88
665.391	86.88
665.594	82.88
665.797	84.88
666	74.88
666.203	75.88
666.406	90.88
666.609	80.88
666.812	74.88
667.015	86.88
667.218	79.88
667.421	78.88
667.624	74.88
667.827	89.88
668.03	75.88
668.232	77.88
668.435	75.88
668.638	70.88
668.841	77.88
669.043	80.88
669.246	74.88
669.449	82.88
669.651	94.88
669.854	81.88
670.057	61.88
670.259	77.88
670.462	82.88
670.665	85.88
670.867	91.88
671.07	83.88
671.272	57.88
671.475	89.88
671.677	78.88
671.88	93.88
672.082	74.88
672.284	73.88
672.487	74.88
672.689	86.88
672.892	82.88
