Data from Fe(NO3)3@0.025M.TitratingCurve.Agarose3%dH2O.NegLispCup.LampEnergy10.LIBS07252019_HRD10591_16-56-03-335.txt Node
Date: Thu Jul 25 16:56:03 EDT 2019
User: cochatt
Spectrometer: HR+D1059
Trigger mode: 1
Integration Time (sec): 1.000000E-1
Scans to average: 1
Electric dark correction enabled: true
Nonlinearity correction enabled: false
Boxcar width: 0
XAxis mode: Wavelengths
Number of Pixels in Spectrum: 2048
>>>>>Begin Spectral Data<<<<<
223.165	-15.31
223.4	-15.31
223.635	-15.31
223.869	-12.31
224.104	-22.31
224.338	-23.31
224.573	-3.31
224.808	-16.31
225.042	-6.31
225.277	-5.31
225.511	-1.31
225.746	0.69
225.98	10.69
226.215	5.69
226.449	3.69
226.683	15.69
226.918	39.69
227.152	29.69
227.387	50.69
227.621	25.69
227.856	34.69
228.09	47.69
228.324	49.69
228.559	51.69
228.793	51.69
229.027	65.69
229.262	81.69
229.496	68.69
229.73	75.69
229.964	80.69
230.199	85.69
230.433	90.69
230.667	95.69
230.901	98.69
231.136	101.69
231.37	79.69
231.604	93.69
231.838	90.69
232.072	78.69
232.306	107.69
232.541	88.69
232.775	92.69
233.009	91.69
233.243	97.69
233.477	101.69
233.711	107.69
233.945	104.69
234.179	87.69
234.413	99.69
234.647	96.69
234.881	91.69
235.115	99.69
235.349	100.69
235.583	84.69
235.817	100.69
236.051	105.69
236.285	84.69
236.519	85.69
236.753	96.69
236.987	92.69
237.221	87.69
237.455	101.69
237.689	98.69
237.922	100.69
238.156	108.69
238.39	102.69
238.624	93.69
238.858	98.69
239.091	91.69
239.325	90.69
239.559	94.69
239.793	104.69
240.027	102.69
240.26	92.69
240.494	100.69
240.728	110.69
240.961	115.69
241.195	92.69
241.429	101.69
241.662	110.69
241.896	93.69
242.13	99.69
242.363	87.69
242.597	112.69
242.83	105.69
243.064	106.69
243.298	103.69
243.531	108.69
243.765	115.69
243.998	110.69
244.232	102.69
244.465	113.69
244.699	103.69
244.932	127.69
245.166	117.69
245.399	117.69
245.633	106.69
245.866	113.69
246.099	115.69
246.333	113.69
246.566	111.69
246.8	117.69
247.033	118.69
247.266	129.69
247.5	105.69
247.733	112.69
247.966	119.69
248.2	117.69
248.433	113.69
248.666	122.69
248.899	124.69
249.133	115.69
249.366	123.69
249.599	106.69
249.832	129.69
250.066	125.69
250.299	119.69
250.532	117.69
250.765	115.69
250.998	131.69
251.231	128.69
251.465	123.69
251.698	127.69
251.931	119.69
252.164	123.69
252.397	122.69
252.63	100.69
252.863	119.69
253.096	125.69
253.329	130.69
253.562	139.69
253.795	134.69
254.028	135.69
254.261	128.69
254.494	133.69
254.727	120.69
254.96	138.69
255.193	135.69
255.426	118.69
255.659	129.69
255.892	129.69
256.124	125.69
256.357	138.69
256.59	147.69
256.823	120.69
257.056	129.69
257.289	108.69
257.521	139.69
257.754	132.69
257.987	130.69
258.22	131.69
258.452	139.69
258.685	140.69
258.918	129.69
259.151	133.69
259.383	140.69
259.616	137.69
259.849	158.69
260.081	137.69
260.314	149.69
260.547	133.69
260.779	147.69
261.012	131.69
261.244	125.69
261.477	136.69
261.71	145.69
261.942	141.69
262.175	145.69
262.407	142.69
262.64	145.69
262.872	147.69
263.105	141.69
263.337	146.69
263.57	139.69
263.802	140.69
264.035	139.69
264.267	142.69
264.499	137.69
264.732	147.69
264.964	146.69
265.197	145.69
265.429	141.69
265.661	151.69
265.894	163.69
266.126	153.69
266.358	158.69
266.591	143.69
266.823	147.69
267.055	156.69
267.287	141.69
267.52	152.69
267.752	165.69
267.984	163.69
268.216	175.69
268.448	154.69
268.681	149.69
268.913	161.69
269.145	152.69
269.377	142.69
269.609	147.69
269.841	155.69
270.073	164.69
270.306	163.69
270.538	154.69
270.77	149.69
271.002	150.69
271.234	150.69
271.466	160.69
271.698	159.69
271.93	147.69
272.162	177.69
272.394	168.69
272.626	151.69
272.858	146.69
273.09	170.69
273.322	167.69
273.553	149.69
273.785	159.69
274.017	152.69
274.249	157.69
274.481	165.69
274.713	168.69
274.945	166.69
275.176	171.69
275.408	161.69
275.64	155.69
275.872	159.69
276.104	163.69
276.335	171.69
276.567	173.69
276.799	168.69
277.031	169.69
277.262	160.69
277.494	155.69
277.726	169.69
277.957	169.69
278.189	170.69
278.421	177.69
278.652	160.69
278.884	165.69
279.115	169.69
279.347	180.69
279.579	180.69
279.81	181.69
280.042	177.69
280.273	195.69
280.505	186.69
280.736	162.69
280.968	175.69
281.199	172.69
281.431	186.69
281.662	184.69
281.894	184.69
282.125	197.69
282.356	182.69
282.588	191.69
282.819	183.69
283.051	196.69
283.282	195.69
283.513	191.69
283.745	187.69
283.976	192.69
284.207	189.69
284.439	194.69
284.67	186.69
284.901	177.69
285.132	178.69
285.364	196.69
285.595	199.69
285.826	191.69
286.057	183.69
286.288	187.69
286.52	196.69
286.751	194.69
286.982	200.69
287.213	207.69
287.444	203.69
287.675	216.69
287.906	198.69
288.138	198.69
288.369	190.69
288.6	191.69
288.831	211.69
289.062	203.69
289.293	189.69
289.524	204.69
289.755	187.69
289.986	218.69
290.217	208.69
290.448	185.69
290.679	203.69
290.91	207.69
291.141	205.69
291.371	204.69
291.602	203.69
291.833	203.69
292.064	212.69
292.295	216.69
292.526	205.69
292.757	201.69
292.987	211.69
293.218	195.69
293.449	193.69
293.68	231.69
293.91	201.69
294.141	215.69
294.372	207.69
294.603	205.69
294.833	195.69
295.064	207.69
295.295	205.69
295.525	225.69
295.756	201.69
295.987	220.69
296.217	213.69
296.448	207.69
296.679	207.69
296.909	209.69
297.14	198.69
297.37	224.69
297.601	231.69
297.831	222.69
298.062	228.69
298.292	222.69
298.523	228.69
298.753	240.69
298.984	215.69
299.214	220.69
299.445	232.69
299.675	232.69
299.905	209.69
300.136	227.69
300.366	224.69
300.597	259.69
300.827	219.69
301.057	219.69
301.288	220.69
301.518	241.69
301.748	220.69
301.979	242.69
302.209	237.69
302.439	213.69
302.669	227.69
302.9	230.69
303.13	225.69
303.36	227.69
303.59	234.69
303.82	230.69
304.051	232.69
304.281	243.69
304.511	241.69
304.741	229.69
304.971	221.69
305.201	238.69
305.431	225.69
305.661	236.69
305.891	235.69
306.121	234.69
306.352	233.69
306.582	249.69
306.812	237.69
307.042	252.69
307.272	224.69
307.502	235.69
307.731	242.69
307.961	233.69
308.191	232.69
308.421	222.69
308.651	223.69
308.881	245.69
309.111	227.69
309.341	239.69
309.571	237.69
309.8	223.69
310.03	241.69
310.26	229.69
310.49	219.69
310.72	251.69
310.949	247.69
311.179	246.69
311.409	235.69
311.639	255.69
311.868	236.69
312.098	250.69
312.328	239.69
312.557	240.69
312.787	241.69
313.017	247.69
313.246	229.69
313.476	257.69
313.706	241.69
313.935	249.69
314.165	246.69
314.394	252.69
314.624	253.69
314.853	251.69
315.083	254.69
315.312	262.69
315.542	250.69
315.771	244.69
316.001	240.69
316.23	252.69
316.46	242.69
316.689	236.69
316.919	235.69
317.148	238.69
317.377	259.69
317.607	242.69
317.836	243.69
318.065	262.69
318.295	263.69
318.524	239.69
318.753	253.69
318.983	253.69
319.212	240.69
319.441	255.69
319.67	253.69
319.9	231.69
320.129	242.69
320.358	252.69
320.587	248.69
320.816	261.69
321.046	252.69
321.275	257.69
321.504	261.69
321.733	256.69
321.962	264.69
322.191	273.69
322.42	256.69
322.649	267.69
322.878	272.69
323.108	260.69
323.337	279.69
323.566	261.69
323.795	265.69
324.024	243.69
324.253	260.69
324.482	269.69
324.71	264.69
324.939	277.69
325.168	254.69
325.397	264.69
325.626	247.69
325.855	273.69
326.084	277.69
326.313	284.69
326.542	268.69
326.77	279.69
326.999	275.69
327.228	273.69
327.457	274.69
327.686	290.69
327.914	269.69
328.143	268.69
328.372	271.69
328.6	279.69
328.829	269.69
329.058	283.69
329.287	291.69
329.515	274.69
329.744	279.69
329.972	273.69
330.201	284.69
330.43	282.69
330.658	283.69
330.887	279.69
331.115	285.69
331.344	294.69
331.572	298.69
331.801	305.69
332.03	299.69
332.258	305.69
332.486	305.69
332.715	306.69
332.943	323.69
333.172	327.69
333.4	348.69
333.629	340.69
333.857	331.69
334.085	330.69
334.314	343.69
334.542	337.69
334.771	326.69
334.999	331.69
335.227	323.69
335.455	319.69
335.684	304.69
335.912	344.69
336.14	324.69
336.369	323.69
336.597	338.69
336.825	320.69
337.053	317.69
337.281	313.69
337.51	320.69
337.738	314.69
337.966	309.69
338.194	312.69
338.422	305.69
338.65	316.69
338.878	297.69
339.106	293.69
339.334	318.69
339.562	298.69
339.79	287.69
340.018	281.69
340.246	289.69
340.474	296.69
340.702	290.69
340.93	309.69
341.158	295.69
341.386	297.69
341.614	308.69
341.842	287.69
342.07	294.69
342.298	286.69
342.526	295.69
342.754	319.69
342.981	293.69
343.209	294.69
343.437	301.69
343.665	324.69
343.893	344.69
344.12	341.69
344.348	314.69
344.576	303.69
344.804	323.69
345.031	307.69
345.259	294.69
345.487	319.69
345.714	294.69
345.942	287.69
346.17	284.69
346.397	279.69
346.625	301.69
346.853	293.69
347.08	298.69
347.308	299.69
347.535	303.69
347.763	305.69
347.99	293.69
348.218	279.69
348.445	294.69
348.673	293.69
348.9	284.69
349.128	288.69
349.355	285.69
349.583	295.69
349.81	281.69
350.037	279.69
350.265	296.69
350.492	286.69
350.72	277.69
350.947	289.69
351.174	293.69
351.402	293.69
351.629	282.69
351.856	297.69
352.083	277.69
352.311	284.69
352.538	282.69
352.765	263.69
352.992	268.69
353.22	284.69
353.447	296.69
353.674	273.69
353.901	276.69
354.128	287.69
354.355	283.69
354.583	285.69
354.81	283.69
355.037	276.69
355.264	280.69
355.491	292.69
355.718	276.69
355.945	275.69
356.172	292.69
356.399	284.69
356.626	288.69
356.853	298.69
357.08	293.69
357.307	278.69
357.534	291.69
357.761	274.69
357.988	296.69
358.215	279.69
358.441	269.69
358.668	296.69
358.895	287.69
359.122	281.69
359.349	275.69
359.576	292.69
359.802	288.69
360.029	298.69
360.256	288.69
360.483	307.69
360.709	283.69
360.936	280.69
361.163	287.69
361.39	281.69
361.616	287.69
361.843	273.69
362.07	291.69
362.296	281.69
362.523	275.69
362.749	283.69
362.976	299.69
363.203	293.69
363.429	296.69
363.656	293.69
363.882	297.69
364.109	289.69
364.335	291.69
364.562	307.69
364.788	288.69
365.015	277.69
365.241	294.69
365.468	275.69
365.694	283.69
365.92	272.69
366.147	281.69
366.373	281.69
366.599	289.69
366.826	276.69
367.052	288.69
367.278	312.69
367.505	303.69
367.731	282.69
367.957	279.69
368.184	285.69
368.41	293.69
368.636	301.69
368.862	306.69
369.089	299.69
369.315	281.69
369.541	291.69
369.767	311.69
369.993	282.69
370.219	296.69
370.445	303.69
370.672	309.69
370.898	309.69
371.124	297.69
371.35	313.69
371.576	316.69
371.802	324.69
372.028	305.69
372.254	320.69
372.48	323.69
372.706	319.69
372.932	321.69
373.158	323.69
373.384	327.69
373.61	320.69
373.835	317.69
374.061	325.69
374.287	336.69
374.513	307.69
374.739	309.69
374.965	339.69
375.191	317.69
375.416	312.69
375.642	338.69
375.868	320.69
376.094	313.69
376.319	316.69
376.545	316.69
376.771	314.69
376.997	330.69
377.222	335.69
377.448	318.69
377.674	311.69
377.899	303.69
378.125	321.69
378.35	290.69
378.576	303.69
378.802	311.69
379.027	322.69
379.253	316.69
379.478	293.69
379.704	303.69
379.929	319.69
380.155	316.69
380.38	315.69
380.606	314.69
380.831	314.69
381.057	327.69
381.282	304.69
381.507	326.69
381.733	332.69
381.958	309.69
382.184	315.69
382.409	330.69
382.634	332.69
382.86	316.69
383.085	320.69
383.31	329.69
383.535	346.69
383.761	346.69
383.986	325.69
384.211	332.69
384.436	347.69
384.662	354.69
384.887	361.69
385.112	359.69
385.337	368.69
385.562	361.69
385.787	353.69
386.013	368.69
386.238	364.69
386.463	354.69
386.688	367.69
386.913	364.69
387.138	365.69
387.363	365.69
387.588	356.69
387.813	353.69
388.038	349.69
388.263	371.69
388.488	377.69
388.713	379.69
388.938	374.69
389.163	359.69
389.387	351.69
389.612	364.69
389.837	364.69
390.062	359.69
390.287	367.69
390.512	355.69
390.736	354.69
390.961	373.69
391.186	350.69
391.411	419.69
391.636	385.69
391.86	402.69
392.085	397.69
392.31	383.69
392.534	383.69
392.759	410.69
392.984	381.69
393.208	374.69
393.433	368.69
393.658	376.69
393.882	376.69
394.107	385.69
394.331	389.69
394.556	387.69
394.78	395.69
395.005	374.69
395.229	395.69
395.454	407.69
395.678	392.69
395.903	404.69
396.127	392.69
396.352	405.69
396.576	394.69
396.801	382.69
397.025	391.69
397.249	400.69
397.474	398.69
397.698	415.69
397.922	405.69
398.147	412.69
398.371	401.69
398.595	436.69
398.82	461.69
399.044	469.69
399.268	507.69
399.492	540.69
399.717	560.69
399.941	559.69
400.165	543.69
400.389	511.69
400.613	485.69
400.837	457.69
401.062	469.69
401.286	451.69
401.51	431.69
401.734	439.69
401.958	459.69
402.182	439.69
402.406	445.69
402.63	451.69
402.854	459.69
403.078	453.69
403.302	440.69
403.526	443.69
403.75	458.69
403.974	467.69
404.198	457.69
404.422	459.69
404.645	471.69
404.869	484.69
405.093	460.69
405.317	453.69
405.541	473.69
405.765	465.69
405.988	458.69
406.212	467.69
406.436	475.69
406.66	481.69
406.883	495.69
407.107	503.69
407.331	523.69
407.555	543.69
407.778	529.69
408.002	506.69
408.226	519.69
408.449	505.69
408.673	514.69
408.896	489.69
409.12	456.69
409.344	472.69
409.567	457.69
409.791	477.69
410.014	473.69
410.238	481.69
410.461	452.69
410.685	463.69
410.908	458.69
411.132	455.69
411.355	417.69
411.578	436.69
411.802	441.69
412.025	455.69
412.249	461.69
412.472	447.69
412.695	426.69
412.919	430.69
413.142	450.69
413.365	441.69
413.589	459.69
413.812	434.69
414.035	411.69
414.258	424.69
414.482	432.69
414.705	431.69
414.928	439.69
415.151	444.69
415.374	457.69
415.597	449.69
415.821	419.69
416.044	421.69
416.267	443.69
416.49	389.69
416.713	436.69
416.936	426.69
417.159	418.69
417.382	428.69
417.605	403.69
417.828	413.69
418.051	413.69
418.274	426.69
418.497	437.69
418.72	431.69
418.943	431.69
419.166	448.69
419.389	457.69
419.611	446.69
419.834	425.69
420.057	427.69
420.28	452.69
420.503	435.69
420.726	423.69
420.948	400.69
421.171	402.69
421.394	412.69
421.617	407.69
421.839	418.69
422.062	422.69
422.285	412.69
422.507	416.69
422.73	408.69
422.953	390.69
423.175	419.69
423.398	421.69
423.621	427.69
423.843	440.69
424.066	439.69
424.288	425.69
424.511	407.69
424.733	421.69
424.956	431.69
425.178	421.69
425.401	435.69
425.623	411.69
425.846	410.69
426.068	424.69
426.291	400.69
426.513	401.69
426.735	401.69
426.958	395.69
427.18	413.69
427.402	402.69
427.625	401.69
427.847	385.69
428.069	379.69
428.292	401.69
428.514	401.69
428.736	381.69
428.958	390.69
429.181	369.69
429.403	378.69
429.625	386.69
429.847	374.69
430.069	381.69
430.292	385.69
430.514	365.69
430.736	385.69
430.958	396.69
431.18	383.69
431.402	377.69
431.624	395.69
431.846	387.69
432.068	394.69
432.29	384.69
432.512	375.69
432.734	391.69
432.956	404.69
433.178	400.69
433.4	379.69
433.622	387.69
433.844	396.69
434.066	377.69
434.287	383.69
434.509	420.69
434.731	423.69
434.953	404.69
435.175	418.69
435.397	408.69
435.618	381.69
435.84	390.69
436.062	395.69
436.284	398.69
436.505	379.69
436.727	403.69
436.949	392.69
437.17	392.69
437.392	371.69
437.614	381.69
437.835	370.69
438.057	369.69
438.278	372.69
438.5	359.69
438.721	375.69
438.943	371.69
439.165	365.69
439.386	375.69
439.608	357.69
439.829	387.69
440.05	393.69
440.272	390.69
440.493	378.69
440.715	417.69
440.936	400.69
441.158	391.69
441.379	406.69
441.6	429.69
441.822	396.69
442.043	415.69
442.264	396.69
442.486	394.69
442.707	405.69
442.928	419.69
443.149	415.69
443.371	413.69
443.592	397.69
443.813	415.69
444.034	423.69
444.255	410.69
444.476	421.69
444.698	467.69
444.919	450.69
445.14	528.69
445.361	467.69
445.582	419.69
445.803	402.69
446.024	398.69
446.245	397.69
446.466	383.69
446.687	368.69
446.908	384.69
447.129	355.69
447.35	383.69
447.571	376.69
447.792	377.69
448.013	365.69
448.234	356.69
448.455	348.69
448.675	357.69
448.896	362.69
449.117	359.69
449.338	362.69
449.559	355.69
449.779	354.69
450	365.69
450.221	359.69
450.442	372.69
450.662	375.69
450.883	362.69
451.104	379.69
451.324	353.69
451.545	357.69
451.766	370.69
451.986	336.69
452.207	341.69
452.428	347.69
452.648	348.69
452.869	352.69
453.089	347.69
453.31	332.69
453.53	341.69
453.751	359.69
453.971	350.69
454.192	328.69
454.412	340.69
454.633	332.69
454.853	346.69
455.073	336.69
455.294	342.69
455.514	328.69
455.734	326.69
455.955	346.69
456.175	332.69
456.395	346.69
456.616	325.69
456.836	348.69
457.056	339.69
457.276	338.69
457.497	350.69
457.717	340.69
457.937	341.69
458.157	358.69
458.377	362.69
458.598	360.69
458.818	376.69
459.038	387.69
459.258	376.69
459.478	390.69
459.698	383.69
459.918	397.69
460.138	406.69
460.358	433.69
460.578	411.69
460.798	438.69
461.018	445.69
461.238	437.69
461.458	431.69
461.678	436.69
461.898	437.69
462.118	444.69
462.338	467.69
462.558	481.69
462.777	501.69
462.997	510.69
463.217	509.69
463.437	509.69
463.657	480.69
463.876	473.69
464.096	487.69
464.316	456.69
464.536	475.69
464.755	459.69
464.975	445.69
465.195	437.69
465.414	401.69
465.634	404.69
465.854	392.69
466.073	399.69
466.293	381.69
466.512	389.69
466.732	377.69
466.951	379.69
467.171	393.69
467.391	387.69
467.61	371.69
467.829	370.69
468.049	355.69
468.268	373.69
468.488	381.69
468.707	362.69
468.927	369.69
469.146	357.69
469.365	387.69
469.585	362.69
469.804	362.69
470.023	380.69
470.243	391.69
470.462	373.69
470.681	368.69
470.901	380.69
471.12	393.69
471.339	364.69
471.558	391.69
471.777	363.69
471.997	357.69
472.216	362.69
472.435	370.69
472.654	383.69
472.873	367.69
473.092	375.69
473.311	358.69
473.53	347.69
473.749	355.69
473.968	375.69
474.187	367.69
474.406	373.69
474.625	374.69
474.844	383.69
475.063	381.69
475.282	375.69
475.501	371.69
475.72	363.69
475.939	363.69
476.158	372.69
476.377	391.69
476.596	389.69
476.814	370.69
477.033	412.69
477.252	387.69
477.471	415.69
477.69	405.69
477.908	411.69
478.127	403.69
478.346	419.69
478.564	417.69
478.783	427.69
479.002	433.69
479.22	429.69
479.439	428.69
479.658	425.69
479.876	430.69
480.095	434.69
480.313	439.69
480.532	456.69
480.751	445.69
480.969	428.69
481.188	472.69
481.406	429.69
481.624	427.69
481.843	415.69
482.061	421.69
482.28	423.69
482.498	421.69
482.717	404.69
482.935	414.69
483.153	426.69
483.372	430.69
483.59	451.69
483.808	411.69
484.027	415.69
484.245	405.69
484.463	421.69
484.681	428.69
484.9	437.69
485.118	437.69
485.336	426.69
485.554	427.69
485.772	435.69
485.99	437.69
486.209	432.69
486.427	425.69
486.645	413.69
486.863	430.69
487.081	413.69
487.299	429.69
487.517	422.69
487.735	436.69
487.953	421.69
488.171	426.69
488.389	435.69
488.607	409.69
488.825	416.69
489.043	426.69
489.261	419.69
489.479	417.69
489.696	432.69
489.914	449.69
490.132	434.69
490.35	417.69
490.568	443.69
490.786	434.69
491.003	411.69
491.221	442.69
491.439	441.69
491.657	419.69
491.874	428.69
492.092	444.69
492.31	440.69
492.527	424.69
492.745	460.69
492.963	459.69
493.18	448.69
493.398	425.69
493.615	419.69
493.833	438.69
494.05	437.69
494.268	463.69
494.485	459.69
494.703	424.69
494.92	458.69
495.138	455.69
495.355	450.69
495.573	481.69
495.79	496.69
496.008	460.69
496.225	461.69
496.442	485.69
496.66	488.69
496.877	491.69
497.094	512.69
497.312	504.69
497.529	518.69
497.746	528.69
497.963	554.69
498.181	539.69
498.398	555.69
498.615	576.69
498.832	627.69
499.049	639.69
499.267	664.69
499.484	728.69
499.701	801.69
499.918	843.69
500.135	897.69
500.352	986.69
500.569	992.69
500.786	973.69
501.003	947.69
501.22	855.69
501.437	805.69
501.654	748.69
501.871	732.69
502.088	676.69
502.305	648.69
502.522	607.69
502.739	567.69
502.956	566.69
503.172	548.69
503.389	553.69
503.606	521.69
503.823	531.69
504.04	522.69
504.256	518.69
504.473	507.69
504.69	535.69
504.907	520.69
505.123	493.69
505.34	468.69
505.557	451.69
505.773	443.69
505.99	437.69
506.207	438.69
506.423	435.69
506.64	420.69
506.856	414.69
507.073	403.69
507.289	418.69
507.506	421.69
507.722	403.69
507.939	424.69
508.155	405.69
508.372	389.69
508.588	409.69
508.805	399.69
509.021	411.69
509.238	383.69
509.454	397.69
509.67	397.69
509.887	390.69
510.103	370.69
510.319	386.69
510.536	396.69
510.752	374.69
510.968	364.69
511.184	365.69
511.401	375.69
511.617	364.69
511.833	383.69
512.049	373.69
512.265	373.69
512.481	375.69
512.698	373.69
512.914	383.69
513.13	380.69
513.346	375.69
513.562	377.69
513.778	376.69
513.994	376.69
514.21	385.69
514.426	398.69
514.642	369.69
514.858	399.69
515.074	389.69
515.29	407.69
515.506	389.69
515.721	397.69
515.937	413.69
516.153	408.69
516.369	429.69
516.585	427.69
516.801	438.69
517.016	442.69
517.232	439.69
517.448	462.69
517.664	466.69
517.879	449.69
518.095	448.69
518.311	479.69
518.527	445.69
518.742	438.69
518.958	427.69
519.173	433.69
519.389	413.69
519.605	415.69
519.82	408.69
520.036	404.69
520.251	378.69
520.467	379.69
520.682	376.69
520.898	366.69
521.113	360.69
521.329	367.69
521.544	365.69
521.76	385.69
521.975	369.69
522.19	362.69
522.406	372.69
522.621	375.69
522.836	365.69
523.052	367.69
523.267	355.69
523.482	357.69
523.698	355.69
523.913	355.69
524.128	351.69
524.343	343.69
524.559	356.69
524.774	344.69
524.989	338.69
525.204	364.69
525.419	329.69
525.634	350.69
525.849	351.69
526.064	348.69
526.28	373.69
526.495	358.69
526.71	345.69
526.925	355.69
527.14	335.69
527.355	333.69
527.57	341.69
527.785	344.69
527.999	329.69
528.214	349.69
528.429	335.69
528.644	345.69
528.859	354.69
529.074	329.69
529.289	357.69
529.503	345.69
529.718	332.69
529.933	356.69
530.148	351.69
530.363	333.69
530.577	317.69
530.792	348.69
531.007	342.69
531.221	335.69
531.436	350.69
531.651	355.69
531.865	343.69
532.08	341.69
532.295	330.69
532.509	344.69
532.724	354.69
532.938	347.69
533.153	356.69
533.367	356.69
533.582	360.69
533.796	341.69
534.011	342.69
534.225	337.69
534.44	340.69
534.654	344.69
534.868	337.69
535.083	327.69
535.297	331.69
535.511	339.69
535.726	355.69
535.94	342.69
536.154	337.69
536.369	324.69
536.583	307.69
536.797	331.69
537.011	304.69
537.225	332.69
537.44	320.69
537.654	308.69
537.868	309.69
538.082	314.69
538.296	331.69
538.51	326.69
538.724	328.69
538.938	339.69
539.153	333.69
539.367	346.69
539.581	317.69
539.795	328.69
540.009	335.69
540.222	321.69
540.436	335.69
540.65	299.69
540.864	307.69
541.078	315.69
541.292	327.69
541.506	332.69
541.72	313.69
541.934	336.69
542.147	336.69
542.361	342.69
542.575	312.69
542.789	335.69
543.002	321.69
543.216	321.69
543.43	325.69
543.644	303.69
543.857	313.69
544.071	327.69
544.285	325.69
544.498	323.69
544.712	309.69
544.925	321.69
545.139	318.69
545.352	323.69
545.566	333.69
545.779	317.69
545.993	321.69
546.206	322.69
546.42	319.69
546.633	307.69
546.847	340.69
547.06	324.69
547.274	321.69
547.487	326.69
547.7	319.69
547.914	312.69
548.127	319.69
548.34	311.69
548.554	317.69
548.767	322.69
548.98	333.69
549.193	335.69
549.407	317.69
549.62	335.69
549.833	334.69
550.046	331.69
550.259	314.69
550.473	305.69
550.686	317.69
550.899	339.69
551.112	313.69
551.325	303.69
551.538	321.69
551.751	356.69
551.964	315.69
552.177	319.69
552.39	332.69
552.603	325.69
552.816	348.69
553.029	360.69
553.242	365.69
553.455	352.69
553.667	331.69
553.88	337.69
554.093	333.69
554.306	324.69
554.519	316.69
554.732	295.69
554.944	306.69
555.157	309.69
555.37	320.69
555.583	302.69
555.795	310.69
556.008	321.69
556.221	301.69
556.433	307.69
556.646	295.69
556.859	270.69
557.071	295.69
557.284	292.69
557.496	296.69
557.709	294.69
557.921	291.69
558.134	283.69
558.346	313.69
558.559	293.69
558.771	304.69
558.984	294.69
559.196	283.69
559.409	282.69
559.621	298.69
559.833	281.69
560.046	296.69
560.258	303.69
560.47	283.69
560.683	278.69
560.895	295.69
561.107	274.69
561.32	276.69
561.532	283.69
561.744	291.69
561.956	289.69
562.168	266.69
562.381	292.69
562.593	305.69
562.805	295.69
563.017	284.69
563.229	295.69
563.441	287.69
563.653	285.69
563.865	305.69
564.077	294.69
564.289	300.69
564.501	303.69
564.713	305.69
564.925	307.69
565.137	309.69
565.349	335.69
565.561	323.69
565.773	338.69
565.985	337.69
566.197	332.69
566.408	356.69
566.62	356.69
566.832	384.69
567.044	409.69
567.255	398.69
567.467	407.69
567.679	411.69
567.891	431.69
568.102	417.69
568.314	417.69
568.526	381.69
568.737	356.69
568.949	339.69
569.161	343.69
569.372	314.69
569.584	311.69
569.795	318.69
570.007	304.69
570.218	283.69
570.43	287.69
570.641	283.69
570.853	285.69
571.064	295.69
571.276	271.69
571.487	266.69
571.698	273.69
571.91	273.69
572.121	267.69
572.333	260.69
572.544	269.69
572.755	254.69
572.966	279.69
573.178	239.69
573.389	249.69
573.6	250.69
573.811	242.69
574.023	236.69
574.234	237.69
574.445	231.69
574.656	244.69
574.867	246.69
575.078	249.69
575.289	243.69
575.501	228.69
575.712	239.69
575.923	232.69
576.134	232.69
576.345	229.69
576.556	243.69
576.767	216.69
576.978	255.69
577.188	229.69
577.399	221.69
577.61	217.69
577.821	240.69
578.032	216.69
578.243	219.69
578.454	227.69
578.665	227.69
578.875	220.69
579.086	218.69
579.297	205.69
579.508	240.69
579.718	245.69
579.929	223.69
580.14	213.69
580.35	213.69
580.561	219.69
580.772	228.69
580.982	227.69
581.193	238.69
581.403	233.69
581.614	214.69
581.825	206.69
582.035	225.69
582.246	222.69
582.456	218.69
582.667	217.69
582.877	217.69
583.087	204.69
583.298	218.69
583.508	220.69
583.719	202.69
583.929	213.69
584.139	215.69
584.35	219.69
584.56	212.69
584.77	205.69
584.981	204.69
585.191	209.69
585.401	225.69
585.611	210.69
585.821	193.69
586.032	216.69
586.242	214.69
586.452	213.69
586.662	212.69
586.872	196.69
587.082	203.69
587.292	207.69
587.502	209.69
587.713	223.69
587.923	205.69
588.133	188.69
588.343	219.69
588.553	220.69
588.762	217.69
588.972	212.69
589.182	216.69
589.392	215.69
589.602	208.69
589.812	204.69
590.022	228.69
590.232	200.69
590.441	190.69
590.651	210.69
590.861	212.69
591.071	217.69
591.281	208.69
591.49	219.69
591.7	218.69
591.91	220.69
592.119	219.69
592.329	216.69
592.539	236.69
592.748	210.69
592.958	222.69
593.167	230.69
593.377	230.69
593.587	234.69
593.796	223.69
594.006	237.69
594.215	228.69
594.424	237.69
594.634	252.69
594.843	231.69
595.053	236.69
595.262	232.69
595.472	231.69
595.681	217.69
595.89	220.69
596.1	200.69
596.309	192.69
596.518	191.69
596.727	207.69
596.937	190.69
597.146	195.69
597.355	212.69
597.564	208.69
597.774	194.69
597.983	197.69
598.192	202.69
598.401	175.69
598.61	181.69
598.819	176.69
599.028	205.69
599.237	187.69
599.446	189.69
599.655	196.69
599.864	171.69
600.073	187.69
600.282	190.69
600.491	176.69
600.7	180.69
600.909	196.69
601.118	180.69
601.327	178.69
601.536	186.69
601.745	183.69
601.953	190.69
602.162	165.69
602.371	187.69
602.58	172.69
602.789	173.69
602.997	186.69
603.206	197.69
603.415	188.69
603.623	180.69
603.832	176.69
604.041	187.69
604.249	167.69
604.458	168.69
604.666	170.69
604.875	175.69
605.084	172.69
605.292	191.69
605.501	194.69
605.709	191.69
605.918	170.69
606.126	179.69
606.334	174.69
606.543	164.69
606.751	184.69
606.96	168.69
607.168	175.69
607.376	175.69
607.585	187.69
607.793	182.69
608.001	169.69
608.21	170.69
608.418	167.69
608.626	175.69
608.834	171.69
609.043	160.69
609.251	172.69
609.459	164.69
609.667	168.69
609.875	170.69
610.083	163.69
610.291	168.69
610.499	179.69
610.707	167.69
610.916	185.69
611.124	163.69
611.332	179.69
611.54	175.69
611.748	179.69
611.955	172.69
612.163	168.69
612.371	179.69
612.579	173.69
612.787	159.69
612.995	178.69
613.203	177.69
613.411	167.69
613.618	161.69
613.826	156.69
614.034	163.69
614.242	168.69
614.449	165.69
614.657	192.69
614.865	181.69
615.072	179.69
615.28	160.69
615.488	179.69
615.695	176.69
615.903	159.69
616.111	154.69
616.318	172.69
616.526	171.69
616.733	160.69
616.941	168.69
617.148	169.69
617.356	175.69
617.563	162.69
617.771	172.69
617.978	171.69
618.185	162.69
618.393	165.69
618.6	155.69
618.807	152.69
619.015	152.69
619.222	170.69
619.429	155.69
619.637	160.69
619.844	168.69
620.051	160.69
620.258	168.69
620.466	163.69
620.673	153.69
620.88	167.69
621.087	161.69
621.294	151.69
621.501	164.69
621.708	167.69
621.915	166.69
622.122	150.69
622.329	159.69
622.536	157.69
622.743	174.69
622.95	155.69
623.157	172.69
623.364	157.69
623.571	162.69
623.778	163.69
623.985	175.69
624.192	157.69
624.399	148.69
624.606	159.69
624.812	161.69
625.019	162.69
625.226	163.69
625.433	157.69
625.639	170.69
625.846	168.69
626.053	145.69
626.259	153.69
626.466	143.69
626.673	163.69
626.879	155.69
627.086	149.69
627.293	160.69
627.499	157.69
627.706	161.69
627.912	154.69
628.119	156.69
628.325	141.69
628.532	169.69
628.738	157.69
628.945	156.69
629.151	140.69
629.357	155.69
629.564	149.69
629.77	131.69
629.976	140.69
630.183	145.69
630.389	152.69
630.595	153.69
630.802	142.69
631.008	130.69
631.214	151.69
631.42	155.69
631.627	146.69
631.833	149.69
632.039	136.69
632.245	160.69
632.451	143.69
632.657	149.69
632.863	159.69
633.069	153.69
633.275	152.69
633.481	133.69
633.688	159.69
633.893	143.69
634.099	149.69
634.305	146.69
634.511	138.69
634.717	127.69
634.923	144.69
635.129	149.69
635.335	162.69
635.541	144.69
635.747	137.69
635.952	127.69
636.158	120.69
636.364	147.69
636.57	154.69
636.775	150.69
636.981	154.69
637.187	134.69
637.392	149.69
637.598	143.69
637.804	140.69
638.009	142.69
638.215	147.69
638.421	147.69
638.626	141.69
638.832	145.69
639.037	147.69
639.243	124.69
639.448	131.69
639.654	137.69
639.859	147.69
640.065	136.69
640.27	133.69
640.475	159.69
640.681	156.69
640.886	153.69
641.091	137.69
641.297	145.69
641.502	139.69
641.707	137.69
641.913	131.69
642.118	131.69
642.323	154.69
642.528	146.69
642.733	144.69
642.939	147.69
643.144	135.69
643.349	125.69
643.554	135.69
643.759	141.69
643.964	127.69
644.169	127.69
644.374	124.69
644.579	139.69
644.784	129.69
644.989	155.69
645.194	141.69
645.399	129.69
645.604	128.69
645.809	150.69
646.014	148.69
646.219	139.69
646.423	142.69
646.628	126.69
646.833	142.69
647.038	136.69
647.243	138.69
647.447	138.69
647.652	139.69
647.857	144.69
648.062	142.69
648.266	136.69
648.471	147.69
648.676	140.69
648.88	152.69
649.085	145.69
649.289	133.69
649.494	136.69
649.698	138.69
649.903	138.69
650.107	137.69
650.312	142.69
650.516	151.69
650.721	142.69
650.925	127.69
651.13	131.69
651.334	146.69
651.539	140.69
651.743	129.69
651.947	145.69
652.152	140.69
652.356	118.69
652.56	137.69
652.764	150.69
652.969	128.69
653.173	136.69
653.377	141.69
653.581	139.69
653.785	132.69
653.99	123.69
654.194	133.69
654.398	146.69
654.602	145.69
654.806	141.69
655.01	134.69
655.214	125.69
655.418	137.69
655.622	141.69
655.826	150.69
656.03	131.69
656.234	120.69
656.438	143.69
656.642	135.69
656.846	147.69
657.049	136.69
657.253	125.69
657.457	124.69
657.661	115.69
657.865	121.69
658.068	119.69
658.272	120.69
658.476	119.69
658.68	126.69
658.883	113.69
659.087	108.69
659.291	108.69
659.494	114.69
659.698	100.69
659.901	104.69
660.105	89.69
660.309	103.69
660.512	111.69
660.716	104.69
660.919	98.69
661.123	99.69
661.326	91.69
661.53	90.69
661.733	87.69
661.936	87.69
662.14	82.69
662.343	88.69
662.546	83.69
662.75	92.69
662.953	87.69
663.156	83.69
663.36	83.69
663.563	93.69
663.766	88.69
663.969	75.69
664.173	68.69
664.376	97.69
664.579	86.69
664.782	87.69
664.985	93.69
665.188	85.69
665.391	89.69
665.594	73.69
665.797	83.69
666	74.69
666.203	84.69
666.406	73.69
666.609	71.69
666.812	88.69
667.015	75.69
667.218	91.69
667.421	82.69
667.624	70.69
667.827	80.69
668.03	92.69
668.232	75.69
668.435	83.69
668.638	82.69
668.841	81.69
669.043	87.69
669.246	93.69
669.449	69.69
669.651	74.69
669.854	66.69
670.057	88.69
670.259	86.69
670.462	90.69
670.665	77.69
670.867	73.69
671.07	85.69
671.272	87.69
671.475	83.69
671.677	80.69
671.88	66.69
672.082	74.69
672.284	88.69
672.487	77.69
672.689	81.69
672.892	83.69
