Data from Fe(NO3)3@0.0125M.TitratingCurve.Agarose3%dH2O.NegLispCup.LampEnergy10.LIBS07252019_HRD10591_16-59-32-340.txt Node
Date: Thu Jul 25 16:59:32 EDT 2019
User: cochatt
Spectrometer: HR+D1059
Trigger mode: 1
Integration Time (sec): 1.000000E-1
Scans to average: 1
Electric dark correction enabled: true
Nonlinearity correction enabled: false
Boxcar width: 0
XAxis mode: Wavelengths
Number of Pixels in Spectrum: 2048
>>>>>Begin Spectral Data<<<<<
223.165	-7.94
223.4	-7.94
223.635	-7.94
223.869	-15.94
224.104	-24.94
224.338	-16.94
224.573	-35.94
224.808	-12.94
225.042	-0.94
225.277	-5.94
225.511	-4.94
225.746	-4.94
225.98	16.06
226.215	21.06
226.449	26.06
226.683	19.06
226.918	23.06
227.152	26.06
227.387	32.06
227.621	31.06
227.856	49.06
228.09	44.06
228.324	52.06
228.559	54.06
228.793	68.06
229.027	77.06
229.262	79.06
229.496	79.06
229.73	70.06
229.964	91.06
230.199	89.06
230.433	90.06
230.667	73.06
230.901	76.06
231.136	81.06
231.37	93.06
231.604	100.06
231.838	105.06
232.072	92.06
232.306	99.06
232.541	101.06
232.775	98.06
233.009	96.06
233.243	88.06
233.477	97.06
233.711	113.06
233.945	111.06
234.179	112.06
234.413	95.06
234.647	109.06
234.881	104.06
235.115	104.06
235.349	102.06
235.583	92.06
235.817	73.06
236.051	96.06
236.285	104.06
236.519	90.06
236.753	107.06
236.987	99.06
237.221	95.06
237.455	92.06
237.689	101.06
237.922	114.06
238.156	113.06
238.39	100.06
238.624	92.06
238.858	110.06
239.091	93.06
239.325	100.06
239.559	98.06
239.793	92.06
240.027	95.06
240.26	101.06
240.494	109.06
240.728	88.06
240.961	113.06
241.195	113.06
241.429	99.06
241.662	115.06
241.896	123.06
242.13	118.06
242.363	91.06
242.597	123.06
242.83	107.06
243.064	92.06
243.298	97.06
243.531	105.06
243.765	110.06
243.998	102.06
244.232	106.06
244.465	115.06
244.699	108.06
244.932	107.06
245.166	111.06
245.399	109.06
245.633	126.06
245.866	114.06
246.099	129.06
246.333	112.06
246.566	121.06
246.8	116.06
247.033	122.06
247.266	114.06
247.5	113.06
247.733	121.06
247.966	120.06
248.2	126.06
248.433	127.06
248.666	111.06
248.899	121.06
249.133	143.06
249.366	113.06
249.599	136.06
249.832	119.06
250.066	142.06
250.299	131.06
250.532	125.06
250.765	133.06
250.998	133.06
251.231	139.06
251.465	126.06
251.698	129.06
251.931	141.06
252.164	123.06
252.397	129.06
252.63	135.06
252.863	110.06
253.096	132.06
253.329	142.06
253.562	150.06
253.795	142.06
254.028	134.06
254.261	125.06
254.494	141.06
254.727	146.06
254.96	148.06
255.193	135.06
255.426	146.06
255.659	130.06
255.892	151.06
256.124	117.06
256.357	145.06
256.59	145.06
256.823	146.06
257.056	152.06
257.289	137.06
257.521	145.06
257.754	138.06
257.987	143.06
258.22	155.06
258.452	147.06
258.685	139.06
258.918	145.06
259.151	157.06
259.383	160.06
259.616	159.06
259.849	163.06
260.081	161.06
260.314	159.06
260.547	154.06
260.779	152.06
261.012	169.06
261.244	147.06
261.477	179.06
261.71	158.06
261.942	145.06
262.175	157.06
262.407	172.06
262.64	149.06
262.872	162.06
263.105	181.06
263.337	175.06
263.57	179.06
263.802	160.06
264.035	171.06
264.267	183.06
264.499	165.06
264.732	150.06
264.964	161.06
265.197	173.06
265.429	162.06
265.661	167.06
265.894	186.06
266.126	179.06
266.358	183.06
266.591	165.06
266.823	173.06
267.055	175.06
267.287	178.06
267.52	181.06
267.752	175.06
267.984	173.06
268.216	184.06
268.448	173.06
268.681	192.06
268.913	200.06
269.145	190.06
269.377	188.06
269.609	161.06
269.841	190.06
270.073	194.06
270.306	179.06
270.538	193.06
270.77	184.06
271.002	197.06
271.234	169.06
271.466	180.06
271.698	172.06
271.93	185.06
272.162	187.06
272.394	179.06
272.626	200.06
272.858	197.06
273.09	193.06
273.322	205.06
273.553	200.06
273.785	209.06
274.017	213.06
274.249	202.06
274.481	209.06
274.713	211.06
274.945	229.06
275.176	221.06
275.408	216.06
275.64	215.06
275.872	210.06
276.104	224.06
276.335	206.06
276.567	227.06
276.799	203.06
277.031	214.06
277.262	220.06
277.494	226.06
277.726	201.06
277.957	243.06
278.189	232.06
278.421	223.06
278.652	216.06
278.884	218.06
279.115	244.06
279.347	266.06
279.579	219.06
279.81	240.06
280.042	235.06
280.273	236.06
280.505	245.06
280.736	235.06
280.968	226.06
281.199	248.06
281.431	235.06
281.662	243.06
281.894	246.06
282.125	253.06
282.356	251.06
282.588	257.06
282.819	234.06
283.051	234.06
283.282	241.06
283.513	264.06
283.745	229.06
283.976	256.06
284.207	265.06
284.439	246.06
284.67	256.06
284.901	270.06
285.132	277.06
285.364	270.06
285.595	281.06
285.826	262.06
286.057	242.06
286.288	268.06
286.52	270.06
286.751	252.06
286.982	279.06
287.213	261.06
287.444	269.06
287.675	275.06
287.906	259.06
288.138	272.06
288.369	275.06
288.6	291.06
288.831	286.06
289.062	285.06
289.293	296.06
289.524	289.06
289.755	277.06
289.986	285.06
290.217	280.06
290.448	289.06
290.679	288.06
290.91	298.06
291.141	278.06
291.371	273.06
291.602	283.06
291.833	279.06
292.064	283.06
292.295	297.06
292.526	295.06
292.757	300.06
292.987	287.06
293.218	288.06
293.449	302.06
293.68	283.06
293.91	304.06
294.141	296.06
294.372	327.06
294.603	307.06
294.833	294.06
295.064	314.06
295.295	302.06
295.525	310.06
295.756	288.06
295.987	310.06
296.217	310.06
296.448	307.06
296.679	292.06
296.909	326.06
297.14	324.06
297.37	317.06
297.601	305.06
297.831	312.06
298.062	319.06
298.292	315.06
298.523	315.06
298.753	320.06
298.984	319.06
299.214	315.06
299.445	338.06
299.675	320.06
299.905	325.06
300.136	319.06
300.366	340.06
300.597	341.06
300.827	339.06
301.057	362.06
301.288	329.06
301.518	346.06
301.748	358.06
301.979	340.06
302.209	349.06
302.439	353.06
302.669	344.06
302.9	320.06
303.13	333.06
303.36	354.06
303.59	354.06
303.82	355.06
304.051	368.06
304.281	356.06
304.511	372.06
304.741	363.06
304.971	370.06
305.201	390.06
305.431	357.06
305.661	371.06
305.891	375.06
306.121	352.06
306.352	355.06
306.582	352.06
306.812	354.06
307.042	371.06
307.272	367.06
307.502	360.06
307.731	364.06
307.961	365.06
308.191	368.06
308.421	377.06
308.651	384.06
308.881	375.06
309.111	390.06
309.341	375.06
309.571	385.06
309.8	365.06
310.03	375.06
310.26	363.06
310.49	372.06
310.72	385.06
310.949	405.06
311.179	392.06
311.409	378.06
311.639	379.06
311.868	384.06
312.098	382.06
312.328	388.06
312.557	407.06
312.787	395.06
313.017	408.06
313.246	394.06
313.476	413.06
313.706	403.06
313.935	397.06
314.165	420.06
314.394	401.06
314.624	420.06
314.853	405.06
315.083	429.06
315.312	417.06
315.542	423.06
315.771	422.06
316.001	432.06
316.23	399.06
316.46	423.06
316.689	421.06
316.919	393.06
317.148	429.06
317.377	426.06
317.607	421.06
317.836	412.06
318.065	423.06
318.295	427.06
318.524	414.06
318.753	432.06
318.983	458.06
319.212	441.06
319.441	417.06
319.67	435.06
319.9	440.06
320.129	454.06
320.358	442.06
320.587	418.06
320.816	446.06
321.046	447.06
321.275	436.06
321.504	433.06
321.733	426.06
321.962	427.06
322.191	431.06
322.42	465.06
322.649	438.06
322.878	440.06
323.108	461.06
323.337	438.06
323.566	463.06
323.795	451.06
324.024	479.06
324.253	465.06
324.482	466.06
324.71	452.06
324.939	450.06
325.168	484.06
325.397	456.06
325.626	462.06
325.855	467.06
326.084	470.06
326.313	472.06
326.542	451.06
326.77	465.06
326.999	472.06
327.228	473.06
327.457	461.06
327.686	475.06
327.914	480.06
328.143	480.06
328.372	472.06
328.6	480.06
328.829	467.06
329.058	469.06
329.287	510.06
329.515	494.06
329.744	480.06
329.972	511.06
330.201	469.06
330.43	479.06
330.658	497.06
330.887	475.06
331.115	497.06
331.344	467.06
331.572	488.06
331.801	509.06
332.03	510.06
332.258	474.06
332.486	488.06
332.715	493.06
332.943	504.06
333.172	489.06
333.4	492.06
333.629	522.06
333.857	505.06
334.085	514.06
334.314	509.06
334.542	504.06
334.771	515.06
334.999	502.06
335.227	496.06
335.455	515.06
335.684	517.06
335.912	512.06
336.14	541.06
336.369	499.06
336.597	516.06
336.825	504.06
337.053	519.06
337.281	511.06
337.51	521.06
337.738	538.06
337.966	518.06
338.194	515.06
338.422	508.06
338.65	501.06
338.878	515.06
339.106	494.06
339.334	539.06
339.562	521.06
339.79	504.06
340.018	510.06
340.246	517.06
340.474	499.06
340.702	530.06
340.93	533.06
341.158	530.06
341.386	541.06
341.614	505.06
341.842	519.06
342.07	519.06
342.298	506.06
342.526	522.06
342.754	526.06
342.981	509.06
343.209	523.06
343.437	531.06
343.665	535.06
343.893	526.06
344.12	537.06
344.348	543.06
344.576	508.06
344.804	516.06
345.031	520.06
345.259	546.06
345.487	545.06
345.714	532.06
345.942	545.06
346.17	507.06
346.397	501.06
346.625	525.06
346.853	526.06
347.08	523.06
347.308	499.06
347.535	499.06
347.763	512.06
347.99	539.06
348.218	497.06
348.445	503.06
348.673	530.06
348.9	526.06
349.128	545.06
349.355	533.06
349.583	526.06
349.81	512.06
350.037	500.06
350.265	520.06
350.492	527.06
350.72	528.06
350.947	503.06
351.174	502.06
351.402	517.06
351.629	525.06
351.856	540.06
352.083	535.06
352.311	511.06
352.538	513.06
352.765	523.06
352.992	507.06
353.22	488.06
353.447	509.06
353.674	523.06
353.901	531.06
354.128	517.06
354.355	510.06
354.583	545.06
354.81	523.06
355.037	512.06
355.264	543.06
355.491	516.06
355.718	521.06
355.945	501.06
356.172	506.06
356.399	517.06
356.626	494.06
356.853	541.06
357.08	531.06
357.307	523.06
357.534	532.06
357.761	528.06
357.988	534.06
358.215	518.06
358.441	516.06
358.668	535.06
358.895	561.06
359.122	539.06
359.349	539.06
359.576	515.06
359.802	515.06
360.029	536.06
360.256	516.06
360.483	526.06
360.709	510.06
360.936	516.06
361.163	530.06
361.39	531.06
361.616	529.06
361.843	534.06
362.07	535.06
362.296	543.06
362.523	529.06
362.749	555.06
362.976	536.06
363.203	527.06
363.429	532.06
363.656	553.06
363.882	544.06
364.109	510.06
364.335	526.06
364.562	529.06
364.788	539.06
365.015	537.06
365.241	515.06
365.468	547.06
365.694	555.06
365.92	543.06
366.147	522.06
366.373	537.06
366.599	552.06
366.826	552.06
367.052	557.06
367.278	540.06
367.505	566.06
367.731	550.06
367.957	560.06
368.184	537.06
368.41	553.06
368.636	558.06
368.862	566.06
369.089	537.06
369.315	553.06
369.541	576.06
369.767	573.06
369.993	558.06
370.219	531.06
370.445	547.06
370.672	548.06
370.898	573.06
371.124	567.06
371.35	564.06
371.576	578.06
371.802	572.06
372.028	582.06
372.254	583.06
372.48	579.06
372.706	577.06
372.932	580.06
373.158	573.06
373.384	583.06
373.61	564.06
373.835	575.06
374.061	557.06
374.287	561.06
374.513	591.06
374.739	565.06
374.965	601.06
375.191	575.06
375.416	594.06
375.642	579.06
375.868	594.06
376.094	602.06
376.319	558.06
376.545	578.06
376.771	581.06
376.997	569.06
377.222	591.06
377.448	560.06
377.674	567.06
377.899	567.06
378.125	560.06
378.35	575.06
378.576	548.06
378.802	583.06
379.027	549.06
379.253	569.06
379.478	568.06
379.704	581.06
379.929	592.06
380.155	568.06
380.38	570.06
380.606	549.06
380.831	585.06
381.057	585.06
381.282	586.06
381.507	591.06
381.733	578.06
381.958	557.06
382.184	565.06
382.409	569.06
382.634	596.06
382.86	597.06
383.085	604.06
383.31	599.06
383.535	598.06
383.761	589.06
383.986	598.06
384.211	592.06
384.436	592.06
384.662	600.06
384.887	599.06
385.112	586.06
385.337	603.06
385.562	599.06
385.787	601.06
386.013	616.06
386.238	612.06
386.463	607.06
386.688	630.06
386.913	615.06
387.138	614.06
387.363	628.06
387.588	609.06
387.813	623.06
388.038	611.06
388.263	616.06
388.488	609.06
388.713	599.06
388.938	592.06
389.163	602.06
389.387	635.06
389.612	621.06
389.837	636.06
390.062	604.06
390.287	610.06
390.512	582.06
390.736	619.06
390.961	614.06
391.186	627.06
391.411	612.06
391.636	605.06
391.86	627.06
392.085	627.06
392.31	615.06
392.534	612.06
392.759	630.06
392.984	629.06
393.208	622.06
393.433	615.06
393.658	637.06
393.882	604.06
394.107	637.06
394.331	620.06
394.556	621.06
394.78	611.06
395.005	619.06
395.229	611.06
395.454	616.06
395.678	640.06
395.903	633.06
396.127	643.06
396.352	613.06
396.576	637.06
396.801	639.06
397.025	642.06
397.249	622.06
397.474	645.06
397.698	631.06
397.922	647.06
398.147	635.06
398.371	655.06
398.595	657.06
398.82	652.06
399.044	656.06
399.268	672.06
399.492	717.06
399.717	675.06
399.941	685.06
400.165	677.06
400.389	669.06
400.613	669.06
400.837	658.06
401.062	669.06
401.286	669.06
401.51	650.06
401.734	681.06
401.958	703.06
402.182	663.06
402.406	662.06
402.63	658.06
402.854	678.06
403.078	678.06
403.302	669.06
403.526	671.06
403.75	675.06
403.974	655.06
404.198	656.06
404.422	653.06
404.645	684.06
404.869	643.06
405.093	689.06
405.317	691.06
405.541	682.06
405.765	692.06
405.988	699.06
406.212	701.06
406.436	684.06
406.66	707.06
406.883	689.06
407.107	693.06
407.331	691.06
407.555	716.06
407.778	722.06
408.002	703.06
408.226	701.06
408.449	723.06
408.673	731.06
408.896	707.06
409.12	716.06
409.344	708.06
409.567	690.06
409.791	726.06
410.014	713.06
410.238	707.06
410.461	708.06
410.685	698.06
410.908	683.06
411.132	691.06
411.355	657.06
411.578	700.06
411.802	678.06
412.025	692.06
412.249	696.06
412.472	679.06
412.695	699.06
412.919	687.06
413.142	701.06
413.365	704.06
413.589	689.06
413.812	704.06
414.035	704.06
414.258	685.06
414.482	669.06
414.705	687.06
414.928	676.06
415.151	675.06
415.374	674.06
415.597	657.06
415.821	664.06
416.044	662.06
416.267	662.06
416.49	672.06
416.713	652.06
416.936	637.06
417.159	640.06
417.382	649.06
417.605	635.06
417.828	653.06
418.051	630.06
418.274	639.06
418.497	639.06
418.72	640.06
418.943	656.06
419.166	663.06
419.389	716.06
419.611	687.06
419.834	681.06
420.057	656.06
420.28	652.06
420.503	640.06
420.726	644.06
420.948	654.06
421.171	656.06
421.394	630.06
421.617	629.06
421.839	637.06
422.062	656.06
422.285	626.06
422.507	657.06
422.73	661.06
422.953	639.06
423.175	646.06
423.398	669.06
423.621	641.06
423.843	650.06
424.066	657.06
424.288	642.06
424.511	635.06
424.733	645.06
424.956	656.06
425.178	658.06
425.401	675.06
425.623	640.06
425.846	632.06
426.068	656.06
426.291	663.06
426.513	660.06
426.735	641.06
426.958	645.06
427.18	667.06
427.402	656.06
427.625	639.06
427.847	642.06
428.069	647.06
428.292	668.06
428.514	635.06
428.736	628.06
428.958	652.06
429.181	647.06
429.403	639.06
429.625	632.06
429.847	651.06
430.069	630.06
430.292	661.06
430.514	639.06
430.736	647.06
430.958	646.06
431.18	631.06
431.402	631.06
431.624	627.06
431.846	606.06
432.068	633.06
432.29	648.06
432.512	660.06
432.734	649.06
432.956	654.06
433.178	655.06
433.4	628.06
433.622	639.06
433.844	667.06
434.066	647.06
434.287	655.06
434.509	650.06
434.731	640.06
434.953	634.06
435.175	621.06
435.397	652.06
435.618	655.06
435.84	650.06
436.062	627.06
436.284	659.06
436.505	652.06
436.727	635.06
436.949	633.06
437.17	625.06
437.392	611.06
437.614	615.06
437.835	617.06
438.057	619.06
438.278	629.06
438.5	613.06
438.721	620.06
438.943	619.06
439.165	635.06
439.386	653.06
439.608	629.06
439.829	628.06
440.05	614.06
440.272	623.06
440.493	628.06
440.715	653.06
440.936	645.06
441.158	648.06
441.379	642.06
441.6	664.06
441.822	635.06
442.043	622.06
442.264	642.06
442.486	612.06
442.707	655.06
442.928	647.06
443.149	635.06
443.371	633.06
443.592	634.06
443.813	624.06
444.034	623.06
444.255	669.06
444.476	644.06
444.698	641.06
444.919	639.06
445.14	730.06
445.361	675.06
445.582	635.06
445.803	619.06
446.024	609.06
446.245	631.06
446.466	620.06
446.687	617.06
446.908	619.06
447.129	606.06
447.35	629.06
447.571	635.06
447.792	607.06
448.013	617.06
448.234	624.06
448.455	625.06
448.675	621.06
448.896	593.06
449.117	593.06
449.338	618.06
449.559	622.06
449.779	604.06
450	614.06
450.221	591.06
450.442	600.06
450.662	608.06
450.883	612.06
451.104	590.06
451.324	596.06
451.545	603.06
451.766	592.06
451.986	605.06
452.207	605.06
452.428	599.06
452.648	608.06
452.869	622.06
453.089	593.06
453.31	601.06
453.53	602.06
453.751	585.06
453.971	581.06
454.192	596.06
454.412	564.06
454.633	573.06
454.853	599.06
455.073	589.06
455.294	611.06
455.514	585.06
455.734	607.06
455.955	591.06
456.175	587.06
456.395	599.06
456.616	585.06
456.836	599.06
457.056	602.06
457.276	591.06
457.497	600.06
457.717	607.06
457.937	575.06
458.157	591.06
458.377	578.06
458.598	582.06
458.818	594.06
459.038	600.06
459.258	621.06
459.478	592.06
459.698	632.06
459.918	613.06
460.138	615.06
460.358	631.06
460.578	637.06
460.798	635.06
461.018	649.06
461.238	632.06
461.458	635.06
461.678	617.06
461.898	663.06
462.118	648.06
462.338	661.06
462.558	645.06
462.777	648.06
462.997	667.06
463.217	674.06
463.437	686.06
463.657	684.06
463.876	666.06
464.096	655.06
464.316	690.06
464.536	641.06
464.755	661.06
464.975	665.06
465.195	650.06
465.414	638.06
465.634	638.06
465.854	662.06
466.073	637.06
466.293	638.06
466.512	631.06
466.732	622.06
466.951	633.06
467.171	628.06
467.391	653.06
467.61	631.06
467.829	620.06
468.049	619.06
468.268	628.06
468.488	606.06
468.707	648.06
468.927	640.06
469.146	623.06
469.365	631.06
469.585	640.06
469.804	637.06
470.023	637.06
470.243	647.06
470.462	635.06
470.681	624.06
470.901	641.06
471.12	655.06
471.339	633.06
471.558	672.06
471.777	647.06
471.997	643.06
472.216	656.06
472.435	661.06
472.654	658.06
472.873	662.06
473.092	655.06
473.311	668.06
473.53	663.06
473.749	679.06
473.968	661.06
474.187	645.06
474.406	670.06
474.625	660.06
474.844	695.06
475.063	689.06
475.282	656.06
475.501	676.06
475.72	691.06
475.939	701.06
476.158	699.06
476.377	703.06
476.596	669.06
476.814	719.06
477.033	704.06
477.252	711.06
477.471	739.06
477.69	725.06
477.908	734.06
478.127	726.06
478.346	738.06
478.564	756.06
478.783	743.06
479.002	738.06
479.22	752.06
479.439	757.06
479.658	777.06
479.876	741.06
480.095	777.06
480.313	742.06
480.532	742.06
480.751	777.06
480.969	758.06
481.188	771.06
481.406	783.06
481.624	757.06
481.843	763.06
482.061	752.06
482.28	756.06
482.498	768.06
482.717	767.06
482.935	786.06
483.153	775.06
483.372	779.06
483.59	785.06
483.808	812.06
484.027	772.06
484.245	792.06
484.463	811.06
484.681	811.06
484.9	822.06
485.118	811.06
485.336	816.06
485.554	816.06
485.772	816.06
485.99	792.06
486.209	819.06
486.427	847.06
486.645	822.06
486.863	855.06
487.081	815.06
487.299	822.06
487.517	854.06
487.735	824.06
487.953	824.06
488.171	834.06
488.389	841.06
488.607	824.06
488.825	832.06
489.043	825.06
489.261	841.06
489.479	829.06
489.696	851.06
489.914	814.06
490.132	821.06
490.35	802.06
490.568	813.06
490.786	834.06
491.003	832.06
491.221	844.06
491.439	850.06
491.657	841.06
491.874	838.06
492.092	852.06
492.31	843.06
492.527	851.06
492.745	853.06
492.963	836.06
493.18	849.06
493.398	883.06
493.615	852.06
493.833	874.06
494.05	879.06
494.268	864.06
494.485	851.06
494.703	841.06
494.92	843.06
495.138	854.06
495.355	863.06
495.573	829.06
495.79	868.06
496.008	858.06
496.225	882.06
496.442	856.06
496.66	886.06
496.877	886.06
497.094	864.06
497.312	881.06
497.529	891.06
497.746	904.06
497.963	911.06
498.181	910.06
498.398	892.06
498.615	935.06
498.832	912.06
499.049	958.06
499.267	923.06
499.484	916.06
499.701	965.06
499.918	979.06
500.135	987.06
500.352	991.06
500.569	992.06
500.786	976.06
501.003	993.06
501.22	978.06
501.437	973.06
501.654	956.06
501.871	951.06
502.088	940.06
502.305	923.06
502.522	919.06
502.739	927.06
502.956	913.06
503.172	888.06
503.389	893.06
503.606	867.06
503.823	879.06
504.04	885.06
504.256	877.06
504.473	875.06
504.69	869.06
504.907	886.06
505.123	857.06
505.34	845.06
505.557	827.06
505.773	835.06
505.99	807.06
506.207	830.06
506.423	804.06
506.64	812.06
506.856	806.06
507.073	822.06
507.289	818.06
507.506	801.06
507.722	800.06
507.939	779.06
508.155	815.06
508.372	780.06
508.588	779.06
508.805	803.06
509.021	778.06
509.238	775.06
509.454	763.06
509.67	777.06
509.887	765.06
510.103	754.06
510.319	770.06
510.536	741.06
510.752	765.06
510.968	747.06
511.184	744.06
511.401	772.06
511.617	774.06
511.833	768.06
512.049	738.06
512.265	740.06
512.481	762.06
512.698	743.06
512.914	761.06
513.13	750.06
513.346	756.06
513.562	737.06
513.778	725.06
513.994	735.06
514.21	741.06
514.426	718.06
514.642	717.06
514.858	751.06
515.074	742.06
515.29	745.06
515.506	742.06
515.721	751.06
515.937	745.06
516.153	724.06
516.369	728.06
516.585	735.06
516.801	774.06
517.016	738.06
517.232	763.06
517.448	735.06
517.664	751.06
517.879	738.06
518.095	763.06
518.311	765.06
518.527	763.06
518.742	793.06
518.958	736.06
519.173	755.06
519.389	729.06
519.605	760.06
519.82	733.06
520.036	747.06
520.251	720.06
520.467	736.06
520.682	742.06
520.898	710.06
521.113	728.06
521.329	735.06
521.544	726.06
521.76	736.06
521.975	731.06
522.19	703.06
522.406	707.06
522.621	717.06
522.836	709.06
523.052	732.06
523.267	730.06
523.482	734.06
523.698	711.06
523.913	689.06
524.128	691.06
524.343	705.06
524.559	729.06
524.774	715.06
524.989	721.06
525.204	709.06
525.419	687.06
525.634	677.06
525.849	708.06
526.064	697.06
526.28	695.06
526.495	685.06
526.71	725.06
526.925	710.06
527.14	685.06
527.355	678.06
527.57	714.06
527.785	690.06
527.999	713.06
528.214	696.06
528.429	707.06
528.644	716.06
528.859	674.06
529.074	695.06
529.289	704.06
529.503	697.06
529.718	688.06
529.933	673.06
530.148	694.06
530.363	687.06
530.577	684.06
530.792	692.06
531.007	681.06
531.221	700.06
531.436	651.06
531.651	671.06
531.865	667.06
532.08	688.06
532.295	702.06
532.509	687.06
532.724	653.06
532.938	665.06
533.153	672.06
533.367	655.06
533.582	653.06
533.796	686.06
534.011	679.06
534.225	657.06
534.44	655.06
534.654	666.06
534.868	663.06
535.083	651.06
535.297	674.06
535.511	671.06
535.726	645.06
535.94	657.06
536.154	648.06
536.369	658.06
536.583	652.06
536.797	665.06
537.011	643.06
537.225	638.06
537.44	652.06
537.654	655.06
537.868	648.06
538.082	643.06
538.296	655.06
538.51	631.06
538.724	644.06
538.938	631.06
539.153	643.06
539.367	663.06
539.581	635.06
539.795	650.06
540.009	636.06
540.222	639.06
540.436	633.06
540.65	623.06
540.864	640.06
541.078	629.06
541.292	673.06
541.506	638.06
541.72	647.06
541.934	657.06
542.147	633.06
542.361	632.06
542.575	634.06
542.789	631.06
543.002	622.06
543.216	627.06
543.43	633.06
543.644	639.06
543.857	623.06
544.071	642.06
544.285	627.06
544.498	610.06
544.712	612.06
544.925	620.06
545.139	607.06
545.352	639.06
545.566	622.06
545.779	643.06
545.993	621.06
546.206	600.06
546.42	622.06
546.633	621.06
546.847	644.06
547.06	617.06
547.274	631.06
547.487	598.06
547.7	607.06
547.914	588.06
548.127	619.06
548.34	603.06
548.554	608.06
548.767	617.06
548.98	620.06
549.193	616.06
549.407	611.06
549.62	626.06
549.833	619.06
550.046	608.06
550.259	603.06
550.473	603.06
550.686	608.06
550.899	604.06
551.112	604.06
551.325	596.06
551.538	608.06
551.751	588.06
551.964	573.06
552.177	579.06
552.39	567.06
552.603	594.06
552.816	595.06
553.029	589.06
553.242	614.06
553.455	604.06
553.667	596.06
553.88	583.06
554.093	567.06
554.306	591.06
554.519	602.06
554.732	587.06
554.944	572.06
555.157	573.06
555.37	580.06
555.583	585.06
555.795	581.06
556.008	560.06
556.221	548.06
556.433	559.06
556.646	540.06
556.859	578.06
557.071	559.06
557.284	549.06
557.496	561.06
557.709	554.06
557.921	543.06
558.134	545.06
558.346	572.06
558.559	577.06
558.771	579.06
558.984	561.06
559.196	540.06
559.409	559.06
559.621	547.06
559.833	565.06
560.046	518.06
560.258	533.06
560.47	523.06
560.683	533.06
560.895	531.06
561.107	542.06
561.32	534.06
561.532	530.06
561.744	529.06
561.956	529.06
562.168	534.06
562.381	530.06
562.593	531.06
562.805	548.06
563.017	517.06
563.229	539.06
563.441	534.06
563.653	553.06
563.865	531.06
564.077	491.06
564.289	518.06
564.501	528.06
564.713	542.06
564.925	533.06
565.137	510.06
565.349	505.06
565.561	531.06
565.773	536.06
565.985	519.06
566.197	543.06
566.408	544.06
566.62	549.06
566.832	526.06
567.044	541.06
567.255	518.06
567.467	541.06
567.679	549.06
567.891	532.06
568.102	537.06
568.314	520.06
568.526	525.06
568.737	497.06
568.949	520.06
569.161	533.06
569.372	501.06
569.584	483.06
569.795	470.06
570.007	491.06
570.218	480.06
570.43	493.06
570.641	478.06
570.853	487.06
571.064	478.06
571.276	496.06
571.487	476.06
571.698	493.06
571.91	480.06
572.121	466.06
572.333	472.06
572.544	460.06
572.755	454.06
572.966	437.06
573.178	448.06
573.389	438.06
573.6	451.06
573.811	439.06
574.023	435.06
574.234	446.06
574.445	435.06
574.656	438.06
574.867	443.06
575.078	425.06
575.289	447.06
575.501	445.06
575.712	452.06
575.923	422.06
576.134	437.06
576.345	415.06
576.556	433.06
576.767	437.06
576.978	411.06
577.188	434.06
577.399	428.06
577.61	405.06
577.821	439.06
578.032	412.06
578.243	407.06
578.454	416.06
578.665	415.06
578.875	404.06
579.086	398.06
579.297	392.06
579.508	410.06
579.718	397.06
579.929	415.06
580.14	397.06
580.35	400.06
580.561	406.06
580.772	404.06
580.982	383.06
581.193	388.06
581.403	400.06
581.614	399.06
581.825	385.06
582.035	394.06
582.246	401.06
582.456	396.06
582.667	393.06
582.877	389.06
583.087	374.06
583.298	381.06
583.508	379.06
583.719	374.06
583.929	373.06
584.139	380.06
584.35	373.06
584.56	386.06
584.77	408.06
584.981	385.06
585.191	398.06
585.401	385.06
585.611	382.06
585.821	392.06
586.032	375.06
586.242	386.06
586.452	373.06
586.662	371.06
586.872	365.06
587.082	369.06
587.292	367.06
587.502	370.06
587.713	367.06
587.923	359.06
588.133	370.06
588.343	373.06
588.553	367.06
588.762	358.06
588.972	363.06
589.182	367.06
589.392	362.06
589.602	372.06
589.812	360.06
590.022	363.06
590.232	348.06
590.441	350.06
590.651	367.06
590.861	351.06
591.071	347.06
591.281	356.06
591.49	369.06
591.7	365.06
591.91	360.06
592.119	357.06
592.329	353.06
592.539	328.06
592.748	353.06
592.958	345.06
593.167	352.06
593.377	337.06
593.587	345.06
593.796	363.06
594.006	347.06
594.215	351.06
594.424	339.06
594.634	339.06
594.843	346.06
595.053	353.06
595.262	367.06
595.472	355.06
595.681	348.06
595.89	348.06
596.1	333.06
596.309	343.06
596.518	331.06
596.727	341.06
596.937	340.06
597.146	339.06
597.355	309.06
597.564	320.06
597.774	317.06
597.983	334.06
598.192	315.06
598.401	324.06
598.61	320.06
598.819	318.06
599.028	324.06
599.237	332.06
599.446	328.06
599.655	296.06
599.864	313.06
600.073	298.06
600.282	316.06
600.491	326.06
600.7	311.06
600.909	317.06
601.118	310.06
601.327	325.06
601.536	310.06
601.745	294.06
601.953	303.06
602.162	313.06
602.371	324.06
602.58	312.06
602.789	323.06
602.997	321.06
603.206	317.06
603.415	278.06
603.623	295.06
603.832	305.06
604.041	302.06
604.249	294.06
604.458	293.06
604.666	304.06
604.875	294.06
605.084	299.06
605.292	303.06
605.501	311.06
605.709	290.06
605.918	303.06
606.126	293.06
606.334	307.06
606.543	305.06
606.751	318.06
606.96	295.06
607.168	302.06
607.376	272.06
607.585	309.06
607.793	299.06
608.001	289.06
608.21	283.06
608.418	288.06
608.626	296.06
608.834	299.06
609.043	308.06
609.251	276.06
609.459	294.06
609.667	291.06
609.875	285.06
610.083	291.06
610.291	274.06
610.499	278.06
610.707	268.06
610.916	280.06
611.124	282.06
611.332	279.06
611.54	298.06
611.748	290.06
611.955	281.06
612.163	266.06
612.371	282.06
612.579	276.06
612.787	283.06
612.995	292.06
613.203	285.06
613.411	267.06
613.618	280.06
613.826	275.06
614.034	271.06
614.242	273.06
614.449	269.06
614.657	278.06
614.865	280.06
615.072	284.06
615.28	271.06
615.488	292.06
615.695	273.06
615.903	266.06
616.111	264.06
616.318	261.06
616.526	251.06
616.733	257.06
616.941	262.06
617.148	274.06
617.356	255.06
617.563	274.06
617.771	258.06
617.978	253.06
618.185	280.06
618.393	260.06
618.6	256.06
618.807	281.06
619.015	286.06
619.222	265.06
619.429	251.06
619.637	269.06
619.844	263.06
620.051	266.06
620.258	251.06
620.466	256.06
620.673	256.06
620.88	252.06
621.087	241.06
621.294	269.06
621.501	252.06
621.708	249.06
621.915	255.06
622.122	246.06
622.329	252.06
622.536	275.06
622.743	250.06
622.95	261.06
623.157	255.06
623.364	252.06
623.571	249.06
623.778	232.06
623.985	261.06
624.192	254.06
624.399	262.06
624.606	259.06
624.812	236.06
625.019	255.06
625.226	246.06
625.433	247.06
625.639	229.06
625.846	229.06
626.053	227.06
626.259	235.06
626.466	211.06
626.673	211.06
626.879	253.06
627.086	231.06
627.293	231.06
627.499	239.06
627.706	224.06
627.912	230.06
628.119	249.06
628.325	245.06
628.532	237.06
628.738	246.06
628.945	228.06
629.151	221.06
629.357	241.06
629.564	231.06
629.77	239.06
629.976	252.06
630.183	235.06
630.389	239.06
630.595	232.06
630.802	238.06
631.008	236.06
631.214	237.06
631.42	210.06
631.627	227.06
631.833	227.06
632.039	222.06
632.245	241.06
632.451	237.06
632.657	231.06
632.863	203.06
633.069	214.06
633.275	223.06
633.481	221.06
633.688	217.06
633.893	216.06
634.099	210.06
634.305	217.06
634.511	224.06
634.717	225.06
634.923	206.06
635.129	210.06
635.335	213.06
635.541	206.06
635.747	215.06
635.952	207.06
636.158	209.06
636.364	216.06
636.57	200.06
636.775	203.06
636.981	228.06
637.187	217.06
637.392	208.06
637.598	225.06
637.804	222.06
638.009	211.06
638.215	216.06
638.421	200.06
638.626	219.06
638.832	203.06
639.037	205.06
639.243	197.06
639.448	211.06
639.654	191.06
639.859	194.06
640.065	189.06
640.27	207.06
640.475	199.06
640.681	207.06
640.886	193.06
641.091	196.06
641.297	203.06
641.502	200.06
641.707	210.06
641.913	201.06
642.118	191.06
642.323	206.06
642.528	190.06
642.733	195.06
642.939	197.06
643.144	190.06
643.349	184.06
643.554	205.06
643.759	199.06
643.964	197.06
644.169	178.06
644.374	195.06
644.579	203.06
644.784	197.06
644.989	201.06
645.194	194.06
645.399	177.06
645.604	200.06
645.809	204.06
646.014	195.06
646.219	193.06
646.423	200.06
646.628	187.06
646.833	208.06
647.038	201.06
647.243	198.06
647.447	185.06
647.652	190.06
647.857	195.06
648.062	206.06
648.266	183.06
648.471	188.06
648.676	195.06
648.88	193.06
649.085	193.06
649.289	203.06
649.494	184.06
649.698	182.06
649.903	197.06
650.107	211.06
650.312	187.06
650.516	204.06
650.721	190.06
650.925	179.06
651.13	188.06
651.334	189.06
651.539	187.06
651.743	197.06
651.947	176.06
652.152	186.06
652.356	175.06
652.56	164.06
652.764	163.06
652.969	177.06
653.173	154.06
653.377	164.06
653.581	179.06
653.785	165.06
653.99	157.06
654.194	149.06
654.398	167.06
654.602	163.06
654.806	164.06
655.01	156.06
655.214	172.06
655.418	166.06
655.622	168.06
655.826	165.06
656.03	156.06
656.234	152.06
656.438	149.06
656.642	144.06
656.846	151.06
657.049	135.06
657.253	155.06
657.457	138.06
657.661	140.06
657.865	140.06
658.068	123.06
658.272	116.06
658.476	117.06
658.68	130.06
658.883	117.06
659.087	112.06
659.291	123.06
659.494	109.06
659.698	108.06
659.901	97.06
660.105	95.06
660.309	96.06
660.512	99.06
660.716	104.06
660.919	102.06
661.123	107.06
661.326	95.06
661.53	100.06
661.733	90.06
661.936	76.06
662.14	87.06
662.343	91.06
662.546	88.06
662.75	83.06
662.953	84.06
663.156	80.06
663.36	81.06
663.563	78.06
663.766	85.06
663.969	87.06
664.173	84.06
664.376	91.06
664.579	83.06
664.782	80.06
664.985	86.06
665.188	81.06
665.391	94.06
665.594	85.06
665.797	57.06
666	66.06
666.203	76.06
666.406	69.06
666.609	81.06
666.812	71.06
667.015	66.06
667.218	73.06
667.421	84.06
667.624	70.06
667.827	71.06
668.03	88.06
668.232	76.06
668.435	81.06
668.638	76.06
668.841	87.06
669.043	82.06
669.246	73.06
669.449	80.06
669.651	65.06
669.854	81.06
670.057	79.06
670.259	77.06
670.462	76.06
670.665	75.06
670.867	68.06
671.07	80.06
671.272	77.06
671.475	77.06
671.677	80.06
671.88	78.06
672.082	77.06
672.284	74.06
672.487	66.06
672.689	86.06
672.892	68.06
