Data from Fe(NO3)3@0.0125M.TitratingCurve.Agarose3%dH2O.NegLispCup.LampEnergy10.LIBS07252019_HRD10591_17-00-10-336.txt Node
Date: Thu Jul 25 17:00:10 EDT 2019
User: cochatt
Spectrometer: HR+D1059
Trigger mode: 1
Integration Time (sec): 1.000000E-1
Scans to average: 1
Electric dark correction enabled: true
Nonlinearity correction enabled: false
Boxcar width: 0
XAxis mode: Wavelengths
Number of Pixels in Spectrum: 2048
>>>>>Begin Spectral Data<<<<<
223.165	-10.31
223.4	-10.31
223.635	-10.31
223.869	-24.31
224.104	-14.31
224.338	-16.31
224.573	-5.31
224.808	-23.31
225.042	-0.31
225.277	14.69
225.511	-13.31
225.746	6.69
225.98	5.69
226.215	-5.31
226.449	30.69
226.683	22.69
226.918	18.69
227.152	13.69
227.387	31.69
227.621	35.69
227.856	44.69
228.09	36.69
228.324	50.69
228.559	62.69
228.793	63.69
229.027	91.69
229.262	97.69
229.496	86.69
229.73	82.69
229.964	86.69
230.199	100.69
230.433	97.69
230.667	85.69
230.901	104.69
231.136	99.69
231.37	82.69
231.604	101.69
231.838	103.69
232.072	106.69
232.306	104.69
232.541	83.69
232.775	100.69
233.009	132.69
233.243	106.69
233.477	108.69
233.711	113.69
233.945	107.69
234.179	106.69
234.413	118.69
234.647	104.69
234.881	115.69
235.115	118.69
235.349	110.69
235.583	122.69
235.817	108.69
236.051	120.69
236.285	113.69
236.519	100.69
236.753	117.69
236.987	118.69
237.221	107.69
237.455	126.69
237.689	110.69
237.922	129.69
238.156	123.69
238.39	100.69
238.624	121.69
238.858	126.69
239.091	107.69
239.325	118.69
239.559	108.69
239.793	128.69
240.027	113.69
240.26	119.69
240.494	130.69
240.728	134.69
240.961	139.69
241.195	125.69
241.429	130.69
241.662	124.69
241.896	123.69
242.13	127.69
242.363	127.69
242.597	126.69
242.83	139.69
243.064	115.69
243.298	145.69
243.531	130.69
243.765	122.69
243.998	124.69
244.232	136.69
244.465	132.69
244.699	110.69
244.932	137.69
245.166	136.69
245.399	140.69
245.633	135.69
245.866	145.69
246.099	129.69
246.333	138.69
246.566	152.69
246.8	138.69
247.033	136.69
247.266	137.69
247.5	134.69
247.733	158.69
247.966	128.69
248.2	154.69
248.433	138.69
248.666	149.69
248.899	160.69
249.133	153.69
249.366	150.69
249.599	153.69
249.832	159.69
250.066	152.69
250.299	148.69
250.532	136.69
250.765	151.69
250.998	152.69
251.231	163.69
251.465	158.69
251.698	165.69
251.931	161.69
252.164	153.69
252.397	156.69
252.63	158.69
252.863	170.69
253.096	168.69
253.329	163.69
253.562	169.69
253.795	175.69
254.028	170.69
254.261	171.69
254.494	170.69
254.727	166.69
254.96	166.69
255.193	155.69
255.426	179.69
255.659	180.69
255.892	180.69
256.124	169.69
256.357	170.69
256.59	164.69
256.823	175.69
257.056	178.69
257.289	172.69
257.521	191.69
257.754	181.69
257.987	187.69
258.22	196.69
258.452	183.69
258.685	181.69
258.918	174.69
259.151	170.69
259.383	174.69
259.616	201.69
259.849	186.69
260.081	209.69
260.314	209.69
260.547	207.69
260.779	184.69
261.012	205.69
261.244	187.69
261.477	196.69
261.71	215.69
261.942	210.69
262.175	182.69
262.407	182.69
262.64	190.69
262.872	201.69
263.105	194.69
263.337	204.69
263.57	199.69
263.802	179.69
264.035	186.69
264.267	198.69
264.499	203.69
264.732	210.69
264.964	188.69
265.197	196.69
265.429	180.69
265.661	198.69
265.894	212.69
266.126	200.69
266.358	203.69
266.591	200.69
266.823	205.69
267.055	206.69
267.287	203.69
267.52	205.69
267.752	201.69
267.984	205.69
268.216	216.69
268.448	217.69
268.681	200.69
268.913	208.69
269.145	224.69
269.377	203.69
269.609	215.69
269.841	211.69
270.073	215.69
270.306	209.69
270.538	207.69
270.77	214.69
271.002	214.69
271.234	230.69
271.466	214.69
271.698	230.69
271.93	224.69
272.162	228.69
272.394	215.69
272.626	229.69
272.858	231.69
273.09	216.69
273.322	229.69
273.553	216.69
273.785	247.69
274.017	250.69
274.249	247.69
274.481	254.69
274.713	269.69
274.945	276.69
275.176	260.69
275.408	264.69
275.64	247.69
275.872	255.69
276.104	246.69
276.335	241.69
276.567	261.69
276.799	247.69
277.031	250.69
277.262	249.69
277.494	260.69
277.726	248.69
277.957	264.69
278.189	236.69
278.421	243.69
278.652	231.69
278.884	236.69
279.115	243.69
279.347	244.69
279.579	268.69
279.81	258.69
280.042	259.69
280.273	266.69
280.505	255.69
280.736	266.69
280.968	273.69
281.199	257.69
281.431	281.69
281.662	261.69
281.894	250.69
282.125	267.69
282.356	271.69
282.588	271.69
282.819	277.69
283.051	256.69
283.282	264.69
283.513	276.69
283.745	274.69
283.976	269.69
284.207	274.69
284.439	261.69
284.67	284.69
284.901	283.69
285.132	273.69
285.364	293.69
285.595	274.69
285.826	278.69
286.057	270.69
286.288	266.69
286.52	292.69
286.751	282.69
286.982	287.69
287.213	296.69
287.444	281.69
287.675	279.69
287.906	290.69
288.138	278.69
288.369	291.69
288.6	299.69
288.831	287.69
289.062	295.69
289.293	315.69
289.524	310.69
289.755	303.69
289.986	304.69
290.217	283.69
290.448	299.69
290.679	297.69
290.91	306.69
291.141	310.69
291.371	293.69
291.602	298.69
291.833	277.69
292.064	286.69
292.295	293.69
292.526	303.69
292.757	323.69
292.987	295.69
293.218	289.69
293.449	311.69
293.68	297.69
293.91	291.69
294.141	311.69
294.372	306.69
294.603	291.69
294.833	307.69
295.064	311.69
295.295	311.69
295.525	307.69
295.756	318.69
295.987	296.69
296.217	309.69
296.448	297.69
296.679	317.69
296.909	341.69
297.14	324.69
297.37	315.69
297.601	321.69
297.831	322.69
298.062	319.69
298.292	314.69
298.523	336.69
298.753	327.69
298.984	329.69
299.214	320.69
299.445	326.69
299.675	335.69
299.905	303.69
300.136	310.69
300.366	341.69
300.597	327.69
300.827	349.69
301.057	327.69
301.288	336.69
301.518	326.69
301.748	341.69
301.979	338.69
302.209	359.69
302.439	353.69
302.669	359.69
302.9	347.69
303.13	342.69
303.36	356.69
303.59	352.69
303.82	345.69
304.051	342.69
304.281	361.69
304.511	364.69
304.741	339.69
304.971	346.69
305.201	354.69
305.431	363.69
305.661	358.69
305.891	364.69
306.121	370.69
306.352	370.69
306.582	367.69
306.812	335.69
307.042	363.69
307.272	379.69
307.502	347.69
307.731	354.69
307.961	359.69
308.191	350.69
308.421	336.69
308.651	373.69
308.881	360.69
309.111	347.69
309.341	357.69
309.571	355.69
309.8	359.69
310.03	345.69
310.26	354.69
310.49	363.69
310.72	345.69
310.949	361.69
311.179	339.69
311.409	352.69
311.639	369.69
311.868	368.69
312.098	389.69
312.328	366.69
312.557	370.69
312.787	374.69
313.017	383.69
313.246	373.69
313.476	368.69
313.706	387.69
313.935	380.69
314.165	379.69
314.394	377.69
314.624	368.69
314.853	379.69
315.083	384.69
315.312	384.69
315.542	379.69
315.771	394.69
316.001	376.69
316.23	393.69
316.46	401.69
316.689	383.69
316.919	383.69
317.148	389.69
317.377	376.69
317.607	380.69
317.836	397.69
318.065	402.69
318.295	391.69
318.524	382.69
318.753	379.69
318.983	405.69
319.212	402.69
319.441	386.69
319.67	393.69
319.9	390.69
320.129	411.69
320.358	417.69
320.587	388.69
320.816	414.69
321.046	422.69
321.275	399.69
321.504	390.69
321.733	388.69
321.962	418.69
322.191	403.69
322.42	415.69
322.649	394.69
322.878	433.69
323.108	418.69
323.337	420.69
323.566	398.69
323.795	407.69
324.024	409.69
324.253	415.69
324.482	420.69
324.71	422.69
324.939	424.69
325.168	416.69
325.397	431.69
325.626	419.69
325.855	420.69
326.084	432.69
326.313	422.69
326.542	420.69
326.77	448.69
326.999	427.69
327.228	426.69
327.457	416.69
327.686	435.69
327.914	422.69
328.143	433.69
328.372	440.69
328.6	419.69
328.829	440.69
329.058	434.69
329.287	436.69
329.515	430.69
329.744	422.69
329.972	445.69
330.201	450.69
330.43	440.69
330.658	424.69
330.887	451.69
331.115	446.69
331.344	440.69
331.572	439.69
331.801	440.69
332.03	461.69
332.258	468.69
332.486	441.69
332.715	472.69
332.943	482.69
333.172	467.69
333.4	470.69
333.629	506.69
333.857	496.69
334.085	498.69
334.314	490.69
334.542	491.69
334.771	479.69
334.999	489.69
335.227	491.69
335.455	500.69
335.684	494.69
335.912	495.69
336.14	506.69
336.369	517.69
336.597	512.69
336.825	491.69
337.053	472.69
337.281	478.69
337.51	475.69
337.738	475.69
337.966	490.69
338.194	485.69
338.422	498.69
338.65	479.69
338.878	470.69
339.106	474.69
339.334	466.69
339.562	450.69
339.79	449.69
340.018	475.69
340.246	464.69
340.474	468.69
340.702	474.69
340.93	476.69
341.158	457.69
341.386	458.69
341.614	455.69
341.842	450.69
342.07	482.69
342.298	488.69
342.526	441.69
342.754	470.69
342.981	472.69
343.209	464.69
343.437	471.69
343.665	480.69
343.893	516.69
344.12	519.69
344.348	481.69
344.576	500.69
344.804	490.69
345.031	468.69
345.259	467.69
345.487	481.69
345.714	477.69
345.942	435.69
346.17	453.69
346.397	473.69
346.625	476.69
346.853	460.69
347.08	452.69
347.308	446.69
347.535	461.69
347.763	450.69
347.99	470.69
348.218	464.69
348.445	454.69
348.673	457.69
348.9	458.69
349.128	459.69
349.355	462.69
349.583	481.69
349.81	457.69
350.037	481.69
350.265	454.69
350.492	456.69
350.72	471.69
350.947	478.69
351.174	433.69
351.402	446.69
351.629	463.69
351.856	445.69
352.083	454.69
352.311	439.69
352.538	437.69
352.765	446.69
352.992	446.69
353.22	433.69
353.447	457.69
353.674	456.69
353.901	453.69
354.128	450.69
354.355	457.69
354.583	450.69
354.81	426.69
355.037	443.69
355.264	444.69
355.491	452.69
355.718	462.69
355.945	481.69
356.172	459.69
356.399	456.69
356.626	446.69
356.853	453.69
357.08	468.69
357.307	482.69
357.534	468.69
357.761	449.69
357.988	468.69
358.215	465.69
358.441	450.69
358.668	450.69
358.895	452.69
359.122	469.69
359.349	470.69
359.576	457.69
359.802	467.69
360.029	470.69
360.256	454.69
360.483	449.69
360.709	461.69
360.936	466.69
361.163	471.69
361.39	467.69
361.616	466.69
361.843	464.69
362.07	483.69
362.296	461.69
362.523	468.69
362.749	488.69
362.976	449.69
363.203	476.69
363.429	475.69
363.656	473.69
363.882	454.69
364.109	450.69
364.335	449.69
364.562	457.69
364.788	450.69
365.015	466.69
365.241	465.69
365.468	454.69
365.694	456.69
365.92	479.69
366.147	469.69
366.373	460.69
366.599	469.69
366.826	493.69
367.052	487.69
367.278	498.69
367.505	462.69
367.731	467.69
367.957	468.69
368.184	476.69
368.41	465.69
368.636	482.69
368.862	503.69
369.089	478.69
369.315	478.69
369.541	491.69
369.767	501.69
369.993	487.69
370.219	512.69
370.445	512.69
370.672	479.69
370.898	484.69
371.124	506.69
371.35	486.69
371.576	497.69
371.802	510.69
372.028	510.69
372.254	505.69
372.48	499.69
372.706	497.69
372.932	505.69
373.158	523.69
373.384	519.69
373.61	530.69
373.835	522.69
374.061	523.69
374.287	531.69
374.513	512.69
374.739	522.69
374.965	534.69
375.191	540.69
375.416	537.69
375.642	527.69
375.868	533.69
376.094	534.69
376.319	497.69
376.545	519.69
376.771	527.69
376.997	516.69
377.222	505.69
377.448	498.69
377.674	508.69
377.899	515.69
378.125	498.69
378.35	497.69
378.576	470.69
378.802	497.69
379.027	505.69
379.253	501.69
379.478	515.69
379.704	481.69
379.929	528.69
380.155	503.69
380.38	516.69
380.606	501.69
380.831	522.69
381.057	537.69
381.282	488.69
381.507	501.69
381.733	519.69
381.958	526.69
382.184	529.69
382.409	532.69
382.634	521.69
382.86	532.69
383.085	541.69
383.31	532.69
383.535	534.69
383.761	532.69
383.986	547.69
384.211	550.69
384.436	550.69
384.662	542.69
384.887	537.69
385.112	549.69
385.337	547.69
385.562	551.69
385.787	542.69
386.013	566.69
386.238	578.69
386.463	573.69
386.688	573.69
386.913	582.69
387.138	569.69
387.363	582.69
387.588	582.69
387.813	586.69
388.038	576.69
388.263	551.69
388.488	576.69
388.713	591.69
388.938	562.69
389.163	587.69
389.387	599.69
389.612	584.69
389.837	589.69
390.062	586.69
390.287	590.69
390.512	599.69
390.736	600.69
390.961	587.69
391.186	590.69
391.411	596.69
391.636	608.69
391.86	595.69
392.085	626.69
392.31	621.69
392.534	618.69
392.759	605.69
392.984	629.69
393.208	619.69
393.433	658.69
393.658	650.69
393.882	632.69
394.107	619.69
394.331	590.69
394.556	593.69
394.78	618.69
395.005	601.69
395.229	624.69
395.454	600.69
395.678	608.69
395.903	635.69
396.127	642.69
396.352	628.69
396.576	639.69
396.801	633.69
397.025	652.69
397.249	641.69
397.474	634.69
397.698	656.69
397.922	644.69
398.147	638.69
398.371	652.69
398.595	671.69
398.82	693.69
399.044	690.69
399.268	711.69
399.492	757.69
399.717	760.69
399.941	792.69
400.165	762.69
400.389	756.69
400.613	727.69
400.837	717.69
401.062	714.69
401.286	684.69
401.51	657.69
401.734	694.69
401.958	692.69
402.182	688.69
402.406	655.69
402.63	688.69
402.854	702.69
403.078	664.69
403.302	654.69
403.526	673.69
403.75	707.69
403.974	691.69
404.198	711.69
404.422	689.69
404.645	707.69
404.869	708.69
405.093	697.69
405.317	705.69
405.541	708.69
405.765	698.69
405.988	696.69
406.212	709.69
406.436	725.69
406.66	734.69
406.883	728.69
407.107	774.69
407.331	762.69
407.555	769.69
407.778	777.69
408.002	766.69
408.226	742.69
408.449	775.69
408.673	745.69
408.896	768.69
409.12	734.69
409.344	722.69
409.567	730.69
409.791	715.69
410.014	716.69
410.238	735.69
410.461	711.69
410.685	710.69
410.908	730.69
411.132	742.69
411.355	732.69
411.578	706.69
411.802	699.69
412.025	702.69
412.249	712.69
412.472	710.69
412.695	683.69
412.919	692.69
413.142	715.69
413.365	684.69
413.589	676.69
413.812	671.69
414.035	672.69
414.258	683.69
414.482	679.69
414.705	683.69
414.928	701.69
415.151	662.69
415.374	700.69
415.597	671.69
415.821	674.69
416.044	672.69
416.267	659.69
416.49	668.69
416.713	647.69
416.936	666.69
417.159	660.69
417.382	650.69
417.605	670.69
417.828	648.69
418.051	661.69
418.274	646.69
418.497	654.69
418.72	666.69
418.943	666.69
419.166	693.69
419.389	706.69
419.611	736.69
419.834	695.69
420.057	693.69
420.28	648.69
420.503	636.69
420.726	640.69
420.948	636.69
421.171	639.69
421.394	680.69
421.617	636.69
421.839	677.69
422.062	650.69
422.285	653.69
422.507	654.69
422.73	666.69
422.953	679.69
423.175	652.69
423.398	648.69
423.621	647.69
423.843	652.69
424.066	655.69
424.288	649.69
424.511	636.69
424.733	647.69
424.956	649.69
425.178	652.69
425.401	626.69
425.623	635.69
425.846	631.69
426.068	655.69
426.291	651.69
426.513	662.69
426.735	648.69
426.958	642.69
427.18	629.69
427.402	654.69
427.625	643.69
427.847	629.69
428.069	637.69
428.292	643.69
428.514	642.69
428.736	637.69
428.958	629.69
429.181	607.69
429.403	626.69
429.625	620.69
429.847	610.69
430.069	645.69
430.292	644.69
430.514	607.69
430.736	612.69
430.958	635.69
431.18	624.69
431.402	611.69
431.624	615.69
431.846	632.69
432.068	612.69
432.29	636.69
432.512	633.69
432.734	619.69
432.956	638.69
433.178	633.69
433.4	639.69
433.622	645.69
433.844	646.69
434.066	658.69
434.287	649.69
434.509	663.69
434.731	664.69
434.953	643.69
435.175	652.69
435.397	643.69
435.618	644.69
435.84	635.69
436.062	637.69
436.284	626.69
436.505	663.69
436.727	632.69
436.949	637.69
437.17	618.69
437.392	623.69
437.614	644.69
437.835	611.69
438.057	611.69
438.278	610.69
438.5	611.69
438.721	619.69
438.943	637.69
439.165	638.69
439.386	642.69
439.608	611.69
439.829	627.69
440.05	644.69
440.272	625.69
440.493	637.69
440.715	643.69
440.936	630.69
441.158	631.69
441.379	630.69
441.6	673.69
441.822	633.69
442.043	654.69
442.264	643.69
442.486	662.69
442.707	650.69
442.928	628.69
443.149	632.69
443.371	636.69
443.592	660.69
443.813	656.69
444.034	602.69
444.255	653.69
444.476	658.69
444.698	668.69
444.919	675.69
445.14	734.69
445.361	690.69
445.582	662.69
445.803	642.69
446.024	630.69
446.245	650.69
446.466	641.69
446.687	608.69
446.908	630.69
447.129	610.69
447.35	638.69
447.571	605.69
447.792	591.69
448.013	610.69
448.234	612.69
448.455	586.69
448.675	591.69
448.896	568.69
449.117	567.69
449.338	602.69
449.559	608.69
449.779	556.69
450	585.69
450.221	594.69
450.442	592.69
450.662	578.69
450.883	580.69
451.104	594.69
451.324	550.69
451.545	588.69
451.766	586.69
451.986	584.69
452.207	587.69
452.428	592.69
452.648	578.69
452.869	559.69
453.089	561.69
453.31	565.69
453.53	567.69
453.751	583.69
453.971	572.69
454.192	551.69
454.412	568.69
454.633	574.69
454.853	593.69
455.073	563.69
455.294	576.69
455.514	565.69
455.734	551.69
455.955	550.69
456.175	537.69
456.395	564.69
456.616	582.69
456.836	577.69
457.056	574.69
457.276	567.69
457.497	582.69
457.717	574.69
457.937	572.69
458.157	579.69
458.377	585.69
458.598	583.69
458.818	603.69
459.038	620.69
459.258	607.69
459.478	625.69
459.698	633.69
459.918	635.69
460.138	653.69
460.358	656.69
460.578	652.69
460.798	658.69
461.018	677.69
461.238	676.69
461.458	674.69
461.678	673.69
461.898	680.69
462.118	699.69
462.338	683.69
462.558	698.69
462.777	730.69
462.997	719.69
463.217	752.69
463.437	764.69
463.657	743.69
463.876	723.69
464.096	742.69
464.316	724.69
464.536	734.69
464.755	741.69
464.975	718.69
465.195	701.69
465.414	688.69
465.634	673.69
465.854	636.69
466.073	642.69
466.293	645.69
466.512	634.69
466.732	641.69
466.951	631.69
467.171	611.69
467.391	622.69
467.61	619.69
467.829	630.69
468.049	608.69
468.268	606.69
468.488	626.69
468.707	626.69
468.927	620.69
469.146	630.69
469.365	646.69
469.585	619.69
469.804	606.69
470.023	638.69
470.243	601.69
470.462	616.69
470.681	624.69
470.901	634.69
471.12	619.69
471.339	628.69
471.558	628.69
471.777	618.69
471.997	628.69
472.216	640.69
472.435	617.69
472.654	630.69
472.873	608.69
473.092	628.69
473.311	624.69
473.53	608.69
473.749	645.69
473.968	633.69
474.187	635.69
474.406	628.69
474.625	634.69
474.844	632.69
475.063	622.69
475.282	630.69
475.501	644.69
475.72	642.69
475.939	655.69
476.158	650.69
476.377	654.69
476.596	676.69
476.814	703.69
477.033	666.69
477.252	684.69
477.471	660.69
477.69	663.69
477.908	665.69
478.127	720.69
478.346	701.69
478.564	731.69
478.783	694.69
479.002	738.69
479.22	750.69
479.439	748.69
479.658	750.69
479.876	742.69
480.095	737.69
480.313	772.69
480.532	755.69
480.751	728.69
480.969	704.69
481.188	752.69
481.406	743.69
481.624	730.69
481.843	726.69
482.061	744.69
482.28	734.69
482.498	755.69
482.717	722.69
482.935	746.69
483.153	735.69
483.372	723.69
483.59	758.69
483.808	745.69
484.027	725.69
484.245	737.69
484.463	738.69
484.681	761.69
484.9	751.69
485.118	761.69
485.336	759.69
485.554	785.69
485.772	743.69
485.99	747.69
486.209	755.69
486.427	785.69
486.645	769.69
486.863	780.69
487.081	771.69
487.299	788.69
487.517	757.69
487.735	732.69
487.953	772.69
488.171	786.69
488.389	752.69
488.607	767.69
488.825	781.69
489.043	755.69
489.261	757.69
489.479	784.69
489.696	777.69
489.914	753.69
490.132	761.69
490.35	770.69
490.568	764.69
490.786	750.69
491.003	773.69
491.221	757.69
491.439	758.69
491.657	786.69
491.874	761.69
492.092	775.69
492.31	754.69
492.527	799.69
492.745	805.69
492.963	780.69
493.18	788.69
493.398	779.69
493.615	778.69
493.833	790.69
494.05	820.69
494.268	779.69
494.485	810.69
494.703	814.69
494.92	837.69
495.138	834.69
495.355	805.69
495.573	827.69
495.79	798.69
496.008	833.69
496.225	830.69
496.442	846.69
496.66	841.69
496.877	872.69
497.094	873.69
497.312	844.69
497.529	884.69
497.746	909.69
497.963	912.69
498.181	937.69
498.398	967.69
498.615	984.69
498.832	989.69
499.049	1027.69
499.267	1063.69
499.484	1108.69
499.701	1160.69
499.918	1166.69
500.135	1183.69
500.352	1250.69
500.569	1262.69
500.786	1253.69
501.003	1266.69
501.22	1252.69
501.437	1213.69
501.654	1108.69
501.871	1075.69
502.088	1075.69
502.305	1016.69
502.522	991.69
502.739	965.69
502.956	951.69
503.172	930.69
503.389	918.69
503.606	915.69
503.823	899.69
504.04	889.69
504.256	887.69
504.473	860.69
504.69	838.69
504.907	825.69
505.123	831.69
505.34	801.69
505.557	802.69
505.773	793.69
505.99	790.69
506.207	790.69
506.423	777.69
506.64	759.69
506.856	733.69
507.073	742.69
507.289	738.69
507.506	770.69
507.722	741.69
507.939	722.69
508.155	732.69
508.372	725.69
508.588	732.69
508.805	710.69
509.021	687.69
509.238	690.69
509.454	704.69
509.67	694.69
509.887	702.69
510.103	694.69
510.319	675.69
510.536	694.69
510.752	684.69
510.968	696.69
511.184	654.69
511.401	687.69
511.617	675.69
511.833	680.69
512.049	661.69
512.265	654.69
512.481	684.69
512.698	680.69
512.914	678.69
513.13	664.69
513.346	697.69
513.562	690.69
513.778	667.69
513.994	694.69
514.21	690.69
514.426	670.69
514.642	678.69
514.858	699.69
515.074	686.69
515.29	682.69
515.506	688.69
515.721	700.69
515.937	706.69
516.153	718.69
516.369	692.69
516.585	719.69
516.801	729.69
517.016	732.69
517.232	731.69
517.448	744.69
517.664	732.69
517.879	752.69
518.095	730.69
518.311	740.69
518.527	722.69
518.742	731.69
518.958	711.69
519.173	710.69
519.389	708.69
519.605	710.69
519.82	683.69
520.036	702.69
520.251	662.69
520.467	688.69
520.682	666.69
520.898	672.69
521.113	656.69
521.329	673.69
521.544	663.69
521.76	668.69
521.975	647.69
522.19	645.69
522.406	637.69
522.621	664.69
522.836	653.69
523.052	641.69
523.267	627.69
523.482	647.69
523.698	629.69
523.913	642.69
524.128	624.69
524.343	646.69
524.559	630.69
524.774	638.69
524.989	617.69
525.204	624.69
525.419	633.69
525.634	631.69
525.849	630.69
526.064	642.69
526.28	643.69
526.495	633.69
526.71	615.69
526.925	618.69
527.14	607.69
527.355	611.69
527.57	615.69
527.785	621.69
527.999	620.69
528.214	599.69
528.429	642.69
528.644	613.69
528.859	606.69
529.074	602.69
529.289	609.69
529.503	620.69
529.718	593.69
529.933	628.69
530.148	599.69
530.363	614.69
530.577	606.69
530.792	612.69
531.007	611.69
531.221	603.69
531.436	578.69
531.651	607.69
531.865	595.69
532.08	617.69
532.295	592.69
532.509	598.69
532.724	596.69
532.938	610.69
533.153	584.69
533.367	609.69
533.582	594.69
533.796	577.69
534.011	600.69
534.225	596.69
534.44	583.69
534.654	609.69
534.868	589.69
535.083	611.69
535.297	600.69
535.511	585.69
535.726	580.69
535.94	599.69
536.154	577.69
536.369	578.69
536.583	578.69
536.797	580.69
537.011	572.69
537.225	580.69
537.44	603.69
537.654	559.69
537.868	563.69
538.082	576.69
538.296	561.69
538.51	554.69
538.724	560.69
538.938	560.69
539.153	567.69
539.367	562.69
539.581	553.69
539.795	556.69
540.009	553.69
540.222	561.69
540.436	565.69
540.65	581.69
540.864	570.69
541.078	562.69
541.292	572.69
541.506	560.69
541.72	567.69
541.934	553.69
542.147	575.69
542.361	560.69
542.575	574.69
542.789	563.69
543.002	552.69
543.216	558.69
543.43	547.69
543.644	536.69
543.857	566.69
544.071	567.69
544.285	559.69
544.498	575.69
544.712	546.69
544.925	562.69
545.139	563.69
545.352	558.69
545.566	544.69
545.779	566.69
545.993	556.69
546.206	568.69
546.42	575.69
546.633	561.69
546.847	568.69
547.06	563.69
547.274	542.69
547.487	560.69
547.7	569.69
547.914	568.69
548.127	566.69
548.34	553.69
548.554	567.69
548.767	571.69
548.98	566.69
549.193	576.69
549.407	561.69
549.62	569.69
549.833	568.69
550.046	573.69
550.259	552.69
550.473	548.69
550.686	564.69
550.899	559.69
551.112	546.69
551.325	545.69
551.538	562.69
551.751	568.69
551.964	546.69
552.177	574.69
552.39	551.69
552.603	563.69
552.816	545.69
553.029	555.69
553.242	564.69
553.455	558.69
553.667	583.69
553.88	558.69
554.093	535.69
554.306	546.69
554.519	540.69
554.732	535.69
554.944	534.69
555.157	522.69
555.37	532.69
555.583	513.69
555.795	516.69
556.008	520.69
556.221	522.69
556.433	523.69
556.646	507.69
556.859	517.69
557.071	491.69
557.284	500.69
557.496	532.69
557.709	511.69
557.921	477.69
558.134	484.69
558.346	499.69
558.559	507.69
558.771	497.69
558.984	499.69
559.196	483.69
559.409	487.69
559.621	491.69
559.833	472.69
560.046	495.69
560.258	466.69
560.47	475.69
560.683	490.69
560.895	498.69
561.107	491.69
561.32	483.69
561.532	485.69
561.744	504.69
561.956	493.69
562.168	488.69
562.381	509.69
562.593	496.69
562.805	476.69
563.017	458.69
563.229	489.69
563.441	488.69
563.653	510.69
563.865	494.69
564.077	498.69
564.289	485.69
564.501	484.69
564.713	506.69
564.925	494.69
565.137	524.69
565.349	517.69
565.561	527.69
565.773	539.69
565.985	544.69
566.197	551.69
566.408	535.69
566.62	553.69
566.832	545.69
567.044	571.69
567.255	587.69
567.467	582.69
567.679	574.69
567.891	584.69
568.102	569.69
568.314	553.69
568.526	550.69
568.737	521.69
568.949	520.69
569.161	516.69
569.372	496.69
569.584	496.69
569.795	481.69
570.007	478.69
570.218	478.69
570.43	483.69
570.641	474.69
570.853	469.69
571.064	464.69
571.276	463.69
571.487	464.69
571.698	442.69
571.91	453.69
572.121	446.69
572.333	427.69
572.544	418.69
572.755	415.69
572.966	424.69
573.178	441.69
573.389	419.69
573.6	418.69
573.811	383.69
574.023	392.69
574.234	403.69
574.445	406.69
574.656	394.69
574.867	395.69
575.078	383.69
575.289	390.69
575.501	405.69
575.712	398.69
575.923	384.69
576.134	383.69
576.345	399.69
576.556	397.69
576.767	406.69
576.978	392.69
577.188	380.69
577.399	371.69
577.61	386.69
577.821	363.69
578.032	366.69
578.243	359.69
578.454	366.69
578.665	372.69
578.875	361.69
579.086	360.69
579.297	383.69
579.508	358.69
579.718	374.69
579.929	359.69
580.14	372.69
580.35	345.69
580.561	359.69
580.772	353.69
580.982	330.69
581.193	364.69
581.403	350.69
581.614	368.69
581.825	350.69
582.035	360.69
582.246	364.69
582.456	349.69
582.667	362.69
582.877	345.69
583.087	356.69
583.298	357.69
583.508	345.69
583.719	332.69
583.929	348.69
584.139	329.69
584.35	350.69
584.56	337.69
584.77	347.69
584.981	346.69
585.191	339.69
585.401	350.69
585.611	342.69
585.821	368.69
586.032	333.69
586.242	328.69
586.452	327.69
586.662	340.69
586.872	346.69
587.082	337.69
587.292	321.69
587.502	334.69
587.713	316.69
587.923	332.69
588.133	352.69
588.343	351.69
588.553	318.69
588.762	340.69
588.972	336.69
589.182	425.69
589.392	427.69
589.602	355.69
589.812	430.69
590.022	374.69
590.232	331.69
590.441	333.69
590.651	327.69
590.861	330.69
591.071	330.69
591.281	333.69
591.49	343.69
591.7	346.69
591.91	354.69
592.119	334.69
592.329	348.69
592.539	358.69
592.748	342.69
592.958	349.69
593.167	350.69
593.377	345.69
593.587	355.69
593.796	346.69
594.006	342.69
594.215	344.69
594.424	339.69
594.634	346.69
594.843	330.69
595.053	320.69
595.262	349.69
595.472	339.69
595.681	340.69
595.89	331.69
596.1	310.69
596.309	314.69
596.518	309.69
596.727	302.69
596.937	302.69
597.146	307.69
597.355	320.69
597.564	297.69
597.774	299.69
597.983	293.69
598.192	295.69
598.401	314.69
598.61	277.69
598.819	294.69
599.028	290.69
599.237	294.69
599.446	282.69
599.655	295.69
599.864	292.69
600.073	312.69
600.282	304.69
600.491	307.69
600.7	274.69
600.909	282.69
601.118	288.69
601.327	288.69
601.536	264.69
601.745	302.69
601.953	294.69
602.162	303.69
602.371	276.69
602.58	277.69
602.789	283.69
602.997	267.69
603.206	282.69
603.415	281.69
603.623	268.69
603.832	279.69
604.041	284.69
604.249	268.69
604.458	266.69
604.666	264.69
604.875	272.69
605.084	278.69
605.292	278.69
605.501	267.69
605.709	299.69
605.918	287.69
606.126	275.69
606.334	277.69
606.543	284.69
606.751	259.69
606.96	272.69
607.168	276.69
607.376	263.69
607.585	256.69
607.793	252.69
608.001	246.69
608.21	270.69
608.418	250.69
608.626	260.69
608.834	262.69
609.043	266.69
609.251	243.69
609.459	264.69
609.667	272.69
609.875	275.69
610.083	251.69
610.291	273.69
610.499	266.69
610.707	267.69
610.916	263.69
611.124	260.69
611.332	258.69
611.54	265.69
611.748	265.69
611.955	254.69
612.163	270.69
612.371	260.69
612.579	260.69
612.787	267.69
612.995	247.69
613.203	262.69
613.411	261.69
613.618	247.69
613.826	260.69
614.034	242.69
614.242	257.69
614.449	260.69
614.657	255.69
614.865	255.69
615.072	254.69
615.28	242.69
615.488	237.69
615.695	262.69
615.903	248.69
616.111	241.69
616.318	265.69
616.526	243.69
616.733	257.69
616.941	252.69
617.148	248.69
617.356	257.69
617.563	262.69
617.771	257.69
617.978	240.69
618.185	234.69
618.393	264.69
618.6	238.69
618.807	236.69
619.015	238.69
619.222	242.69
619.429	226.69
619.637	262.69
619.844	240.69
620.051	242.69
620.258	233.69
620.466	246.69
620.673	243.69
620.88	239.69
621.087	248.69
621.294	219.69
621.501	227.69
621.708	224.69
621.915	243.69
622.122	253.69
622.329	237.69
622.536	236.69
622.743	226.69
622.95	218.69
623.157	240.69
623.364	247.69
623.571	227.69
623.778	241.69
623.985	220.69
624.192	220.69
624.399	219.69
624.606	235.69
624.812	224.69
625.019	225.69
625.226	231.69
625.433	240.69
625.639	226.69
625.846	222.69
626.053	221.69
626.259	208.69
626.466	204.69
626.673	217.69
626.879	210.69
627.086	221.69
627.293	229.69
627.499	221.69
627.706	204.69
627.912	222.69
628.119	227.69
628.325	224.69
628.532	215.69
628.738	225.69
628.945	207.69
629.151	233.69
629.357	206.69
629.564	225.69
629.77	212.69
629.976	216.69
630.183	204.69
630.389	222.69
630.595	203.69
630.802	209.69
631.008	198.69
631.214	206.69
631.42	195.69
631.627	222.69
631.833	216.69
632.039	201.69
632.245	218.69
632.451	205.69
632.657	209.69
632.863	221.69
633.069	193.69
633.275	188.69
633.481	198.69
633.688	209.69
633.893	219.69
634.099	197.69
634.305	200.69
634.511	198.69
634.717	211.69
634.923	195.69
635.129	200.69
635.335	181.69
635.541	199.69
635.747	209.69
635.952	197.69
636.158	179.69
636.364	203.69
636.57	180.69
636.775	193.69
636.981	187.69
637.187	209.69
637.392	193.69
637.598	192.69
637.804	190.69
638.009	208.69
638.215	194.69
638.421	213.69
638.626	195.69
638.832	189.69
639.037	192.69
639.243	190.69
639.448	195.69
639.654	209.69
639.859	179.69
640.065	201.69
640.27	196.69
640.475	180.69
640.681	191.69
640.886	185.69
641.091	190.69
641.297	184.69
641.502	188.69
641.707	193.69
641.913	184.69
642.118	198.69
642.323	185.69
642.528	190.69
642.733	179.69
642.939	207.69
643.144	183.69
643.349	183.69
643.554	208.69
643.759	203.69
643.964	181.69
644.169	196.69
644.374	191.69
644.579	194.69
644.784	184.69
644.989	193.69
645.194	187.69
645.399	191.69
645.604	188.69
645.809	176.69
646.014	202.69
646.219	200.69
646.423	202.69
646.628	183.69
646.833	179.69
647.038	191.69
647.243	187.69
647.447	202.69
647.652	189.69
647.857	190.69
648.062	187.69
648.266	189.69
648.471	185.69
648.676	188.69
648.88	199.69
649.085	191.69
649.289	205.69
649.494	209.69
649.698	189.69
649.903	185.69
650.107	190.69
650.312	187.69
650.516	204.69
650.721	186.69
650.925	195.69
651.13	188.69
651.334	178.69
651.539	186.69
651.743	175.69
651.947	187.69
652.152	200.69
652.356	175.69
652.56	171.69
652.764	170.69
652.969	190.69
653.173	170.69
653.377	180.69
653.581	175.69
653.785	155.69
653.99	158.69
654.194	179.69
654.398	162.69
654.602	183.69
654.806	162.69
655.01	164.69
655.214	167.69
655.418	168.69
655.622	175.69
655.826	170.69
656.03	178.69
656.234	173.69
656.438	182.69
656.642	174.69
656.846	159.69
657.049	169.69
657.253	148.69
657.457	142.69
657.661	165.69
657.865	150.69
658.068	137.69
658.272	140.69
658.476	143.69
658.68	123.69
658.883	127.69
659.087	118.69
659.291	122.69
659.494	122.69
659.698	105.69
659.901	116.69
660.105	100.69
660.309	102.69
660.512	116.69
660.716	92.69
660.919	109.69
661.123	96.69
661.326	101.69
661.53	100.69
661.733	104.69
661.936	84.69
662.14	92.69
662.343	88.69
662.546	91.69
662.75	88.69
662.953	84.69
663.156	94.69
663.36	90.69
663.563	85.69
663.766	82.69
663.969	68.69
664.173	84.69
664.376	87.69
664.579	80.69
664.782	79.69
664.985	79.69
665.188	87.69
665.391	86.69
665.594	88.69
665.797	86.69
666	74.69
666.203	81.69
666.406	82.69
666.609	83.69
666.812	74.69
667.015	81.69
667.218	104.69
667.421	85.69
667.624	95.69
667.827	87.69
668.03	82.69
668.232	84.69
668.435	70.69
668.638	80.69
668.841	78.69
669.043	79.69
669.246	97.69
669.449	77.69
669.651	67.69
669.854	76.69
670.057	80.69
670.259	96.69
670.462	73.69
670.665	91.69
670.867	88.69
671.07	87.69
671.272	72.69
671.475	82.69
671.677	88.69
671.88	71.69
672.082	84.69
672.284	87.69
672.487	81.69
672.689	88.69
672.892	73.69
