Data from Fe(NO3)3@0.1M.TitratingCurve.Agarose3%dH2O.NegLispCup.LampEnergy10.LIBS07252019_HRD10591_16-37-32-331.txt Node
Date: Thu Jul 25 16:37:32 EDT 2019
User: cochatt
Spectrometer: HR+D1059
Trigger mode: 1
Integration Time (sec): 1.000000E-1
Scans to average: 1
Electric dark correction enabled: true
Nonlinearity correction enabled: false
Boxcar width: 0
XAxis mode: Wavelengths
Number of Pixels in Spectrum: 2048
>>>>>Begin Spectral Data<<<<<
223.165	-27.12
223.4	-27.12
223.635	-27.12
223.869	-27.12
224.104	-16.12
224.338	-4.12
224.573	-22.12
224.808	-1.12
225.042	-20.12
225.277	-9.12
225.511	0.88
225.746	2.88
225.98	17.88
226.215	14.88
226.449	10.88
226.683	14.88
226.918	29.88
227.152	34.88
227.387	45.88
227.621	37.88
227.856	47.88
228.09	45.88
228.324	40.88
228.559	57.88
228.793	60.88
229.027	76.88
229.262	80.88
229.496	82.88
229.73	91.88
229.964	77.88
230.199	101.88
230.433	85.88
230.667	85.88
230.901	88.88
231.136	84.88
231.37	93.88
231.604	91.88
231.838	110.88
232.072	91.88
232.306	96.88
232.541	95.88
232.775	87.88
233.009	102.88
233.243	115.88
233.477	97.88
233.711	103.88
233.945	107.88
234.179	96.88
234.413	98.88
234.647	93.88
234.881	101.88
235.115	83.88
235.349	103.88
235.583	94.88
235.817	94.88
236.051	105.88
236.285	102.88
236.519	88.88
236.753	106.88
236.987	97.88
237.221	106.88
237.455	96.88
237.689	109.88
237.922	96.88
238.156	105.88
238.39	106.88
238.624	97.88
238.858	94.88
239.091	117.88
239.325	99.88
239.559	102.88
239.793	95.88
240.027	102.88
240.26	96.88
240.494	101.88
240.728	91.88
240.961	110.88
241.195	110.88
241.429	101.88
241.662	98.88
241.896	115.88
242.13	119.88
242.363	129.88
242.597	110.88
242.83	108.88
243.064	93.88
243.298	116.88
243.531	116.88
243.765	93.88
243.998	100.88
244.232	95.88
244.465	107.88
244.699	116.88
244.932	105.88
245.166	101.88
245.399	112.88
245.633	117.88
245.866	110.88
246.099	108.88
246.333	110.88
246.566	106.88
246.8	117.88
247.033	118.88
247.266	105.88
247.5	122.88
247.733	116.88
247.966	102.88
248.2	110.88
248.433	110.88
248.666	107.88
248.899	109.88
249.133	123.88
249.366	122.88
249.599	120.88
249.832	123.88
250.066	120.88
250.299	112.88
250.532	132.88
250.765	120.88
250.998	126.88
251.231	128.88
251.465	123.88
251.698	112.88
251.931	116.88
252.164	123.88
252.397	122.88
252.63	119.88
252.863	124.88
253.096	142.88
253.329	124.88
253.562	117.88
253.795	127.88
254.028	119.88
254.261	120.88
254.494	120.88
254.727	123.88
254.96	122.88
255.193	120.88
255.426	137.88
255.659	128.88
255.892	118.88
256.124	131.88
256.357	134.88
256.59	143.88
256.823	124.88
257.056	115.88
257.289	140.88
257.521	110.88
257.754	124.88
257.987	132.88
258.22	147.88
258.452	134.88
258.685	127.88
258.918	140.88
259.151	140.88
259.383	141.88
259.616	130.88
259.849	142.88
260.081	130.88
260.314	144.88
260.547	118.88
260.779	127.88
261.012	126.88
261.244	126.88
261.477	139.88
261.71	152.88
261.942	128.88
262.175	130.88
262.407	140.88
262.64	130.88
262.872	143.88
263.105	131.88
263.337	158.88
263.57	140.88
263.802	148.88
264.035	151.88
264.267	138.88
264.499	141.88
264.732	150.88
264.964	139.88
265.197	148.88
265.429	141.88
265.661	159.88
265.894	144.88
266.126	150.88
266.358	140.88
266.591	146.88
266.823	138.88
267.055	150.88
267.287	149.88
267.52	133.88
267.752	146.88
267.984	137.88
268.216	159.88
268.448	152.88
268.681	152.88
268.913	141.88
269.145	141.88
269.377	152.88
269.609	151.88
269.841	144.88
270.073	144.88
270.306	155.88
270.538	155.88
270.77	143.88
271.002	151.88
271.234	155.88
271.466	149.88
271.698	152.88
271.93	141.88
272.162	138.88
272.394	149.88
272.626	154.88
272.858	166.88
273.09	167.88
273.322	168.88
273.553	159.88
273.785	148.88
274.017	159.88
274.249	163.88
274.481	178.88
274.713	156.88
274.945	186.88
275.176	167.88
275.408	138.88
275.64	150.88
275.872	157.88
276.104	180.88
276.335	157.88
276.567	146.88
276.799	167.88
277.031	180.88
277.262	168.88
277.494	160.88
277.726	143.88
277.957	167.88
278.189	170.88
278.421	149.88
278.652	160.88
278.884	160.88
279.115	160.88
279.347	152.88
279.579	165.88
279.81	165.88
280.042	171.88
280.273	168.88
280.505	155.88
280.736	178.88
280.968	169.88
281.199	169.88
281.431	177.88
281.662	175.88
281.894	174.88
282.125	176.88
282.356	172.88
282.588	166.88
282.819	169.88
283.051	181.88
283.282	167.88
283.513	191.88
283.745	187.88
283.976	185.88
284.207	166.88
284.439	164.88
284.67	179.88
284.901	167.88
285.132	182.88
285.364	180.88
285.595	175.88
285.826	182.88
286.057	170.88
286.288	173.88
286.52	170.88
286.751	171.88
286.982	163.88
287.213	185.88
287.444	169.88
287.675	187.88
287.906	185.88
288.138	178.88
288.369	187.88
288.6	187.88
288.831	182.88
289.062	171.88
289.293	159.88
289.524	191.88
289.755	194.88
289.986	192.88
290.217	191.88
290.448	172.88
290.679	173.88
290.91	175.88
291.141	183.88
291.371	197.88
291.602	181.88
291.833	198.88
292.064	174.88
292.295	174.88
292.526	192.88
292.757	193.88
292.987	174.88
293.218	182.88
293.449	187.88
293.68	183.88
293.91	185.88
294.141	186.88
294.372	185.88
294.603	208.88
294.833	192.88
295.064	185.88
295.295	198.88
295.525	174.88
295.756	183.88
295.987	196.88
296.217	185.88
296.448	183.88
296.679	186.88
296.909	202.88
297.14	201.88
297.37	196.88
297.601	206.88
297.831	204.88
298.062	187.88
298.292	191.88
298.523	198.88
298.753	198.88
298.984	189.88
299.214	190.88
299.445	210.88
299.675	204.88
299.905	190.88
300.136	175.88
300.366	206.88
300.597	186.88
300.827	199.88
301.057	195.88
301.288	185.88
301.518	206.88
301.748	194.88
301.979	210.88
302.209	212.88
302.439	206.88
302.669	207.88
302.9	202.88
303.13	190.88
303.36	186.88
303.59	194.88
303.82	205.88
304.051	216.88
304.281	210.88
304.511	206.88
304.741	213.88
304.971	194.88
305.201	209.88
305.431	200.88
305.661	197.88
305.891	211.88
306.121	217.88
306.352	209.88
306.582	206.88
306.812	194.88
307.042	207.88
307.272	197.88
307.502	199.88
307.731	216.88
307.961	187.88
308.191	203.88
308.421	200.88
308.651	197.88
308.881	197.88
309.111	199.88
309.341	189.88
309.571	196.88
309.8	194.88
310.03	199.88
310.26	195.88
310.49	197.88
310.72	197.88
310.949	199.88
311.179	203.88
311.409	204.88
311.639	220.88
311.868	207.88
312.098	212.88
312.328	207.88
312.557	207.88
312.787	210.88
313.017	210.88
313.246	204.88
313.476	225.88
313.706	224.88
313.935	221.88
314.165	230.88
314.394	202.88
314.624	219.88
314.853	226.88
315.083	203.88
315.312	206.88
315.542	206.88
315.771	204.88
316.001	216.88
316.23	213.88
316.46	209.88
316.689	208.88
316.919	210.88
317.148	217.88
317.377	219.88
317.607	208.88
317.836	209.88
318.065	203.88
318.295	216.88
318.524	198.88
318.753	233.88
318.983	210.88
319.212	207.88
319.441	206.88
319.67	206.88
319.9	213.88
320.129	216.88
320.358	203.88
320.587	214.88
320.816	205.88
321.046	217.88
321.275	227.88
321.504	213.88
321.733	208.88
321.962	198.88
322.191	202.88
322.42	213.88
322.649	219.88
322.878	207.88
323.108	212.88
323.337	214.88
323.566	215.88
323.795	195.88
324.024	219.88
324.253	221.88
324.482	217.88
324.71	225.88
324.939	233.88
325.168	232.88
325.397	210.88
325.626	216.88
325.855	211.88
326.084	212.88
326.313	212.88
326.542	227.88
326.77	216.88
326.999	218.88
327.228	234.88
327.457	232.88
327.686	224.88
327.914	222.88
328.143	221.88
328.372	223.88
328.6	237.88
328.829	224.88
329.058	245.88
329.287	232.88
329.515	235.88
329.744	236.88
329.972	233.88
330.201	228.88
330.43	249.88
330.658	218.88
330.887	224.88
331.115	238.88
331.344	228.88
331.572	230.88
331.801	231.88
332.03	240.88
332.258	245.88
332.486	264.88
332.715	270.88
332.943	265.88
333.172	260.88
333.4	295.88
333.629	286.88
333.857	284.88
334.085	276.88
334.314	271.88
334.542	263.88
334.771	278.88
334.999	271.88
335.227	263.88
335.455	258.88
335.684	268.88
335.912	270.88
336.14	263.88
336.369	246.88
336.597	284.88
336.825	256.88
337.053	254.88
337.281	244.88
337.51	236.88
337.738	260.88
337.966	255.88
338.194	231.88
338.422	233.88
338.65	233.88
338.878	243.88
339.106	233.88
339.334	244.88
339.562	252.88
339.79	239.88
340.018	236.88
340.246	238.88
340.474	245.88
340.702	240.88
340.93	227.88
341.158	231.88
341.386	228.88
341.614	235.88
341.842	237.88
342.07	228.88
342.298	227.88
342.526	233.88
342.754	251.88
342.981	226.88
343.209	258.88
343.437	246.88
343.665	253.88
343.893	283.88
344.12	271.88
344.348	251.88
344.576	272.88
344.804	262.88
345.031	256.88
345.259	240.88
345.487	228.88
345.714	237.88
345.942	229.88
346.17	224.88
346.397	227.88
346.625	212.88
346.853	236.88
347.08	215.88
347.308	230.88
347.535	223.88
347.763	232.88
347.99	223.88
348.218	228.88
348.445	225.88
348.673	223.88
348.9	238.88
349.128	232.88
349.355	218.88
349.583	228.88
349.81	229.88
350.037	237.88
350.265	235.88
350.492	217.88
350.72	236.88
350.947	217.88
351.174	226.88
351.402	221.88
351.629	219.88
351.856	223.88
352.083	216.88
352.311	211.88
352.538	223.88
352.765	210.88
352.992	226.88
353.22	215.88
353.447	226.88
353.674	210.88
353.901	218.88
354.128	207.88
354.355	234.88
354.583	228.88
354.81	217.88
355.037	222.88
355.264	234.88
355.491	230.88
355.718	208.88
355.945	226.88
356.172	233.88
356.399	239.88
356.626	234.88
356.853	227.88
357.08	225.88
357.307	236.88
357.534	229.88
357.761	224.88
357.988	227.88
358.215	230.88
358.441	235.88
358.668	230.88
358.895	230.88
359.122	232.88
359.349	222.88
359.576	216.88
359.802	232.88
360.029	226.88
360.256	237.88
360.483	236.88
360.709	233.88
360.936	240.88
361.163	214.88
361.39	226.88
361.616	231.88
361.843	223.88
362.07	219.88
362.296	228.88
362.523	220.88
362.749	222.88
362.976	210.88
363.203	234.88
363.429	228.88
363.656	228.88
363.882	222.88
364.109	210.88
364.335	246.88
364.562	221.88
364.788	218.88
365.015	220.88
365.241	242.88
365.468	237.88
365.694	227.88
365.92	216.88
366.147	220.88
366.373	233.88
366.599	220.88
366.826	226.88
367.052	234.88
367.278	248.88
367.505	230.88
367.731	227.88
367.957	219.88
368.184	210.88
368.41	236.88
368.636	230.88
368.862	230.88
369.089	230.88
369.315	234.88
369.541	248.88
369.767	236.88
369.993	234.88
370.219	248.88
370.445	262.88
370.672	231.88
370.898	226.88
371.124	233.88
371.35	244.88
371.576	233.88
371.802	233.88
372.028	249.88
372.254	254.88
372.48	265.88
372.706	286.88
372.932	253.88
373.158	263.88
373.384	258.88
373.61	280.88
373.835	257.88
374.061	266.88
374.287	258.88
374.513	264.88
374.739	272.88
374.965	276.88
375.191	278.88
375.416	262.88
375.642	281.88
375.868	269.88
376.094	258.88
376.319	278.88
376.545	260.88
376.771	250.88
376.997	252.88
377.222	250.88
377.448	244.88
377.674	264.88
377.899	254.88
378.125	261.88
378.35	242.88
378.576	252.88
378.802	261.88
379.027	261.88
379.253	241.88
379.478	263.88
379.704	255.88
379.929	249.88
380.155	266.88
380.38	253.88
380.606	263.88
380.831	248.88
381.057	274.88
381.282	254.88
381.507	247.88
381.733	250.88
381.958	266.88
382.184	253.88
382.409	271.88
382.634	270.88
382.86	271.88
383.085	252.88
383.31	280.88
383.535	284.88
383.761	277.88
383.986	284.88
384.211	306.88
384.436	306.88
384.662	292.88
384.887	298.88
385.112	314.88
385.337	310.88
385.562	298.88
385.787	294.88
386.013	319.88
386.238	308.88
386.463	295.88
386.688	300.88
386.913	292.88
387.138	302.88
387.363	293.88
387.588	301.88
387.813	297.88
388.038	302.88
388.263	316.88
388.488	308.88
388.713	307.88
388.938	296.88
389.163	297.88
389.387	306.88
389.612	310.88
389.837	304.88
390.062	296.88
390.287	284.88
390.512	314.88
390.736	329.88
390.961	312.88
391.186	323.88
391.411	334.88
391.636	326.88
391.86	331.88
392.085	338.88
392.31	344.88
392.534	344.88
392.759	310.88
392.984	322.88
393.208	331.88
393.433	330.88
393.658	321.88
393.882	333.88
394.107	343.88
394.331	341.88
394.556	335.88
394.78	349.88
395.005	333.88
395.229	339.88
395.454	358.88
395.678	341.88
395.903	339.88
396.127	346.88
396.352	320.88
396.576	317.88
396.801	343.88
397.025	329.88
397.249	342.88
397.474	362.88
397.698	336.88
397.922	352.88
398.147	352.88
398.371	372.88
398.595	366.88
398.82	378.88
399.044	414.88
399.268	432.88
399.492	491.88
399.717	533.88
399.941	509.88
400.165	480.88
400.389	434.88
400.613	418.88
400.837	396.88
401.062	393.88
401.286	364.88
401.51	382.88
401.734	363.88
401.958	376.88
402.182	394.88
402.406	389.88
402.63	365.88
402.854	420.88
403.078	417.88
403.302	427.88
403.526	421.88
403.75	426.88
403.974	435.88
404.198	426.88
404.422	450.88
404.645	431.88
404.869	423.88
405.093	410.88
405.317	431.88
405.541	408.88
405.765	409.88
405.988	418.88
406.212	410.88
406.436	412.88
406.66	426.88
406.883	431.88
407.107	442.88
407.331	475.88
407.555	486.88
407.778	486.88
408.002	460.88
408.226	469.88
408.449	452.88
408.673	450.88
408.896	427.88
409.12	432.88
409.344	447.88
409.567	439.88
409.791	437.88
410.014	438.88
410.238	418.88
410.461	438.88
410.685	416.88
410.908	412.88
411.132	404.88
411.355	374.88
411.578	407.88
411.802	403.88
412.025	399.88
412.249	419.88
412.472	416.88
412.695	418.88
412.919	380.88
413.142	404.88
413.365	392.88
413.589	413.88
413.812	393.88
414.035	390.88
414.258	385.88
414.482	402.88
414.705	397.88
414.928	396.88
415.151	380.88
415.374	396.88
415.597	399.88
415.821	395.88
416.044	396.88
416.267	360.88
416.49	402.88
416.713	390.88
416.936	373.88
417.159	394.88
417.382	390.88
417.605	390.88
417.828	388.88
418.051	410.88
418.274	396.88
418.497	400.88
418.72	390.88
418.943	390.88
419.166	427.88
419.389	431.88
419.611	410.88
419.834	403.88
420.057	405.88
420.28	400.88
420.503	379.88
420.726	400.88
420.948	398.88
421.171	406.88
421.394	388.88
421.617	390.88
421.839	397.88
422.062	386.88
422.285	382.88
422.507	395.88
422.73	388.88
422.953	421.88
423.175	428.88
423.398	384.88
423.621	392.88
423.843	395.88
424.066	408.88
424.288	398.88
424.511	402.88
424.733	410.88
424.956	390.88
425.178	401.88
425.401	383.88
425.623	386.88
425.846	386.88
426.068	390.88
426.291	377.88
426.513	381.88
426.735	380.88
426.958	384.88
427.18	373.88
427.402	379.88
427.625	366.88
427.847	374.88
428.069	370.88
428.292	379.88
428.514	360.88
428.736	357.88
428.958	380.88
429.181	340.88
429.403	334.88
429.625	342.88
429.847	353.88
430.069	349.88
430.292	346.88
430.514	360.88
430.736	337.88
430.958	357.88
431.18	354.88
431.402	364.88
431.624	367.88
431.846	371.88
432.068	350.88
432.29	366.88
432.512	368.88
432.734	371.88
432.956	346.88
433.178	351.88
433.4	351.88
433.622	355.88
433.844	352.88
434.066	383.88
434.287	367.88
434.509	370.88
434.731	396.88
434.953	380.88
435.175	395.88
435.397	384.88
435.618	379.88
435.84	351.88
436.062	342.88
436.284	365.88
436.505	340.88
436.727	374.88
436.949	345.88
437.17	357.88
437.392	343.88
437.614	363.88
437.835	333.88
438.057	373.88
438.278	339.88
438.5	349.88
438.721	350.88
438.943	339.88
439.165	348.88
439.386	361.88
439.608	356.88
439.829	363.88
440.05	347.88
440.272	367.88
440.493	340.88
440.715	375.88
440.936	376.88
441.158	381.88
441.379	381.88
441.6	387.88
441.822	399.88
442.043	415.88
442.264	392.88
442.486	372.88
442.707	377.88
442.928	397.88
443.149	381.88
443.371	403.88
443.592	407.88
443.813	378.88
444.034	394.88
444.255	428.88
444.476	438.88
444.698	447.88
444.919	448.88
445.14	581.88
445.361	476.88
445.582	416.88
445.803	375.88
446.024	371.88
446.245	364.88
446.466	359.88
446.687	375.88
446.908	355.88
447.129	351.88
447.35	371.88
447.571	360.88
447.792	353.88
448.013	335.88
448.234	346.88
448.455	335.88
448.675	340.88
448.896	330.88
449.117	348.88
449.338	349.88
449.559	345.88
449.779	338.88
450	348.88
450.221	335.88
450.442	348.88
450.662	335.88
450.883	326.88
451.104	352.88
451.324	341.88
451.545	350.88
451.766	340.88
451.986	342.88
452.207	355.88
452.428	330.88
452.648	332.88
452.869	325.88
453.089	322.88
453.31	324.88
453.53	320.88
453.751	316.88
453.971	310.88
454.192	324.88
454.412	337.88
454.633	315.88
454.853	336.88
455.073	316.88
455.294	326.88
455.514	334.88
455.734	317.88
455.955	311.88
456.175	311.88
456.395	300.88
456.616	313.88
456.836	310.88
457.056	310.88
457.276	311.88
457.497	321.88
457.717	314.88
457.937	311.88
458.157	311.88
458.377	318.88
458.598	324.88
458.818	334.88
459.038	330.88
459.258	370.88
459.478	366.88
459.698	366.88
459.918	373.88
460.138	387.88
460.358	404.88
460.578	398.88
460.798	415.88
461.018	408.88
461.238	418.88
461.458	418.88
461.678	403.88
461.898	401.88
462.118	404.88
462.338	438.88
462.558	448.88
462.777	449.88
462.997	482.88
463.217	550.88
463.437	519.88
463.657	486.88
463.876	461.88
464.096	502.88
464.316	457.88
464.536	471.88
464.755	454.88
464.975	429.88
465.195	423.88
465.414	387.88
465.634	396.88
465.854	393.88
466.073	367.88
466.293	358.88
466.512	357.88
466.732	352.88
466.951	364.88
467.171	355.88
467.391	355.88
467.61	362.88
467.829	350.88
468.049	356.88
468.268	335.88
468.488	343.88
468.707	327.88
468.927	334.88
469.146	335.88
469.365	349.88
469.585	354.88
469.804	331.88
470.023	361.88
470.243	357.88
470.462	364.88
470.681	353.88
470.901	371.88
471.12	352.88
471.339	354.88
471.558	355.88
471.777	332.88
471.997	361.88
472.216	340.88
472.435	316.88
472.654	321.88
472.873	330.88
473.092	314.88
473.311	340.88
473.53	322.88
473.749	324.88
473.968	341.88
474.187	316.88
474.406	319.88
474.625	343.88
474.844	333.88
475.063	356.88
475.282	331.88
475.501	330.88
475.72	331.88
475.939	332.88
476.158	338.88
476.377	338.88
476.596	338.88
476.814	356.88
477.033	331.88
477.252	369.88
477.471	366.88
477.69	350.88
477.908	353.88
478.127	384.88
478.346	390.88
478.564	382.88
478.783	392.88
479.002	404.88
479.22	387.88
479.439	403.88
479.658	370.88
479.876	379.88
480.095	404.88
480.313	425.88
480.532	423.88
480.751	415.88
480.969	414.88
481.188	404.88
481.406	370.88
481.624	383.88
481.843	364.88
482.061	378.88
482.28	366.88
482.498	360.88
482.717	370.88
482.935	378.88
483.153	372.88
483.372	382.88
483.59	356.88
483.808	369.88
484.027	372.88
484.245	380.88
484.463	391.88
484.681	393.88
484.9	383.88
485.118	392.88
485.336	385.88
485.554	381.88
485.772	384.88
485.99	391.88
486.209	380.88
486.427	371.88
486.645	392.88
486.863	387.88
487.081	387.88
487.299	367.88
487.517	389.88
487.735	390.88
487.953	394.88
488.171	379.88
488.389	398.88
488.607	386.88
488.825	406.88
489.043	399.88
489.261	379.88
489.479	367.88
489.696	395.88
489.914	382.88
490.132	382.88
490.35	388.88
490.568	389.88
490.786	379.88
491.003	408.88
491.221	388.88
491.439	403.88
491.657	402.88
491.874	407.88
492.092	387.88
492.31	403.88
492.527	395.88
492.745	415.88
492.963	415.88
493.18	404.88
493.398	406.88
493.615	413.88
493.833	412.88
494.05	423.88
494.268	412.88
494.485	417.88
494.703	414.88
494.92	417.88
495.138	416.88
495.355	416.88
495.573	400.88
495.79	420.88
496.008	427.88
496.225	420.88
496.442	401.88
496.66	442.88
496.877	423.88
497.094	455.88
497.312	441.88
497.529	455.88
497.746	440.88
497.963	454.88
498.181	477.88
498.398	508.88
498.615	528.88
498.832	545.88
499.049	577.88
499.267	642.88
499.484	654.88
499.701	737.88
499.918	823.88
500.135	893.88
500.352	1002.88
500.569	1047.88
500.786	1008.88
501.003	948.88
501.22	866.88
501.437	797.88
501.654	697.88
501.871	651.88
502.088	607.88
502.305	554.88
502.522	539.88
502.739	506.88
502.956	487.88
503.172	500.88
503.389	479.88
503.606	480.88
503.823	453.88
504.04	456.88
504.256	481.88
504.473	460.88
504.69	462.88
504.907	458.88
505.123	444.88
505.34	427.88
505.557	406.88
505.773	418.88
505.99	391.88
506.207	370.88
506.423	379.88
506.64	381.88
506.856	387.88
507.073	347.88
507.289	367.88
507.506	365.88
507.722	364.88
507.939	370.88
508.155	363.88
508.372	355.88
508.588	357.88
508.805	338.88
509.021	350.88
509.238	344.88
509.454	358.88
509.67	362.88
509.887	343.88
510.103	343.88
510.319	341.88
510.536	354.88
510.752	349.88
510.968	356.88
511.184	339.88
511.401	335.88
511.617	318.88
511.833	356.88
512.049	340.88
512.265	343.88
512.481	341.88
512.698	348.88
512.914	336.88
513.13	320.88
513.346	353.88
513.562	342.88
513.778	332.88
513.994	354.88
514.21	365.88
514.426	335.88
514.642	336.88
514.858	350.88
515.074	340.88
515.29	352.88
515.506	347.88
515.721	358.88
515.937	365.88
516.153	362.88
516.369	379.88
516.585	388.88
516.801	396.88
517.016	415.88
517.232	411.88
517.448	445.88
517.664	446.88
517.879	450.88
518.095	434.88
518.311	410.88
518.527	413.88
518.742	408.88
518.958	401.88
519.173	375.88
519.389	378.88
519.605	376.88
519.82	374.88
520.036	402.88
520.251	367.88
520.467	358.88
520.682	350.88
520.898	328.88
521.113	351.88
521.329	326.88
521.544	349.88
521.76	324.88
521.975	334.88
522.19	322.88
522.406	342.88
522.621	325.88
522.836	334.88
523.052	335.88
523.267	334.88
523.482	326.88
523.698	338.88
523.913	325.88
524.128	352.88
524.343	318.88
524.559	306.88
524.774	318.88
524.989	338.88
525.204	312.88
525.419	321.88
525.634	316.88
525.849	319.88
526.064	326.88
526.28	319.88
526.495	328.88
526.71	310.88
526.925	309.88
527.14	300.88
527.355	335.88
527.57	304.88
527.785	316.88
527.999	309.88
528.214	310.88
528.429	309.88
528.644	330.88
528.859	308.88
529.074	305.88
529.289	316.88
529.503	309.88
529.718	317.88
529.933	309.88
530.148	310.88
530.363	320.88
530.577	322.88
530.792	303.88
531.007	308.88
531.221	325.88
531.436	322.88
531.651	320.88
531.865	324.88
532.08	316.88
532.295	325.88
532.509	327.88
532.724	318.88
532.938	317.88
533.153	298.88
533.367	300.88
533.582	321.88
533.796	307.88
534.011	315.88
534.225	313.88
534.44	330.88
534.654	315.88
534.868	326.88
535.083	312.88
535.297	298.88
535.511	308.88
535.726	309.88
535.94	308.88
536.154	303.88
536.369	307.88
536.583	308.88
536.797	312.88
537.011	291.88
537.225	306.88
537.44	291.88
537.654	302.88
537.868	292.88
538.082	280.88
538.296	301.88
538.51	290.88
538.724	293.88
538.938	296.88
539.153	288.88
539.367	293.88
539.581	290.88
539.795	294.88
540.009	298.88
540.222	281.88
540.436	278.88
540.65	280.88
540.864	284.88
541.078	306.88
541.292	292.88
541.506	284.88
541.72	298.88
541.934	315.88
542.147	309.88
542.361	316.88
542.575	297.88
542.789	280.88
543.002	272.88
543.216	276.88
543.43	290.88
543.644	285.88
543.857	292.88
544.071	292.88
544.285	295.88
544.498	290.88
544.712	301.88
544.925	303.88
545.139	311.88
545.352	309.88
545.566	308.88
545.779	314.88
545.993	287.88
546.206	292.88
546.42	294.88
546.633	314.88
546.847	300.88
547.06	287.88
547.274	289.88
547.487	307.88
547.7	289.88
547.914	312.88
548.127	295.88
548.34	316.88
548.554	310.88
548.767	299.88
548.98	310.88
549.193	308.88
549.407	310.88
549.62	310.88
549.833	294.88
550.046	312.88
550.259	302.88
550.473	295.88
550.686	295.88
550.899	291.88
551.112	291.88
551.325	296.88
551.538	291.88
551.751	299.88
551.964	294.88
552.177	301.88
552.39	319.88
552.603	288.88
552.816	300.88
553.029	306.88
553.242	303.88
553.455	322.88
553.667	322.88
553.88	335.88
554.093	300.88
554.306	320.88
554.519	299.88
554.732	301.88
554.944	289.88
555.157	296.88
555.37	287.88
555.583	276.88
555.795	278.88
556.008	300.88
556.221	271.88
556.433	258.88
556.646	259.88
556.859	270.88
557.071	270.88
557.284	268.88
557.496	266.88
557.709	258.88
557.921	254.88
558.134	282.88
558.346	266.88
558.559	266.88
558.771	285.88
558.984	257.88
559.196	251.88
559.409	245.88
559.621	248.88
559.833	248.88
560.046	268.88
560.258	251.88
560.47	246.88
560.683	255.88
560.895	236.88
561.107	243.88
561.32	278.88
561.532	264.88
561.744	261.88
561.956	251.88
562.168	263.88
562.381	265.88
562.593	261.88
562.805	264.88
563.017	263.88
563.229	249.88
563.441	252.88
563.653	260.88
563.865	260.88
564.077	255.88
564.289	244.88
564.501	254.88
564.713	266.88
564.925	274.88
565.137	272.88
565.349	270.88
565.561	273.88
565.773	292.88
565.985	295.88
566.197	308.88
566.408	285.88
566.62	356.88
566.832	377.88
567.044	362.88
567.255	359.88
567.467	359.88
567.679	386.88
567.891	424.88
568.102	436.88
568.314	401.88
568.526	376.88
568.737	343.88
568.949	324.88
569.161	292.88
569.372	276.88
569.584	261.88
569.795	270.88
570.007	270.88
570.218	271.88
570.43	255.88
570.641	263.88
570.853	246.88
571.064	254.88
571.276	243.88
571.487	262.88
571.698	239.88
571.91	245.88
572.121	244.88
572.333	237.88
572.544	214.88
572.755	240.88
572.966	211.88
573.178	230.88
573.389	215.88
573.6	233.88
573.811	200.88
574.023	240.88
574.234	204.88
574.445	220.88
574.656	213.88
574.867	214.88
575.078	223.88
575.289	220.88
575.501	218.88
575.712	211.88
575.923	211.88
576.134	188.88
576.345	196.88
576.556	212.88
576.767	206.88
576.978	206.88
577.188	208.88
577.399	213.88
577.61	201.88
577.821	204.88
578.032	198.88
578.243	204.88
578.454	204.88
578.665	214.88
578.875	218.88
579.086	201.88
579.297	201.88
579.508	196.88
579.718	194.88
579.929	198.88
580.14	200.88
580.35	178.88
580.561	206.88
580.772	203.88
580.982	212.88
581.193	190.88
581.403	199.88
581.614	183.88
581.825	197.88
582.035	204.88
582.246	186.88
582.456	170.88
582.667	187.88
582.877	188.88
583.087	191.88
583.298	187.88
583.508	199.88
583.719	184.88
583.929	198.88
584.139	187.88
584.35	195.88
584.56	186.88
584.77	185.88
584.981	195.88
585.191	192.88
585.401	178.88
585.611	185.88
585.821	178.88
586.032	179.88
586.242	192.88
586.452	184.88
586.662	171.88
586.872	184.88
587.082	193.88
587.292	189.88
587.502	184.88
587.713	193.88
587.923	199.88
588.133	201.88
588.343	182.88
588.553	182.88
588.762	182.88
588.972	169.88
589.182	190.88
589.392	186.88
589.602	185.88
589.812	181.88
590.022	192.88
590.232	195.88
590.441	190.88
590.651	184.88
590.861	184.88
591.071	182.88
591.281	202.88
591.49	198.88
591.7	189.88
591.91	204.88
592.119	199.88
592.329	194.88
592.539	199.88
592.748	205.88
592.958	208.88
593.167	204.88
593.377	221.88
593.587	221.88
593.796	230.88
594.006	226.88
594.215	234.88
594.424	217.88
594.634	214.88
594.843	215.88
595.053	198.88
595.262	191.88
595.472	190.88
595.681	195.88
595.89	208.88
596.1	185.88
596.309	198.88
596.518	181.88
596.727	193.88
596.937	174.88
597.146	168.88
597.355	169.88
597.564	162.88
597.774	171.88
597.983	176.88
598.192	164.88
598.401	173.88
598.61	179.88
598.819	175.88
599.028	171.88
599.237	169.88
599.446	179.88
599.655	174.88
599.864	150.88
600.073	181.88
600.282	168.88
600.491	155.88
600.7	168.88
600.909	170.88
601.118	162.88
601.327	185.88
601.536	171.88
601.745	177.88
601.953	177.88
602.162	166.88
602.371	168.88
602.58	156.88
602.789	171.88
602.997	171.88
603.206	169.88
603.415	171.88
603.623	163.88
603.832	155.88
604.041	149.88
604.249	163.88
604.458	170.88
604.666	157.88
604.875	159.88
605.084	174.88
605.292	154.88
605.501	154.88
605.709	156.88
605.918	154.88
606.126	156.88
606.334	173.88
606.543	153.88
606.751	163.88
606.96	174.88
607.168	158.88
607.376	154.88
607.585	171.88
607.793	178.88
608.001	150.88
608.21	150.88
608.418	153.88
608.626	159.88
608.834	157.88
609.043	144.88
609.251	163.88
609.459	165.88
609.667	164.88
609.875	167.88
610.083	150.88
610.291	162.88
610.499	169.88
610.707	158.88
610.916	152.88
611.124	151.88
611.332	144.88
611.54	151.88
611.748	153.88
611.955	151.88
612.163	143.88
612.371	164.88
612.579	165.88
612.787	160.88
612.995	154.88
613.203	156.88
613.411	160.88
613.618	156.88
613.826	148.88
614.034	147.88
614.242	147.88
614.449	156.88
614.657	147.88
614.865	160.88
615.072	152.88
615.28	136.88
615.488	166.88
615.695	156.88
615.903	171.88
616.111	158.88
616.318	156.88
616.526	170.88
616.733	151.88
616.941	155.88
617.148	137.88
617.356	149.88
617.563	156.88
617.771	162.88
617.978	162.88
618.185	158.88
618.393	152.88
618.6	162.88
618.807	147.88
619.015	150.88
619.222	144.88
619.429	136.88
619.637	139.88
619.844	152.88
620.051	156.88
620.258	144.88
620.466	159.88
620.673	138.88
620.88	142.88
621.087	152.88
621.294	159.88
621.501	145.88
621.708	131.88
621.915	152.88
622.122	149.88
622.329	142.88
622.536	141.88
622.743	145.88
622.95	132.88
623.157	138.88
623.364	154.88
623.571	146.88
623.778	149.88
623.985	157.88
624.192	151.88
624.399	137.88
624.606	152.88
624.812	148.88
625.019	138.88
625.226	148.88
625.433	142.88
625.639	154.88
625.846	143.88
626.053	130.88
626.259	144.88
626.466	137.88
626.673	130.88
626.879	130.88
627.086	138.88
627.293	129.88
627.499	128.88
627.706	124.88
627.912	138.88
628.119	142.88
628.325	145.88
628.532	142.88
628.738	127.88
628.945	144.88
629.151	133.88
629.357	130.88
629.564	157.88
629.77	130.88
629.976	143.88
630.183	133.88
630.389	122.88
630.595	131.88
630.802	149.88
631.008	130.88
631.214	135.88
631.42	141.88
631.627	138.88
631.833	138.88
632.039	128.88
632.245	130.88
632.451	139.88
632.657	143.88
632.863	137.88
633.069	138.88
633.275	127.88
633.481	123.88
633.688	127.88
633.893	121.88
634.099	142.88
634.305	132.88
634.511	146.88
634.717	126.88
634.923	127.88
635.129	130.88
635.335	112.88
635.541	116.88
635.747	134.88
635.952	134.88
636.158	134.88
636.364	125.88
636.57	126.88
636.775	124.88
636.981	133.88
637.187	134.88
637.392	127.88
637.598	121.88
637.804	128.88
638.009	119.88
638.215	142.88
638.421	118.88
638.626	128.88
638.832	119.88
639.037	126.88
639.243	122.88
639.448	125.88
639.654	127.88
639.859	125.88
640.065	126.88
640.27	128.88
640.475	134.88
640.681	121.88
640.886	122.88
641.091	118.88
641.297	129.88
641.502	119.88
641.707	128.88
641.913	128.88
642.118	134.88
642.323	112.88
642.528	122.88
642.733	125.88
642.939	118.88
643.144	134.88
643.349	117.88
643.554	116.88
643.759	132.88
643.964	122.88
644.169	139.88
644.374	115.88
644.579	127.88
644.784	117.88
644.989	122.88
645.194	121.88
645.399	129.88
645.604	135.88
645.809	115.88
646.014	142.88
646.219	124.88
646.423	131.88
646.628	124.88
646.833	138.88
647.038	120.88
647.243	138.88
647.447	134.88
647.652	122.88
647.857	120.88
648.062	120.88
648.266	117.88
648.471	112.88
648.676	119.88
648.88	117.88
649.085	118.88
649.289	125.88
649.494	122.88
649.698	118.88
649.903	109.88
650.107	126.88
650.312	124.88
650.516	107.88
650.721	121.88
650.925	122.88
651.13	131.88
651.334	111.88
651.539	110.88
651.743	119.88
651.947	120.88
652.152	103.88
652.356	105.88
652.56	121.88
652.764	111.88
652.969	109.88
653.173	104.88
653.377	111.88
653.581	108.88
653.785	119.88
653.99	114.88
654.194	110.88
654.398	122.88
654.602	105.88
654.806	113.88
655.01	108.88
655.214	109.88
655.418	92.88
655.622	110.88
655.826	105.88
656.03	113.88
656.234	107.88
656.438	102.88
656.642	105.88
656.846	111.88
657.049	104.88
657.253	104.88
657.457	98.88
657.661	114.88
657.865	96.88
658.068	97.88
658.272	80.88
658.476	99.88
658.68	102.88
658.883	85.88
659.087	85.88
659.291	91.88
659.494	102.88
659.698	95.88
659.901	88.88
660.105	95.88
660.309	85.88
660.512	76.88
660.716	81.88
660.919	84.88
661.123	96.88
661.326	99.88
661.53	95.88
661.733	85.88
661.936	82.88
662.14	79.88
662.343	87.88
662.546	83.88
662.75	81.88
662.953	95.88
663.156	90.88
663.36	78.88
663.563	106.88
663.766	98.88
663.969	96.88
664.173	84.88
664.376	87.88
664.579	97.88
664.782	83.88
664.985	79.88
665.188	83.88
665.391	75.88
665.594	93.88
665.797	82.88
666	95.88
666.203	92.88
666.406	78.88
666.609	69.88
666.812	91.88
667.015	92.88
667.218	92.88
667.421	97.88
667.624	70.88
667.827	85.88
668.03	81.88
668.232	79.88
668.435	74.88
668.638	81.88
668.841	97.88
669.043	92.88
669.246	91.88
669.449	79.88
669.651	83.88
669.854	77.88
670.057	78.88
670.259	101.88
670.462	90.88
670.665	91.88
670.867	94.88
671.07	72.88
671.272	86.88
671.475	84.88
671.677	83.88
671.88	88.88
672.082	84.88
672.284	74.88
672.487	85.88
672.689	88.88
672.892	80.88
