Data from Fe(NO3)3@0.1M.TitratingCurve.Agarose3%dH2O.NegLispCup.LampEnergy10.LIBS07252019_HRD10591_16-39-12-332.txt Node
Date: Thu Jul 25 16:39:12 EDT 2019
User: cochatt
Spectrometer: HR+D1059
Trigger mode: 1
Integration Time (sec): 1.000000E-1
Scans to average: 1
Electric dark correction enabled: true
Nonlinearity correction enabled: false
Boxcar width: 0
XAxis mode: Wavelengths
Number of Pixels in Spectrum: 2048
>>>>>Begin Spectral Data<<<<<
223.165	-23.12
223.4	-23.12
223.635	-23.12
223.869	-11.12
224.104	-18.12
224.338	-30.12
224.573	-6.12
224.808	-21.12
225.042	-5.12
225.277	-3.12
225.511	-0.12
225.746	1.88
225.98	10.88
226.215	12.88
226.449	10.88
226.683	27.88
226.918	24.88
227.152	28.88
227.387	27.88
227.621	23.88
227.856	27.88
228.09	37.88
228.324	54.88
228.559	55.88
228.793	63.88
229.027	72.88
229.262	94.88
229.496	101.88
229.73	103.88
229.964	80.88
230.199	99.88
230.433	89.88
230.667	105.88
230.901	102.88
231.136	99.88
231.37	116.88
231.604	98.88
231.838	118.88
232.072	120.88
232.306	106.88
232.541	124.88
232.775	121.88
233.009	125.88
233.243	112.88
233.477	117.88
233.711	120.88
233.945	111.88
234.179	123.88
234.413	104.88
234.647	126.88
234.881	121.88
235.115	117.88
235.349	108.88
235.583	134.88
235.817	122.88
236.051	113.88
236.285	121.88
236.519	114.88
236.753	123.88
236.987	119.88
237.221	117.88
237.455	148.88
237.689	122.88
237.922	116.88
238.156	110.88
238.39	127.88
238.624	114.88
238.858	125.88
239.091	124.88
239.325	133.88
239.559	121.88
239.793	128.88
240.027	128.88
240.26	149.88
240.494	128.88
240.728	121.88
240.961	140.88
241.195	126.88
241.429	140.88
241.662	129.88
241.896	145.88
242.13	147.88
242.363	145.88
242.597	158.88
242.83	139.88
243.064	146.88
243.298	136.88
243.531	146.88
243.765	146.88
243.998	130.88
244.232	148.88
244.465	140.88
244.699	138.88
244.932	139.88
245.166	143.88
245.399	139.88
245.633	141.88
245.866	154.88
246.099	142.88
246.333	156.88
246.566	124.88
246.8	162.88
247.033	152.88
247.266	155.88
247.5	139.88
247.733	149.88
247.966	155.88
248.2	162.88
248.433	163.88
248.666	160.88
248.899	169.88
249.133	167.88
249.366	181.88
249.599	176.88
249.832	174.88
250.066	169.88
250.299	151.88
250.532	174.88
250.765	168.88
250.998	184.88
251.231	190.88
251.465	190.88
251.698	170.88
251.931	179.88
252.164	182.88
252.397	176.88
252.63	186.88
252.863	178.88
253.096	182.88
253.329	199.88
253.562	176.88
253.795	187.88
254.028	174.88
254.261	192.88
254.494	181.88
254.727	180.88
254.96	180.88
255.193	183.88
255.426	188.88
255.659	202.88
255.892	193.88
256.124	190.88
256.357	197.88
256.59	211.88
256.823	201.88
257.056	182.88
257.289	201.88
257.521	210.88
257.754	207.88
257.987	202.88
258.22	187.88
258.452	197.88
258.685	192.88
258.918	179.88
259.151	201.88
259.383	196.88
259.616	211.88
259.849	204.88
260.081	203.88
260.314	194.88
260.547	211.88
260.779	207.88
261.012	216.88
261.244	225.88
261.477	201.88
261.71	210.88
261.942	209.88
262.175	218.88
262.407	214.88
262.64	217.88
262.872	211.88
263.105	219.88
263.337	225.88
263.57	219.88
263.802	214.88
264.035	208.88
264.267	233.88
264.499	219.88
264.732	218.88
264.964	212.88
265.197	209.88
265.429	223.88
265.661	191.88
265.894	218.88
266.126	236.88
266.358	215.88
266.591	222.88
266.823	240.88
267.055	231.88
267.287	252.88
267.52	229.88
267.752	233.88
267.984	230.88
268.216	233.88
268.448	243.88
268.681	241.88
268.913	243.88
269.145	250.88
269.377	238.88
269.609	242.88
269.841	258.88
270.073	245.88
270.306	238.88
270.538	224.88
270.77	234.88
271.002	252.88
271.234	255.88
271.466	254.88
271.698	261.88
271.93	260.88
272.162	250.88
272.394	245.88
272.626	252.88
272.858	250.88
273.09	266.88
273.322	255.88
273.553	242.88
273.785	243.88
274.017	266.88
274.249	261.88
274.481	257.88
274.713	258.88
274.945	267.88
275.176	295.88
275.408	282.88
275.64	268.88
275.872	274.88
276.104	268.88
276.335	276.88
276.567	255.88
276.799	260.88
277.031	284.88
277.262	268.88
277.494	279.88
277.726	280.88
277.957	279.88
278.189	278.88
278.421	276.88
278.652	251.88
278.884	271.88
279.115	257.88
279.347	272.88
279.579	284.88
279.81	292.88
280.042	264.88
280.273	283.88
280.505	268.88
280.736	268.88
280.968	284.88
281.199	278.88
281.431	314.88
281.662	292.88
281.894	278.88
282.125	284.88
282.356	298.88
282.588	287.88
282.819	299.88
283.051	291.88
283.282	304.88
283.513	323.88
283.745	311.88
283.976	296.88
284.207	295.88
284.439	292.88
284.67	287.88
284.901	308.88
285.132	306.88
285.364	309.88
285.595	314.88
285.826	303.88
286.057	299.88
286.288	314.88
286.52	303.88
286.751	310.88
286.982	318.88
287.213	320.88
287.444	323.88
287.675	322.88
287.906	308.88
288.138	296.88
288.369	304.88
288.6	306.88
288.831	305.88
289.062	337.88
289.293	315.88
289.524	324.88
289.755	316.88
289.986	322.88
290.217	302.88
290.448	331.88
290.679	328.88
290.91	340.88
291.141	330.88
291.371	313.88
291.602	314.88
291.833	321.88
292.064	317.88
292.295	329.88
292.526	328.88
292.757	331.88
292.987	322.88
293.218	323.88
293.449	335.88
293.68	333.88
293.91	320.88
294.141	328.88
294.372	343.88
294.603	324.88
294.833	352.88
295.064	337.88
295.295	325.88
295.525	330.88
295.756	339.88
295.987	330.88
296.217	321.88
296.448	353.88
296.679	341.88
296.909	341.88
297.14	340.88
297.37	340.88
297.601	344.88
297.831	358.88
298.062	351.88
298.292	344.88
298.523	341.88
298.753	334.88
298.984	359.88
299.214	347.88
299.445	371.88
299.675	363.88
299.905	342.88
300.136	347.88
300.366	352.88
300.597	346.88
300.827	374.88
301.057	363.88
301.288	334.88
301.518	360.88
301.748	371.88
301.979	363.88
302.209	385.88
302.439	363.88
302.669	381.88
302.9	376.88
303.13	350.88
303.36	369.88
303.59	384.88
303.82	377.88
304.051	376.88
304.281	380.88
304.511	370.88
304.741	364.88
304.971	372.88
305.201	360.88
305.431	374.88
305.661	378.88
305.891	364.88
306.121	380.88
306.352	379.88
306.582	387.88
306.812	371.88
307.042	342.88
307.272	366.88
307.502	367.88
307.731	354.88
307.961	347.88
308.191	376.88
308.421	357.88
308.651	384.88
308.881	364.88
309.111	374.88
309.341	350.88
309.571	363.88
309.8	371.88
310.03	362.88
310.26	384.88
310.49	366.88
310.72	371.88
310.949	371.88
311.179	389.88
311.409	375.88
311.639	367.88
311.868	380.88
312.098	382.88
312.328	386.88
312.557	385.88
312.787	358.88
313.017	371.88
313.246	386.88
313.476	396.88
313.706	396.88
313.935	394.88
314.165	401.88
314.394	406.88
314.624	402.88
314.853	389.88
315.083	380.88
315.312	392.88
315.542	391.88
315.771	395.88
316.001	390.88
316.23	386.88
316.46	378.88
316.689	407.88
316.919	382.88
317.148	386.88
317.377	387.88
317.607	385.88
317.836	401.88
318.065	389.88
318.295	383.88
318.524	397.88
318.753	389.88
318.983	364.88
319.212	380.88
319.441	394.88
319.67	387.88
319.9	387.88
320.129	387.88
320.358	386.88
320.587	395.88
320.816	374.88
321.046	402.88
321.275	379.88
321.504	384.88
321.733	415.88
321.962	408.88
322.191	397.88
322.42	394.88
322.649	397.88
322.878	386.88
323.108	407.88
323.337	402.88
323.566	400.88
323.795	388.88
324.024	411.88
324.253	410.88
324.482	399.88
324.71	402.88
324.939	407.88
325.168	395.88
325.397	401.88
325.626	404.88
325.855	421.88
326.084	438.88
326.313	431.88
326.542	420.88
326.77	438.88
326.999	410.88
327.228	427.88
327.457	425.88
327.686	431.88
327.914	412.88
328.143	422.88
328.372	414.88
328.6	417.88
328.829	409.88
329.058	431.88
329.287	417.88
329.515	441.88
329.744	455.88
329.972	453.88
330.201	446.88
330.43	448.88
330.658	432.88
330.887	429.88
331.115	446.88
331.344	452.88
331.572	450.88
331.801	464.88
332.03	452.88
332.258	472.88
332.486	483.88
332.715	499.88
332.943	514.88
333.172	514.88
333.4	524.88
333.629	540.88
333.857	547.88
334.085	569.88
334.314	551.88
334.542	550.88
334.771	549.88
334.999	516.88
335.227	521.88
335.455	522.88
335.684	533.88
335.912	541.88
336.14	507.88
336.369	531.88
336.597	510.88
336.825	512.88
337.053	511.88
337.281	508.88
337.51	485.88
337.738	489.88
337.966	490.88
338.194	484.88
338.422	486.88
338.65	453.88
338.878	456.88
339.106	460.88
339.334	473.88
339.562	457.88
339.79	460.88
340.018	451.88
340.246	450.88
340.474	438.88
340.702	451.88
340.93	464.88
341.158	439.88
341.386	458.88
341.614	432.88
341.842	455.88
342.07	445.88
342.298	457.88
342.526	452.88
342.754	446.88
342.981	454.88
343.209	434.88
343.437	448.88
343.665	496.88
343.893	522.88
344.12	538.88
344.348	516.88
344.576	507.88
344.804	487.88
345.031	454.88
345.259	474.88
345.487	442.88
345.714	434.88
345.942	427.88
346.17	442.88
346.397	436.88
346.625	444.88
346.853	459.88
347.08	426.88
347.308	434.88
347.535	446.88
347.763	440.88
347.99	431.88
348.218	432.88
348.445	423.88
348.673	436.88
348.9	433.88
349.128	431.88
349.355	421.88
349.583	436.88
349.81	428.88
350.037	450.88
350.265	424.88
350.492	427.88
350.72	435.88
350.947	430.88
351.174	414.88
351.402	422.88
351.629	419.88
351.856	428.88
352.083	412.88
352.311	430.88
352.538	412.88
352.765	420.88
352.992	413.88
353.22	430.88
353.447	443.88
353.674	422.88
353.901	394.88
354.128	440.88
354.355	435.88
354.583	407.88
354.81	425.88
355.037	430.88
355.264	412.88
355.491	427.88
355.718	433.88
355.945	434.88
356.172	451.88
356.399	423.88
356.626	424.88
356.853	409.88
357.08	436.88
357.307	436.88
357.534	433.88
357.761	417.88
357.988	441.88
358.215	433.88
358.441	426.88
358.668	432.88
358.895	441.88
359.122	440.88
359.349	426.88
359.576	399.88
359.802	438.88
360.029	412.88
360.256	428.88
360.483	433.88
360.709	417.88
360.936	435.88
361.163	418.88
361.39	412.88
361.616	445.88
361.843	412.88
362.07	417.88
362.296	431.88
362.523	434.88
362.749	428.88
362.976	428.88
363.203	426.88
363.429	411.88
363.656	433.88
363.882	426.88
364.109	414.88
364.335	434.88
364.562	427.88
364.788	427.88
365.015	412.88
365.241	448.88
365.468	422.88
365.694	413.88
365.92	424.88
366.147	427.88
366.373	407.88
366.599	437.88
366.826	429.88
367.052	442.88
367.278	442.88
367.505	432.88
367.731	427.88
367.957	420.88
368.184	442.88
368.41	432.88
368.636	434.88
368.862	457.88
369.089	450.88
369.315	441.88
369.541	471.88
369.767	441.88
369.993	446.88
370.219	438.88
370.445	454.88
370.672	443.88
370.898	459.88
371.124	474.88
371.35	476.88
371.576	476.88
371.802	466.88
372.028	475.88
372.254	464.88
372.48	470.88
372.706	491.88
372.932	480.88
373.158	473.88
373.384	454.88
373.61	463.88
373.835	494.88
374.061	465.88
374.287	472.88
374.513	486.88
374.739	496.88
374.965	524.88
375.191	513.88
375.416	534.88
375.642	506.88
375.868	517.88
376.094	484.88
376.319	468.88
376.545	474.88
376.771	474.88
376.997	469.88
377.222	491.88
377.448	459.88
377.674	471.88
377.899	452.88
378.125	443.88
378.35	468.88
378.576	487.88
378.802	492.88
379.027	446.88
379.253	462.88
379.478	475.88
379.704	467.88
379.929	474.88
380.155	481.88
380.38	495.88
380.606	456.88
380.831	449.88
381.057	475.88
381.282	483.88
381.507	450.88
381.733	463.88
381.958	492.88
382.184	508.88
382.409	496.88
382.634	484.88
382.86	481.88
383.085	515.88
383.31	495.88
383.535	496.88
383.761	519.88
383.986	552.88
384.211	536.88
384.436	555.88
384.662	545.88
384.887	543.88
385.112	543.88
385.337	572.88
385.562	554.88
385.787	561.88
386.013	583.88
386.238	552.88
386.463	579.88
386.688	576.88
386.913	550.88
387.138	564.88
387.363	572.88
387.588	563.88
387.813	564.88
388.038	560.88
388.263	586.88
388.488	595.88
388.713	585.88
388.938	572.88
389.163	550.88
389.387	564.88
389.612	563.88
389.837	540.88
390.062	550.88
390.287	558.88
390.512	566.88
390.736	587.88
390.961	581.88
391.186	594.88
391.411	613.88
391.636	634.88
391.86	623.88
392.085	637.88
392.31	625.88
392.534	623.88
392.759	610.88
392.984	595.88
393.208	600.88
393.433	616.88
393.658	612.88
393.882	614.88
394.107	579.88
394.331	575.88
394.556	605.88
394.78	606.88
395.005	607.88
395.229	622.88
395.454	632.88
395.678	638.88
395.903	629.88
396.127	630.88
396.352	607.88
396.576	606.88
396.801	642.88
397.025	626.88
397.249	644.88
397.474	643.88
397.698	656.88
397.922	651.88
398.147	664.88
398.371	662.88
398.595	687.88
398.82	705.88
399.044	755.88
399.268	780.88
399.492	915.88
399.717	984.88
399.941	996.88
400.165	923.88
400.389	846.88
400.613	787.88
400.837	748.88
401.062	736.88
401.286	713.88
401.51	718.88
401.734	700.88
401.958	747.88
402.182	719.88
402.406	721.88
402.63	710.88
402.854	730.88
403.078	747.88
403.302	783.88
403.526	747.88
403.75	754.88
403.974	779.88
404.198	783.88
404.422	790.88
404.645	787.88
404.869	766.88
405.093	771.88
405.317	777.88
405.541	773.88
405.765	776.88
405.988	779.88
406.212	801.88
406.436	781.88
406.66	817.88
406.883	786.88
407.107	878.88
407.331	851.88
407.555	894.88
407.778	894.88
408.002	865.88
408.226	859.88
408.449	850.88
408.673	814.88
408.896	783.88
409.12	816.88
409.344	799.88
409.567	808.88
409.791	791.88
410.014	823.88
410.238	788.88
410.461	799.88
410.685	809.88
410.908	763.88
411.132	738.88
411.355	747.88
411.578	758.88
411.802	749.88
412.025	773.88
412.249	767.88
412.472	748.88
412.695	736.88
412.919	726.88
413.142	731.88
413.365	739.88
413.589	751.88
413.812	733.88
414.035	734.88
414.258	721.88
414.482	728.88
414.705	736.88
414.928	739.88
415.151	716.88
415.374	722.88
415.597	707.88
415.821	709.88
416.044	711.88
416.267	698.88
416.49	688.88
416.713	696.88
416.936	693.88
417.159	693.88
417.382	676.88
417.605	706.88
417.828	700.88
418.051	718.88
418.274	721.88
418.497	730.88
418.72	728.88
418.943	723.88
419.166	775.88
419.389	804.88
419.611	806.88
419.834	746.88
420.057	762.88
420.28	733.88
420.503	713.88
420.726	694.88
420.948	715.88
421.171	702.88
421.394	724.88
421.617	702.88
421.839	711.88
422.062	677.88
422.285	705.88
422.507	745.88
422.73	725.88
422.953	706.88
423.175	732.88
423.398	707.88
423.621	730.88
423.843	726.88
424.066	738.88
424.288	739.88
424.511	722.88
424.733	714.88
424.956	709.88
425.178	706.88
425.401	711.88
425.623	685.88
425.846	692.88
426.068	682.88
426.291	692.88
426.513	690.88
426.735	663.88
426.958	692.88
427.18	645.88
427.402	640.88
427.625	661.88
427.847	674.88
428.069	633.88
428.292	643.88
428.514	631.88
428.736	658.88
428.958	642.88
429.181	619.88
429.403	650.88
429.625	664.88
429.847	630.88
430.069	623.88
430.292	633.88
430.514	618.88
430.736	606.88
430.958	641.88
431.18	642.88
431.402	655.88
431.624	636.88
431.846	635.88
432.068	642.88
432.29	665.88
432.512	630.88
432.734	670.88
432.956	631.88
433.178	644.88
433.4	671.88
433.622	659.88
433.844	676.88
434.066	683.88
434.287	659.88
434.509	674.88
434.731	712.88
434.953	694.88
435.175	722.88
435.397	716.88
435.618	674.88
435.84	652.88
436.062	667.88
436.284	647.88
436.505	658.88
436.727	670.88
436.949	641.88
437.17	631.88
437.392	641.88
437.614	652.88
437.835	618.88
438.057	638.88
438.278	614.88
438.5	647.88
438.721	628.88
438.943	611.88
439.165	652.88
439.386	647.88
439.608	648.88
439.829	657.88
440.05	648.88
440.272	683.88
440.493	663.88
440.715	648.88
440.936	679.88
441.158	684.88
441.379	686.88
441.6	703.88
441.822	723.88
442.043	728.88
442.264	710.88
442.486	697.88
442.707	707.88
442.928	691.88
443.149	709.88
443.371	698.88
443.592	686.88
443.813	726.88
444.034	729.88
444.255	756.88
444.476	770.88
444.698	821.88
444.919	816.88
445.14	923.88
445.361	830.88
445.582	771.88
445.803	704.88
446.024	711.88
446.245	673.88
446.466	683.88
446.687	634.88
446.908	674.88
447.129	663.88
447.35	652.88
447.571	676.88
447.792	650.88
448.013	632.88
448.234	618.88
448.455	628.88
448.675	592.88
448.896	623.88
449.117	591.88
449.338	600.88
449.559	606.88
449.779	599.88
450	598.88
450.221	588.88
450.442	594.88
450.662	600.88
450.883	606.88
451.104	615.88
451.324	623.88
451.545	596.88
451.766	612.88
451.986	610.88
452.207	595.88
452.428	586.88
452.648	591.88
452.869	600.88
453.089	589.88
453.31	580.88
453.53	560.88
453.751	585.88
453.971	554.88
454.192	572.88
454.412	584.88
454.633	551.88
454.853	550.88
455.073	579.88
455.294	574.88
455.514	563.88
455.734	565.88
455.955	537.88
456.175	566.88
456.395	554.88
456.616	547.88
456.836	552.88
457.056	556.88
457.276	555.88
457.497	548.88
457.717	550.88
457.937	569.88
458.157	573.88
458.377	586.88
458.598	591.88
458.818	586.88
459.038	632.88
459.258	628.88
459.478	636.88
459.698	651.88
459.918	670.88
460.138	695.88
460.358	735.88
460.578	741.88
460.798	729.88
461.018	737.88
461.238	753.88
461.458	772.88
461.678	758.88
461.898	742.88
462.118	748.88
462.338	777.88
462.558	831.88
462.777	851.88
462.997	878.88
463.217	932.88
463.437	951.88
463.657	879.88
463.876	866.88
464.096	854.88
464.316	827.88
464.536	851.88
464.755	808.88
464.975	804.88
465.195	775.88
465.414	738.88
465.634	692.88
465.854	657.88
466.073	650.88
466.293	640.88
466.512	625.88
466.732	650.88
466.951	608.88
467.171	624.88
467.391	626.88
467.61	610.88
467.829	611.88
468.049	631.88
468.268	591.88
468.488	592.88
468.707	589.88
468.927	603.88
469.146	578.88
469.365	595.88
469.585	592.88
469.804	610.88
470.023	630.88
470.243	609.88
470.462	614.88
470.681	645.88
470.901	651.88
471.12	623.88
471.339	629.88
471.558	636.88
471.777	617.88
471.997	590.88
472.216	592.88
472.435	586.88
472.654	592.88
472.873	581.88
473.092	574.88
473.311	596.88
473.53	583.88
473.749	563.88
473.968	586.88
474.187	574.88
474.406	572.88
474.625	579.88
474.844	577.88
475.063	585.88
475.282	582.88
475.501	577.88
475.72	576.88
475.939	594.88
476.158	585.88
476.377	598.88
476.596	611.88
476.814	633.88
477.033	612.88
477.252	626.88
477.471	634.88
477.69	623.88
477.908	652.88
478.127	651.88
478.346	683.88
478.564	673.88
478.783	700.88
479.002	713.88
479.22	677.88
479.439	720.88
479.658	666.88
479.876	687.88
480.095	708.88
480.313	742.88
480.532	744.88
480.751	758.88
480.969	694.88
481.188	706.88
481.406	689.88
481.624	675.88
481.843	662.88
482.061	656.88
482.28	651.88
482.498	671.88
482.717	646.88
482.935	643.88
483.153	652.88
483.372	656.88
483.59	632.88
483.808	659.88
484.027	660.88
484.245	672.88
484.463	659.88
484.681	688.88
484.9	688.88
485.118	663.88
485.336	676.88
485.554	662.88
485.772	686.88
485.99	677.88
486.209	662.88
486.427	676.88
486.645	694.88
486.863	658.88
487.081	676.88
487.299	668.88
487.517	676.88
487.735	704.88
487.953	681.88
488.171	684.88
488.389	680.88
488.607	662.88
488.825	647.88
489.043	656.88
489.261	675.88
489.479	674.88
489.696	696.88
489.914	668.88
490.132	674.88
490.35	686.88
490.568	675.88
490.786	695.88
491.003	676.88
491.221	692.88
491.439	710.88
491.657	698.88
491.874	699.88
492.092	721.88
492.31	681.88
492.527	688.88
492.745	703.88
492.963	720.88
493.18	708.88
493.398	722.88
493.615	717.88
493.833	735.88
494.05	716.88
494.268	713.88
494.485	719.88
494.703	740.88
494.92	719.88
495.138	705.88
495.355	718.88
495.573	709.88
495.79	723.88
496.008	709.88
496.225	752.88
496.442	757.88
496.66	743.88
496.877	754.88
497.094	780.88
497.312	796.88
497.529	788.88
497.746	819.88
497.963	847.88
498.181	858.88
498.398	928.88
498.615	958.88
498.832	1002.88
499.049	1091.88
499.267	1149.88
499.484	1266.88
499.701	1342.88
499.918	1465.88
500.135	1636.88
500.352	1785.88
500.569	1859.88
500.786	1874.88
501.003	1795.88
501.22	1635.88
501.437	1465.88
501.654	1298.88
501.871	1196.88
502.088	1115.88
502.305	1075.88
502.522	1010.88
502.739	982.88
502.956	923.88
503.172	879.88
503.389	851.88
503.606	847.88
503.823	798.88
504.04	828.88
504.256	819.88
504.473	823.88
504.69	857.88
504.907	840.88
505.123	775.88
505.34	770.88
505.557	710.88
505.773	695.88
505.99	716.88
506.207	699.88
506.423	670.88
506.64	669.88
506.856	653.88
507.073	647.88
507.289	634.88
507.506	623.88
507.722	642.88
507.939	632.88
508.155	622.88
508.372	597.88
508.588	626.88
508.805	610.88
509.021	586.88
509.238	602.88
509.454	612.88
509.67	600.88
509.887	628.88
510.103	621.88
510.319	583.88
510.536	600.88
510.752	611.88
510.968	592.88
511.184	584.88
511.401	575.88
511.617	567.88
511.833	575.88
512.049	564.88
512.265	583.88
512.481	583.88
512.698	577.88
512.914	565.88
513.13	582.88
513.346	579.88
513.562	567.88
513.778	581.88
513.994	588.88
514.21	592.88
514.426	583.88
514.642	599.88
514.858	600.88
515.074	618.88
515.29	635.88
515.506	631.88
515.721	622.88
515.937	622.88
516.153	644.88
516.369	645.88
516.585	664.88
516.801	657.88
517.016	710.88
517.232	721.88
517.448	752.88
517.664	777.88
517.879	761.88
518.095	759.88
518.311	779.88
518.527	715.88
518.742	704.88
518.958	697.88
519.173	676.88
519.389	636.88
519.605	602.88
519.82	635.88
520.036	627.88
520.251	616.88
520.467	606.88
520.682	589.88
520.898	603.88
521.113	568.88
521.329	584.88
521.544	572.88
521.76	569.88
521.975	563.88
522.19	567.88
522.406	551.88
522.621	562.88
522.836	572.88
523.052	547.88
523.267	546.88
523.482	525.88
523.698	532.88
523.913	527.88
524.128	543.88
524.343	534.88
524.559	545.88
524.774	535.88
524.989	546.88
525.204	531.88
525.419	523.88
525.634	505.88
525.849	532.88
526.064	542.88
526.28	528.88
526.495	528.88
526.71	519.88
526.925	509.88
527.14	540.88
527.355	516.88
527.57	536.88
527.785	517.88
527.999	524.88
528.214	524.88
528.429	538.88
528.644	522.88
528.859	542.88
529.074	502.88
529.289	531.88
529.503	537.88
529.718	525.88
529.933	512.88
530.148	517.88
530.363	518.88
530.577	517.88
530.792	507.88
531.007	531.88
531.221	513.88
531.436	515.88
531.651	524.88
531.865	512.88
532.08	496.88
532.295	497.88
532.509	536.88
532.724	508.88
532.938	514.88
533.153	529.88
533.367	520.88
533.582	506.88
533.796	520.88
534.011	525.88
534.225	526.88
534.44	515.88
534.654	490.88
534.868	514.88
535.083	517.88
535.297	511.88
535.511	483.88
535.726	487.88
535.94	499.88
536.154	532.88
536.369	484.88
536.583	471.88
536.797	484.88
537.011	494.88
537.225	478.88
537.44	464.88
537.654	488.88
537.868	476.88
538.082	473.88
538.296	469.88
538.51	476.88
538.724	509.88
538.938	486.88
539.153	468.88
539.367	472.88
539.581	481.88
539.795	471.88
540.009	475.88
540.222	470.88
540.436	464.88
540.65	461.88
540.864	487.88
541.078	474.88
541.292	481.88
541.506	470.88
541.72	475.88
541.934	478.88
542.147	472.88
542.361	455.88
542.575	486.88
542.789	467.88
543.002	449.88
543.216	467.88
543.43	471.88
543.644	461.88
543.857	449.88
544.071	467.88
544.285	473.88
544.498	475.88
544.712	467.88
544.925	475.88
545.139	483.88
545.352	478.88
545.566	474.88
545.779	497.88
545.993	490.88
546.206	496.88
546.42	489.88
546.633	473.88
546.847	457.88
547.06	478.88
547.274	480.88
547.487	460.88
547.7	474.88
547.914	490.88
548.127	491.88
548.34	509.88
548.554	484.88
548.767	503.88
548.98	484.88
549.193	492.88
549.407	475.88
549.62	491.88
549.833	464.88
550.046	470.88
550.259	473.88
550.473	489.88
550.686	472.88
550.899	481.88
551.112	476.88
551.325	468.88
551.538	458.88
551.751	459.88
551.964	479.88
552.177	468.88
552.39	467.88
552.603	501.88
552.816	488.88
553.029	522.88
553.242	491.88
553.455	518.88
553.667	528.88
553.88	497.88
554.093	497.88
554.306	523.88
554.519	479.88
554.732	498.88
554.944	480.88
555.157	461.88
555.37	458.88
555.583	464.88
555.795	439.88
556.008	410.88
556.221	412.88
556.433	416.88
556.646	437.88
556.859	420.88
557.071	409.88
557.284	418.88
557.496	412.88
557.709	401.88
557.921	417.88
558.134	404.88
558.346	428.88
558.559	403.88
558.771	413.88
558.984	399.88
559.196	412.88
559.409	420.88
559.621	400.88
559.833	411.88
560.046	405.88
560.258	395.88
560.47	426.88
560.683	389.88
560.895	397.88
561.107	395.88
561.32	412.88
561.532	389.88
561.744	422.88
561.956	421.88
562.168	410.88
562.381	400.88
562.593	395.88
562.805	410.88
563.017	424.88
563.229	402.88
563.441	394.88
563.653	393.88
563.865	414.88
564.077	428.88
564.289	436.88
564.501	442.88
564.713	435.88
564.925	441.88
565.137	444.88
565.349	441.88
565.561	461.88
565.773	472.88
565.985	497.88
566.197	500.88
566.408	562.88
566.62	565.88
566.832	619.88
567.044	615.88
567.255	605.88
567.467	635.88
567.679	631.88
567.891	703.88
568.102	672.88
568.314	671.88
568.526	619.88
568.737	567.88
568.949	554.88
569.161	508.88
569.372	495.88
569.584	446.88
569.795	452.88
570.007	446.88
570.218	418.88
570.43	442.88
570.641	415.88
570.853	392.88
571.064	405.88
571.276	414.88
571.487	402.88
571.698	402.88
571.91	361.88
572.121	366.88
572.333	372.88
572.544	362.88
572.755	382.88
572.966	354.88
573.178	356.88
573.389	339.88
573.6	337.88
573.811	379.88
574.023	318.88
574.234	334.88
574.445	338.88
574.656	347.88
574.867	344.88
575.078	340.88
575.289	332.88
575.501	336.88
575.712	330.88
575.923	323.88
576.134	331.88
576.345	332.88
576.556	331.88
576.767	313.88
576.978	314.88
577.188	311.88
577.399	329.88
577.61	312.88
577.821	320.88
578.032	306.88
578.243	306.88
578.454	297.88
578.665	300.88
578.875	303.88
579.086	318.88
579.297	317.88
579.508	305.88
579.718	307.88
579.929	299.88
580.14	308.88
580.35	287.88
580.561	287.88
580.772	307.88
580.982	284.88
581.193	306.88
581.403	288.88
581.614	315.88
581.825	304.88
582.035	286.88
582.246	319.88
582.456	301.88
582.667	306.88
582.877	295.88
583.087	288.88
583.298	285.88
583.508	291.88
583.719	291.88
583.929	271.88
584.139	289.88
584.35	282.88
584.56	291.88
584.77	280.88
584.981	291.88
585.191	281.88
585.401	284.88
585.611	270.88
585.821	289.88
586.032	288.88
586.242	272.88
586.452	283.88
586.662	277.88
586.872	277.88
587.082	263.88
587.292	289.88
587.502	263.88
587.713	274.88
587.923	282.88
588.133	290.88
588.343	272.88
588.553	267.88
588.762	280.88
588.972	263.88
589.182	270.88
589.392	260.88
589.602	281.88
589.812	284.88
590.022	286.88
590.232	282.88
590.441	275.88
590.651	274.88
590.861	285.88
591.071	291.88
591.281	304.88
591.49	286.88
591.7	300.88
591.91	286.88
592.119	282.88
592.329	310.88
592.539	295.88
592.748	306.88
592.958	312.88
593.167	327.88
593.377	322.88
593.587	339.88
593.796	340.88
594.006	335.88
594.215	336.88
594.424	340.88
594.634	306.88
594.843	318.88
595.053	313.88
595.262	316.88
595.472	301.88
595.681	286.88
595.89	288.88
596.1	279.88
596.309	267.88
596.518	260.88
596.727	243.88
596.937	267.88
597.146	266.88
597.355	269.88
597.564	263.88
597.774	258.88
597.983	248.88
598.192	239.88
598.401	258.88
598.61	258.88
598.819	259.88
599.028	249.88
599.237	247.88
599.446	242.88
599.655	239.88
599.864	247.88
600.073	225.88
600.282	240.88
600.491	258.88
600.7	230.88
600.909	222.88
601.118	232.88
601.327	232.88
601.536	241.88
601.745	236.88
601.953	227.88
602.162	223.88
602.371	244.88
602.58	215.88
602.789	238.88
602.997	226.88
603.206	235.88
603.415	226.88
603.623	231.88
603.832	225.88
604.041	226.88
604.249	226.88
604.458	220.88
604.666	230.88
604.875	242.88
605.084	237.88
605.292	216.88
605.501	233.88
605.709	227.88
605.918	227.88
606.126	225.88
606.334	219.88
606.543	206.88
606.751	225.88
606.96	225.88
607.168	226.88
607.376	229.88
607.585	205.88
607.793	217.88
608.001	230.88
608.21	220.88
608.418	213.88
608.626	224.88
608.834	228.88
609.043	220.88
609.251	214.88
609.459	213.88
609.667	210.88
609.875	212.88
610.083	211.88
610.291	210.88
610.499	208.88
610.707	200.88
610.916	193.88
611.124	208.88
611.332	218.88
611.54	211.88
611.748	200.88
611.955	204.88
612.163	219.88
612.371	209.88
612.579	197.88
612.787	203.88
612.995	200.88
613.203	203.88
613.411	215.88
613.618	219.88
613.826	204.88
614.034	198.88
614.242	204.88
614.449	198.88
614.657	222.88
614.865	215.88
615.072	214.88
615.28	202.88
615.488	201.88
615.695	206.88
615.903	205.88
616.111	232.88
616.318	221.88
616.526	210.88
616.733	186.88
616.941	185.88
617.148	210.88
617.356	217.88
617.563	219.88
617.771	216.88
617.978	207.88
618.185	207.88
618.393	199.88
618.6	200.88
618.807	216.88
619.015	211.88
619.222	203.88
619.429	211.88
619.637	212.88
619.844	205.88
620.051	206.88
620.258	211.88
620.466	202.88
620.673	193.88
620.88	195.88
621.087	200.88
621.294	207.88
621.501	213.88
621.708	202.88
621.915	179.88
622.122	180.88
622.329	195.88
622.536	196.88
622.743	184.88
622.95	199.88
623.157	202.88
623.364	194.88
623.571	183.88
623.778	190.88
623.985	195.88
624.192	189.88
624.399	197.88
624.606	193.88
624.812	201.88
625.019	180.88
625.226	197.88
625.433	175.88
625.639	198.88
625.846	185.88
626.053	177.88
626.259	193.88
626.466	187.88
626.673	195.88
626.879	176.88
627.086	174.88
627.293	176.88
627.499	186.88
627.706	180.88
627.912	158.88
628.119	170.88
628.325	171.88
628.532	181.88
628.738	175.88
628.945	174.88
629.151	180.88
629.357	160.88
629.564	170.88
629.77	176.88
629.976	183.88
630.183	159.88
630.389	168.88
630.595	161.88
630.802	180.88
631.008	164.88
631.214	166.88
631.42	188.88
631.627	164.88
631.833	174.88
632.039	164.88
632.245	159.88
632.451	181.88
632.657	174.88
632.863	170.88
633.069	154.88
633.275	170.88
633.481	175.88
633.688	162.88
633.893	170.88
634.099	185.88
634.305	148.88
634.511	161.88
634.717	160.88
634.923	155.88
635.129	155.88
635.335	160.88
635.541	174.88
635.747	162.88
635.952	159.88
636.158	162.88
636.364	148.88
636.57	155.88
636.775	149.88
636.981	163.88
637.187	152.88
637.392	159.88
637.598	151.88
637.804	172.88
638.009	161.88
638.215	151.88
638.421	165.88
638.626	149.88
638.832	157.88
639.037	159.88
639.243	143.88
639.448	146.88
639.654	151.88
639.859	151.88
640.065	140.88
640.27	159.88
640.475	141.88
640.681	150.88
640.886	156.88
641.091	147.88
641.297	129.88
641.502	150.88
641.707	146.88
641.913	156.88
642.118	149.88
642.323	148.88
642.528	157.88
642.733	138.88
642.939	148.88
643.144	164.88
643.349	154.88
643.554	156.88
643.759	144.88
643.964	146.88
644.169	153.88
644.374	154.88
644.579	153.88
644.784	145.88
644.989	153.88
645.194	146.88
645.399	145.88
645.604	156.88
645.809	144.88
646.014	136.88
646.219	137.88
646.423	148.88
646.628	144.88
646.833	150.88
647.038	161.88
647.243	141.88
647.447	154.88
647.652	168.88
647.857	140.88
648.062	164.88
648.266	147.88
648.471	159.88
648.676	146.88
648.88	150.88
649.085	147.88
649.289	161.88
649.494	155.88
649.698	147.88
649.903	135.88
650.107	140.88
650.312	169.88
650.516	138.88
650.721	133.88
650.925	133.88
651.13	127.88
651.334	146.88
651.539	136.88
651.743	130.88
651.947	117.88
652.152	140.88
652.356	139.88
652.56	142.88
652.764	130.88
652.969	129.88
653.173	139.88
653.377	103.88
653.581	128.88
653.785	142.88
653.99	132.88
654.194	129.88
654.398	128.88
654.602	116.88
654.806	113.88
655.01	114.88
655.214	118.88
655.418	110.88
655.622	118.88
655.826	134.88
656.03	110.88
656.234	112.88
656.438	124.88
656.642	114.88
656.846	120.88
657.049	110.88
657.253	121.88
657.457	122.88
657.661	113.88
657.865	100.88
658.068	112.88
658.272	110.88
658.476	107.88
658.68	110.88
658.883	105.88
659.087	107.88
659.291	85.88
659.494	98.88
659.698	115.88
659.901	104.88
660.105	85.88
660.309	77.88
660.512	85.88
660.716	94.88
660.919	99.88
661.123	78.88
661.326	96.88
661.53	105.88
661.733	92.88
661.936	82.88
662.14	75.88
662.343	78.88
662.546	80.88
662.75	94.88
662.953	102.88
663.156	82.88
663.36	81.88
663.563	79.88
663.766	80.88
663.969	90.88
664.173	75.88
664.376	80.88
664.579	85.88
664.782	91.88
664.985	89.88
665.188	78.88
665.391	86.88
665.594	76.88
665.797	91.88
666	98.88
666.203	75.88
666.406	87.88
666.609	71.88
666.812	82.88
667.015	71.88
667.218	81.88
667.421	84.88
667.624	63.88
667.827	75.88
668.03	74.88
668.232	74.88
668.435	85.88
668.638	66.88
668.841	69.88
669.043	93.88
669.246	83.88
669.449	64.88
669.651	82.88
669.854	76.88
670.057	77.88
670.259	76.88
670.462	76.88
670.665	95.88
670.867	76.88
671.07	84.88
671.272	79.88
671.475	88.88
671.677	79.88
671.88	86.88
672.082	79.88
672.284	76.88
672.487	86.88
672.689	81.88
672.892	86.88
