Data from Fe(NO3)3@0.0125M.TitratingCurve.Agarose3%dH2O.NegLispCup.LampEnergy10.LIBS07252019_HRD10591_16-59-03-337.txt Node
Date: Thu Jul 25 16:59:03 EDT 2019
User: cochatt
Spectrometer: HR+D1059
Trigger mode: 1
Integration Time (sec): 1.000000E-1
Scans to average: 1
Electric dark correction enabled: true
Nonlinearity correction enabled: false
Boxcar width: 0
XAxis mode: Wavelengths
Number of Pixels in Spectrum: 2048
>>>>>Begin Spectral Data<<<<<
223.165	-20.06
223.4	-20.06
223.635	-20.06
223.869	-30.06
224.104	-24.06
224.338	-19.06
224.573	-14.06
224.808	-7.06
225.042	-20.06
225.277	-7.06
225.511	-10.06
225.746	7.94
225.98	8.94
226.215	21.94
226.449	8.94
226.683	34.94
226.918	39.94
227.152	28.94
227.387	46.94
227.621	34.94
227.856	54.94
228.09	51.94
228.324	52.94
228.559	57.94
228.793	76.94
229.027	87.94
229.262	100.94
229.496	100.94
229.73	95.94
229.964	113.94
230.199	116.94
230.433	111.94
230.667	126.94
230.901	130.94
231.136	121.94
231.37	119.94
231.604	118.94
231.838	110.94
232.072	130.94
232.306	134.94
232.541	133.94
232.775	130.94
233.009	127.94
233.243	144.94
233.477	132.94
233.711	123.94
233.945	131.94
234.179	149.94
234.413	139.94
234.647	134.94
234.881	159.94
235.115	139.94
235.349	141.94
235.583	134.94
235.817	128.94
236.051	125.94
236.285	149.94
236.519	140.94
236.753	140.94
236.987	132.94
237.221	144.94
237.455	139.94
237.689	152.94
237.922	146.94
238.156	153.94
238.39	167.94
238.624	160.94
238.858	158.94
239.091	150.94
239.325	158.94
239.559	153.94
239.793	149.94
240.027	161.94
240.26	163.94
240.494	167.94
240.728	169.94
240.961	167.94
241.195	151.94
241.429	181.94
241.662	163.94
241.896	161.94
242.13	163.94
242.363	171.94
242.597	172.94
242.83	183.94
243.064	175.94
243.298	175.94
243.531	170.94
243.765	166.94
243.998	189.94
244.232	165.94
244.465	167.94
244.699	194.94
244.932	198.94
245.166	208.94
245.399	189.94
245.633	191.94
245.866	184.94
246.099	186.94
246.333	190.94
246.566	204.94
246.8	206.94
247.033	192.94
247.266	192.94
247.5	193.94
247.733	191.94
247.966	190.94
248.2	197.94
248.433	197.94
248.666	199.94
248.899	196.94
249.133	203.94
249.366	210.94
249.599	212.94
249.832	212.94
250.066	206.94
250.299	198.94
250.532	216.94
250.765	231.94
250.998	227.94
251.231	231.94
251.465	223.94
251.698	220.94
251.931	213.94
252.164	227.94
252.397	230.94
252.63	240.94
252.863	238.94
253.096	238.94
253.329	249.94
253.562	252.94
253.795	236.94
254.028	227.94
254.261	271.94
254.494	246.94
254.727	243.94
254.96	254.94
255.193	235.94
255.426	262.94
255.659	239.94
255.892	246.94
256.124	242.94
256.357	252.94
256.59	261.94
256.823	273.94
257.056	250.94
257.289	266.94
257.521	268.94
257.754	260.94
257.987	252.94
258.22	264.94
258.452	275.94
258.685	281.94
258.918	283.94
259.151	275.94
259.383	273.94
259.616	274.94
259.849	282.94
260.081	297.94
260.314	303.94
260.547	298.94
260.779	278.94
261.012	295.94
261.244	312.94
261.477	320.94
261.71	311.94
261.942	296.94
262.175	288.94
262.407	266.94
262.64	287.94
262.872	286.94
263.105	288.94
263.337	311.94
263.57	295.94
263.802	305.94
264.035	290.94
264.267	289.94
264.499	271.94
264.732	294.94
264.964	312.94
265.197	299.94
265.429	309.94
265.661	304.94
265.894	326.94
266.126	318.94
266.358	300.94
266.591	315.94
266.823	316.94
267.055	309.94
267.287	336.94
267.52	314.94
267.752	325.94
267.984	304.94
268.216	320.94
268.448	313.94
268.681	332.94
268.913	326.94
269.145	329.94
269.377	329.94
269.609	311.94
269.841	331.94
270.073	337.94
270.306	331.94
270.538	340.94
270.77	344.94
271.002	343.94
271.234	318.94
271.466	358.94
271.698	362.94
271.93	318.94
272.162	356.94
272.394	378.94
272.626	363.94
272.858	370.94
273.09	348.94
273.322	378.94
273.553	371.94
273.785	375.94
274.017	364.94
274.249	385.94
274.481	404.94
274.713	390.94
274.945	414.94
275.176	396.94
275.408	396.94
275.64	383.94
275.872	391.94
276.104	378.94
276.335	395.94
276.567	389.94
276.799	396.94
277.031	390.94
277.262	390.94
277.494	403.94
277.726	375.94
277.957	402.94
278.189	376.94
278.421	397.94
278.652	416.94
278.884	391.94
279.115	402.94
279.347	419.94
279.579	432.94
279.81	415.94
280.042	411.94
280.273	396.94
280.505	420.94
280.736	403.94
280.968	423.94
281.199	419.94
281.431	411.94
281.662	428.94
281.894	432.94
282.125	432.94
282.356	417.94
282.588	418.94
282.819	424.94
283.051	432.94
283.282	418.94
283.513	414.94
283.745	437.94
283.976	456.94
284.207	424.94
284.439	440.94
284.67	452.94
284.901	435.94
285.132	475.94
285.364	464.94
285.595	429.94
285.826	446.94
286.057	453.94
286.288	471.94
286.52	452.94
286.751	461.94
286.982	461.94
287.213	436.94
287.444	469.94
287.675	458.94
287.906	466.94
288.138	468.94
288.369	454.94
288.6	460.94
288.831	454.94
289.062	460.94
289.293	456.94
289.524	458.94
289.755	467.94
289.986	474.94
290.217	475.94
290.448	480.94
290.679	482.94
290.91	483.94
291.141	473.94
291.371	465.94
291.602	487.94
291.833	489.94
292.064	479.94
292.295	490.94
292.526	483.94
292.757	494.94
292.987	473.94
293.218	491.94
293.449	480.94
293.68	496.94
293.91	487.94
294.141	503.94
294.372	496.94
294.603	487.94
294.833	474.94
295.064	484.94
295.295	488.94
295.525	467.94
295.756	477.94
295.987	492.94
296.217	494.94
296.448	489.94
296.679	512.94
296.909	501.94
297.14	496.94
297.37	500.94
297.601	524.94
297.831	505.94
298.062	490.94
298.292	520.94
298.523	534.94
298.753	526.94
298.984	520.94
299.214	519.94
299.445	538.94
299.675	517.94
299.905	536.94
300.136	539.94
300.366	549.94
300.597	539.94
300.827	543.94
301.057	517.94
301.288	528.94
301.518	527.94
301.748	520.94
301.979	564.94
302.209	522.94
302.439	543.94
302.669	558.94
302.9	586.94
303.13	550.94
303.36	554.94
303.59	564.94
303.82	557.94
304.051	578.94
304.281	574.94
304.511	545.94
304.741	538.94
304.971	571.94
305.201	554.94
305.431	590.94
305.661	576.94
305.891	563.94
306.121	580.94
306.352	602.94
306.582	574.94
306.812	572.94
307.042	574.94
307.272	574.94
307.502	574.94
307.731	587.94
307.961	581.94
308.191	562.94
308.421	581.94
308.651	576.94
308.881	603.94
309.111	592.94
309.341	597.94
309.571	587.94
309.8	622.94
310.03	576.94
310.26	563.94
310.49	579.94
310.72	608.94
310.949	591.94
311.179	584.94
311.409	588.94
311.639	597.94
311.868	607.94
312.098	624.94
312.328	628.94
312.557	626.94
312.787	615.94
313.017	609.94
313.246	625.94
313.476	600.94
313.706	612.94
313.935	632.94
314.165	604.94
314.394	615.94
314.624	638.94
314.853	634.94
315.083	639.94
315.312	629.94
315.542	628.94
315.771	636.94
316.001	616.94
316.23	626.94
316.46	648.94
316.689	630.94
316.919	664.94
317.148	659.94
317.377	651.94
317.607	655.94
317.836	673.94
318.065	657.94
318.295	654.94
318.524	647.94
318.753	646.94
318.983	630.94
319.212	656.94
319.441	658.94
319.67	641.94
319.9	657.94
320.129	667.94
320.358	652.94
320.587	654.94
320.816	655.94
321.046	666.94
321.275	682.94
321.504	666.94
321.733	660.94
321.962	680.94
322.191	684.94
322.42	688.94
322.649	694.94
322.878	661.94
323.108	677.94
323.337	701.94
323.566	670.94
323.795	698.94
324.024	712.94
324.253	698.94
324.482	691.94
324.71	674.94
324.939	691.94
325.168	689.94
325.397	672.94
325.626	712.94
325.855	710.94
326.084	721.94
326.313	711.94
326.542	690.94
326.77	734.94
326.999	709.94
327.228	703.94
327.457	719.94
327.686	712.94
327.914	704.94
328.143	736.94
328.372	703.94
328.6	721.94
328.829	738.94
329.058	731.94
329.287	736.94
329.515	724.94
329.744	731.94
329.972	727.94
330.201	745.94
330.43	768.94
330.658	747.94
330.887	736.94
331.115	739.94
331.344	752.94
331.572	715.94
331.801	732.94
332.03	752.94
332.258	745.94
332.486	766.94
332.715	757.94
332.943	751.94
333.172	746.94
333.4	739.94
333.629	779.94
333.857	792.94
334.085	793.94
334.314	775.94
334.542	778.94
334.771	755.94
334.999	796.94
335.227	803.94
335.455	792.94
335.684	786.94
335.912	793.94
336.14	788.94
336.369	780.94
336.597	776.94
336.825	800.94
337.053	802.94
337.281	784.94
337.51	775.94
337.738	778.94
337.966	780.94
338.194	766.94
338.422	760.94
338.65	763.94
338.878	774.94
339.106	776.94
339.334	807.94
339.562	767.94
339.79	745.94
340.018	768.94
340.246	776.94
340.474	779.94
340.702	784.94
340.93	804.94
341.158	788.94
341.386	760.94
341.614	786.94
341.842	753.94
342.07	763.94
342.298	766.94
342.526	776.94
342.754	732.94
342.981	766.94
343.209	768.94
343.437	787.94
343.665	786.94
343.893	751.94
344.12	804.94
344.348	791.94
344.576	778.94
344.804	806.94
345.031	794.94
345.259	779.94
345.487	771.94
345.714	771.94
345.942	755.94
346.17	781.94
346.397	742.94
346.625	766.94
346.853	785.94
347.08	760.94
347.308	754.94
347.535	747.94
347.763	786.94
347.99	747.94
348.218	766.94
348.445	764.94
348.673	739.94
348.9	737.94
349.128	752.94
349.355	748.94
349.583	748.94
349.81	745.94
350.037	759.94
350.265	732.94
350.492	743.94
350.72	761.94
350.947	756.94
351.174	743.94
351.402	724.94
351.629	746.94
351.856	754.94
352.083	743.94
352.311	746.94
352.538	732.94
352.765	759.94
352.992	760.94
353.22	756.94
353.447	714.94
353.674	723.94
353.901	756.94
354.128	733.94
354.355	765.94
354.583	761.94
354.81	748.94
355.037	733.94
355.264	743.94
355.491	742.94
355.718	752.94
355.945	746.94
356.172	756.94
356.399	751.94
356.626	730.94
356.853	741.94
357.08	725.94
357.307	728.94
357.534	740.94
357.761	728.94
357.988	743.94
358.215	754.94
358.441	763.94
358.668	742.94
358.895	757.94
359.122	754.94
359.349	747.94
359.576	768.94
359.802	743.94
360.029	742.94
360.256	750.94
360.483	752.94
360.709	771.94
360.936	737.94
361.163	739.94
361.39	768.94
361.616	764.94
361.843	752.94
362.07	756.94
362.296	775.94
362.523	741.94
362.749	738.94
362.976	758.94
363.203	760.94
363.429	771.94
363.656	771.94
363.882	760.94
364.109	762.94
364.335	746.94
364.562	774.94
364.788	794.94
365.015	787.94
365.241	798.94
365.468	802.94
365.694	795.94
365.92	751.94
366.147	773.94
366.373	768.94
366.599	766.94
366.826	784.94
367.052	781.94
367.278	781.94
367.505	767.94
367.731	768.94
367.957	795.94
368.184	785.94
368.41	773.94
368.636	799.94
368.862	767.94
369.089	793.94
369.315	790.94
369.541	832.94
369.767	828.94
369.993	775.94
370.219	796.94
370.445	789.94
370.672	831.94
370.898	794.94
371.124	810.94
371.35	820.94
371.576	823.94
371.802	791.94
372.028	825.94
372.254	810.94
372.48	786.94
372.706	821.94
372.932	809.94
373.158	805.94
373.384	820.94
373.61	817.94
373.835	822.94
374.061	815.94
374.287	827.94
374.513	818.94
374.739	852.94
374.965	832.94
375.191	828.94
375.416	837.94
375.642	806.94
375.868	819.94
376.094	826.94
376.319	839.94
376.545	820.94
376.771	820.94
376.997	804.94
377.222	810.94
377.448	795.94
377.674	818.94
377.899	777.94
378.125	809.94
378.35	772.94
378.576	812.94
378.802	794.94
379.027	809.94
379.253	826.94
379.478	803.94
379.704	824.94
379.929	814.94
380.155	832.94
380.38	793.94
380.606	816.94
380.831	826.94
381.057	819.94
381.282	833.94
381.507	824.94
381.733	811.94
381.958	842.94
382.184	816.94
382.409	822.94
382.634	828.94
382.86	822.94
383.085	863.94
383.31	840.94
383.535	849.94
383.761	822.94
383.986	857.94
384.211	839.94
384.436	830.94
384.662	863.94
384.887	862.94
385.112	856.94
385.337	876.94
385.562	875.94
385.787	852.94
386.013	880.94
386.238	878.94
386.463	864.94
386.688	889.94
386.913	880.94
387.138	870.94
387.363	878.94
387.588	871.94
387.813	878.94
388.038	884.94
388.263	859.94
388.488	882.94
388.713	890.94
388.938	900.94
389.163	859.94
389.387	890.94
389.612	863.94
389.837	893.94
390.062	907.94
390.287	900.94
390.512	909.94
390.736	880.94
390.961	884.94
391.186	884.94
391.411	921.94
391.636	923.94
391.86	908.94
392.085	920.94
392.31	896.94
392.534	888.94
392.759	891.94
392.984	906.94
393.208	902.94
393.433	927.94
393.658	904.94
393.882	882.94
394.107	896.94
394.331	891.94
394.556	894.94
394.78	896.94
395.005	910.94
395.229	884.94
395.454	906.94
395.678	899.94
395.903	920.94
396.127	918.94
396.352	902.94
396.576	911.94
396.801	936.94
397.025	950.94
397.249	918.94
397.474	955.94
397.698	954.94
397.922	939.94
398.147	929.94
398.371	946.94
398.595	956.94
398.82	963.94
399.044	985.94
399.268	975.94
399.492	994.94
399.717	1016.94
399.941	1014.94
400.165	1015.94
400.389	1033.94
400.613	999.94
400.837	1007.94
401.062	992.94
401.286	961.94
401.51	968.94
401.734	949.94
401.958	974.94
402.182	1006.94
402.406	959.94
402.63	975.94
402.854	975.94
403.078	980.94
403.302	1012.94
403.526	965.94
403.75	974.94
403.974	973.94
404.198	976.94
404.422	985.94
404.645	944.94
404.869	997.94
405.093	1012.94
405.317	1013.94
405.541	981.94
405.765	989.94
405.988	994.94
406.212	1014.94
406.436	1010.94
406.66	1027.94
406.883	1011.94
407.107	1048.94
407.331	1022.94
407.555	1048.94
407.778	1046.94
408.002	1026.94
408.226	1040.94
408.449	1063.94
408.673	1042.94
408.896	1046.94
409.12	1032.94
409.344	1020.94
409.567	1020.94
409.791	1026.94
410.014	1024.94
410.238	1008.94
410.461	1002.94
410.685	1029.94
410.908	980.94
411.132	991.94
411.355	988.94
411.578	980.94
411.802	969.94
412.025	974.94
412.249	1023.94
412.472	1003.94
412.695	980.94
412.919	998.94
413.142	1019.94
413.365	971.94
413.589	968.94
413.812	963.94
414.035	982.94
414.258	965.94
414.482	977.94
414.705	951.94
414.928	971.94
415.151	969.94
415.374	944.94
415.597	979.94
415.821	944.94
416.044	966.94
416.267	970.94
416.49	955.94
416.713	957.94
416.936	927.94
417.159	922.94
417.382	911.94
417.605	884.94
417.828	923.94
418.051	884.94
418.274	957.94
418.497	909.94
418.72	920.94
418.943	909.94
419.166	954.94
419.389	1010.94
419.611	963.94
419.834	967.94
420.057	919.94
420.28	939.94
420.503	890.94
420.726	917.94
420.948	912.94
421.171	930.94
421.394	908.94
421.617	870.94
421.839	900.94
422.062	903.94
422.285	892.94
422.507	899.94
422.73	903.94
422.953	915.94
423.175	907.94
423.398	915.94
423.621	887.94
423.843	902.94
424.066	915.94
424.288	911.94
424.511	899.94
424.733	910.94
424.956	883.94
425.178	933.94
425.401	910.94
425.623	911.94
425.846	889.94
426.068	913.94
426.291	914.94
426.513	948.94
426.735	920.94
426.958	929.94
427.18	914.94
427.402	878.94
427.625	890.94
427.847	911.94
428.069	869.94
428.292	905.94
428.514	900.94
428.736	922.94
428.958	904.94
429.181	885.94
429.403	889.94
429.625	864.94
429.847	866.94
430.069	917.94
430.292	887.94
430.514	894.94
430.736	889.94
430.958	897.94
431.18	896.94
431.402	897.94
431.624	894.94
431.846	888.94
432.068	887.94
432.29	901.94
432.512	897.94
432.734	910.94
432.956	911.94
433.178	891.94
433.4	894.94
433.622	918.94
433.844	902.94
434.066	903.94
434.287	923.94
434.509	915.94
434.731	898.94
434.953	919.94
435.175	890.94
435.397	903.94
435.618	915.94
435.84	886.94
436.062	857.94
436.284	874.94
436.505	878.94
436.727	896.94
436.949	886.94
437.17	880.94
437.392	890.94
437.614	888.94
437.835	879.94
438.057	865.94
438.278	871.94
438.5	884.94
438.721	880.94
438.943	871.94
439.165	851.94
439.386	880.94
439.608	876.94
439.829	904.94
440.05	898.94
440.272	892.94
440.493	885.94
440.715	891.94
440.936	866.94
441.158	868.94
441.379	874.94
441.6	871.94
441.822	888.94
442.043	906.94
442.264	884.94
442.486	886.94
442.707	899.94
442.928	904.94
443.149	905.94
443.371	897.94
443.592	874.94
443.813	886.94
444.034	873.94
444.255	895.94
444.476	884.94
444.698	874.94
444.919	869.94
445.14	1011.94
445.361	923.94
445.582	897.94
445.803	904.94
446.024	892.94
446.245	883.94
446.466	881.94
446.687	878.94
446.908	839.94
447.129	871.94
447.35	839.94
447.571	868.94
447.792	826.94
448.013	848.94
448.234	850.94
448.455	834.94
448.675	827.94
448.896	832.94
449.117	826.94
449.338	851.94
449.559	836.94
449.779	804.94
450	826.94
450.221	833.94
450.442	827.94
450.662	819.94
450.883	795.94
451.104	818.94
451.324	810.94
451.545	833.94
451.766	801.94
451.986	814.94
452.207	792.94
452.428	826.94
452.648	823.94
452.869	819.94
453.089	786.94
453.31	822.94
453.53	822.94
453.751	809.94
453.971	792.94
454.192	798.94
454.412	794.94
454.633	798.94
454.853	789.94
455.073	808.94
455.294	811.94
455.514	813.94
455.734	816.94
455.955	803.94
456.175	783.94
456.395	798.94
456.616	786.94
456.836	797.94
457.056	815.94
457.276	796.94
457.497	810.94
457.717	784.94
457.937	799.94
458.157	829.94
458.377	824.94
458.598	831.94
458.818	819.94
459.038	854.94
459.258	844.94
459.478	830.94
459.698	838.94
459.918	847.94
460.138	860.94
460.358	844.94
460.578	845.94
460.798	879.94
461.018	874.94
461.238	900.94
461.458	888.94
461.678	884.94
461.898	879.94
462.118	868.94
462.338	901.94
462.558	892.94
462.777	912.94
462.997	945.94
463.217	939.94
463.437	937.94
463.657	948.94
463.876	907.94
464.096	918.94
464.316	912.94
464.536	926.94
464.755	916.94
464.975	895.94
465.195	902.94
465.414	891.94
465.634	893.94
465.854	892.94
466.073	877.94
466.293	884.94
466.512	861.94
466.732	871.94
466.951	841.94
467.171	853.94
467.391	875.94
467.61	843.94
467.829	857.94
468.049	836.94
468.268	860.94
468.488	847.94
468.707	862.94
468.927	899.94
469.146	852.94
469.365	864.94
469.585	832.94
469.804	852.94
470.023	900.94
470.243	854.94
470.462	878.94
470.681	857.94
470.901	873.94
471.12	873.94
471.339	896.94
471.558	882.94
471.777	883.94
471.997	869.94
472.216	899.94
472.435	875.94
472.654	886.94
472.873	884.94
473.092	927.94
473.311	915.94
473.53	921.94
473.749	880.94
473.968	927.94
474.187	898.94
474.406	899.94
474.625	915.94
474.844	900.94
475.063	918.94
475.282	914.94
475.501	897.94
475.72	906.94
475.939	938.94
476.158	919.94
476.377	912.94
476.596	899.94
476.814	956.94
477.033	955.94
477.252	957.94
477.471	963.94
477.69	979.94
477.908	978.94
478.127	1010.94
478.346	977.94
478.564	995.94
478.783	1011.94
479.002	987.94
479.22	1033.94
479.439	1041.94
479.658	1047.94
479.876	1024.94
480.095	1036.94
480.313	1062.94
480.532	1042.94
480.751	1042.94
480.969	1037.94
481.188	1062.94
481.406	1072.94
481.624	1121.94
481.843	1064.94
482.061	1093.94
482.28	1077.94
482.498	1064.94
482.717	1087.94
482.935	1073.94
483.153	1058.94
483.372	1099.94
483.59	1070.94
483.808	1074.94
484.027	1066.94
484.245	1081.94
484.463	1077.94
484.681	1052.94
484.9	1102.94
485.118	1079.94
485.336	1076.94
485.554	1104.94
485.772	1091.94
485.99	1080.94
486.209	1086.94
486.427	1121.94
486.645	1110.94
486.863	1114.94
487.081	1104.94
487.299	1105.94
487.517	1114.94
487.735	1101.94
487.953	1124.94
488.171	1135.94
488.389	1130.94
488.607	1127.94
488.825	1113.94
489.043	1133.94
489.261	1112.94
489.479	1088.94
489.696	1122.94
489.914	1097.94
490.132	1113.94
490.35	1130.94
490.568	1108.94
490.786	1131.94
491.003	1128.94
491.221	1151.94
491.439	1124.94
491.657	1146.94
491.874	1175.94
492.092	1134.94
492.31	1141.94
492.527	1149.94
492.745	1126.94
492.963	1136.94
493.18	1153.94
493.398	1144.94
493.615	1120.94
493.833	1123.94
494.05	1164.94
494.268	1126.94
494.485	1146.94
494.703	1127.94
494.92	1148.94
495.138	1147.94
495.355	1160.94
495.573	1150.94
495.79	1154.94
496.008	1167.94
496.225	1182.94
496.442	1189.94
496.66	1193.94
496.877	1150.94
497.094	1200.94
497.312	1236.94
497.529	1204.94
497.746	1201.94
497.963	1194.94
498.181	1270.94
498.398	1253.94
498.615	1278.94
498.832	1256.94
499.049	1327.94
499.267	1323.94
499.484	1362.94
499.701	1356.94
499.918	1375.94
500.135	1391.94
500.352	1424.94
500.569	1423.94
500.786	1418.94
501.003	1404.94
501.22	1444.94
501.437	1388.94
501.654	1376.94
501.871	1360.94
502.088	1330.94
502.305	1297.94
502.522	1257.94
502.739	1289.94
502.956	1243.94
503.172	1237.94
503.389	1193.94
503.606	1181.94
503.823	1192.94
504.04	1175.94
504.256	1171.94
504.473	1170.94
504.69	1136.94
504.907	1120.94
505.123	1115.94
505.34	1121.94
505.557	1084.94
505.773	1115.94
505.99	1106.94
506.207	1073.94
506.423	1063.94
506.64	1042.94
506.856	1042.94
507.073	1067.94
507.289	1058.94
507.506	1061.94
507.722	1059.94
507.939	1022.94
508.155	1014.94
508.372	1000.94
508.588	986.94
508.805	1021.94
509.021	990.94
509.238	988.94
509.454	1003.94
509.67	952.94
509.887	997.94
510.103	980.94
510.319	981.94
510.536	986.94
510.752	953.94
510.968	973.94
511.184	977.94
511.401	939.94
511.617	966.94
511.833	970.94
512.049	964.94
512.265	952.94
512.481	964.94
512.698	959.94
512.914	953.94
513.13	950.94
513.346	957.94
513.562	941.94
513.778	962.94
513.994	939.94
514.21	964.94
514.426	945.94
514.642	936.94
514.858	931.94
515.074	950.94
515.29	939.94
515.506	939.94
515.721	964.94
515.937	959.94
516.153	991.94
516.369	948.94
516.585	962.94
516.801	1000.94
517.016	978.94
517.232	958.94
517.448	984.94
517.664	990.94
517.879	981.94
518.095	963.94
518.311	990.94
518.527	966.94
518.742	1001.94
518.958	972.94
519.173	962.94
519.389	961.94
519.605	953.94
519.82	936.94
520.036	939.94
520.251	945.94
520.467	937.94
520.682	932.94
520.898	937.94
521.113	915.94
521.329	923.94
521.544	909.94
521.76	923.94
521.975	917.94
522.19	880.94
522.406	898.94
522.621	898.94
522.836	908.94
523.052	883.94
523.267	869.94
523.482	870.94
523.698	891.94
523.913	866.94
524.128	867.94
524.343	881.94
524.559	898.94
524.774	878.94
524.989	907.94
525.204	896.94
525.419	880.94
525.634	864.94
525.849	864.94
526.064	887.94
526.28	878.94
526.495	881.94
526.71	885.94
526.925	870.94
527.14	849.94
527.355	858.94
527.57	857.94
527.785	859.94
527.999	884.94
528.214	860.94
528.429	843.94
528.644	852.94
528.859	862.94
529.074	859.94
529.289	845.94
529.503	863.94
529.718	839.94
529.933	850.94
530.148	851.94
530.363	833.94
530.577	842.94
530.792	844.94
531.007	826.94
531.221	849.94
531.436	826.94
531.651	832.94
531.865	839.94
532.08	841.94
532.295	810.94
532.509	836.94
532.724	838.94
532.938	849.94
533.153	835.94
533.367	838.94
533.582	822.94
533.796	809.94
534.011	859.94
534.225	809.94
534.44	815.94
534.654	803.94
534.868	809.94
535.083	817.94
535.297	806.94
535.511	796.94
535.726	812.94
535.94	821.94
536.154	803.94
536.369	780.94
536.583	796.94
536.797	807.94
537.011	799.94
537.225	810.94
537.44	800.94
537.654	801.94
537.868	799.94
538.082	800.94
538.296	799.94
538.51	796.94
538.724	781.94
538.938	775.94
539.153	761.94
539.367	770.94
539.581	790.94
539.795	752.94
540.009	794.94
540.222	751.94
540.436	792.94
540.65	768.94
540.864	733.94
541.078	778.94
541.292	784.94
541.506	771.94
541.72	785.94
541.934	772.94
542.147	795.94
542.361	769.94
542.575	768.94
542.789	735.94
543.002	743.94
543.216	738.94
543.43	726.94
543.644	766.94
543.857	758.94
544.071	743.94
544.285	747.94
544.498	743.94
544.712	761.94
544.925	741.94
545.139	759.94
545.352	768.94
545.566	764.94
545.779	755.94
545.993	751.94
546.206	760.94
546.42	749.94
546.633	776.94
546.847	730.94
547.06	765.94
547.274	739.94
547.487	746.94
547.7	731.94
547.914	745.94
548.127	728.94
548.34	745.94
548.554	753.94
548.767	729.94
548.98	747.94
549.193	738.94
549.407	762.94
549.62	728.94
549.833	741.94
550.046	734.94
550.259	711.94
550.473	728.94
550.686	743.94
550.899	753.94
551.112	723.94
551.325	732.94
551.538	729.94
551.751	731.94
551.964	729.94
552.177	751.94
552.39	710.94
552.603	711.94
552.816	732.94
553.029	710.94
553.242	705.94
553.455	720.94
553.667	719.94
553.88	724.94
554.093	702.94
554.306	692.94
554.519	717.94
554.732	697.94
554.944	706.94
555.157	679.94
555.37	700.94
555.583	684.94
555.795	660.94
556.008	650.94
556.221	677.94
556.433	680.94
556.646	679.94
556.859	659.94
557.071	690.94
557.284	658.94
557.496	660.94
557.709	670.94
557.921	646.94
558.134	664.94
558.346	648.94
558.559	679.94
558.771	659.94
558.984	649.94
559.196	664.94
559.409	651.94
559.621	635.94
559.833	644.94
560.046	639.94
560.258	683.94
560.47	626.94
560.683	636.94
560.895	639.94
561.107	631.94
561.32	616.94
561.532	630.94
561.744	643.94
561.956	603.94
562.168	617.94
562.381	637.94
562.593	627.94
562.805	645.94
563.017	624.94
563.229	624.94
563.441	651.94
563.653	614.94
563.865	642.94
564.077	640.94
564.289	645.94
564.501	648.94
564.713	645.94
564.925	639.94
565.137	673.94
565.349	639.94
565.561	662.94
565.773	648.94
565.985	646.94
566.197	657.94
566.408	667.94
566.62	664.94
566.832	689.94
567.044	680.94
567.255	671.94
567.467	666.94
567.679	676.94
567.891	690.94
568.102	683.94
568.314	642.94
568.526	646.94
568.737	648.94
568.949	632.94
569.161	651.94
569.372	632.94
569.584	606.94
569.795	590.94
570.007	602.94
570.218	587.94
570.43	576.94
570.641	576.94
570.853	582.94
571.064	580.94
571.276	565.94
571.487	582.94
571.698	567.94
571.91	580.94
572.121	554.94
572.333	531.94
572.544	528.94
572.755	558.94
572.966	553.94
573.178	553.94
573.389	514.94
573.6	498.94
573.811	519.94
574.023	533.94
574.234	529.94
574.445	509.94
574.656	530.94
574.867	483.94
575.078	508.94
575.289	508.94
575.501	528.94
575.712	505.94
575.923	499.94
576.134	486.94
576.345	494.94
576.556	513.94
576.767	492.94
576.978	500.94
577.188	474.94
577.399	524.94
577.61	508.94
577.821	491.94
578.032	476.94
578.243	504.94
578.454	466.94
578.665	467.94
578.875	482.94
579.086	465.94
579.297	484.94
579.508	466.94
579.718	461.94
579.929	481.94
580.14	452.94
580.35	445.94
580.561	470.94
580.772	459.94
580.982	483.94
581.193	463.94
581.403	455.94
581.614	458.94
581.825	460.94
582.035	438.94
582.246	454.94
582.456	444.94
582.667	456.94
582.877	444.94
583.087	445.94
583.298	438.94
583.508	425.94
583.719	437.94
583.929	458.94
584.139	460.94
584.35	439.94
584.56	419.94
584.77	426.94
584.981	432.94
585.191	427.94
585.401	419.94
585.611	433.94
585.821	417.94
586.032	437.94
586.242	440.94
586.452	449.94
586.662	442.94
586.872	428.94
587.082	432.94
587.292	417.94
587.502	422.94
587.713	423.94
587.923	401.94
588.133	414.94
588.343	442.94
588.553	428.94
588.762	406.94
588.972	416.94
589.182	426.94
589.392	429.94
589.602	410.94
589.812	441.94
590.022	422.94
590.232	414.94
590.441	418.94
590.651	408.94
590.861	438.94
591.071	412.94
591.281	404.94
591.49	417.94
591.7	418.94
591.91	415.94
592.119	399.94
592.329	400.94
592.539	398.94
592.748	396.94
592.958	404.94
593.167	412.94
593.377	400.94
593.587	422.94
593.796	414.94
594.006	413.94
594.215	407.94
594.424	391.94
594.634	408.94
594.843	404.94
595.053	401.94
595.262	404.94
595.472	401.94
595.681	387.94
595.89	403.94
596.1	377.94
596.309	372.94
596.518	393.94
596.727	388.94
596.937	395.94
597.146	378.94
597.355	361.94
597.564	368.94
597.774	370.94
597.983	367.94
598.192	374.94
598.401	393.94
598.61	383.94
598.819	381.94
599.028	354.94
599.237	352.94
599.446	355.94
599.655	364.94
599.864	377.94
600.073	337.94
600.282	330.94
600.491	355.94
600.7	354.94
600.909	337.94
601.118	366.94
601.327	339.94
601.536	359.94
601.745	338.94
601.953	347.94
602.162	338.94
602.371	338.94
602.58	342.94
602.789	358.94
602.997	342.94
603.206	346.94
603.415	348.94
603.623	342.94
603.832	351.94
604.041	338.94
604.249	348.94
604.458	331.94
604.666	325.94
604.875	336.94
605.084	348.94
605.292	319.94
605.501	344.94
605.709	342.94
605.918	343.94
606.126	340.94
606.334	325.94
606.543	337.94
606.751	328.94
606.96	316.94
607.168	331.94
607.376	330.94
607.585	341.94
607.793	329.94
608.001	345.94
608.21	327.94
608.418	323.94
608.626	331.94
608.834	325.94
609.043	307.94
609.251	322.94
609.459	320.94
609.667	327.94
609.875	303.94
610.083	323.94
610.291	328.94
610.499	322.94
610.707	320.94
610.916	297.94
611.124	320.94
611.332	315.94
611.54	313.94
611.748	338.94
611.955	315.94
612.163	303.94
612.371	299.94
612.579	302.94
612.787	300.94
612.995	316.94
613.203	329.94
613.411	316.94
613.618	311.94
613.826	308.94
614.034	310.94
614.242	297.94
614.449	307.94
614.657	299.94
614.865	318.94
615.072	321.94
615.28	311.94
615.488	283.94
615.695	278.94
615.903	301.94
616.111	300.94
616.318	310.94
616.526	308.94
616.733	288.94
616.941	316.94
617.148	316.94
617.356	298.94
617.563	289.94
617.771	297.94
617.978	306.94
618.185	326.94
618.393	316.94
618.6	291.94
618.807	291.94
619.015	288.94
619.222	296.94
619.429	297.94
619.637	290.94
619.844	302.94
620.051	271.94
620.258	282.94
620.466	252.94
620.673	287.94
620.88	267.94
621.087	277.94
621.294	279.94
621.501	282.94
621.708	276.94
621.915	297.94
622.122	277.94
622.329	282.94
622.536	277.94
622.743	290.94
622.95	270.94
623.157	280.94
623.364	275.94
623.571	276.94
623.778	282.94
623.985	283.94
624.192	280.94
624.399	258.94
624.606	274.94
624.812	274.94
625.019	280.94
625.226	261.94
625.433	286.94
625.639	276.94
625.846	280.94
626.053	273.94
626.259	260.94
626.466	265.94
626.673	279.94
626.879	265.94
627.086	241.94
627.293	255.94
627.499	247.94
627.706	265.94
627.912	258.94
628.119	259.94
628.325	263.94
628.532	245.94
628.738	243.94
628.945	249.94
629.151	245.94
629.357	246.94
629.564	284.94
629.77	253.94
629.976	258.94
630.183	255.94
630.389	236.94
630.595	257.94
630.802	251.94
631.008	266.94
631.214	231.94
631.42	244.94
631.627	247.94
631.833	234.94
632.039	244.94
632.245	233.94
632.451	224.94
632.657	248.94
632.863	226.94
633.069	247.94
633.275	230.94
633.481	237.94
633.688	238.94
633.893	252.94
634.099	230.94
634.305	217.94
634.511	250.94
634.717	241.94
634.923	232.94
635.129	236.94
635.335	219.94
635.541	242.94
635.747	229.94
635.952	238.94
636.158	246.94
636.364	225.94
636.57	218.94
636.775	237.94
636.981	226.94
637.187	226.94
637.392	237.94
637.598	232.94
637.804	218.94
638.009	219.94
638.215	224.94
638.421	231.94
638.626	226.94
638.832	228.94
639.037	216.94
639.243	225.94
639.448	224.94
639.654	218.94
639.859	228.94
640.065	218.94
640.27	226.94
640.475	238.94
640.681	224.94
640.886	227.94
641.091	226.94
641.297	229.94
641.502	220.94
641.707	209.94
641.913	238.94
642.118	230.94
642.323	224.94
642.528	238.94
642.733	222.94
642.939	222.94
643.144	203.94
643.349	217.94
643.554	223.94
643.759	219.94
643.964	216.94
644.169	223.94
644.374	234.94
644.579	220.94
644.784	223.94
644.989	241.94
645.194	226.94
645.399	227.94
645.604	226.94
645.809	219.94
646.014	223.94
646.219	225.94
646.423	204.94
646.628	215.94
646.833	229.94
647.038	225.94
647.243	223.94
647.447	225.94
647.652	226.94
647.857	216.94
648.062	228.94
648.266	217.94
648.471	222.94
648.676	231.94
648.88	218.94
649.085	225.94
649.289	234.94
649.494	216.94
649.698	217.94
649.903	215.94
650.107	222.94
650.312	215.94
650.516	222.94
650.721	244.94
650.925	224.94
651.13	199.94
651.334	220.94
651.539	215.94
651.743	212.94
651.947	222.94
652.152	198.94
652.356	203.94
652.56	204.94
652.764	198.94
652.969	220.94
653.173	211.94
653.377	198.94
653.581	207.94
653.785	181.94
653.99	200.94
654.194	202.94
654.398	204.94
654.602	203.94
654.806	191.94
655.01	199.94
655.214	199.94
655.418	196.94
655.622	188.94
655.826	204.94
656.03	186.94
656.234	206.94
656.438	207.94
656.642	194.94
656.846	196.94
657.049	187.94
657.253	174.94
657.457	183.94
657.661	174.94
657.865	151.94
658.068	160.94
658.272	147.94
658.476	137.94
658.68	135.94
658.883	131.94
659.087	124.94
659.291	114.94
659.494	119.94
659.698	122.94
659.901	112.94
660.105	125.94
660.309	123.94
660.512	114.94
660.716	102.94
660.919	107.94
661.123	113.94
661.326	110.94
661.53	81.94
661.733	91.94
661.936	106.94
662.14	105.94
662.343	111.94
662.546	94.94
662.75	98.94
662.953	84.94
663.156	94.94
663.36	98.94
663.563	86.94
663.766	88.94
663.969	80.94
664.173	95.94
664.376	89.94
664.579	82.94
664.782	98.94
664.985	85.94
665.188	92.94
665.391	78.94
665.594	80.94
665.797	96.94
666	78.94
666.203	78.94
666.406	62.94
666.609	81.94
666.812	72.94
667.015	101.94
667.218	82.94
667.421	87.94
667.624	66.94
667.827	73.94
668.03	87.94
668.232	77.94
668.435	82.94
668.638	87.94
668.841	86.94
669.043	84.94
669.246	77.94
669.449	88.94
669.651	91.94
669.854	83.94
670.057	81.94
670.259	81.94
670.462	75.94
670.665	87.94
670.867	79.94
671.07	74.94
671.272	96.94
671.475	92.94
671.677	77.94
671.88	71.94
672.082	87.94
672.284	83.94
672.487	62.94
672.689	64.94
672.892	76.94
