Data from Fe(NO3)3@0.0125M.TitratingCurve.Agarose3%dH2O.NegLispCup.LampEnergy10.LIBS07252019_HRD10591_16-59-15-342.txt Node
Date: Thu Jul 25 16:59:15 EDT 2019
User: cochatt
Spectrometer: HR+D1059
Trigger mode: 1
Integration Time (sec): 1.000000E-1
Scans to average: 1
Electric dark correction enabled: true
Nonlinearity correction enabled: false
Boxcar width: 0
XAxis mode: Wavelengths
Number of Pixels in Spectrum: 2048
>>>>>Begin Spectral Data<<<<<
223.165	-20.62
223.4	-20.62
223.635	-20.62
223.869	-21.62
224.104	-18.62
224.338	-9.62
224.573	-13.62
224.808	14.38
225.042	-21.62
225.277	5.38
225.511	-13.62
225.746	-2.62
225.98	9.38
226.215	16.38
226.449	4.38
226.683	21.38
226.918	20.38
227.152	30.38
227.387	20.38
227.621	40.38
227.856	35.38
228.09	40.38
228.324	59.38
228.559	60.38
228.793	67.38
229.027	82.38
229.262	80.38
229.496	100.38
229.73	99.38
229.964	110.38
230.199	93.38
230.433	104.38
230.667	112.38
230.901	117.38
231.136	119.38
231.37	113.38
231.604	104.38
231.838	127.38
232.072	117.38
232.306	120.38
232.541	112.38
232.775	119.38
233.009	128.38
233.243	124.38
233.477	113.38
233.711	114.38
233.945	117.38
234.179	128.38
234.413	123.38
234.647	137.38
234.881	131.38
235.115	122.38
235.349	128.38
235.583	120.38
235.817	126.38
236.051	117.38
236.285	113.38
236.519	121.38
236.753	132.38
236.987	122.38
237.221	125.38
237.455	120.38
237.689	129.38
237.922	129.38
238.156	136.38
238.39	124.38
238.624	142.38
238.858	132.38
239.091	153.38
239.325	129.38
239.559	146.38
239.793	129.38
240.027	148.38
240.26	140.38
240.494	164.38
240.728	142.38
240.961	142.38
241.195	153.38
241.429	131.38
241.662	146.38
241.896	143.38
242.13	142.38
242.363	160.38
242.597	140.38
242.83	144.38
243.064	153.38
243.298	160.38
243.531	156.38
243.765	153.38
243.998	158.38
244.232	153.38
244.465	155.38
244.699	148.38
244.932	144.38
245.166	167.38
245.399	153.38
245.633	152.38
245.866	157.38
246.099	166.38
246.333	159.38
246.566	169.38
246.8	182.38
247.033	176.38
247.266	166.38
247.5	168.38
247.733	182.38
247.966	166.38
248.2	164.38
248.433	185.38
248.666	168.38
248.899	186.38
249.133	182.38
249.366	184.38
249.599	182.38
249.832	184.38
250.066	188.38
250.299	197.38
250.532	185.38
250.765	202.38
250.998	185.38
251.231	194.38
251.465	192.38
251.698	193.38
251.931	179.38
252.164	186.38
252.397	189.38
252.63	201.38
252.863	199.38
253.096	212.38
253.329	192.38
253.562	186.38
253.795	194.38
254.028	211.38
254.261	207.38
254.494	220.38
254.727	209.38
254.96	210.38
255.193	212.38
255.426	208.38
255.659	220.38
255.892	213.38
256.124	211.38
256.357	218.38
256.59	223.38
256.823	206.38
257.056	195.38
257.289	228.38
257.521	230.38
257.754	222.38
257.987	225.38
258.22	217.38
258.452	222.38
258.685	229.38
258.918	235.38
259.151	229.38
259.383	232.38
259.616	225.38
259.849	222.38
260.081	243.38
260.314	227.38
260.547	231.38
260.779	242.38
261.012	236.38
261.244	255.38
261.477	265.38
261.71	251.38
261.942	229.38
262.175	247.38
262.407	231.38
262.64	256.38
262.872	237.38
263.105	262.38
263.337	271.38
263.57	256.38
263.802	256.38
264.035	254.38
264.267	251.38
264.499	253.38
264.732	241.38
264.964	262.38
265.197	256.38
265.429	281.38
265.661	260.38
265.894	259.38
266.126	276.38
266.358	257.38
266.591	285.38
266.823	264.38
267.055	285.38
267.287	284.38
267.52	261.38
267.752	269.38
267.984	280.38
268.216	267.38
268.448	258.38
268.681	283.38
268.913	286.38
269.145	298.38
269.377	285.38
269.609	288.38
269.841	301.38
270.073	280.38
270.306	270.38
270.538	285.38
270.77	280.38
271.002	300.38
271.234	270.38
271.466	313.38
271.698	289.38
271.93	297.38
272.162	292.38
272.394	297.38
272.626	312.38
272.858	284.38
273.09	297.38
273.322	317.38
273.553	316.38
273.785	317.38
274.017	320.38
274.249	310.38
274.481	298.38
274.713	309.38
274.945	341.38
275.176	338.38
275.408	344.38
275.64	326.38
275.872	315.38
276.104	315.38
276.335	312.38
276.567	341.38
276.799	327.38
277.031	329.38
277.262	332.38
277.494	317.38
277.726	342.38
277.957	337.38
278.189	346.38
278.421	335.38
278.652	326.38
278.884	337.38
279.115	343.38
279.347	341.38
279.579	328.38
279.81	328.38
280.042	329.38
280.273	341.38
280.505	348.38
280.736	351.38
280.968	338.38
281.199	359.38
281.431	364.38
281.662	358.38
281.894	360.38
282.125	350.38
282.356	381.38
282.588	379.38
282.819	352.38
283.051	364.38
283.282	344.38
283.513	362.38
283.745	365.38
283.976	370.38
284.207	372.38
284.439	370.38
284.67	368.38
284.901	388.38
285.132	378.38
285.364	381.38
285.595	386.38
285.826	392.38
286.057	373.38
286.288	380.38
286.52	385.38
286.751	384.38
286.982	388.38
287.213	389.38
287.444	393.38
287.675	405.38
287.906	388.38
288.138	368.38
288.369	406.38
288.6	412.38
288.831	371.38
289.062	381.38
289.293	402.38
289.524	415.38
289.755	406.38
289.986	410.38
290.217	408.38
290.448	414.38
290.679	409.38
290.91	406.38
291.141	409.38
291.371	404.38
291.602	425.38
291.833	388.38
292.064	408.38
292.295	411.38
292.526	404.38
292.757	406.38
292.987	410.38
293.218	410.38
293.449	416.38
293.68	436.38
293.91	427.38
294.141	392.38
294.372	409.38
294.603	432.38
294.833	410.38
295.064	417.38
295.295	420.38
295.525	436.38
295.756	433.38
295.987	415.38
296.217	436.38
296.448	441.38
296.679	451.38
296.909	429.38
297.14	441.38
297.37	442.38
297.601	452.38
297.831	433.38
298.062	432.38
298.292	442.38
298.523	442.38
298.753	468.38
298.984	436.38
299.214	454.38
299.445	467.38
299.675	432.38
299.905	456.38
300.136	464.38
300.366	477.38
300.597	476.38
300.827	461.38
301.057	458.38
301.288	438.38
301.518	456.38
301.748	468.38
301.979	471.38
302.209	485.38
302.439	482.38
302.669	496.38
302.9	470.38
303.13	469.38
303.36	485.38
303.59	468.38
303.82	487.38
304.051	494.38
304.281	475.38
304.511	479.38
304.741	479.38
304.971	483.38
305.201	495.38
305.431	472.38
305.661	485.38
305.891	488.38
306.121	493.38
306.352	510.38
306.582	480.38
306.812	469.38
307.042	489.38
307.272	501.38
307.502	489.38
307.731	470.38
307.961	474.38
308.191	480.38
308.421	482.38
308.651	498.38
308.881	489.38
309.111	495.38
309.341	483.38
309.571	484.38
309.8	506.38
310.03	470.38
310.26	509.38
310.49	490.38
310.72	504.38
310.949	485.38
311.179	550.38
311.409	524.38
311.639	524.38
311.868	517.38
312.098	528.38
312.328	522.38
312.557	534.38
312.787	528.38
313.017	526.38
313.246	516.38
313.476	529.38
313.706	539.38
313.935	536.38
314.165	538.38
314.394	552.38
314.624	549.38
314.853	548.38
315.083	539.38
315.312	561.38
315.542	535.38
315.771	532.38
316.001	548.38
316.23	548.38
316.46	540.38
316.689	548.38
316.919	538.38
317.148	573.38
317.377	558.38
317.607	568.38
317.836	576.38
318.065	543.38
318.295	532.38
318.524	561.38
318.753	577.38
318.983	575.38
319.212	557.38
319.441	578.38
319.67	576.38
319.9	572.38
320.129	560.38
320.358	592.38
320.587	586.38
320.816	588.38
321.046	573.38
321.275	595.38
321.504	570.38
321.733	563.38
321.962	558.38
322.191	572.38
322.42	588.38
322.649	594.38
322.878	572.38
323.108	574.38
323.337	587.38
323.566	605.38
323.795	599.38
324.024	609.38
324.253	583.38
324.482	601.38
324.71	588.38
324.939	630.38
325.168	586.38
325.397	589.38
325.626	633.38
325.855	612.38
326.084	626.38
326.313	619.38
326.542	621.38
326.77	625.38
326.999	596.38
327.228	614.38
327.457	609.38
327.686	621.38
327.914	611.38
328.143	619.38
328.372	626.38
328.6	603.38
328.829	596.38
329.058	608.38
329.287	638.38
329.515	612.38
329.744	618.38
329.972	633.38
330.201	609.38
330.43	631.38
330.658	636.38
330.887	635.38
331.115	628.38
331.344	610.38
331.572	624.38
331.801	621.38
332.03	616.38
332.258	614.38
332.486	642.38
332.715	639.38
332.943	637.38
333.172	648.38
333.4	637.38
333.629	659.38
333.857	648.38
334.085	654.38
334.314	657.38
334.542	652.38
334.771	690.38
334.999	673.38
335.227	678.38
335.455	679.38
335.684	684.38
335.912	704.38
336.14	695.38
336.369	690.38
336.597	684.38
336.825	680.38
337.053	695.38
337.281	684.38
337.51	677.38
337.738	666.38
337.966	669.38
338.194	666.38
338.422	662.38
338.65	655.38
338.878	656.38
339.106	656.38
339.334	669.38
339.562	670.38
339.79	643.38
340.018	674.38
340.246	657.38
340.474	664.38
340.702	670.38
340.93	665.38
341.158	657.38
341.386	657.38
341.614	679.38
341.842	654.38
342.07	647.38
342.298	666.38
342.526	680.38
342.754	681.38
342.981	682.38
343.209	658.38
343.437	680.38
343.665	677.38
343.893	664.38
344.12	665.38
344.348	669.38
344.576	700.38
344.804	675.38
345.031	686.38
345.259	675.38
345.487	680.38
345.714	678.38
345.942	667.38
346.17	664.38
346.397	681.38
346.625	665.38
346.853	677.38
347.08	658.38
347.308	655.38
347.535	665.38
347.763	674.38
347.99	642.38
348.218	635.38
348.445	653.38
348.673	657.38
348.9	661.38
349.128	650.38
349.355	665.38
349.583	647.38
349.81	654.38
350.037	658.38
350.265	646.38
350.492	625.38
350.72	655.38
350.947	648.38
351.174	641.38
351.402	628.38
351.629	651.38
351.856	630.38
352.083	645.38
352.311	647.38
352.538	637.38
352.765	668.38
352.992	640.38
353.22	643.38
353.447	670.38
353.674	621.38
353.901	619.38
354.128	639.38
354.355	646.38
354.583	633.38
354.81	651.38
355.037	643.38
355.264	644.38
355.491	656.38
355.718	635.38
355.945	650.38
356.172	647.38
356.399	652.38
356.626	644.38
356.853	684.38
357.08	660.38
357.307	667.38
357.534	630.38
357.761	654.38
357.988	648.38
358.215	655.38
358.441	633.38
358.668	662.38
358.895	662.38
359.122	628.38
359.349	639.38
359.576	648.38
359.802	642.38
360.029	646.38
360.256	669.38
360.483	642.38
360.709	642.38
360.936	663.38
361.163	664.38
361.39	643.38
361.616	636.38
361.843	667.38
362.07	660.38
362.296	667.38
362.523	674.38
362.749	677.38
362.976	652.38
363.203	665.38
363.429	657.38
363.656	684.38
363.882	681.38
364.109	660.38
364.335	678.38
364.562	686.38
364.788	674.38
365.015	672.38
365.241	669.38
365.468	672.38
365.694	661.38
365.92	665.38
366.147	670.38
366.373	675.38
366.599	674.38
366.826	685.38
367.052	674.38
367.278	683.38
367.505	684.38
367.731	681.38
367.957	691.38
368.184	663.38
368.41	703.38
368.636	681.38
368.862	678.38
369.089	684.38
369.315	672.38
369.541	675.38
369.767	704.38
369.993	682.38
370.219	689.38
370.445	694.38
370.672	696.38
370.898	704.38
371.124	712.38
371.35	702.38
371.576	696.38
371.802	698.38
372.028	678.38
372.254	702.38
372.48	695.38
372.706	713.38
372.932	712.38
373.158	731.38
373.384	737.38
373.61	722.38
373.835	732.38
374.061	741.38
374.287	754.38
374.513	717.38
374.739	723.38
374.965	714.38
375.191	734.38
375.416	729.38
375.642	711.38
375.868	725.38
376.094	705.38
376.319	722.38
376.545	725.38
376.771	731.38
376.997	705.38
377.222	720.38
377.448	697.38
377.674	702.38
377.899	693.38
378.125	680.38
378.35	716.38
378.576	681.38
378.802	705.38
379.027	724.38
379.253	719.38
379.478	701.38
379.704	732.38
379.929	694.38
380.155	711.38
380.38	724.38
380.606	711.38
380.831	724.38
381.057	704.38
381.282	724.38
381.507	721.38
381.733	704.38
381.958	717.38
382.184	729.38
382.409	722.38
382.634	744.38
382.86	723.38
383.085	705.38
383.31	742.38
383.535	756.38
383.761	720.38
383.986	757.38
384.211	734.38
384.436	735.38
384.662	744.38
384.887	744.38
385.112	737.38
385.337	770.38
385.562	758.38
385.787	772.38
386.013	777.38
386.238	797.38
386.463	778.38
386.688	786.38
386.913	772.38
387.138	777.38
387.363	775.38
387.588	780.38
387.813	792.38
388.038	791.38
388.263	802.38
388.488	772.38
388.713	755.38
388.938	786.38
389.163	786.38
389.387	775.38
389.612	792.38
389.837	802.38
390.062	778.38
390.287	785.38
390.512	801.38
390.736	776.38
390.961	788.38
391.186	786.38
391.411	780.38
391.636	804.38
391.86	814.38
392.085	811.38
392.31	795.38
392.534	785.38
392.759	788.38
392.984	804.38
393.208	809.38
393.433	792.38
393.658	796.38
393.882	805.38
394.107	810.38
394.331	806.38
394.556	821.38
394.78	805.38
395.005	810.38
395.229	788.38
395.454	820.38
395.678	817.38
395.903	794.38
396.127	795.38
396.352	839.38
396.576	801.38
396.801	819.38
397.025	808.38
397.249	804.38
397.474	808.38
397.698	810.38
397.922	829.38
398.147	849.38
398.371	836.38
398.595	852.38
398.82	859.38
399.044	864.38
399.268	859.38
399.492	902.38
399.717	910.38
399.941	923.38
400.165	892.38
400.389	904.38
400.613	888.38
400.837	897.38
401.062	909.38
401.286	856.38
401.51	870.38
401.734	870.38
401.958	868.38
402.182	887.38
402.406	857.38
402.63	858.38
402.854	887.38
403.078	877.38
403.302	864.38
403.526	866.38
403.75	869.38
403.974	848.38
404.198	858.38
404.422	862.38
404.645	882.38
404.869	893.38
405.093	899.38
405.317	890.38
405.541	881.38
405.765	911.38
405.988	884.38
406.212	888.38
406.436	925.38
406.66	909.38
406.883	905.38
407.107	928.38
407.331	915.38
407.555	916.38
407.778	924.38
408.002	967.38
408.226	937.38
408.449	945.38
408.673	920.38
408.896	951.38
409.12	902.38
409.344	926.38
409.567	902.38
409.791	894.38
410.014	899.38
410.238	918.38
410.461	919.38
410.685	920.38
410.908	910.38
411.132	894.38
411.355	886.38
411.578	887.38
411.802	884.38
412.025	898.38
412.249	900.38
412.472	892.38
412.695	899.38
412.919	902.38
413.142	884.38
413.365	906.38
413.589	894.38
413.812	869.38
414.035	882.38
414.258	867.38
414.482	882.38
414.705	866.38
414.928	846.38
415.151	877.38
415.374	824.38
415.597	862.38
415.821	866.38
416.044	839.38
416.267	853.38
416.49	838.38
416.713	858.38
416.936	833.38
417.159	853.38
417.382	825.38
417.605	807.38
417.828	850.38
418.051	846.38
418.274	842.38
418.497	802.38
418.72	849.38
418.943	825.38
419.166	873.38
419.389	900.38
419.611	882.38
419.834	869.38
420.057	829.38
420.28	844.38
420.503	833.38
420.726	829.38
420.948	809.38
421.171	835.38
421.394	837.38
421.617	808.38
421.839	821.38
422.062	827.38
422.285	818.38
422.507	821.38
422.73	829.38
422.953	817.38
423.175	826.38
423.398	829.38
423.621	823.38
423.843	816.38
424.066	820.38
424.288	837.38
424.511	826.38
424.733	828.38
424.956	782.38
425.178	804.38
425.401	820.38
425.623	828.38
425.846	809.38
426.068	824.38
426.291	801.38
426.513	805.38
426.735	799.38
426.958	834.38
427.18	808.38
427.402	817.38
427.625	821.38
427.847	811.38
428.069	832.38
428.292	821.38
428.514	808.38
428.736	822.38
428.958	830.38
429.181	809.38
429.403	795.38
429.625	799.38
429.847	794.38
430.069	797.38
430.292	818.38
430.514	814.38
430.736	813.38
430.958	822.38
431.18	809.38
431.402	827.38
431.624	813.38
431.846	818.38
432.068	790.38
432.29	821.38
432.512	794.38
432.734	828.38
432.956	817.38
433.178	806.38
433.4	841.38
433.622	816.38
433.844	814.38
434.066	800.38
434.287	797.38
434.509	819.38
434.731	808.38
434.953	805.38
435.175	825.38
435.397	821.38
435.618	809.38
435.84	821.38
436.062	813.38
436.284	805.38
436.505	803.38
436.727	804.38
436.949	809.38
437.17	809.38
437.392	772.38
437.614	782.38
437.835	782.38
438.057	799.38
438.278	800.38
438.5	773.38
438.721	774.38
438.943	800.38
439.165	738.38
439.386	792.38
439.608	799.38
439.829	793.38
440.05	785.38
440.272	789.38
440.493	805.38
440.715	797.38
440.936	790.38
441.158	812.38
441.379	803.38
441.6	818.38
441.822	822.38
442.043	799.38
442.264	796.38
442.486	813.38
442.707	827.38
442.928	798.38
443.149	799.38
443.371	826.38
443.592	807.38
443.813	797.38
444.034	795.38
444.255	806.38
444.476	793.38
444.698	780.38
444.919	824.38
445.14	934.38
445.361	861.38
445.582	814.38
445.803	784.38
446.024	796.38
446.245	774.38
446.466	810.38
446.687	774.38
446.908	800.38
447.129	773.38
447.35	778.38
447.571	763.38
447.792	743.38
448.013	776.38
448.234	754.38
448.455	757.38
448.675	745.38
448.896	748.38
449.117	757.38
449.338	760.38
449.559	753.38
449.779	741.38
450	738.38
450.221	755.38
450.442	742.38
450.662	727.38
450.883	733.38
451.104	744.38
451.324	742.38
451.545	743.38
451.766	765.38
451.986	736.38
452.207	759.38
452.428	759.38
452.648	739.38
452.869	733.38
453.089	724.38
453.31	730.38
453.53	726.38
453.751	731.38
453.971	722.38
454.192	723.38
454.412	731.38
454.633	732.38
454.853	724.38
455.073	725.38
455.294	746.38
455.514	726.38
455.734	733.38
455.955	718.38
456.175	733.38
456.395	722.38
456.616	698.38
456.836	734.38
457.056	753.38
457.276	722.38
457.497	731.38
457.717	748.38
457.937	716.38
458.157	738.38
458.377	730.38
458.598	766.38
458.818	762.38
459.038	730.38
459.258	777.38
459.478	738.38
459.698	740.38
459.918	781.38
460.138	809.38
460.358	810.38
460.578	770.38
460.798	792.38
461.018	789.38
461.238	790.38
461.458	834.38
461.678	809.38
461.898	783.38
462.118	818.38
462.338	829.38
462.558	850.38
462.777	836.38
462.997	839.38
463.217	853.38
463.437	884.38
463.657	845.38
463.876	837.38
464.096	851.38
464.316	845.38
464.536	837.38
464.755	836.38
464.975	843.38
465.195	804.38
465.414	820.38
465.634	822.38
465.854	826.38
466.073	809.38
466.293	778.38
466.512	777.38
466.732	788.38
466.951	764.38
467.171	784.38
467.391	774.38
467.61	790.38
467.829	792.38
468.049	783.38
468.268	763.38
468.488	738.38
468.707	782.38
468.927	788.38
469.146	807.38
469.365	786.38
469.585	797.38
469.804	777.38
470.023	803.38
470.243	785.38
470.462	786.38
470.681	789.38
470.901	803.38
471.12	778.38
471.339	793.38
471.558	806.38
471.777	787.38
471.997	822.38
472.216	793.38
472.435	808.38
472.654	793.38
472.873	822.38
473.092	786.38
473.311	796.38
473.53	794.38
473.749	811.38
473.968	817.38
474.187	812.38
474.406	805.38
474.625	820.38
474.844	807.38
475.063	812.38
475.282	833.38
475.501	824.38
475.72	847.38
475.939	850.38
476.158	849.38
476.377	872.38
476.596	849.38
476.814	849.38
477.033	866.38
477.252	871.38
477.471	888.38
477.69	887.38
477.908	887.38
478.127	931.38
478.346	878.38
478.564	872.38
478.783	895.38
479.002	923.38
479.22	931.38
479.439	936.38
479.658	964.38
479.876	952.38
480.095	960.38
480.313	926.38
480.532	936.38
480.751	933.38
480.969	920.38
481.188	948.38
481.406	939.38
481.624	940.38
481.843	947.38
482.061	948.38
482.28	964.38
482.498	958.38
482.717	933.38
482.935	934.38
483.153	947.38
483.372	971.38
483.59	946.38
483.808	960.38
484.027	961.38
484.245	968.38
484.463	939.38
484.681	972.38
484.9	942.38
485.118	974.38
485.336	955.38
485.554	988.38
485.772	965.38
485.99	937.38
486.209	957.38
486.427	969.38
486.645	978.38
486.863	974.38
487.081	997.38
487.299	966.38
487.517	985.38
487.735	1018.38
487.953	989.38
488.171	994.38
488.389	996.38
488.607	1000.38
488.825	983.38
489.043	974.38
489.261	978.38
489.479	973.38
489.696	985.38
489.914	979.38
490.132	993.38
490.35	981.38
490.568	987.38
490.786	987.38
491.003	982.38
491.221	1012.38
491.439	1035.38
491.657	996.38
491.874	1012.38
492.092	1006.38
492.31	1031.38
492.527	1016.38
492.745	1013.38
492.963	1004.38
493.18	1032.38
493.398	1003.38
493.615	1012.38
493.833	1021.38
494.05	1002.38
494.268	1034.38
494.485	1026.38
494.703	1033.38
494.92	1051.38
495.138	1011.38
495.355	1033.38
495.573	1025.38
495.79	997.38
496.008	1012.38
496.225	1049.38
496.442	1063.38
496.66	1085.38
496.877	1064.38
497.094	1073.38
497.312	1115.38
497.529	1093.38
497.746	1096.38
497.963	1103.38
498.181	1113.38
498.398	1141.38
498.615	1178.38
498.832	1171.38
499.049	1186.38
499.267	1195.38
499.484	1223.38
499.701	1238.38
499.918	1239.38
500.135	1282.38
500.352	1340.38
500.569	1312.38
500.786	1306.38
501.003	1301.38
501.22	1311.38
501.437	1240.38
501.654	1236.38
501.871	1224.38
502.088	1221.38
502.305	1189.38
502.522	1123.38
502.739	1168.38
502.956	1121.38
503.172	1108.38
503.389	1097.38
503.606	1115.38
503.823	1080.38
504.04	1058.38
504.256	1089.38
504.473	1061.38
504.69	1058.38
504.907	1034.38
505.123	1023.38
505.34	1007.38
505.557	1029.38
505.773	1011.38
505.99	1018.38
506.207	973.38
506.423	986.38
506.64	954.38
506.856	949.38
507.073	960.38
507.289	938.38
507.506	982.38
507.722	931.38
507.939	912.38
508.155	924.38
508.372	910.38
508.588	919.38
508.805	926.38
509.021	916.38
509.238	900.38
509.454	874.38
509.67	869.38
509.887	898.38
510.103	873.38
510.319	868.38
510.536	896.38
510.752	861.38
510.968	880.38
511.184	874.38
511.401	882.38
511.617	869.38
511.833	894.38
512.049	887.38
512.265	882.38
512.481	872.38
512.698	849.38
512.914	862.38
513.13	872.38
513.346	868.38
513.562	894.38
513.778	883.38
513.994	874.38
514.21	878.38
514.426	847.38
514.642	874.38
514.858	889.38
515.074	871.38
515.29	877.38
515.506	867.38
515.721	872.38
515.937	871.38
516.153	877.38
516.369	896.38
516.585	857.38
516.801	890.38
517.016	881.38
517.232	909.38
517.448	915.38
517.664	884.38
517.879	900.38
518.095	897.38
518.311	913.38
518.527	895.38
518.742	900.38
518.958	896.38
519.173	869.38
519.389	879.38
519.605	861.38
519.82	852.38
520.036	860.38
520.251	856.38
520.467	862.38
520.682	866.38
520.898	833.38
521.113	834.38
521.329	833.38
521.544	835.38
521.76	853.38
521.975	825.38
522.19	825.38
522.406	838.38
522.621	827.38
522.836	820.38
523.052	832.38
523.267	817.38
523.482	815.38
523.698	808.38
523.913	795.38
524.128	820.38
524.343	809.38
524.559	822.38
524.774	816.38
524.989	813.38
525.204	806.38
525.419	796.38
525.634	810.38
525.849	794.38
526.064	789.38
526.28	798.38
526.495	789.38
526.71	797.38
526.925	821.38
527.14	775.38
527.355	759.38
527.57	805.38
527.785	794.38
527.999	774.38
528.214	776.38
528.429	796.38
528.644	782.38
528.859	778.38
529.074	811.38
529.289	780.38
529.503	782.38
529.718	771.38
529.933	788.38
530.148	796.38
530.363	750.38
530.577	799.38
530.792	770.38
531.007	765.38
531.221	790.38
531.436	775.38
531.651	765.38
531.865	768.38
532.08	764.38
532.295	772.38
532.509	768.38
532.724	765.38
532.938	768.38
533.153	749.38
533.367	754.38
533.582	759.38
533.796	767.38
534.011	779.38
534.225	779.38
534.44	756.38
534.654	741.38
534.868	739.38
535.083	745.38
535.297	772.38
535.511	732.38
535.726	729.38
535.94	765.38
536.154	772.38
536.369	748.38
536.583	740.38
536.797	741.38
537.011	719.38
537.225	721.38
537.44	731.38
537.654	729.38
537.868	730.38
538.082	723.38
538.296	701.38
538.51	698.38
538.724	709.38
538.938	716.38
539.153	701.38
539.367	721.38
539.581	716.38
539.795	712.38
540.009	731.38
540.222	711.38
540.436	719.38
540.65	692.38
540.864	712.38
541.078	711.38
541.292	698.38
541.506	714.38
541.72	703.38
541.934	702.38
542.147	718.38
542.361	707.38
542.575	725.38
542.789	717.38
543.002	706.38
543.216	692.38
543.43	673.38
543.644	674.38
543.857	712.38
544.071	679.38
544.285	698.38
544.498	719.38
544.712	701.38
544.925	701.38
545.139	698.38
545.352	677.38
545.566	706.38
545.779	685.38
545.993	678.38
546.206	696.38
546.42	707.38
546.633	708.38
546.847	699.38
547.06	673.38
547.274	676.38
547.487	695.38
547.7	677.38
547.914	680.38
548.127	692.38
548.34	692.38
548.554	682.38
548.767	715.38
548.98	685.38
549.193	709.38
549.407	676.38
549.62	688.38
549.833	677.38
550.046	702.38
550.259	670.38
550.473	672.38
550.686	692.38
550.899	684.38
551.112	662.38
551.325	671.38
551.538	684.38
551.751	663.38
551.964	649.38
552.177	679.38
552.39	675.38
552.603	665.38
552.816	683.38
553.029	660.38
553.242	697.38
553.455	672.38
553.667	646.38
553.88	647.38
554.093	650.38
554.306	672.38
554.519	648.38
554.732	659.38
554.944	658.38
555.157	641.38
555.37	655.38
555.583	637.38
555.795	656.38
556.008	631.38
556.221	624.38
556.433	628.38
556.646	620.38
556.859	602.38
557.071	603.38
557.284	601.38
557.496	610.38
557.709	603.38
557.921	616.38
558.134	605.38
558.346	635.38
558.559	644.38
558.771	618.38
558.984	619.38
559.196	590.38
559.409	600.38
559.621	616.38
559.833	588.38
560.046	589.38
560.258	587.38
560.47	609.38
560.683	612.38
560.895	617.38
561.107	611.38
561.32	619.38
561.532	581.38
561.744	585.38
561.956	581.38
562.168	588.38
562.381	596.38
562.593	597.38
562.805	601.38
563.017	589.38
563.229	580.38
563.441	578.38
563.653	588.38
563.865	612.38
564.077	617.38
564.289	591.38
564.501	608.38
564.713	597.38
564.925	596.38
565.137	611.38
565.349	594.38
565.561	614.38
565.773	614.38
565.985	596.38
566.197	636.38
566.408	628.38
566.62	622.38
566.832	646.38
567.044	636.38
567.255	619.38
567.467	633.38
567.679	634.38
567.891	641.38
568.102	609.38
568.314	602.38
568.526	597.38
568.737	591.38
568.949	577.38
569.161	579.38
569.372	587.38
569.584	584.38
569.795	564.38
570.007	569.38
570.218	567.38
570.43	528.38
570.641	543.38
570.853	544.38
571.064	531.38
571.276	563.38
571.487	521.38
571.698	534.38
571.91	510.38
572.121	548.38
572.333	504.38
572.544	501.38
572.755	494.38
572.966	518.38
573.178	518.38
573.389	510.38
573.6	489.38
573.811	506.38
574.023	504.38
574.234	504.38
574.445	469.38
574.656	487.38
574.867	488.38
575.078	482.38
575.289	499.38
575.501	467.38
575.712	468.38
575.923	460.38
576.134	471.38
576.345	487.38
576.556	456.38
576.767	457.38
576.978	462.38
577.188	481.38
577.399	468.38
577.61	470.38
577.821	463.38
578.032	458.38
578.243	453.38
578.454	444.38
578.665	462.38
578.875	452.38
579.086	433.38
579.297	439.38
579.508	444.38
579.718	441.38
579.929	441.38
580.14	439.38
580.35	434.38
580.561	420.38
580.772	441.38
580.982	425.38
581.193	424.38
581.403	448.38
581.614	434.38
581.825	448.38
582.035	422.38
582.246	420.38
582.456	419.38
582.667	423.38
582.877	426.38
583.087	419.38
583.298	395.38
583.508	426.38
583.719	434.38
583.929	414.38
584.139	412.38
584.35	414.38
584.56	436.38
584.77	442.38
584.981	401.38
585.191	436.38
585.401	414.38
585.611	400.38
585.821	387.38
586.032	401.38
586.242	413.38
586.452	406.38
586.662	384.38
586.872	404.38
587.082	388.38
587.292	392.38
587.502	410.38
587.713	418.38
587.923	398.38
588.133	416.38
588.343	398.38
588.553	378.38
588.762	388.38
588.972	407.38
589.182	410.38
589.392	410.38
589.602	383.38
589.812	399.38
590.022	397.38
590.232	396.38
590.441	398.38
590.651	399.38
590.861	378.38
591.071	382.38
591.281	373.38
591.49	386.38
591.7	386.38
591.91	399.38
592.119	383.38
592.329	380.38
592.539	392.38
592.748	364.38
592.958	391.38
593.167	369.38
593.377	396.38
593.587	380.38
593.796	386.38
594.006	383.38
594.215	375.38
594.424	392.38
594.634	374.38
594.843	390.38
595.053	380.38
595.262	378.38
595.472	362.38
595.681	394.38
595.89	364.38
596.1	358.38
596.309	375.38
596.518	380.38
596.727	375.38
596.937	361.38
597.146	348.38
597.355	358.38
597.564	350.38
597.774	358.38
597.983	352.38
598.192	342.38
598.401	349.38
598.61	349.38
598.819	352.38
599.028	368.38
599.237	346.38
599.446	349.38
599.655	348.38
599.864	345.38
600.073	341.38
600.282	338.38
600.491	347.38
600.7	340.38
600.909	339.38
601.118	334.38
601.327	337.38
601.536	331.38
601.745	328.38
601.953	337.38
602.162	325.38
602.371	332.38
602.58	327.38
602.789	340.38
602.997	341.38
603.206	317.38
603.415	326.38
603.623	318.38
603.832	332.38
604.041	320.38
604.249	307.38
604.458	325.38
604.666	318.38
604.875	322.38
605.084	321.38
605.292	317.38
605.501	324.38
605.709	333.38
605.918	338.38
606.126	306.38
606.334	303.38
606.543	318.38
606.751	332.38
606.96	312.38
607.168	331.38
607.376	313.38
607.585	308.38
607.793	316.38
608.001	297.38
608.21	310.38
608.418	308.38
608.626	289.38
608.834	304.38
609.043	296.38
609.251	320.38
609.459	306.38
609.667	333.38
609.875	288.38
610.083	294.38
610.291	295.38
610.499	285.38
610.707	293.38
610.916	300.38
611.124	314.38
611.332	300.38
611.54	299.38
611.748	298.38
611.955	296.38
612.163	283.38
612.371	285.38
612.579	291.38
612.787	297.38
612.995	296.38
613.203	297.38
613.411	284.38
613.618	293.38
613.826	288.38
614.034	282.38
614.242	292.38
614.449	293.38
614.657	304.38
614.865	284.38
615.072	277.38
615.28	298.38
615.488	285.38
615.695	282.38
615.903	281.38
616.111	296.38
616.318	273.38
616.526	300.38
616.733	286.38
616.941	290.38
617.148	269.38
617.356	279.38
617.563	277.38
617.771	262.38
617.978	288.38
618.185	297.38
618.393	272.38
618.6	277.38
618.807	284.38
619.015	276.38
619.222	282.38
619.429	268.38
619.637	296.38
619.844	266.38
620.051	262.38
620.258	276.38
620.466	276.38
620.673	272.38
620.88	283.38
621.087	256.38
621.294	271.38
621.501	273.38
621.708	268.38
621.915	284.38
622.122	275.38
622.329	265.38
622.536	274.38
622.743	286.38
622.95	264.38
623.157	270.38
623.364	257.38
623.571	277.38
623.778	260.38
623.985	260.38
624.192	287.38
624.399	254.38
624.606	259.38
624.812	260.38
625.019	270.38
625.226	262.38
625.433	271.38
625.639	267.38
625.846	271.38
626.053	260.38
626.259	261.38
626.466	254.38
626.673	249.38
626.879	238.38
627.086	243.38
627.293	254.38
627.499	250.38
627.706	242.38
627.912	256.38
628.119	225.38
628.325	250.38
628.532	259.38
628.738	248.38
628.945	253.38
629.151	228.38
629.357	242.38
629.564	246.38
629.77	244.38
629.976	249.38
630.183	231.38
630.389	249.38
630.595	255.38
630.802	234.38
631.008	237.38
631.214	226.38
631.42	247.38
631.627	230.38
631.833	210.38
632.039	232.38
632.245	243.38
632.451	224.38
632.657	235.38
632.863	240.38
633.069	219.38
633.275	219.38
633.481	231.38
633.688	214.38
633.893	234.38
634.099	225.38
634.305	226.38
634.511	225.38
634.717	235.38
634.923	229.38
635.129	212.38
635.335	228.38
635.541	214.38
635.747	216.38
635.952	206.38
636.158	227.38
636.364	226.38
636.57	233.38
636.775	219.38
636.981	218.38
637.187	232.38
637.392	220.38
637.598	217.38
637.804	216.38
638.009	226.38
638.215	233.38
638.421	205.38
638.626	218.38
638.832	223.38
639.037	224.38
639.243	204.38
639.448	207.38
639.654	222.38
639.859	209.38
640.065	212.38
640.27	209.38
640.475	205.38
640.681	213.38
640.886	216.38
641.091	221.38
641.297	199.38
641.502	206.38
641.707	215.38
641.913	220.38
642.118	215.38
642.323	203.38
642.528	204.38
642.733	222.38
642.939	195.38
643.144	201.38
643.349	207.38
643.554	218.38
643.759	211.38
643.964	220.38
644.169	214.38
644.374	207.38
644.579	199.38
644.784	215.38
644.989	213.38
645.194	207.38
645.399	216.38
645.604	202.38
645.809	215.38
646.014	196.38
646.219	219.38
646.423	210.38
646.628	211.38
646.833	200.38
647.038	204.38
647.243	193.38
647.447	211.38
647.652	196.38
647.857	205.38
648.062	194.38
648.266	225.38
648.471	214.38
648.676	203.38
648.88	203.38
649.085	211.38
649.289	195.38
649.494	216.38
649.698	195.38
649.903	207.38
650.107	201.38
650.312	203.38
650.516	191.38
650.721	207.38
650.925	200.38
651.13	186.38
651.334	193.38
651.539	210.38
651.743	200.38
651.947	205.38
652.152	204.38
652.356	181.38
652.56	184.38
652.764	181.38
652.969	184.38
653.173	192.38
653.377	188.38
653.581	167.38
653.785	182.38
653.99	178.38
654.194	168.38
654.398	180.38
654.602	169.38
654.806	185.38
655.01	182.38
655.214	172.38
655.418	165.38
655.622	169.38
655.826	174.38
656.03	160.38
656.234	167.38
656.438	179.38
656.642	183.38
656.846	163.38
657.049	174.38
657.253	164.38
657.457	139.38
657.661	141.38
657.865	140.38
658.068	140.38
658.272	115.38
658.476	148.38
658.68	134.38
658.883	144.38
659.087	97.38
659.291	118.38
659.494	116.38
659.698	103.38
659.901	117.38
660.105	98.38
660.309	105.38
660.512	106.38
660.716	106.38
660.919	105.38
661.123	103.38
661.326	91.38
661.53	106.38
661.733	103.38
661.936	96.38
662.14	95.38
662.343	94.38
662.546	108.38
662.75	99.38
662.953	93.38
663.156	84.38
663.36	80.38
663.563	83.38
663.766	74.38
663.969	86.38
664.173	81.38
664.376	97.38
664.579	84.38
664.782	72.38
664.985	77.38
665.188	80.38
665.391	97.38
665.594	77.38
665.797	88.38
666	82.38
666.203	83.38
666.406	72.38
666.609	77.38
666.812	101.38
667.015	90.38
667.218	89.38
667.421	83.38
667.624	94.38
667.827	85.38
668.03	91.38
668.232	92.38
668.435	88.38
668.638	86.38
668.841	81.38
669.043	83.38
669.246	84.38
669.449	75.38
669.651	82.38
669.854	81.38
670.057	87.38
670.259	88.38
670.462	77.38
670.665	77.38
670.867	105.38
671.07	84.38
671.272	82.38
671.475	79.38
671.677	78.38
671.88	86.38
672.082	78.38
672.284	88.38
672.487	76.38
672.689	69.38
672.892	78.38
