Data from Fe(NO3)3@0.025M.TitratingCurve.Agarose3%dH2O.NegLispCup.LampEnergy10.LIBS07252019_HRD10591_16-56-11-335.txt Node
Date: Thu Jul 25 16:56:11 EDT 2019
User: cochatt
Spectrometer: HR+D1059
Trigger mode: 1
Integration Time (sec): 1.000000E-1
Scans to average: 1
Electric dark correction enabled: true
Nonlinearity correction enabled: false
Boxcar width: 0
XAxis mode: Wavelengths
Number of Pixels in Spectrum: 2048
>>>>>Begin Spectral Data<<<<<
223.165	-18.94
223.4	-18.94
223.635	-18.94
223.869	-30.94
224.104	-18.94
224.338	-12.94
224.573	-2.94
224.808	-9.94
225.042	-22.94
225.277	1.06
225.511	-1.94
225.746	8.06
225.98	16.06
226.215	6.06
226.449	7.06
226.683	26.06
226.918	19.06
227.152	36.06
227.387	42.06
227.621	43.06
227.856	30.06
228.09	45.06
228.324	37.06
228.559	58.06
228.793	75.06
229.027	87.06
229.262	73.06
229.496	86.06
229.73	74.06
229.964	82.06
230.199	70.06
230.433	96.06
230.667	101.06
230.901	91.06
231.136	82.06
231.37	96.06
231.604	101.06
231.838	102.06
232.072	104.06
232.306	104.06
232.541	106.06
232.775	99.06
233.009	91.06
233.243	126.06
233.477	106.06
233.711	98.06
233.945	107.06
234.179	95.06
234.413	95.06
234.647	104.06
234.881	103.06
235.115	95.06
235.349	98.06
235.583	108.06
235.817	103.06
236.051	98.06
236.285	96.06
236.519	101.06
236.753	93.06
236.987	101.06
237.221	101.06
237.455	100.06
237.689	90.06
237.922	95.06
238.156	85.06
238.39	101.06
238.624	83.06
238.858	96.06
239.091	106.06
239.325	90.06
239.559	103.06
239.793	110.06
240.027	108.06
240.26	105.06
240.494	111.06
240.728	110.06
240.961	110.06
241.195	121.06
241.429	99.06
241.662	101.06
241.896	106.06
242.13	110.06
242.363	79.06
242.597	112.06
242.83	100.06
243.064	103.06
243.298	118.06
243.531	101.06
243.765	95.06
243.998	115.06
244.232	120.06
244.465	123.06
244.699	120.06
244.932	111.06
245.166	116.06
245.399	118.06
245.633	110.06
245.866	117.06
246.099	110.06
246.333	120.06
246.566	104.06
246.8	122.06
247.033	120.06
247.266	112.06
247.5	127.06
247.733	114.06
247.966	118.06
248.2	124.06
248.433	116.06
248.666	106.06
248.899	138.06
249.133	112.06
249.366	102.06
249.599	122.06
249.832	121.06
250.066	135.06
250.299	130.06
250.532	121.06
250.765	125.06
250.998	111.06
251.231	136.06
251.465	129.06
251.698	118.06
251.931	123.06
252.164	129.06
252.397	131.06
252.63	126.06
252.863	131.06
253.096	132.06
253.329	144.06
253.562	130.06
253.795	119.06
254.028	134.06
254.261	133.06
254.494	129.06
254.727	128.06
254.96	134.06
255.193	127.06
255.426	132.06
255.659	122.06
255.892	137.06
256.124	141.06
256.357	145.06
256.59	119.06
256.823	121.06
257.056	140.06
257.289	140.06
257.521	132.06
257.754	141.06
257.987	130.06
258.22	136.06
258.452	128.06
258.685	132.06
258.918	135.06
259.151	118.06
259.383	125.06
259.616	155.06
259.849	147.06
260.081	157.06
260.314	138.06
260.547	145.06
260.779	136.06
261.012	136.06
261.244	129.06
261.477	144.06
261.71	150.06
261.942	142.06
262.175	145.06
262.407	140.06
262.64	137.06
262.872	144.06
263.105	158.06
263.337	143.06
263.57	152.06
263.802	128.06
264.035	141.06
264.267	155.06
264.499	156.06
264.732	147.06
264.964	152.06
265.197	147.06
265.429	140.06
265.661	148.06
265.894	148.06
266.126	154.06
266.358	151.06
266.591	141.06
266.823	157.06
267.055	152.06
267.287	142.06
267.52	155.06
267.752	150.06
267.984	165.06
268.216	147.06
268.448	161.06
268.681	174.06
268.913	157.06
269.145	159.06
269.377	147.06
269.609	158.06
269.841	147.06
270.073	166.06
270.306	155.06
270.538	143.06
270.77	156.06
271.002	154.06
271.234	150.06
271.466	167.06
271.698	170.06
271.93	155.06
272.162	154.06
272.394	169.06
272.626	170.06
272.858	156.06
273.09	162.06
273.322	163.06
273.553	158.06
273.785	162.06
274.017	171.06
274.249	160.06
274.481	172.06
274.713	177.06
274.945	168.06
275.176	166.06
275.408	184.06
275.64	157.06
275.872	180.06
276.104	174.06
276.335	173.06
276.567	165.06
276.799	166.06
277.031	165.06
277.262	173.06
277.494	175.06
277.726	180.06
277.957	171.06
278.189	175.06
278.421	178.06
278.652	173.06
278.884	167.06
279.115	168.06
279.347	178.06
279.579	178.06
279.81	164.06
280.042	169.06
280.273	189.06
280.505	176.06
280.736	174.06
280.968	183.06
281.199	182.06
281.431	195.06
281.662	178.06
281.894	190.06
282.125	188.06
282.356	187.06
282.588	206.06
282.819	184.06
283.051	186.06
283.282	194.06
283.513	182.06
283.745	191.06
283.976	181.06
284.207	192.06
284.439	193.06
284.67	191.06
284.901	187.06
285.132	188.06
285.364	192.06
285.595	188.06
285.826	190.06
286.057	200.06
286.288	190.06
286.52	193.06
286.751	197.06
286.982	198.06
287.213	197.06
287.444	191.06
287.675	212.06
287.906	170.06
288.138	199.06
288.369	198.06
288.6	188.06
288.831	192.06
289.062	200.06
289.293	192.06
289.524	192.06
289.755	195.06
289.986	206.06
290.217	200.06
290.448	207.06
290.679	197.06
290.91	207.06
291.141	212.06
291.371	208.06
291.602	195.06
291.833	195.06
292.064	191.06
292.295	195.06
292.526	205.06
292.757	197.06
292.987	207.06
293.218	209.06
293.449	227.06
293.68	208.06
293.91	203.06
294.141	214.06
294.372	205.06
294.603	200.06
294.833	219.06
295.064	204.06
295.295	213.06
295.525	204.06
295.756	213.06
295.987	229.06
296.217	215.06
296.448	194.06
296.679	215.06
296.909	226.06
297.14	221.06
297.37	209.06
297.601	221.06
297.831	215.06
298.062	235.06
298.292	212.06
298.523	230.06
298.753	210.06
298.984	226.06
299.214	217.06
299.445	218.06
299.675	219.06
299.905	226.06
300.136	213.06
300.366	208.06
300.597	216.06
300.827	222.06
301.057	214.06
301.288	229.06
301.518	232.06
301.748	236.06
301.979	234.06
302.209	227.06
302.439	234.06
302.669	266.06
302.9	234.06
303.13	218.06
303.36	231.06
303.59	221.06
303.82	217.06
304.051	226.06
304.281	233.06
304.511	238.06
304.741	235.06
304.971	230.06
305.201	213.06
305.431	229.06
305.661	259.06
305.891	232.06
306.121	230.06
306.352	226.06
306.582	239.06
306.812	229.06
307.042	232.06
307.272	239.06
307.502	234.06
307.731	228.06
307.961	248.06
308.191	216.06
308.421	239.06
308.651	224.06
308.881	222.06
309.111	238.06
309.341	231.06
309.571	222.06
309.8	214.06
310.03	230.06
310.26	231.06
310.49	244.06
310.72	242.06
310.949	223.06
311.179	226.06
311.409	238.06
311.639	235.06
311.868	239.06
312.098	237.06
312.328	230.06
312.557	243.06
312.787	260.06
313.017	264.06
313.246	250.06
313.476	248.06
313.706	246.06
313.935	231.06
314.165	246.06
314.394	246.06
314.624	258.06
314.853	233.06
315.083	239.06
315.312	228.06
315.542	246.06
315.771	248.06
316.001	249.06
316.23	251.06
316.46	238.06
316.689	238.06
316.919	255.06
317.148	261.06
317.377	259.06
317.607	260.06
317.836	246.06
318.065	250.06
318.295	263.06
318.524	232.06
318.753	254.06
318.983	233.06
319.212	251.06
319.441	246.06
319.67	237.06
319.9	260.06
320.129	241.06
320.358	234.06
320.587	256.06
320.816	267.06
321.046	278.06
321.275	250.06
321.504	248.06
321.733	252.06
321.962	257.06
322.191	238.06
322.42	250.06
322.649	252.06
322.878	257.06
323.108	252.06
323.337	251.06
323.566	250.06
323.795	263.06
324.024	243.06
324.253	262.06
324.482	268.06
324.71	253.06
324.939	273.06
325.168	273.06
325.397	258.06
325.626	257.06
325.855	256.06
326.084	282.06
326.313	260.06
326.542	242.06
326.77	285.06
326.999	262.06
327.228	263.06
327.457	259.06
327.686	269.06
327.914	272.06
328.143	270.06
328.372	275.06
328.6	271.06
328.829	285.06
329.058	287.06
329.287	284.06
329.515	279.06
329.744	300.06
329.972	294.06
330.201	282.06
330.43	280.06
330.658	286.06
330.887	279.06
331.115	276.06
331.344	277.06
331.572	264.06
331.801	298.06
332.03	289.06
332.258	288.06
332.486	293.06
332.715	290.06
332.943	322.06
333.172	334.06
333.4	341.06
333.629	333.06
333.857	333.06
334.085	326.06
334.314	326.06
334.542	326.06
334.771	304.06
334.999	327.06
335.227	327.06
335.455	327.06
335.684	306.06
335.912	308.06
336.14	310.06
336.369	319.06
336.597	312.06
336.825	308.06
337.053	306.06
337.281	299.06
337.51	305.06
337.738	314.06
337.966	282.06
338.194	311.06
338.422	311.06
338.65	316.06
338.878	294.06
339.106	285.06
339.334	302.06
339.562	287.06
339.79	286.06
340.018	302.06
340.246	283.06
340.474	295.06
340.702	287.06
340.93	298.06
341.158	286.06
341.386	300.06
341.614	281.06
341.842	290.06
342.07	299.06
342.298	271.06
342.526	267.06
342.754	287.06
342.981	273.06
343.209	287.06
343.437	311.06
343.665	331.06
343.893	325.06
344.12	351.06
344.348	298.06
344.576	308.06
344.804	316.06
345.031	299.06
345.259	289.06
345.487	290.06
345.714	287.06
345.942	291.06
346.17	299.06
346.397	287.06
346.625	275.06
346.853	300.06
347.08	300.06
347.308	299.06
347.535	272.06
347.763	282.06
347.99	269.06
348.218	293.06
348.445	296.06
348.673	292.06
348.9	293.06
349.128	271.06
349.355	271.06
349.583	285.06
349.81	284.06
350.037	287.06
350.265	280.06
350.492	263.06
350.72	276.06
350.947	278.06
351.174	263.06
351.402	267.06
351.629	283.06
351.856	298.06
352.083	271.06
352.311	282.06
352.538	274.06
352.765	280.06
352.992	280.06
353.22	264.06
353.447	280.06
353.674	306.06
353.901	269.06
354.128	262.06
354.355	274.06
354.583	289.06
354.81	278.06
355.037	281.06
355.264	273.06
355.491	279.06
355.718	288.06
355.945	283.06
356.172	272.06
356.399	283.06
356.626	283.06
356.853	284.06
357.08	276.06
357.307	283.06
357.534	283.06
357.761	283.06
357.988	266.06
358.215	274.06
358.441	288.06
358.668	275.06
358.895	282.06
359.122	281.06
359.349	272.06
359.576	266.06
359.802	288.06
360.029	286.06
360.256	292.06
360.483	281.06
360.709	290.06
360.936	299.06
361.163	278.06
361.39	274.06
361.616	285.06
361.843	284.06
362.07	255.06
362.296	279.06
362.523	288.06
362.749	278.06
362.976	286.06
363.203	278.06
363.429	266.06
363.656	296.06
363.882	282.06
364.109	295.06
364.335	267.06
364.562	289.06
364.788	285.06
365.015	303.06
365.241	303.06
365.468	283.06
365.694	272.06
365.92	277.06
366.147	283.06
366.373	274.06
366.599	273.06
366.826	285.06
367.052	284.06
367.278	308.06
367.505	298.06
367.731	287.06
367.957	276.06
368.184	309.06
368.41	280.06
368.636	284.06
368.862	274.06
369.089	291.06
369.315	300.06
369.541	298.06
369.767	303.06
369.993	303.06
370.219	306.06
370.445	279.06
370.672	300.06
370.898	299.06
371.124	297.06
371.35	303.06
371.576	290.06
371.802	293.06
372.028	285.06
372.254	296.06
372.48	301.06
372.706	306.06
372.932	294.06
373.158	314.06
373.384	314.06
373.61	293.06
373.835	315.06
374.061	301.06
374.287	306.06
374.513	301.06
374.739	344.06
374.965	331.06
375.191	325.06
375.416	323.06
375.642	325.06
375.868	310.06
376.094	322.06
376.319	299.06
376.545	314.06
376.771	325.06
376.997	311.06
377.222	306.06
377.448	318.06
377.674	314.06
377.899	298.06
378.125	304.06
378.35	314.06
378.576	301.06
378.802	303.06
379.027	307.06
379.253	301.06
379.478	294.06
379.704	306.06
379.929	299.06
380.155	293.06
380.38	300.06
380.606	288.06
380.831	315.06
381.057	316.06
381.282	301.06
381.507	314.06
381.733	300.06
381.958	308.06
382.184	302.06
382.409	312.06
382.634	316.06
382.86	332.06
383.085	343.06
383.31	307.06
383.535	318.06
383.761	328.06
383.986	345.06
384.211	330.06
384.436	351.06
384.662	346.06
384.887	352.06
385.112	347.06
385.337	354.06
385.562	341.06
385.787	342.06
386.013	347.06
386.238	351.06
386.463	357.06
386.688	354.06
386.913	342.06
387.138	343.06
387.363	355.06
387.588	364.06
387.813	356.06
388.038	345.06
388.263	356.06
388.488	341.06
388.713	367.06
388.938	347.06
389.163	338.06
389.387	360.06
389.612	350.06
389.837	328.06
390.062	366.06
390.287	367.06
390.512	371.06
390.736	347.06
390.961	352.06
391.186	360.06
391.411	399.06
391.636	376.06
391.86	393.06
392.085	390.06
392.31	378.06
392.534	394.06
392.759	381.06
392.984	389.06
393.208	358.06
393.433	361.06
393.658	348.06
393.882	362.06
394.107	382.06
394.331	382.06
394.556	373.06
394.78	365.06
395.005	374.06
395.229	390.06
395.454	391.06
395.678	380.06
395.903	370.06
396.127	384.06
396.352	371.06
396.576	386.06
396.801	382.06
397.025	386.06
397.249	390.06
397.474	389.06
397.698	410.06
397.922	392.06
398.147	394.06
398.371	401.06
398.595	418.06
398.82	413.06
399.044	450.06
399.268	478.06
399.492	541.06
399.717	562.06
399.941	546.06
400.165	518.06
400.389	465.06
400.613	475.06
400.837	445.06
401.062	448.06
401.286	439.06
401.51	446.06
401.734	431.06
401.958	422.06
402.182	435.06
402.406	433.06
402.63	450.06
402.854	453.06
403.078	451.06
403.302	441.06
403.526	453.06
403.75	463.06
403.974	450.06
404.198	452.06
404.422	470.06
404.645	456.06
404.869	436.06
405.093	447.06
405.317	452.06
405.541	454.06
405.765	450.06
405.988	422.06
406.212	453.06
406.436	431.06
406.66	459.06
406.883	476.06
407.107	491.06
407.331	499.06
407.555	519.06
407.778	509.06
408.002	496.06
408.226	491.06
408.449	486.06
408.673	470.06
408.896	491.06
409.12	456.06
409.344	463.06
409.567	460.06
409.791	459.06
410.014	452.06
410.238	459.06
410.461	446.06
410.685	465.06
410.908	447.06
411.132	444.06
411.355	438.06
411.578	447.06
411.802	436.06
412.025	442.06
412.249	439.06
412.472	454.06
412.695	436.06
412.919	420.06
413.142	437.06
413.365	427.06
413.589	406.06
413.812	393.06
414.035	422.06
414.258	416.06
414.482	419.06
414.705	428.06
414.928	414.06
415.151	428.06
415.374	426.06
415.597	423.06
415.821	435.06
416.044	424.06
416.267	430.06
416.49	410.06
416.713	412.06
416.936	404.06
417.159	414.06
417.382	391.06
417.605	406.06
417.828	413.06
418.051	438.06
418.274	418.06
418.497	396.06
418.72	441.06
418.943	415.06
419.166	416.06
419.389	450.06
419.611	446.06
419.834	424.06
420.057	454.06
420.28	408.06
420.503	410.06
420.726	406.06
420.948	394.06
421.171	405.06
421.394	401.06
421.617	396.06
421.839	416.06
422.062	403.06
422.285	401.06
422.507	408.06
422.73	412.06
422.953	421.06
423.175	412.06
423.398	424.06
423.621	399.06
423.843	438.06
424.066	426.06
424.288	414.06
424.511	422.06
424.733	427.06
424.956	432.06
425.178	410.06
425.401	410.06
425.623	412.06
425.846	393.06
426.068	402.06
426.291	426.06
426.513	411.06
426.735	390.06
426.958	413.06
427.18	368.06
427.402	378.06
427.625	374.06
427.847	391.06
428.069	382.06
428.292	384.06
428.514	369.06
428.736	356.06
428.958	388.06
429.181	382.06
429.403	369.06
429.625	370.06
429.847	391.06
430.069	374.06
430.292	357.06
430.514	380.06
430.736	367.06
430.958	406.06
431.18	373.06
431.402	355.06
431.624	384.06
431.846	390.06
432.068	387.06
432.29	384.06
432.512	380.06
432.734	390.06
432.956	378.06
433.178	382.06
433.4	372.06
433.622	370.06
433.844	389.06
434.066	380.06
434.287	399.06
434.509	397.06
434.731	420.06
434.953	413.06
435.175	401.06
435.397	422.06
435.618	396.06
435.84	378.06
436.062	394.06
436.284	383.06
436.505	374.06
436.727	363.06
436.949	362.06
437.17	364.06
437.392	367.06
437.614	342.06
437.835	373.06
438.057	374.06
438.278	340.06
438.5	378.06
438.721	370.06
438.943	367.06
439.165	374.06
439.386	375.06
439.608	382.06
439.829	375.06
440.05	384.06
440.272	375.06
440.493	360.06
440.715	364.06
440.936	394.06
441.158	397.06
441.379	417.06
441.6	423.06
441.822	379.06
442.043	424.06
442.264	404.06
442.486	415.06
442.707	409.06
442.928	412.06
443.149	398.06
443.371	393.06
443.592	406.06
443.813	396.06
444.034	411.06
444.255	420.06
444.476	404.06
444.698	421.06
444.919	429.06
445.14	522.06
445.361	462.06
445.582	398.06
445.803	395.06
446.024	400.06
446.245	392.06
446.466	387.06
446.687	379.06
446.908	405.06
447.129	386.06
447.35	370.06
447.571	371.06
447.792	351.06
448.013	351.06
448.234	358.06
448.455	351.06
448.675	371.06
448.896	348.06
449.117	355.06
449.338	347.06
449.559	343.06
449.779	357.06
450	347.06
450.221	338.06
450.442	364.06
450.662	339.06
450.883	349.06
451.104	354.06
451.324	337.06
451.545	330.06
451.766	348.06
451.986	348.06
452.207	341.06
452.428	342.06
452.648	336.06
452.869	363.06
453.089	324.06
453.31	350.06
453.53	357.06
453.751	336.06
453.971	327.06
454.192	329.06
454.412	335.06
454.633	337.06
454.853	348.06
455.073	343.06
455.294	332.06
455.514	331.06
455.734	333.06
455.955	312.06
456.175	327.06
456.395	357.06
456.616	348.06
456.836	319.06
457.056	314.06
457.276	318.06
457.497	350.06
457.717	329.06
457.937	355.06
458.157	334.06
458.377	343.06
458.598	372.06
458.818	361.06
459.038	377.06
459.258	370.06
459.478	379.06
459.698	392.06
459.918	403.06
460.138	406.06
460.358	414.06
460.578	434.06
460.798	430.06
461.018	427.06
461.238	432.06
461.458	441.06
461.678	423.06
461.898	430.06
462.118	444.06
462.338	453.06
462.558	464.06
462.777	471.06
462.997	481.06
463.217	517.06
463.437	504.06
463.657	470.06
463.876	491.06
464.096	482.06
464.316	455.06
464.536	476.06
464.755	476.06
464.975	451.06
465.195	426.06
465.414	404.06
465.634	395.06
465.854	388.06
466.073	404.06
466.293	381.06
466.512	388.06
466.732	378.06
466.951	385.06
467.171	379.06
467.391	372.06
467.61	359.06
467.829	359.06
468.049	374.06
468.268	348.06
468.488	338.06
468.707	363.06
468.927	355.06
469.146	363.06
469.365	368.06
469.585	384.06
469.804	388.06
470.023	377.06
470.243	366.06
470.462	380.06
470.681	379.06
470.901	367.06
471.12	398.06
471.339	374.06
471.558	363.06
471.777	353.06
471.997	352.06
472.216	352.06
472.435	352.06
472.654	362.06
472.873	373.06
473.092	357.06
473.311	370.06
473.53	343.06
473.749	360.06
473.968	351.06
474.187	348.06
474.406	355.06
474.625	358.06
474.844	340.06
475.063	348.06
475.282	341.06
475.501	346.06
475.72	375.06
475.939	352.06
476.158	359.06
476.377	362.06
476.596	363.06
476.814	368.06
477.033	371.06
477.252	384.06
477.471	388.06
477.69	396.06
477.908	405.06
478.127	427.06
478.346	402.06
478.564	405.06
478.783	411.06
479.002	419.06
479.22	414.06
479.439	397.06
479.658	422.06
479.876	410.06
480.095	407.06
480.313	434.06
480.532	434.06
480.751	428.06
480.969	431.06
481.188	421.06
481.406	414.06
481.624	419.06
481.843	386.06
482.061	396.06
482.28	403.06
482.498	384.06
482.717	396.06
482.935	390.06
483.153	395.06
483.372	398.06
483.59	378.06
483.808	390.06
484.027	429.06
484.245	393.06
484.463	389.06
484.681	404.06
484.9	402.06
485.118	429.06
485.336	422.06
485.554	406.06
485.772	411.06
485.99	401.06
486.209	415.06
486.427	414.06
486.645	393.06
486.863	401.06
487.081	418.06
487.299	415.06
487.517	420.06
487.735	401.06
487.953	403.06
488.171	412.06
488.389	406.06
488.607	403.06
488.825	398.06
489.043	424.06
489.261	411.06
489.479	412.06
489.696	408.06
489.914	405.06
490.132	415.06
490.35	423.06
490.568	420.06
490.786	431.06
491.003	422.06
491.221	412.06
491.439	445.06
491.657	407.06
491.874	426.06
492.092	425.06
492.31	407.06
492.527	432.06
492.745	422.06
492.963	413.06
493.18	417.06
493.398	418.06
493.615	412.06
493.833	428.06
494.05	405.06
494.268	448.06
494.485	451.06
494.703	437.06
494.92	454.06
495.138	439.06
495.355	462.06
495.573	420.06
495.79	444.06
496.008	454.06
496.225	467.06
496.442	463.06
496.66	475.06
496.877	456.06
497.094	484.06
497.312	482.06
497.529	503.06
497.746	512.06
497.963	503.06
498.181	533.06
498.398	546.06
498.615	583.06
498.832	588.06
499.049	630.06
499.267	672.06
499.484	724.06
499.701	764.06
499.918	825.06
500.135	867.06
500.352	965.06
500.569	971.06
500.786	935.06
501.003	917.06
501.22	867.06
501.437	772.06
501.654	725.06
501.871	696.06
502.088	646.06
502.305	606.06
502.522	584.06
502.739	559.06
502.956	528.06
503.172	530.06
503.389	518.06
503.606	502.06
503.823	513.06
504.04	492.06
504.256	514.06
504.473	502.06
504.69	487.06
504.907	495.06
505.123	464.06
505.34	472.06
505.557	442.06
505.773	435.06
505.99	443.06
506.207	421.06
506.423	417.06
506.64	414.06
506.856	431.06
507.073	436.06
507.289	406.06
507.506	408.06
507.722	398.06
507.939	394.06
508.155	405.06
508.372	364.06
508.588	387.06
508.805	374.06
509.021	380.06
509.238	372.06
509.454	375.06
509.67	390.06
509.887	382.06
510.103	366.06
510.319	390.06
510.536	403.06
510.752	385.06
510.968	373.06
511.184	376.06
511.401	359.06
511.617	382.06
511.833	376.06
512.049	370.06
512.265	372.06
512.481	377.06
512.698	390.06
512.914	386.06
513.13	383.06
513.346	375.06
513.562	378.06
513.778	367.06
513.994	386.06
514.21	364.06
514.426	367.06
514.642	384.06
514.858	403.06
515.074	386.06
515.29	396.06
515.506	385.06
515.721	404.06
515.937	399.06
516.153	406.06
516.369	411.06
516.585	413.06
516.801	420.06
517.016	422.06
517.232	446.06
517.448	443.06
517.664	461.06
517.879	476.06
518.095	458.06
518.311	447.06
518.527	445.06
518.742	433.06
518.958	407.06
519.173	407.06
519.389	407.06
519.605	408.06
519.82	401.06
520.036	385.06
520.251	389.06
520.467	388.06
520.682	370.06
520.898	366.06
521.113	352.06
521.329	375.06
521.544	375.06
521.76	388.06
521.975	344.06
522.19	357.06
522.406	364.06
522.621	342.06
522.836	354.06
523.052	357.06
523.267	355.06
523.482	354.06
523.698	370.06
523.913	359.06
524.128	350.06
524.343	341.06
524.559	351.06
524.774	371.06
524.989	345.06
525.204	361.06
525.419	352.06
525.634	350.06
525.849	348.06
526.064	360.06
526.28	356.06
526.495	360.06
526.71	372.06
526.925	346.06
527.14	344.06
527.355	350.06
527.57	349.06
527.785	351.06
527.999	354.06
528.214	366.06
528.429	344.06
528.644	339.06
528.859	372.06
529.074	340.06
529.289	361.06
529.503	346.06
529.718	339.06
529.933	334.06
530.148	340.06
530.363	355.06
530.577	325.06
530.792	330.06
531.007	342.06
531.221	339.06
531.436	346.06
531.651	366.06
531.865	346.06
532.08	346.06
532.295	332.06
532.509	343.06
532.724	334.06
532.938	340.06
533.153	349.06
533.367	342.06
533.582	363.06
533.796	350.06
534.011	330.06
534.225	349.06
534.44	338.06
534.654	348.06
534.868	320.06
535.083	365.06
535.297	326.06
535.511	328.06
535.726	325.06
535.94	339.06
536.154	318.06
536.369	334.06
536.583	330.06
536.797	333.06
537.011	342.06
537.225	338.06
537.44	315.06
537.654	332.06
537.868	341.06
538.082	318.06
538.296	304.06
538.51	325.06
538.724	336.06
538.938	324.06
539.153	328.06
539.367	335.06
539.581	324.06
539.795	346.06
540.009	321.06
540.222	315.06
540.436	308.06
540.65	316.06
540.864	324.06
541.078	313.06
541.292	315.06
541.506	320.06
541.72	313.06
541.934	327.06
542.147	325.06
542.361	303.06
542.575	320.06
542.789	315.06
543.002	306.06
543.216	289.06
543.43	308.06
543.644	338.06
543.857	327.06
544.071	295.06
544.285	322.06
544.498	315.06
544.712	323.06
544.925	334.06
545.139	338.06
545.352	314.06
545.566	336.06
545.779	322.06
545.993	324.06
546.206	333.06
546.42	333.06
546.633	322.06
546.847	317.06
547.06	325.06
547.274	319.06
547.487	332.06
547.7	335.06
547.914	318.06
548.127	319.06
548.34	332.06
548.554	323.06
548.767	323.06
548.98	330.06
549.193	341.06
549.407	330.06
549.62	341.06
549.833	358.06
550.046	319.06
550.259	332.06
550.473	323.06
550.686	310.06
550.899	313.06
551.112	328.06
551.325	326.06
551.538	317.06
551.751	316.06
551.964	316.06
552.177	344.06
552.39	327.06
552.603	338.06
552.816	333.06
553.029	341.06
553.242	333.06
553.455	335.06
553.667	331.06
553.88	344.06
554.093	333.06
554.306	328.06
554.519	311.06
554.732	331.06
554.944	320.06
555.157	301.06
555.37	316.06
555.583	304.06
555.795	299.06
556.008	300.06
556.221	307.06
556.433	308.06
556.646	288.06
556.859	285.06
557.071	310.06
557.284	291.06
557.496	294.06
557.709	302.06
557.921	303.06
558.134	287.06
558.346	272.06
558.559	292.06
558.771	298.06
558.984	282.06
559.196	280.06
559.409	286.06
559.621	280.06
559.833	280.06
560.046	281.06
560.258	280.06
560.47	274.06
560.683	277.06
560.895	267.06
561.107	291.06
561.32	278.06
561.532	285.06
561.744	292.06
561.956	287.06
562.168	292.06
562.381	270.06
562.593	287.06
562.805	275.06
563.017	264.06
563.229	303.06
563.441	283.06
563.653	303.06
563.865	288.06
564.077	297.06
564.289	282.06
564.501	295.06
564.713	295.06
564.925	295.06
565.137	318.06
565.349	310.06
565.561	331.06
565.773	327.06
565.985	333.06
566.197	345.06
566.408	342.06
566.62	384.06
566.832	397.06
567.044	378.06
567.255	399.06
567.467	386.06
567.679	412.06
567.891	445.06
568.102	425.06
568.314	386.06
568.526	363.06
568.737	355.06
568.949	324.06
569.161	340.06
569.372	303.06
569.584	308.06
569.795	293.06
570.007	298.06
570.218	314.06
570.43	284.06
570.641	285.06
570.853	281.06
571.064	278.06
571.276	273.06
571.487	276.06
571.698	271.06
571.91	259.06
572.121	267.06
572.333	259.06
572.544	261.06
572.755	253.06
572.966	246.06
573.178	242.06
573.389	250.06
573.6	245.06
573.811	250.06
574.023	243.06
574.234	232.06
574.445	245.06
574.656	222.06
574.867	262.06
575.078	260.06
575.289	263.06
575.501	242.06
575.712	243.06
575.923	232.06
576.134	233.06
576.345	223.06
576.556	222.06
576.767	230.06
576.978	227.06
577.188	231.06
577.399	225.06
577.61	223.06
577.821	211.06
578.032	223.06
578.243	223.06
578.454	229.06
578.665	236.06
578.875	241.06
579.086	237.06
579.297	213.06
579.508	211.06
579.718	208.06
579.929	207.06
580.14	225.06
580.35	228.06
580.561	211.06
580.772	225.06
580.982	234.06
581.193	219.06
581.403	217.06
581.614	233.06
581.825	217.06
582.035	218.06
582.246	214.06
582.456	227.06
582.667	231.06
582.877	205.06
583.087	214.06
583.298	208.06
583.508	231.06
583.719	233.06
583.929	214.06
584.139	228.06
584.35	233.06
584.56	211.06
584.77	194.06
584.981	219.06
585.191	222.06
585.401	203.06
585.611	201.06
585.821	214.06
586.032	211.06
586.242	214.06
586.452	218.06
586.662	204.06
586.872	204.06
587.082	204.06
587.292	210.06
587.502	228.06
587.713	218.06
587.923	205.06
588.133	191.06
588.343	194.06
588.553	196.06
588.762	218.06
588.972	193.06
589.182	220.06
589.392	205.06
589.602	209.06
589.812	216.06
590.022	230.06
590.232	194.06
590.441	211.06
590.651	205.06
590.861	216.06
591.071	224.06
591.281	204.06
591.49	197.06
591.7	210.06
591.91	222.06
592.119	222.06
592.329	225.06
592.539	228.06
592.748	221.06
592.958	231.06
593.167	238.06
593.377	235.06
593.587	229.06
593.796	231.06
594.006	238.06
594.215	246.06
594.424	235.06
594.634	214.06
594.843	230.06
595.053	234.06
595.262	220.06
595.472	213.06
595.681	212.06
595.89	210.06
596.1	205.06
596.309	216.06
596.518	188.06
596.727	183.06
596.937	199.06
597.146	216.06
597.355	186.06
597.564	192.06
597.774	196.06
597.983	198.06
598.192	182.06
598.401	183.06
598.61	196.06
598.819	185.06
599.028	183.06
599.237	185.06
599.446	198.06
599.655	182.06
599.864	176.06
600.073	178.06
600.282	182.06
600.491	192.06
600.7	190.06
600.909	190.06
601.118	185.06
601.327	195.06
601.536	195.06
601.745	166.06
601.953	195.06
602.162	188.06
602.371	182.06
602.58	184.06
602.789	169.06
602.997	188.06
603.206	182.06
603.415	194.06
603.623	178.06
603.832	200.06
604.041	196.06
604.249	185.06
604.458	173.06
604.666	166.06
604.875	180.06
605.084	170.06
605.292	181.06
605.501	176.06
605.709	171.06
605.918	173.06
606.126	178.06
606.334	158.06
606.543	180.06
606.751	170.06
606.96	170.06
607.168	173.06
607.376	187.06
607.585	171.06
607.793	173.06
608.001	187.06
608.21	165.06
608.418	168.06
608.626	171.06
608.834	179.06
609.043	173.06
609.251	165.06
609.459	175.06
609.667	172.06
609.875	174.06
610.083	167.06
610.291	160.06
610.499	182.06
610.707	176.06
610.916	163.06
611.124	190.06
611.332	161.06
611.54	181.06
611.748	163.06
611.955	178.06
612.163	167.06
612.371	162.06
612.579	169.06
612.787	175.06
612.995	162.06
613.203	192.06
613.411	180.06
613.618	175.06
613.826	182.06
614.034	172.06
614.242	190.06
614.449	165.06
614.657	192.06
614.865	165.06
615.072	166.06
615.28	169.06
615.488	169.06
615.695	172.06
615.903	167.06
616.111	174.06
616.318	178.06
616.526	175.06
616.733	161.06
616.941	156.06
617.148	171.06
617.356	168.06
617.563	158.06
617.771	181.06
617.978	153.06
618.185	168.06
618.393	160.06
618.6	168.06
618.807	160.06
619.015	162.06
619.222	185.06
619.429	148.06
619.637	157.06
619.844	187.06
620.051	159.06
620.258	148.06
620.466	154.06
620.673	146.06
620.88	169.06
621.087	158.06
621.294	153.06
621.501	165.06
621.708	166.06
621.915	156.06
622.122	155.06
622.329	152.06
622.536	172.06
622.743	181.06
622.95	170.06
623.157	159.06
623.364	152.06
623.571	152.06
623.778	159.06
623.985	168.06
624.192	159.06
624.399	170.06
624.606	182.06
624.812	156.06
625.019	162.06
625.226	150.06
625.433	153.06
625.639	157.06
625.846	147.06
626.053	150.06
626.259	164.06
626.466	172.06
626.673	162.06
626.879	149.06
627.086	155.06
627.293	151.06
627.499	156.06
627.706	151.06
627.912	147.06
628.119	154.06
628.325	150.06
628.532	145.06
628.738	152.06
628.945	142.06
629.151	153.06
629.357	148.06
629.564	156.06
629.77	159.06
629.976	147.06
630.183	151.06
630.389	151.06
630.595	149.06
630.802	154.06
631.008	150.06
631.214	156.06
631.42	150.06
631.627	150.06
631.833	146.06
632.039	157.06
632.245	144.06
632.451	137.06
632.657	138.06
632.863	153.06
633.069	150.06
633.275	142.06
633.481	150.06
633.688	147.06
633.893	148.06
634.099	151.06
634.305	133.06
634.511	137.06
634.717	158.06
634.923	138.06
635.129	143.06
635.335	146.06
635.541	148.06
635.747	143.06
635.952	134.06
636.158	146.06
636.364	147.06
636.57	153.06
636.775	149.06
636.981	156.06
637.187	136.06
637.392	124.06
637.598	138.06
637.804	154.06
638.009	135.06
638.215	131.06
638.421	140.06
638.626	149.06
638.832	136.06
639.037	134.06
639.243	142.06
639.448	125.06
639.654	146.06
639.859	155.06
640.065	139.06
640.27	129.06
640.475	139.06
640.681	148.06
640.886	122.06
641.091	144.06
641.297	139.06
641.502	134.06
641.707	134.06
641.913	125.06
642.118	136.06
642.323	147.06
642.528	130.06
642.733	126.06
642.939	140.06
643.144	143.06
643.349	136.06
643.554	142.06
643.759	138.06
643.964	137.06
644.169	124.06
644.374	118.06
644.579	131.06
644.784	141.06
644.989	152.06
645.194	126.06
645.399	127.06
645.604	139.06
645.809	134.06
646.014	133.06
646.219	132.06
646.423	134.06
646.628	144.06
646.833	140.06
647.038	130.06
647.243	130.06
647.447	132.06
647.652	151.06
647.857	150.06
648.062	141.06
648.266	134.06
648.471	137.06
648.676	140.06
648.88	134.06
649.085	136.06
649.289	135.06
649.494	136.06
649.698	126.06
649.903	140.06
650.107	132.06
650.312	144.06
650.516	131.06
650.721	132.06
650.925	150.06
651.13	135.06
651.334	132.06
651.539	146.06
651.743	140.06
651.947	127.06
652.152	151.06
652.356	132.06
652.56	118.06
652.764	122.06
652.969	119.06
653.173	131.06
653.377	119.06
653.581	127.06
653.785	135.06
653.99	121.06
654.194	117.06
654.398	95.06
654.602	123.06
654.806	121.06
655.01	123.06
655.214	126.06
655.418	117.06
655.622	119.06
655.826	124.06
656.03	101.06
656.234	126.06
656.438	114.06
656.642	112.06
656.846	104.06
657.049	119.06
657.253	124.06
657.457	98.06
657.661	108.06
657.865	99.06
658.068	111.06
658.272	92.06
658.476	106.06
658.68	114.06
658.883	95.06
659.087	96.06
659.291	101.06
659.494	102.06
659.698	105.06
659.901	85.06
660.105	107.06
660.309	90.06
660.512	98.06
660.716	90.06
660.919	97.06
661.123	92.06
661.326	97.06
661.53	87.06
661.733	94.06
661.936	91.06
662.14	98.06
662.343	87.06
662.546	95.06
662.75	88.06
662.953	83.06
663.156	80.06
663.36	90.06
663.563	77.06
663.766	91.06
663.969	89.06
664.173	82.06
664.376	84.06
664.579	85.06
664.782	86.06
664.985	70.06
665.188	78.06
665.391	87.06
665.594	86.06
665.797	91.06
666	86.06
666.203	91.06
666.406	98.06
666.609	73.06
666.812	89.06
667.015	73.06
667.218	84.06
667.421	84.06
667.624	88.06
667.827	86.06
668.03	79.06
668.232	78.06
668.435	72.06
668.638	80.06
668.841	87.06
669.043	78.06
669.246	88.06
669.449	85.06
669.651	78.06
669.854	83.06
670.057	86.06
670.259	88.06
670.462	98.06
670.665	91.06
670.867	88.06
671.07	84.06
671.272	86.06
671.475	88.06
671.677	91.06
671.88	102.06
672.082	77.06
672.284	84.06
672.487	88.06
672.689	93.06
672.892	88.06
