Data from Fe(NO3)3@0.05M.TitratingCurve.Agarose3%dH2O.NegLispCup.LampEnergy10.LIBS07252019_HRD10591_16-45-58-334.txt Node
Date: Thu Jul 25 16:45:58 EDT 2019
User: cochatt
Spectrometer: HR+D1059
Trigger mode: 1
Integration Time (sec): 1.000000E-1
Scans to average: 1
Electric dark correction enabled: true
Nonlinearity correction enabled: false
Boxcar width: 0
XAxis mode: Wavelengths
Number of Pixels in Spectrum: 2048
>>>>>Begin Spectral Data<<<<<
223.165	-7.25
223.4	-7.25
223.635	-7.25
223.869	-21.25
224.104	-29.25
224.338	-16.25
224.573	-6.25
224.808	-11.25
225.042	-5.25
225.277	-10.25
225.511	0.75
225.746	2.75
225.98	8.75
226.215	-0.25
226.449	12.75
226.683	25.75
226.918	25.75
227.152	30.75
227.387	27.75
227.621	42.75
227.856	42.75
228.09	46.75
228.324	38.75
228.559	50.75
228.793	72.75
229.027	87.75
229.262	105.75
229.496	119.75
229.73	102.75
229.964	103.75
230.199	104.75
230.433	113.75
230.667	117.75
230.901	114.75
231.136	105.75
231.37	102.75
231.604	120.75
231.838	132.75
232.072	101.75
232.306	125.75
232.541	125.75
232.775	126.75
233.009	127.75
233.243	119.75
233.477	126.75
233.711	141.75
233.945	130.75
234.179	127.75
234.413	131.75
234.647	116.75
234.881	139.75
235.115	133.75
235.349	136.75
235.583	130.75
235.817	133.75
236.051	131.75
236.285	129.75
236.519	123.75
236.753	135.75
236.987	146.75
237.221	138.75
237.455	143.75
237.689	135.75
237.922	150.75
238.156	152.75
238.39	153.75
238.624	163.75
238.858	177.75
239.091	141.75
239.325	143.75
239.559	165.75
239.793	148.75
240.027	174.75
240.26	165.75
240.494	154.75
240.728	165.75
240.961	185.75
241.195	157.75
241.429	171.75
241.662	162.75
241.896	159.75
242.13	158.75
242.363	143.75
242.597	162.75
242.83	152.75
243.064	147.75
243.298	160.75
243.531	166.75
243.765	181.75
243.998	170.75
244.232	163.75
244.465	171.75
244.699	147.75
244.932	167.75
245.166	172.75
245.399	166.75
245.633	162.75
245.866	158.75
246.099	171.75
246.333	170.75
246.566	161.75
246.8	175.75
247.033	181.75
247.266	172.75
247.5	189.75
247.733	186.75
247.966	169.75
248.2	181.75
248.433	190.75
248.666	201.75
248.899	196.75
249.133	185.75
249.366	193.75
249.599	217.75
249.832	209.75
250.066	202.75
250.299	199.75
250.532	180.75
250.765	180.75
250.998	192.75
251.231	188.75
251.465	179.75
251.698	201.75
251.931	189.75
252.164	199.75
252.397	210.75
252.63	203.75
252.863	214.75
253.096	225.75
253.329	226.75
253.562	201.75
253.795	222.75
254.028	211.75
254.261	248.75
254.494	236.75
254.727	223.75
254.96	228.75
255.193	197.75
255.426	220.75
255.659	217.75
255.892	218.75
256.124	218.75
256.357	213.75
256.59	246.75
256.823	219.75
257.056	236.75
257.289	231.75
257.521	231.75
257.754	222.75
257.987	210.75
258.22	234.75
258.452	242.75
258.685	234.75
258.918	230.75
259.151	237.75
259.383	249.75
259.616	230.75
259.849	267.75
260.081	298.75
260.314	335.75
260.547	266.75
260.779	226.75
261.012	275.75
261.244	246.75
261.477	278.75
261.71	268.75
261.942	241.75
262.175	239.75
262.407	263.75
262.64	250.75
262.872	263.75
263.105	290.75
263.337	276.75
263.57	270.75
263.802	258.75
264.035	246.75
264.267	251.75
264.499	242.75
264.732	243.75
264.964	238.75
265.197	233.75
265.429	251.75
265.661	234.75
265.894	247.75
266.126	245.75
266.358	234.75
266.591	248.75
266.823	266.75
267.055	249.75
267.287	263.75
267.52	236.75
267.752	239.75
267.984	245.75
268.216	259.75
268.448	269.75
268.681	247.75
268.913	274.75
269.145	266.75
269.377	279.75
269.609	268.75
269.841	275.75
270.073	270.75
270.306	275.75
270.538	275.75
270.77	262.75
271.002	262.75
271.234	264.75
271.466	285.75
271.698	283.75
271.93	277.75
272.162	276.75
272.394	284.75
272.626	294.75
272.858	284.75
273.09	302.75
273.322	305.75
273.553	275.75
273.785	308.75
274.017	335.75
274.249	353.75
274.481	354.75
274.713	354.75
274.945	379.75
275.176	389.75
275.408	366.75
275.64	363.75
275.872	350.75
276.104	331.75
276.335	317.75
276.567	307.75
276.799	312.75
277.031	326.75
277.262	309.75
277.494	315.75
277.726	316.75
277.957	312.75
278.189	295.75
278.421	322.75
278.652	316.75
278.884	307.75
279.115	296.75
279.347	301.75
279.579	303.75
279.81	330.75
280.042	325.75
280.273	303.75
280.505	305.75
280.736	311.75
280.968	321.75
281.199	322.75
281.431	309.75
281.662	332.75
281.894	299.75
282.125	318.75
282.356	319.75
282.588	326.75
282.819	334.75
283.051	309.75
283.282	318.75
283.513	329.75
283.745	336.75
283.976	332.75
284.207	350.75
284.439	335.75
284.67	329.75
284.901	332.75
285.132	351.75
285.364	340.75
285.595	342.75
285.826	343.75
286.057	335.75
286.288	337.75
286.52	341.75
286.751	321.75
286.982	346.75
287.213	328.75
287.444	324.75
287.675	325.75
287.906	347.75
288.138	357.75
288.369	345.75
288.6	328.75
288.831	345.75
289.062	340.75
289.293	338.75
289.524	356.75
289.755	345.75
289.986	347.75
290.217	333.75
290.448	339.75
290.679	344.75
290.91	351.75
291.141	347.75
291.371	320.75
291.602	335.75
291.833	347.75
292.064	362.75
292.295	342.75
292.526	338.75
292.757	361.75
292.987	340.75
293.218	360.75
293.449	350.75
293.68	345.75
293.91	360.75
294.141	333.75
294.372	348.75
294.603	362.75
294.833	362.75
295.064	341.75
295.295	359.75
295.525	345.75
295.756	372.75
295.987	350.75
296.217	364.75
296.448	369.75
296.679	366.75
296.909	368.75
297.14	366.75
297.37	383.75
297.601	369.75
297.831	355.75
298.062	357.75
298.292	358.75
298.523	378.75
298.753	396.75
298.984	365.75
299.214	366.75
299.445	391.75
299.675	358.75
299.905	366.75
300.136	383.75
300.366	377.75
300.597	363.75
300.827	375.75
301.057	381.75
301.288	382.75
301.518	382.75
301.748	406.75
301.979	409.75
302.209	402.75
302.439	397.75
302.669	373.75
302.9	367.75
303.13	391.75
303.36	390.75
303.59	402.75
303.82	381.75
304.051	397.75
304.281	400.75
304.511	385.75
304.741	395.75
304.971	410.75
305.201	414.75
305.431	388.75
305.661	394.75
305.891	399.75
306.121	378.75
306.352	399.75
306.582	398.75
306.812	378.75
307.042	387.75
307.272	389.75
307.502	407.75
307.731	388.75
307.961	410.75
308.191	393.75
308.421	385.75
308.651	409.75
308.881	404.75
309.111	392.75
309.341	376.75
309.571	400.75
309.8	386.75
310.03	394.75
310.26	399.75
310.49	398.75
310.72	408.75
310.949	434.75
311.179	410.75
311.409	425.75
311.639	425.75
311.868	435.75
312.098	414.75
312.328	405.75
312.557	411.75
312.787	409.75
313.017	425.75
313.246	410.75
313.476	405.75
313.706	419.75
313.935	418.75
314.165	429.75
314.394	441.75
314.624	426.75
314.853	414.75
315.083	435.75
315.312	417.75
315.542	444.75
315.771	436.75
316.001	442.75
316.23	441.75
316.46	448.75
316.689	423.75
316.919	427.75
317.148	452.75
317.377	437.75
317.607	442.75
317.836	435.75
318.065	447.75
318.295	441.75
318.524	395.75
318.753	422.75
318.983	436.75
319.212	424.75
319.441	433.75
319.67	437.75
319.9	450.75
320.129	431.75
320.358	455.75
320.587	431.75
320.816	467.75
321.046	454.75
321.275	446.75
321.504	434.75
321.733	434.75
321.962	417.75
322.191	452.75
322.42	445.75
322.649	464.75
322.878	450.75
323.108	443.75
323.337	452.75
323.566	456.75
323.795	442.75
324.024	457.75
324.253	440.75
324.482	434.75
324.71	440.75
324.939	471.75
325.168	458.75
325.397	462.75
325.626	464.75
325.855	457.75
326.084	462.75
326.313	469.75
326.542	469.75
326.77	474.75
326.999	466.75
327.228	456.75
327.457	462.75
327.686	488.75
327.914	466.75
328.143	465.75
328.372	455.75
328.6	478.75
328.829	473.75
329.058	458.75
329.287	474.75
329.515	459.75
329.744	485.75
329.972	462.75
330.201	467.75
330.43	463.75
330.658	488.75
330.887	472.75
331.115	483.75
331.344	484.75
331.572	476.75
331.801	492.75
332.03	483.75
332.258	486.75
332.486	502.75
332.715	516.75
332.943	492.75
333.172	499.75
333.4	503.75
333.629	525.75
333.857	531.75
334.085	526.75
334.314	531.75
334.542	540.75
334.771	540.75
334.999	554.75
335.227	533.75
335.455	534.75
335.684	539.75
335.912	563.75
336.14	568.75
336.369	536.75
336.597	530.75
336.825	533.75
337.053	535.75
337.281	520.75
337.51	515.75
337.738	536.75
337.966	493.75
338.194	521.75
338.422	508.75
338.65	486.75
338.878	521.75
339.106	501.75
339.334	506.75
339.562	522.75
339.79	525.75
340.018	509.75
340.246	513.75
340.474	515.75
340.702	500.75
340.93	501.75
341.158	514.75
341.386	502.75
341.614	511.75
341.842	521.75
342.07	493.75
342.298	492.75
342.526	492.75
342.754	494.75
342.981	507.75
343.209	509.75
343.437	513.75
343.665	516.75
343.893	534.75
344.12	545.75
344.348	559.75
344.576	550.75
344.804	538.75
345.031	518.75
345.259	498.75
345.487	516.75
345.714	473.75
345.942	478.75
346.17	491.75
346.397	488.75
346.625	484.75
346.853	476.75
347.08	483.75
347.308	499.75
347.535	487.75
347.763	489.75
347.99	482.75
348.218	495.75
348.445	472.75
348.673	462.75
348.9	488.75
349.128	462.75
349.355	473.75
349.583	483.75
349.81	483.75
350.037	474.75
350.265	469.75
350.492	471.75
350.72	470.75
350.947	472.75
351.174	453.75
351.402	469.75
351.629	464.75
351.856	493.75
352.083	469.75
352.311	459.75
352.538	483.75
352.765	481.75
352.992	485.75
353.22	470.75
353.447	475.75
353.674	469.75
353.901	482.75
354.128	477.75
354.355	474.75
354.583	468.75
354.81	473.75
355.037	474.75
355.264	469.75
355.491	486.75
355.718	484.75
355.945	472.75
356.172	473.75
356.399	494.75
356.626	504.75
356.853	488.75
357.08	499.75
357.307	497.75
357.534	477.75
357.761	484.75
357.988	506.75
358.215	516.75
358.441	518.75
358.668	500.75
358.895	493.75
359.122	479.75
359.349	475.75
359.576	455.75
359.802	503.75
360.029	457.75
360.256	474.75
360.483	491.75
360.709	505.75
360.936	501.75
361.163	503.75
361.39	484.75
361.616	480.75
361.843	473.75
362.07	500.75
362.296	501.75
362.523	489.75
362.749	494.75
362.976	481.75
363.203	504.75
363.429	498.75
363.656	477.75
363.882	483.75
364.109	485.75
364.335	503.75
364.562	476.75
364.788	489.75
365.015	486.75
365.241	483.75
365.468	479.75
365.694	486.75
365.92	488.75
366.147	499.75
366.373	516.75
366.599	505.75
366.826	490.75
367.052	497.75
367.278	506.75
367.505	499.75
367.731	522.75
367.957	498.75
368.184	499.75
368.41	504.75
368.636	530.75
368.862	520.75
369.089	513.75
369.315	527.75
369.541	507.75
369.767	500.75
369.993	502.75
370.219	509.75
370.445	512.75
370.672	550.75
370.898	525.75
371.124	531.75
371.35	529.75
371.576	525.75
371.802	545.75
372.028	545.75
372.254	566.75
372.48	529.75
372.706	542.75
372.932	577.75
373.158	568.75
373.384	572.75
373.61	579.75
373.835	578.75
374.061	579.75
374.287	539.75
374.513	549.75
374.739	580.75
374.965	605.75
375.191	574.75
375.416	579.75
375.642	547.75
375.868	559.75
376.094	573.75
376.319	543.75
376.545	563.75
376.771	553.75
376.997	544.75
377.222	554.75
377.448	532.75
377.674	536.75
377.899	557.75
378.125	533.75
378.35	541.75
378.576	536.75
378.802	541.75
379.027	540.75
379.253	547.75
379.478	531.75
379.704	535.75
379.929	550.75
380.155	538.75
380.38	563.75
380.606	551.75
380.831	547.75
381.057	549.75
381.282	535.75
381.507	555.75
381.733	572.75
381.958	571.75
382.184	601.75
382.409	605.75
382.634	585.75
382.86	583.75
383.085	601.75
383.31	567.75
383.535	597.75
383.761	585.75
383.986	574.75
384.211	609.75
384.436	614.75
384.662	599.75
384.887	607.75
385.112	606.75
385.337	615.75
385.562	595.75
385.787	602.75
386.013	643.75
386.238	627.75
386.463	627.75
386.688	621.75
386.913	597.75
387.138	638.75
387.363	637.75
387.588	622.75
387.813	645.75
388.038	651.75
388.263	638.75
388.488	626.75
388.713	636.75
388.938	645.75
389.163	649.75
389.387	617.75
389.612	629.75
389.837	667.75
390.062	632.75
390.287	636.75
390.512	648.75
390.736	619.75
390.961	654.75
391.186	664.75
391.411	655.75
391.636	654.75
391.86	642.75
392.085	677.75
392.31	675.75
392.534	678.75
392.759	661.75
392.984	697.75
393.208	664.75
393.433	666.75
393.658	639.75
393.882	671.75
394.107	650.75
394.331	659.75
394.556	685.75
394.78	654.75
395.005	670.75
395.229	676.75
395.454	695.75
395.678	666.75
395.903	669.75
396.127	663.75
396.352	692.75
396.576	681.75
396.801	703.75
397.025	705.75
397.249	694.75
397.474	667.75
397.698	689.75
397.922	712.75
398.147	694.75
398.371	715.75
398.595	723.75
398.82	736.75
399.044	755.75
399.268	778.75
399.492	833.75
399.717	822.75
399.941	877.75
400.165	852.75
400.389	842.75
400.613	813.75
400.837	806.75
401.062	798.75
401.286	784.75
401.51	746.75
401.734	742.75
401.958	774.75
402.182	756.75
402.406	750.75
402.63	753.75
402.854	761.75
403.078	750.75
403.302	796.75
403.526	761.75
403.75	765.75
403.974	770.75
404.198	764.75
404.422	751.75
404.645	790.75
404.869	788.75
405.093	785.75
405.317	801.75
405.541	783.75
405.765	787.75
405.988	805.75
406.212	803.75
406.436	810.75
406.66	819.75
406.883	829.75
407.107	832.75
407.331	842.75
407.555	890.75
407.778	899.75
408.002	877.75
408.226	861.75
408.449	846.75
408.673	870.75
408.896	859.75
409.12	825.75
409.344	848.75
409.567	828.75
409.791	846.75
410.014	822.75
410.238	817.75
410.461	839.75
410.685	844.75
410.908	811.75
411.132	817.75
411.355	798.75
411.578	796.75
411.802	805.75
412.025	803.75
412.249	824.75
412.472	797.75
412.695	791.75
412.919	824.75
413.142	790.75
413.365	799.75
413.589	804.75
413.812	750.75
414.035	779.75
414.258	801.75
414.482	772.75
414.705	787.75
414.928	779.75
415.151	792.75
415.374	796.75
415.597	761.75
415.821	771.75
416.044	761.75
416.267	778.75
416.49	742.75
416.713	748.75
416.936	753.75
417.159	757.75
417.382	720.75
417.605	749.75
417.828	759.75
418.051	775.75
418.274	728.75
418.497	730.75
418.72	762.75
418.943	738.75
419.166	798.75
419.389	841.75
419.611	823.75
419.834	771.75
420.057	772.75
420.28	770.75
420.503	750.75
420.726	714.75
420.948	735.75
421.171	724.75
421.394	726.75
421.617	731.75
421.839	768.75
422.062	730.75
422.285	719.75
422.507	735.75
422.73	749.75
422.953	727.75
423.175	740.75
423.398	742.75
423.621	742.75
423.843	744.75
424.066	764.75
424.288	762.75
424.511	732.75
424.733	745.75
424.956	757.75
425.178	737.75
425.401	755.75
425.623	755.75
425.846	735.75
426.068	719.75
426.291	744.75
426.513	720.75
426.735	748.75
426.958	726.75
427.18	725.75
427.402	741.75
427.625	720.75
427.847	721.75
428.069	728.75
428.292	746.75
428.514	709.75
428.736	707.75
428.958	705.75
429.181	713.75
429.403	727.75
429.625	707.75
429.847	710.75
430.069	720.75
430.292	713.75
430.514	695.75
430.736	721.75
430.958	725.75
431.18	730.75
431.402	730.75
431.624	714.75
431.846	713.75
432.068	730.75
432.29	721.75
432.512	715.75
432.734	748.75
432.956	738.75
433.178	740.75
433.4	742.75
433.622	731.75
433.844	730.75
434.066	745.75
434.287	753.75
434.509	740.75
434.731	736.75
434.953	734.75
435.175	738.75
435.397	720.75
435.618	764.75
435.84	720.75
436.062	731.75
436.284	734.75
436.505	713.75
436.727	697.75
436.949	718.75
437.17	738.75
437.392	722.75
437.614	707.75
437.835	689.75
438.057	689.75
438.278	698.75
438.5	714.75
438.721	714.75
438.943	694.75
439.165	684.75
439.386	694.75
439.608	729.75
439.829	721.75
440.05	708.75
440.272	709.75
440.493	706.75
440.715	733.75
440.936	728.75
441.158	703.75
441.379	749.75
441.6	772.75
441.822	757.75
442.043	750.75
442.264	755.75
442.486	745.75
442.707	750.75
442.928	743.75
443.149	725.75
443.371	735.75
443.592	741.75
443.813	758.75
444.034	747.75
444.255	759.75
444.476	743.75
444.698	761.75
444.919	777.75
445.14	892.75
445.361	809.75
445.582	769.75
445.803	756.75
446.024	740.75
446.245	758.75
446.466	769.75
446.687	714.75
446.908	732.75
447.129	719.75
447.35	716.75
447.571	727.75
447.792	701.75
448.013	700.75
448.234	695.75
448.455	707.75
448.675	691.75
448.896	680.75
449.117	683.75
449.338	690.75
449.559	683.75
449.779	654.75
450	703.75
450.221	661.75
450.442	674.75
450.662	671.75
450.883	661.75
451.104	678.75
451.324	686.75
451.545	690.75
451.766	670.75
451.986	672.75
452.207	667.75
452.428	665.75
452.648	669.75
452.869	630.75
453.089	637.75
453.31	656.75
453.53	665.75
453.751	607.75
453.971	652.75
454.192	646.75
454.412	630.75
454.633	628.75
454.853	663.75
455.073	648.75
455.294	635.75
455.514	610.75
455.734	625.75
455.955	625.75
456.175	619.75
456.395	637.75
456.616	625.75
456.836	647.75
457.056	626.75
457.276	645.75
457.497	638.75
457.717	654.75
457.937	638.75
458.157	668.75
458.377	645.75
458.598	669.75
458.818	653.75
459.038	658.75
459.258	702.75
459.478	718.75
459.698	695.75
459.918	693.75
460.138	726.75
460.358	739.75
460.578	751.75
460.798	738.75
461.018	779.75
461.238	758.75
461.458	753.75
461.678	756.75
461.898	776.75
462.118	746.75
462.338	797.75
462.558	811.75
462.777	811.75
462.997	838.75
463.217	847.75
463.437	875.75
463.657	843.75
463.876	850.75
464.096	851.75
464.316	833.75
464.536	823.75
464.755	810.75
464.975	794.75
465.195	772.75
465.414	759.75
465.634	746.75
465.854	779.75
466.073	770.75
466.293	733.75
466.512	711.75
466.732	725.75
466.951	715.75
467.171	707.75
467.391	709.75
467.61	703.75
467.829	709.75
468.049	706.75
468.268	675.75
468.488	692.75
468.707	695.75
468.927	702.75
469.146	687.75
469.365	709.75
469.585	694.75
469.804	729.75
470.023	723.75
470.243	725.75
470.462	710.75
470.681	702.75
470.901	695.75
471.12	726.75
471.339	739.75
471.558	706.75
471.777	707.75
471.997	725.75
472.216	693.75
472.435	706.75
472.654	680.75
472.873	675.75
473.092	683.75
473.311	727.75
473.53	693.75
473.749	673.75
473.968	683.75
474.187	700.75
474.406	708.75
474.625	713.75
474.844	714.75
475.063	705.75
475.282	714.75
475.501	683.75
475.72	722.75
475.939	686.75
476.158	714.75
476.377	733.75
476.596	756.75
476.814	781.75
477.033	762.75
477.252	750.75
477.471	736.75
477.69	771.75
477.908	765.75
478.127	808.75
478.346	771.75
478.564	777.75
478.783	796.75
479.002	793.75
479.22	830.75
479.439	871.75
479.658	825.75
479.876	807.75
480.095	803.75
480.313	859.75
480.532	848.75
480.751	833.75
480.969	828.75
481.188	853.75
481.406	856.75
481.624	838.75
481.843	811.75
482.061	811.75
482.28	830.75
482.498	855.75
482.717	823.75
482.935	834.75
483.153	799.75
483.372	814.75
483.59	807.75
483.808	824.75
484.027	811.75
484.245	826.75
484.463	821.75
484.681	834.75
484.9	840.75
485.118	843.75
485.336	855.75
485.554	823.75
485.772	834.75
485.99	847.75
486.209	845.75
486.427	839.75
486.645	836.75
486.863	854.75
487.081	862.75
487.299	870.75
487.517	876.75
487.735	860.75
487.953	883.75
488.171	863.75
488.389	876.75
488.607	860.75
488.825	842.75
489.043	797.75
489.261	861.75
489.479	857.75
489.696	844.75
489.914	827.75
490.132	842.75
490.35	838.75
490.568	872.75
490.786	840.75
491.003	867.75
491.221	885.75
491.439	873.75
491.657	869.75
491.874	901.75
492.092	909.75
492.31	893.75
492.527	901.75
492.745	876.75
492.963	862.75
493.18	877.75
493.398	898.75
493.615	901.75
493.833	877.75
494.05	875.75
494.268	882.75
494.485	912.75
494.703	863.75
494.92	872.75
495.138	883.75
495.355	903.75
495.573	915.75
495.79	921.75
496.008	919.75
496.225	912.75
496.442	908.75
496.66	933.75
496.877	936.75
497.094	976.75
497.312	972.75
497.529	948.75
497.746	985.75
497.963	1002.75
498.181	997.75
498.398	1034.75
498.615	1066.75
498.832	1102.75
499.049	1123.75
499.267	1151.75
499.484	1221.75
499.701	1249.75
499.918	1295.75
500.135	1351.75
500.352	1405.75
500.569	1408.75
500.786	1397.75
501.003	1399.75
501.22	1365.75
501.437	1315.75
501.654	1241.75
501.871	1212.75
502.088	1148.75
502.305	1147.75
502.522	1088.75
502.739	1116.75
502.956	1040.75
503.172	1016.75
503.389	1021.75
503.606	964.75
503.823	961.75
504.04	932.75
504.256	947.75
504.473	931.75
504.69	901.75
504.907	897.75
505.123	871.75
505.34	874.75
505.557	860.75
505.773	839.75
505.99	838.75
506.207	831.75
506.423	808.75
506.64	795.75
506.856	807.75
507.073	808.75
507.289	796.75
507.506	775.75
507.722	777.75
507.939	783.75
508.155	775.75
508.372	728.75
508.588	758.75
508.805	735.75
509.021	751.75
509.238	749.75
509.454	734.75
509.67	723.75
509.887	732.75
510.103	699.75
510.319	713.75
510.536	683.75
510.752	693.75
510.968	706.75
511.184	703.75
511.401	726.75
511.617	716.75
511.833	688.75
512.049	682.75
512.265	685.75
512.481	701.75
512.698	698.75
512.914	706.75
513.13	709.75
513.346	685.75
513.562	729.75
513.778	695.75
513.994	693.75
514.21	685.75
514.426	687.75
514.642	698.75
514.858	723.75
515.074	710.75
515.29	709.75
515.506	725.75
515.721	732.75
515.937	710.75
516.153	715.75
516.369	743.75
516.585	733.75
516.801	740.75
517.016	767.75
517.232	784.75
517.448	758.75
517.664	776.75
517.879	790.75
518.095	762.75
518.311	788.75
518.527	754.75
518.742	734.75
518.958	742.75
519.173	739.75
519.389	708.75
519.605	724.75
519.82	717.75
520.036	744.75
520.251	748.75
520.467	727.75
520.682	699.75
520.898	676.75
521.113	659.75
521.329	696.75
521.544	704.75
521.76	658.75
521.975	658.75
522.19	667.75
522.406	671.75
522.621	703.75
522.836	676.75
523.052	665.75
523.267	664.75
523.482	671.75
523.698	659.75
523.913	646.75
524.128	677.75
524.343	653.75
524.559	628.75
524.774	650.75
524.989	629.75
525.204	622.75
525.419	665.75
525.634	619.75
525.849	661.75
526.064	637.75
526.28	641.75
526.495	670.75
526.71	642.75
526.925	633.75
527.14	619.75
527.355	615.75
527.57	635.75
527.785	625.75
527.999	603.75
528.214	588.75
528.429	618.75
528.644	627.75
528.859	626.75
529.074	608.75
529.289	609.75
529.503	619.75
529.718	600.75
529.933	601.75
530.148	608.75
530.363	615.75
530.577	599.75
530.792	599.75
531.007	604.75
531.221	605.75
531.436	610.75
531.651	620.75
531.865	610.75
532.08	597.75
532.295	595.75
532.509	603.75
532.724	592.75
532.938	600.75
533.153	611.75
533.367	597.75
533.582	592.75
533.796	613.75
534.011	578.75
534.225	582.75
534.44	599.75
534.654	593.75
534.868	596.75
535.083	590.75
535.297	603.75
535.511	581.75
535.726	584.75
535.94	587.75
536.154	595.75
536.369	577.75
536.583	561.75
536.797	600.75
537.011	567.75
537.225	556.75
537.44	582.75
537.654	575.75
537.868	554.75
538.082	563.75
538.296	578.75
538.51	551.75
538.724	582.75
538.938	574.75
539.153	582.75
539.367	567.75
539.581	563.75
539.795	538.75
540.009	555.75
540.222	557.75
540.436	569.75
540.65	592.75
540.864	585.75
541.078	599.75
541.292	572.75
541.506	582.75
541.72	584.75
541.934	589.75
542.147	563.75
542.361	592.75
542.575	562.75
542.789	571.75
543.002	550.75
543.216	555.75
543.43	553.75
543.644	537.75
543.857	568.75
544.071	552.75
544.285	568.75
544.498	546.75
544.712	581.75
544.925	572.75
545.139	571.75
545.352	559.75
545.566	541.75
545.779	577.75
545.993	564.75
546.206	562.75
546.42	570.75
546.633	562.75
546.847	558.75
547.06	579.75
547.274	563.75
547.487	559.75
547.7	552.75
547.914	565.75
548.127	577.75
548.34	564.75
548.554	542.75
548.767	558.75
548.98	579.75
549.193	569.75
549.407	553.75
549.62	563.75
549.833	561.75
550.046	569.75
550.259	569.75
550.473	568.75
550.686	574.75
550.899	546.75
551.112	562.75
551.325	582.75
551.538	558.75
551.751	570.75
551.964	540.75
552.177	539.75
552.39	549.75
552.603	567.75
552.816	563.75
553.029	548.75
553.242	574.75
553.455	575.75
553.667	554.75
553.88	538.75
554.093	543.75
554.306	542.75
554.519	531.75
554.732	522.75
554.944	515.75
555.157	524.75
555.37	511.75
555.583	546.75
555.795	513.75
556.008	505.75
556.221	517.75
556.433	517.75
556.646	526.75
556.859	497.75
557.071	498.75
557.284	475.75
557.496	522.75
557.709	514.75
557.921	486.75
558.134	498.75
558.346	475.75
558.559	482.75
558.771	516.75
558.984	473.75
559.196	476.75
559.409	470.75
559.621	485.75
559.833	473.75
560.046	479.75
560.258	505.75
560.47	478.75
560.683	488.75
560.895	472.75
561.107	466.75
561.32	475.75
561.532	477.75
561.744	472.75
561.956	470.75
562.168	464.75
562.381	471.75
562.593	478.75
562.805	482.75
563.017	492.75
563.229	484.75
563.441	469.75
563.653	493.75
563.865	502.75
564.077	487.75
564.289	515.75
564.501	487.75
564.713	489.75
564.925	485.75
565.137	497.75
565.349	521.75
565.561	522.75
565.773	518.75
565.985	530.75
566.197	529.75
566.408	549.75
566.62	553.75
566.832	573.75
567.044	585.75
567.255	569.75
567.467	585.75
567.679	562.75
567.891	606.75
568.102	580.75
568.314	590.75
568.526	563.75
568.737	522.75
568.949	522.75
569.161	508.75
569.372	483.75
569.584	475.75
569.795	480.75
570.007	470.75
570.218	443.75
570.43	458.75
570.641	465.75
570.853	451.75
571.064	471.75
571.276	437.75
571.487	443.75
571.698	444.75
571.91	421.75
572.121	428.75
572.333	424.75
572.544	409.75
572.755	420.75
572.966	409.75
573.178	424.75
573.389	417.75
573.6	393.75
573.811	394.75
574.023	387.75
574.234	386.75
574.445	386.75
574.656	381.75
574.867	397.75
575.078	406.75
575.289	377.75
575.501	372.75
575.712	380.75
575.923	390.75
576.134	401.75
576.345	376.75
576.556	377.75
576.767	381.75
576.978	366.75
577.188	385.75
577.399	374.75
577.61	342.75
577.821	376.75
578.032	342.75
578.243	368.75
578.454	373.75
578.665	350.75
578.875	364.75
579.086	359.75
579.297	350.75
579.508	347.75
579.718	334.75
579.929	353.75
580.14	339.75
580.35	342.75
580.561	335.75
580.772	336.75
580.982	339.75
581.193	348.75
581.403	345.75
581.614	335.75
581.825	347.75
582.035	356.75
582.246	332.75
582.456	332.75
582.667	332.75
582.877	343.75
583.087	330.75
583.298	329.75
583.508	341.75
583.719	330.75
583.929	332.75
584.139	333.75
584.35	333.75
584.56	330.75
584.77	328.75
584.981	333.75
585.191	322.75
585.401	317.75
585.611	337.75
585.821	335.75
586.032	331.75
586.242	309.75
586.452	318.75
586.662	316.75
586.872	313.75
587.082	331.75
587.292	322.75
587.502	327.75
587.713	320.75
587.923	330.75
588.133	327.75
588.343	322.75
588.553	325.75
588.762	324.75
588.972	309.75
589.182	331.75
589.392	334.75
589.602	326.75
589.812	335.75
590.022	340.75
590.232	322.75
590.441	321.75
590.651	332.75
590.861	335.75
591.071	318.75
591.281	342.75
591.49	321.75
591.7	324.75
591.91	331.75
592.119	322.75
592.329	318.75
592.539	339.75
592.748	317.75
592.958	325.75
593.167	321.75
593.377	318.75
593.587	338.75
593.796	343.75
594.006	330.75
594.215	319.75
594.424	316.75
594.634	327.75
594.843	319.75
595.053	326.75
595.262	314.75
595.472	315.75
595.681	278.75
595.89	311.75
596.1	312.75
596.309	323.75
596.518	300.75
596.727	305.75
596.937	305.75
597.146	300.75
597.355	322.75
597.564	301.75
597.774	289.75
597.983	283.75
598.192	286.75
598.401	304.75
598.61	292.75
598.819	293.75
599.028	281.75
599.237	297.75
599.446	286.75
599.655	279.75
599.864	289.75
600.073	286.75
600.282	268.75
600.491	269.75
600.7	283.75
600.909	265.75
601.118	278.75
601.327	270.75
601.536	277.75
601.745	269.75
601.953	262.75
602.162	291.75
602.371	281.75
602.58	280.75
602.789	258.75
602.997	271.75
603.206	275.75
603.415	262.75
603.623	265.75
603.832	260.75
604.041	272.75
604.249	252.75
604.458	269.75
604.666	250.75
604.875	248.75
605.084	241.75
605.292	248.75
605.501	258.75
605.709	270.75
605.918	271.75
606.126	281.75
606.334	257.75
606.543	248.75
606.751	267.75
606.96	269.75
607.168	252.75
607.376	252.75
607.585	253.75
607.793	258.75
608.001	252.75
608.21	267.75
608.418	261.75
608.626	246.75
608.834	253.75
609.043	258.75
609.251	250.75
609.459	235.75
609.667	240.75
609.875	237.75
610.083	249.75
610.291	263.75
610.499	237.75
610.707	244.75
610.916	258.75
611.124	253.75
611.332	254.75
611.54	250.75
611.748	238.75
611.955	239.75
612.163	248.75
612.371	256.75
612.579	238.75
612.787	231.75
612.995	227.75
613.203	238.75
613.411	242.75
613.618	253.75
613.826	247.75
614.034	251.75
614.242	244.75
614.449	253.75
614.657	226.75
614.865	234.75
615.072	250.75
615.28	251.75
615.488	245.75
615.695	236.75
615.903	236.75
616.111	228.75
616.318	238.75
616.526	243.75
616.733	226.75
616.941	236.75
617.148	243.75
617.356	234.75
617.563	233.75
617.771	243.75
617.978	229.75
618.185	207.75
618.393	243.75
618.6	239.75
618.807	230.75
619.015	238.75
619.222	232.75
619.429	223.75
619.637	246.75
619.844	243.75
620.051	223.75
620.258	226.75
620.466	230.75
620.673	217.75
620.88	218.75
621.087	223.75
621.294	242.75
621.501	225.75
621.708	214.75
621.915	213.75
622.122	231.75
622.329	222.75
622.536	232.75
622.743	230.75
622.95	222.75
623.157	217.75
623.364	220.75
623.571	221.75
623.778	217.75
623.985	208.75
624.192	216.75
624.399	218.75
624.606	207.75
624.812	205.75
625.019	212.75
625.226	213.75
625.433	204.75
625.639	193.75
625.846	222.75
626.053	206.75
626.259	203.75
626.466	207.75
626.673	204.75
626.879	206.75
627.086	207.75
627.293	212.75
627.499	197.75
627.706	207.75
627.912	201.75
628.119	201.75
628.325	203.75
628.532	205.75
628.738	201.75
628.945	205.75
629.151	202.75
629.357	193.75
629.564	184.75
629.77	191.75
629.976	207.75
630.183	206.75
630.389	207.75
630.595	212.75
630.802	205.75
631.008	193.75
631.214	196.75
631.42	206.75
631.627	210.75
631.833	196.75
632.039	184.75
632.245	208.75
632.451	196.75
632.657	181.75
632.863	196.75
633.069	172.75
633.275	198.75
633.481	201.75
633.688	188.75
633.893	208.75
634.099	195.75
634.305	191.75
634.511	212.75
634.717	197.75
634.923	187.75
635.129	189.75
635.335	190.75
635.541	170.75
635.747	174.75
635.952	189.75
636.158	194.75
636.364	188.75
636.57	187.75
636.775	169.75
636.981	184.75
637.187	185.75
637.392	185.75
637.598	199.75
637.804	183.75
638.009	179.75
638.215	185.75
638.421	177.75
638.626	177.75
638.832	183.75
639.037	178.75
639.243	178.75
639.448	181.75
639.654	171.75
639.859	174.75
640.065	196.75
640.27	187.75
640.475	174.75
640.681	170.75
640.886	177.75
641.091	160.75
641.297	182.75
641.502	191.75
641.707	177.75
641.913	175.75
642.118	181.75
642.323	189.75
642.528	199.75
642.733	183.75
642.939	190.75
643.144	175.75
643.349	190.75
643.554	170.75
643.759	188.75
643.964	173.75
644.169	179.75
644.374	189.75
644.579	176.75
644.784	180.75
644.989	175.75
645.194	181.75
645.399	186.75
645.604	167.75
645.809	178.75
646.014	174.75
646.219	179.75
646.423	189.75
646.628	195.75
646.833	186.75
647.038	189.75
647.243	169.75
647.447	203.75
647.652	194.75
647.857	169.75
648.062	178.75
648.266	197.75
648.471	177.75
648.676	196.75
648.88	205.75
649.085	180.75
649.289	177.75
649.494	168.75
649.698	179.75
649.903	179.75
650.107	167.75
650.312	183.75
650.516	177.75
650.721	177.75
650.925	162.75
651.13	172.75
651.334	169.75
651.539	179.75
651.743	181.75
651.947	166.75
652.152	177.75
652.356	175.75
652.56	172.75
652.764	175.75
652.969	180.75
653.173	175.75
653.377	169.75
653.581	181.75
653.785	183.75
653.99	157.75
654.194	170.75
654.398	174.75
654.602	162.75
654.806	168.75
655.01	172.75
655.214	159.75
655.418	161.75
655.622	176.75
655.826	156.75
656.03	170.75
656.234	175.75
656.438	179.75
656.642	160.75
656.846	177.75
657.049	181.75
657.253	166.75
657.457	157.75
657.661	146.75
657.865	123.75
658.068	139.75
658.272	120.75
658.476	127.75
658.68	123.75
658.883	126.75
659.087	109.75
659.291	113.75
659.494	137.75
659.698	106.75
659.901	106.75
660.105	114.75
660.309	98.75
660.512	104.75
660.716	110.75
660.919	103.75
661.123	98.75
661.326	111.75
661.53	98.75
661.733	99.75
661.936	103.75
662.14	100.75
662.343	97.75
662.546	96.75
662.75	93.75
662.953	93.75
663.156	81.75
663.36	86.75
663.563	90.75
663.766	84.75
663.969	74.75
664.173	75.75
664.376	79.75
664.579	77.75
664.782	76.75
664.985	89.75
665.188	86.75
665.391	94.75
665.594	84.75
665.797	95.75
666	89.75
666.203	82.75
666.406	73.75
666.609	89.75
666.812	89.75
667.015	87.75
667.218	85.75
667.421	87.75
667.624	61.75
667.827	85.75
668.03	92.75
668.232	85.75
668.435	85.75
668.638	102.75
668.841	89.75
669.043	85.75
669.246	100.75
669.449	80.75
669.651	93.75
669.854	83.75
670.057	87.75
670.259	97.75
670.462	87.75
670.665	82.75
670.867	91.75
671.07	92.75
671.272	88.75
671.475	93.75
671.677	64.75
671.88	69.75
672.082	69.75
672.284	79.75
672.487	86.75
672.689	76.75
672.892	90.75
