Data from Fe(NO3)3@0.05M.TitratingCurve.Agarose3%dH2O.NegLispCup.LampEnergy10.LIBS07252019_HRD10591_16-46-41-334.txt Node
Date: Thu Jul 25 16:46:41 EDT 2019
User: cochatt
Spectrometer: HR+D1059
Trigger mode: 1
Integration Time (sec): 1.000000E-1
Scans to average: 1
Electric dark correction enabled: true
Nonlinearity correction enabled: false
Boxcar width: 0
XAxis mode: Wavelengths
Number of Pixels in Spectrum: 2048
>>>>>Begin Spectral Data<<<<<
223.165	-8.88
223.4	-8.88
223.635	-8.88
223.869	-23.88
224.104	-21.88
224.338	-17.88
224.573	-3.88
224.808	-4.88
225.042	-25.88
225.277	-3.88
225.511	2.12
225.746	3.12
225.98	5.12
226.215	22.12
226.449	13.12
226.683	25.12
226.918	8.12
227.152	32.12
227.387	35.12
227.621	36.12
227.856	51.12
228.09	54.12
228.324	57.12
228.559	54.12
228.793	76.12
229.027	124.12
229.262	112.12
229.496	141.12
229.73	155.12
229.964	147.12
230.199	158.12
230.433	159.12
230.667	168.12
230.901	179.12
231.136	177.12
231.37	165.12
231.604	174.12
231.838	177.12
232.072	180.12
232.306	191.12
232.541	174.12
232.775	168.12
233.009	185.12
233.243	179.12
233.477	187.12
233.711	202.12
233.945	212.12
234.179	192.12
234.413	208.12
234.647	217.12
234.881	228.12
235.115	217.12
235.349	214.12
235.583	204.12
235.817	210.12
236.051	198.12
236.285	216.12
236.519	230.12
236.753	224.12
236.987	216.12
237.221	228.12
237.455	232.12
237.689	236.12
237.922	226.12
238.156	234.12
238.39	244.12
238.624	272.12
238.858	278.12
239.091	260.12
239.325	237.12
239.559	260.12
239.793	275.12
240.027	277.12
240.26	270.12
240.494	259.12
240.728	278.12
240.961	274.12
241.195	287.12
241.429	272.12
241.662	286.12
241.896	261.12
242.13	275.12
242.363	277.12
242.597	275.12
242.83	273.12
243.064	294.12
243.298	291.12
243.531	291.12
243.765	311.12
243.998	303.12
244.232	310.12
244.465	293.12
244.699	305.12
244.932	309.12
245.166	322.12
245.399	305.12
245.633	329.12
245.866	298.12
246.099	313.12
246.333	311.12
246.566	346.12
246.8	349.12
247.033	327.12
247.266	331.12
247.5	325.12
247.733	322.12
247.966	348.12
248.2	359.12
248.433	353.12
248.666	358.12
248.899	377.12
249.133	348.12
249.366	389.12
249.599	375.12
249.832	398.12
250.066	370.12
250.299	372.12
250.532	377.12
250.765	393.12
250.998	378.12
251.231	361.12
251.465	383.12
251.698	377.12
251.931	386.12
252.164	362.12
252.397	403.12
252.63	413.12
252.863	412.12
253.096	437.12
253.329	437.12
253.562	428.12
253.795	440.12
254.028	448.12
254.261	444.12
254.494	425.12
254.727	422.12
254.96	423.12
255.193	421.12
255.426	434.12
255.659	418.12
255.892	413.12
256.124	419.12
256.357	439.12
256.59	471.12
256.823	451.12
257.056	442.12
257.289	435.12
257.521	437.12
257.754	450.12
257.987	467.12
258.22	444.12
258.452	455.12
258.685	474.12
258.918	496.12
259.151	489.12
259.383	481.12
259.616	485.12
259.849	504.12
260.081	547.12
260.314	586.12
260.547	526.12
260.779	499.12
261.012	526.12
261.244	523.12
261.477	530.12
261.71	529.12
261.942	489.12
262.175	501.12
262.407	516.12
262.64	503.12
262.872	522.12
263.105	559.12
263.337	595.12
263.57	572.12
263.802	536.12
264.035	488.12
264.267	489.12
264.499	489.12
264.732	488.12
264.964	515.12
265.197	526.12
265.429	531.12
265.661	481.12
265.894	512.12
266.126	515.12
266.358	519.12
266.591	538.12
266.823	533.12
267.055	545.12
267.287	516.12
267.52	517.12
267.752	534.12
267.984	532.12
268.216	547.12
268.448	536.12
268.681	555.12
268.913	543.12
269.145	532.12
269.377	535.12
269.609	537.12
269.841	566.12
270.073	543.12
270.306	571.12
270.538	556.12
270.77	566.12
271.002	572.12
271.234	584.12
271.466	585.12
271.698	580.12
271.93	583.12
272.162	591.12
272.394	607.12
272.626	618.12
272.858	610.12
273.09	623.12
273.322	643.12
273.553	618.12
273.785	637.12
274.017	676.12
274.249	737.12
274.481	729.12
274.713	734.12
274.945	762.12
275.176	796.12
275.408	756.12
275.64	717.12
275.872	767.12
276.104	715.12
276.335	653.12
276.567	643.12
276.799	665.12
277.031	664.12
277.262	652.12
277.494	661.12
277.726	655.12
277.957	668.12
278.189	652.12
278.421	663.12
278.652	679.12
278.884	635.12
279.115	671.12
279.347	667.12
279.579	662.12
279.81	664.12
280.042	669.12
280.273	660.12
280.505	670.12
280.736	670.12
280.968	692.12
281.199	695.12
281.431	707.12
281.662	691.12
281.894	689.12
282.125	696.12
282.356	703.12
282.588	719.12
282.819	692.12
283.051	680.12
283.282	709.12
283.513	695.12
283.745	720.12
283.976	692.12
284.207	739.12
284.439	706.12
284.67	740.12
284.901	740.12
285.132	721.12
285.364	735.12
285.595	732.12
285.826	716.12
286.057	738.12
286.288	764.12
286.52	744.12
286.751	721.12
286.982	729.12
287.213	755.12
287.444	757.12
287.675	752.12
287.906	741.12
288.138	723.12
288.369	775.12
288.6	744.12
288.831	740.12
289.062	765.12
289.293	764.12
289.524	741.12
289.755	751.12
289.986	771.12
290.217	769.12
290.448	777.12
290.679	763.12
290.91	755.12
291.141	769.12
291.371	763.12
291.602	767.12
291.833	787.12
292.064	771.12
292.295	772.12
292.526	765.12
292.757	783.12
292.987	780.12
293.218	753.12
293.449	768.12
293.68	759.12
293.91	780.12
294.141	771.12
294.372	785.12
294.603	812.12
294.833	794.12
295.064	783.12
295.295	777.12
295.525	782.12
295.756	787.12
295.987	789.12
296.217	775.12
296.448	800.12
296.679	804.12
296.909	804.12
297.14	792.12
297.37	831.12
297.601	841.12
297.831	807.12
298.062	819.12
298.292	811.12
298.523	856.12
298.753	854.12
298.984	845.12
299.214	845.12
299.445	831.12
299.675	829.12
299.905	842.12
300.136	830.12
300.366	849.12
300.597	836.12
300.827	859.12
301.057	843.12
301.288	866.12
301.518	841.12
301.748	885.12
301.979	913.12
302.209	917.12
302.439	904.12
302.669	886.12
302.9	891.12
303.13	870.12
303.36	914.12
303.59	879.12
303.82	887.12
304.051	892.12
304.281	870.12
304.511	864.12
304.741	868.12
304.971	908.12
305.201	896.12
305.431	910.12
305.661	884.12
305.891	889.12
306.121	900.12
306.352	897.12
306.582	894.12
306.812	895.12
307.042	874.12
307.272	889.12
307.502	889.12
307.731	874.12
307.961	886.12
308.191	889.12
308.421	894.12
308.651	909.12
308.881	908.12
309.111	909.12
309.341	898.12
309.571	904.12
309.8	913.12
310.03	899.12
310.26	890.12
310.49	893.12
310.72	904.12
310.949	905.12
311.179	918.12
311.409	917.12
311.639	912.12
311.868	937.12
312.098	931.12
312.328	935.12
312.557	912.12
312.787	944.12
313.017	940.12
313.246	948.12
313.476	941.12
313.706	944.12
313.935	962.12
314.165	991.12
314.394	954.12
314.624	956.12
314.853	962.12
315.083	983.12
315.312	971.12
315.542	970.12
315.771	953.12
316.001	963.12
316.23	965.12
316.46	962.12
316.689	1002.12
316.919	983.12
317.148	1000.12
317.377	986.12
317.607	977.12
317.836	941.12
318.065	963.12
318.295	986.12
318.524	999.12
318.753	999.12
318.983	1011.12
319.212	984.12
319.441	985.12
319.67	985.12
319.9	993.12
320.129	994.12
320.358	1014.12
320.587	1007.12
320.816	998.12
321.046	1001.12
321.275	981.12
321.504	1014.12
321.733	983.12
321.962	1010.12
322.191	1014.12
322.42	1010.12
322.649	988.12
322.878	1012.12
323.108	1002.12
323.337	1039.12
323.566	999.12
323.795	1023.12
324.024	1047.12
324.253	1051.12
324.482	1031.12
324.71	1027.12
324.939	1036.12
325.168	1037.12
325.397	1049.12
325.626	1072.12
325.855	1076.12
326.084	1059.12
326.313	1089.12
326.542	1059.12
326.77	1071.12
326.999	1079.12
327.228	1083.12
327.457	1075.12
327.686	1062.12
327.914	1087.12
328.143	1092.12
328.372	1095.12
328.6	1035.12
328.829	1108.12
329.058	1102.12
329.287	1106.12
329.515	1097.12
329.744	1081.12
329.972	1058.12
330.201	1093.12
330.43	1115.12
330.658	1121.12
330.887	1125.12
331.115	1106.12
331.344	1119.12
331.572	1120.12
331.801	1135.12
332.03	1123.12
332.258	1136.12
332.486	1139.12
332.715	1139.12
332.943	1151.12
333.172	1168.12
333.4	1216.12
333.629	1223.12
333.857	1243.12
334.085	1258.12
334.314	1238.12
334.542	1263.12
334.771	1281.12
334.999	1210.12
335.227	1249.12
335.455	1277.12
335.684	1263.12
335.912	1248.12
336.14	1234.12
336.369	1253.12
336.597	1251.12
336.825	1257.12
337.053	1218.12
337.281	1240.12
337.51	1233.12
337.738	1204.12
337.966	1196.12
338.194	1170.12
338.422	1190.12
338.65	1201.12
338.878	1222.12
339.106	1186.12
339.334	1216.12
339.562	1207.12
339.79	1152.12
340.018	1170.12
340.246	1163.12
340.474	1171.12
340.702	1128.12
340.93	1171.12
341.158	1135.12
341.386	1121.12
341.614	1154.12
341.842	1121.12
342.07	1123.12
342.298	1143.12
342.526	1149.12
342.754	1142.12
342.981	1147.12
343.209	1153.12
343.437	1146.12
343.665	1201.12
343.893	1270.12
344.12	1223.12
344.348	1288.12
344.576	1250.12
344.804	1221.12
345.031	1199.12
345.259	1176.12
345.487	1179.12
345.714	1155.12
345.942	1147.12
346.17	1122.12
346.397	1114.12
346.625	1141.12
346.853	1107.12
347.08	1128.12
347.308	1122.12
347.535	1107.12
347.763	1136.12
347.99	1121.12
348.218	1080.12
348.445	1129.12
348.673	1104.12
348.9	1107.12
349.128	1108.12
349.355	1107.12
349.583	1091.12
349.81	1130.12
350.037	1107.12
350.265	1067.12
350.492	1103.12
350.72	1067.12
350.947	1097.12
351.174	1130.12
351.402	1113.12
351.629	1096.12
351.856	1088.12
352.083	1086.12
352.311	1080.12
352.538	1059.12
352.765	1079.12
352.992	1099.12
353.22	1085.12
353.447	1100.12
353.674	1085.12
353.901	1091.12
354.128	1064.12
354.355	1086.12
354.583	1082.12
354.81	1107.12
355.037	1089.12
355.264	1074.12
355.491	1065.12
355.718	1097.12
355.945	1080.12
356.172	1101.12
356.399	1105.12
356.626	1128.12
356.853	1127.12
357.08	1112.12
357.307	1104.12
357.534	1088.12
357.761	1135.12
357.988	1114.12
358.215	1135.12
358.441	1140.12
358.668	1115.12
358.895	1132.12
359.122	1097.12
359.349	1099.12
359.576	1125.12
359.802	1078.12
360.029	1087.12
360.256	1107.12
360.483	1089.12
360.709	1079.12
360.936	1122.12
361.163	1143.12
361.39	1087.12
361.616	1075.12
361.843	1104.12
362.07	1139.12
362.296	1109.12
362.523	1131.12
362.749	1092.12
362.976	1126.12
363.203	1138.12
363.429	1113.12
363.656	1153.12
363.882	1138.12
364.109	1104.12
364.335	1094.12
364.562	1090.12
364.788	1125.12
365.015	1153.12
365.241	1118.12
365.468	1119.12
365.694	1133.12
365.92	1118.12
366.147	1120.12
366.373	1139.12
366.599	1100.12
366.826	1144.12
367.052	1139.12
367.278	1126.12
367.505	1153.12
367.731	1148.12
367.957	1136.12
368.184	1154.12
368.41	1139.12
368.636	1155.12
368.862	1163.12
369.089	1184.12
369.315	1172.12
369.541	1175.12
369.767	1196.12
369.993	1184.12
370.219	1156.12
370.445	1177.12
370.672	1218.12
370.898	1224.12
371.124	1191.12
371.35	1215.12
371.576	1235.12
371.802	1190.12
372.028	1204.12
372.254	1256.12
372.48	1228.12
372.706	1258.12
372.932	1208.12
373.158	1225.12
373.384	1235.12
373.61	1262.12
373.835	1289.12
374.061	1264.12
374.287	1244.12
374.513	1287.12
374.739	1316.12
374.965	1297.12
375.191	1325.12
375.416	1307.12
375.642	1270.12
375.868	1282.12
376.094	1233.12
376.319	1247.12
376.545	1221.12
376.771	1255.12
376.997	1242.12
377.222	1216.12
377.448	1201.12
377.674	1210.12
377.899	1194.12
378.125	1208.12
378.35	1204.12
378.576	1213.12
378.802	1187.12
379.027	1188.12
379.253	1229.12
379.478	1208.12
379.704	1235.12
379.929	1209.12
380.155	1237.12
380.38	1225.12
380.606	1243.12
380.831	1240.12
381.057	1236.12
381.282	1249.12
381.507	1248.12
381.733	1277.12
381.958	1312.12
382.184	1328.12
382.409	1330.12
382.634	1349.12
382.86	1334.12
383.085	1303.12
383.31	1318.12
383.535	1309.12
383.761	1316.12
383.986	1348.12
384.211	1361.12
384.436	1393.12
384.662	1364.12
384.887	1366.12
385.112	1397.12
385.337	1408.12
385.562	1418.12
385.787	1422.12
386.013	1445.12
386.238	1444.12
386.463	1448.12
386.688	1444.12
386.913	1417.12
387.138	1452.12
387.363	1417.12
387.588	1445.12
387.813	1426.12
388.038	1447.12
388.263	1450.12
388.488	1432.12
388.713	1456.12
388.938	1467.12
389.163	1435.12
389.387	1465.12
389.612	1435.12
389.837	1455.12
390.062	1425.12
390.287	1472.12
390.512	1449.12
390.736	1475.12
390.961	1503.12
391.186	1492.12
391.411	1494.12
391.636	1518.12
391.86	1528.12
392.085	1557.12
392.31	1554.12
392.534	1540.12
392.759	1514.12
392.984	1535.12
393.208	1527.12
393.433	1520.12
393.658	1515.12
393.882	1501.12
394.107	1494.12
394.331	1536.12
394.556	1498.12
394.78	1521.12
395.005	1556.12
395.229	1527.12
395.454	1594.12
395.678	1539.12
395.903	1606.12
396.127	1602.12
396.352	1548.12
396.576	1551.12
396.801	1582.12
397.025	1575.12
397.249	1629.12
397.474	1647.12
397.698	1642.12
397.922	1647.12
398.147	1644.12
398.371	1678.12
398.595	1697.12
398.82	1726.12
399.044	1803.12
399.268	1890.12
399.492	1969.12
399.717	2040.12
399.941	2047.12
400.165	2060.12
400.389	1943.12
400.613	1903.12
400.837	1870.12
401.062	1824.12
401.286	1795.12
401.51	1762.12
401.734	1763.12
401.958	1745.12
402.182	1744.12
402.406	1742.12
402.63	1729.12
402.854	1744.12
403.078	1776.12
403.302	1781.12
403.526	1771.12
403.75	1786.12
403.974	1779.12
404.198	1771.12
404.422	1784.12
404.645	1783.12
404.869	1814.12
405.093	1809.12
405.317	1820.12
405.541	1814.12
405.765	1796.12
405.988	1851.12
406.212	1877.12
406.436	1905.12
406.66	1941.12
406.883	1898.12
407.107	1984.12
407.331	1996.12
407.555	2044.12
407.778	2081.12
408.002	2015.12
408.226	2036.12
408.449	2020.12
408.673	1940.12
408.896	1931.12
409.12	1920.12
409.344	1919.12
409.567	1871.12
409.791	1918.12
410.014	1867.12
410.238	1872.12
410.461	1835.12
410.685	1873.12
410.908	1844.12
411.132	1831.12
411.355	1832.12
411.578	1819.12
411.802	1813.12
412.025	1811.12
412.249	1843.12
412.472	1847.12
412.695	1815.12
412.919	1757.12
413.142	1798.12
413.365	1783.12
413.589	1808.12
413.812	1787.12
414.035	1775.12
414.258	1742.12
414.482	1751.12
414.705	1751.12
414.928	1793.12
415.151	1794.12
415.374	1788.12
415.597	1745.12
415.821	1691.12
416.044	1690.12
416.267	1677.12
416.49	1711.12
416.713	1720.12
416.936	1694.12
417.159	1634.12
417.382	1659.12
417.605	1684.12
417.828	1688.12
418.051	1696.12
418.274	1691.12
418.497	1652.12
418.72	1707.12
418.943	1667.12
419.166	1772.12
419.389	1879.12
419.611	1884.12
419.834	1772.12
420.057	1748.12
420.28	1689.12
420.503	1676.12
420.726	1650.12
420.948	1652.12
421.171	1667.12
421.394	1663.12
421.617	1662.12
421.839	1644.12
422.062	1673.12
422.285	1624.12
422.507	1716.12
422.73	1681.12
422.953	1660.12
423.175	1665.12
423.398	1681.12
423.621	1657.12
423.843	1691.12
424.066	1691.12
424.288	1692.12
424.511	1673.12
424.733	1644.12
424.956	1665.12
425.178	1663.12
425.401	1638.12
425.623	1673.12
425.846	1611.12
426.068	1639.12
426.291	1655.12
426.513	1659.12
426.735	1676.12
426.958	1692.12
427.18	1603.12
427.402	1625.12
427.625	1631.12
427.847	1571.12
428.069	1561.12
428.292	1629.12
428.514	1567.12
428.736	1605.12
428.958	1589.12
429.181	1557.12
429.403	1565.12
429.625	1599.12
429.847	1580.12
430.069	1551.12
430.292	1587.12
430.514	1556.12
430.736	1550.12
430.958	1605.12
431.18	1585.12
431.402	1620.12
431.624	1571.12
431.846	1597.12
432.068	1601.12
432.29	1621.12
432.512	1590.12
432.734	1608.12
432.956	1608.12
433.178	1609.12
433.4	1599.12
433.622	1617.12
433.844	1613.12
434.066	1604.12
434.287	1613.12
434.509	1648.12
434.731	1640.12
434.953	1675.12
435.175	1669.12
435.397	1661.12
435.618	1612.12
435.84	1638.12
436.062	1598.12
436.284	1625.12
436.505	1588.12
436.727	1594.12
436.949	1543.12
437.17	1536.12
437.392	1547.12
437.614	1536.12
437.835	1541.12
438.057	1568.12
438.278	1532.12
438.5	1570.12
438.721	1529.12
438.943	1570.12
439.165	1509.12
439.386	1539.12
439.608	1573.12
439.829	1540.12
440.05	1550.12
440.272	1585.12
440.493	1581.12
440.715	1612.12
440.936	1610.12
441.158	1620.12
441.379	1619.12
441.6	1668.12
441.822	1627.12
442.043	1621.12
442.264	1664.12
442.486	1641.12
442.707	1665.12
442.928	1636.12
443.149	1617.12
443.371	1622.12
443.592	1616.12
443.813	1632.12
444.034	1675.12
444.255	1674.12
444.476	1747.12
444.698	1727.12
444.919	1728.12
445.14	1824.12
445.361	1757.12
445.582	1673.12
445.803	1650.12
446.024	1632.12
446.245	1628.12
446.466	1603.12
446.687	1540.12
446.908	1574.12
447.129	1557.12
447.35	1514.12
447.571	1508.12
447.792	1472.12
448.013	1496.12
448.234	1472.12
448.455	1499.12
448.675	1465.12
448.896	1500.12
449.117	1402.12
449.338	1442.12
449.559	1432.12
449.779	1460.12
450	1417.12
450.221	1414.12
450.442	1436.12
450.662	1398.12
450.883	1392.12
451.104	1404.12
451.324	1392.12
451.545	1426.12
451.766	1438.12
451.986	1407.12
452.207	1436.12
452.428	1437.12
452.648	1435.12
452.869	1404.12
453.089	1362.12
453.31	1411.12
453.53	1386.12
453.751	1366.12
453.971	1397.12
454.192	1379.12
454.412	1347.12
454.633	1379.12
454.853	1356.12
455.073	1393.12
455.294	1416.12
455.514	1364.12
455.734	1388.12
455.955	1333.12
456.175	1352.12
456.395	1344.12
456.616	1358.12
456.836	1379.12
457.056	1377.12
457.276	1389.12
457.497	1410.12
457.717	1371.12
457.937	1376.12
458.157	1405.12
458.377	1425.12
458.598	1453.12
458.818	1501.12
459.038	1473.12
459.258	1498.12
459.478	1573.12
459.698	1593.12
459.918	1565.12
460.138	1633.12
460.358	1672.12
460.578	1658.12
460.798	1692.12
461.018	1700.12
461.238	1698.12
461.458	1728.12
461.678	1712.12
461.898	1727.12
462.118	1735.12
462.338	1805.12
462.558	1805.12
462.777	1846.12
462.997	1931.12
463.217	1952.12
463.437	1979.12
463.657	1911.12
463.876	1887.12
464.096	1852.12
464.316	1857.12
464.536	1851.12
464.755	1859.12
464.975	1847.12
465.195	1749.12
465.414	1731.12
465.634	1684.12
465.854	1637.12
466.073	1612.12
466.293	1579.12
466.512	1565.12
466.732	1585.12
466.951	1573.12
467.171	1580.12
467.391	1525.12
467.61	1525.12
467.829	1522.12
468.049	1538.12
468.268	1488.12
468.488	1484.12
468.707	1452.12
468.927	1576.12
469.146	1553.12
469.365	1509.12
469.585	1527.12
469.804	1565.12
470.023	1553.12
470.243	1535.12
470.462	1543.12
470.681	1563.12
470.901	1553.12
471.12	1493.12
471.339	1526.12
471.558	1543.12
471.777	1554.12
471.997	1537.12
472.216	1549.12
472.435	1526.12
472.654	1501.12
472.873	1495.12
473.092	1519.12
473.311	1541.12
473.53	1509.12
473.749	1524.12
473.968	1539.12
474.187	1556.12
474.406	1529.12
474.625	1524.12
474.844	1539.12
475.063	1508.12
475.282	1527.12
475.501	1575.12
475.72	1557.12
475.939	1592.12
476.158	1611.12
476.377	1607.12
476.596	1661.12
476.814	1715.12
477.033	1666.12
477.252	1632.12
477.471	1641.12
477.69	1723.12
477.908	1727.12
478.127	1783.12
478.346	1755.12
478.564	1761.12
478.783	1801.12
479.002	1819.12
479.22	1868.12
479.439	1861.12
479.658	1825.12
479.876	1866.12
480.095	1889.12
480.313	1900.12
480.532	1867.12
480.751	1884.12
480.969	1880.12
481.188	1902.12
481.406	1895.12
481.624	1871.12
481.843	1849.12
482.061	1846.12
482.28	1852.12
482.498	1872.12
482.717	1805.12
482.935	1813.12
483.153	1827.12
483.372	1850.12
483.59	1862.12
483.808	1869.12
484.027	1853.12
484.245	1859.12
484.463	1882.12
484.681	1866.12
484.9	1887.12
485.118	1859.12
485.336	1876.12
485.554	1905.12
485.772	1904.12
485.99	1885.12
486.209	1912.12
486.427	1903.12
486.645	1899.12
486.863	1895.12
487.081	1876.12
487.299	1912.12
487.517	1922.12
487.735	1882.12
487.953	1945.12
488.171	1913.12
488.389	1923.12
488.607	1889.12
488.825	1901.12
489.043	1881.12
489.261	1903.12
489.479	1926.12
489.696	1899.12
489.914	1876.12
490.132	1899.12
490.35	1931.12
490.568	1909.12
490.786	1893.12
491.003	1919.12
491.221	1945.12
491.439	1888.12
491.657	1914.12
491.874	1934.12
492.092	1952.12
492.31	1983.12
492.527	1966.12
492.745	1953.12
492.963	1924.12
493.18	1927.12
493.398	1942.12
493.615	1951.12
493.833	1929.12
494.05	1959.12
494.268	1965.12
494.485	1965.12
494.703	1961.12
494.92	1962.12
495.138	1982.12
495.355	1950.12
495.573	2027.12
495.79	1998.12
496.008	2061.12
496.225	2036.12
496.442	2039.12
496.66	2016.12
496.877	2120.12
497.094	2091.12
497.312	2168.12
497.529	2169.12
497.746	2214.12
497.963	2257.12
498.181	2320.12
498.398	2407.12
498.615	2486.12
498.832	2572.12
499.049	2673.12
499.267	2723.12
499.484	2828.12
499.701	3000.12
499.918	3145.12
500.135	3269.12
500.352	3447.12
500.569	3439.12
500.786	3428.12
501.003	3405.12
501.22	3312.12
501.437	3096.12
501.654	2917.12
501.871	2819.12
502.088	2746.12
502.305	2655.12
502.522	2525.12
502.739	2488.12
502.956	2356.12
503.172	2353.12
503.389	2282.12
503.606	2211.12
503.823	2175.12
504.04	2177.12
504.256	2146.12
504.473	2072.12
504.69	2086.12
504.907	2041.12
505.123	1998.12
505.34	1985.12
505.557	1935.12
505.773	1887.12
505.99	1887.12
506.207	1857.12
506.423	1800.12
506.64	1763.12
506.856	1779.12
507.073	1724.12
507.289	1728.12
507.506	1728.12
507.722	1697.12
507.939	1707.12
508.155	1701.12
508.372	1690.12
508.588	1649.12
508.805	1659.12
509.021	1628.12
509.238	1627.12
509.454	1587.12
509.67	1613.12
509.887	1588.12
510.103	1615.12
510.319	1590.12
510.536	1560.12
510.752	1565.12
510.968	1564.12
511.184	1555.12
511.401	1537.12
511.617	1541.12
511.833	1553.12
512.049	1498.12
512.265	1541.12
512.481	1523.12
512.698	1552.12
512.914	1568.12
513.13	1579.12
513.346	1537.12
513.562	1535.12
513.778	1553.12
513.994	1552.12
514.21	1549.12
514.426	1541.12
514.642	1549.12
514.858	1586.12
515.074	1580.12
515.29	1567.12
515.506	1565.12
515.721	1627.12
515.937	1603.12
516.153	1617.12
516.369	1658.12
516.585	1663.12
516.801	1673.12
517.016	1736.12
517.232	1765.12
517.448	1782.12
517.664	1775.12
517.879	1759.12
518.095	1736.12
518.311	1735.12
518.527	1724.12
518.742	1721.12
518.958	1672.12
519.173	1661.12
519.389	1651.12
519.605	1611.12
519.82	1610.12
520.036	1606.12
520.251	1612.12
520.467	1539.12
520.682	1474.12
520.898	1513.12
521.113	1495.12
521.329	1480.12
521.544	1464.12
521.76	1530.12
521.975	1499.12
522.19	1455.12
522.406	1436.12
522.621	1474.12
522.836	1449.12
523.052	1439.12
523.267	1396.12
523.482	1416.12
523.698	1401.12
523.913	1429.12
524.128	1404.12
524.343	1365.12
524.559	1375.12
524.774	1352.12
524.989	1367.12
525.204	1392.12
525.419	1376.12
525.634	1365.12
525.849	1376.12
526.064	1371.12
526.28	1368.12
526.495	1396.12
526.71	1372.12
526.925	1324.12
527.14	1352.12
527.355	1367.12
527.57	1305.12
527.785	1316.12
527.999	1352.12
528.214	1312.12
528.429	1332.12
528.644	1324.12
528.859	1337.12
529.074	1315.12
529.289	1324.12
529.503	1329.12
529.718	1339.12
529.933	1307.12
530.148	1296.12
530.363	1324.12
530.577	1314.12
530.792	1324.12
531.007	1307.12
531.221	1285.12
531.436	1296.12
531.651	1306.12
531.865	1268.12
532.08	1311.12
532.295	1318.12
532.509	1319.12
532.724	1291.12
532.938	1320.12
533.153	1295.12
533.367	1294.12
533.582	1288.12
533.796	1272.12
534.011	1269.12
534.225	1275.12
534.44	1264.12
534.654	1324.12
534.868	1275.12
535.083	1257.12
535.297	1279.12
535.511	1273.12
535.726	1280.12
535.94	1234.12
536.154	1256.12
536.369	1251.12
536.583	1250.12
536.797	1239.12
537.011	1232.12
537.225	1233.12
537.44	1250.12
537.654	1220.12
537.868	1225.12
538.082	1216.12
538.296	1214.12
538.51	1188.12
538.724	1241.12
538.938	1200.12
539.153	1192.12
539.367	1205.12
539.581	1201.12
539.795	1183.12
540.009	1189.12
540.222	1188.12
540.436	1183.12
540.65	1209.12
540.864	1177.12
541.078	1185.12
541.292	1165.12
541.506	1155.12
541.72	1173.12
541.934	1201.12
542.147	1180.12
542.361	1205.12
542.575	1182.12
542.789	1163.12
543.002	1169.12
543.216	1173.12
543.43	1184.12
543.644	1139.12
543.857	1163.12
544.071	1172.12
544.285	1196.12
544.498	1158.12
544.712	1184.12
544.925	1201.12
545.139	1167.12
545.352	1203.12
545.566	1181.12
545.779	1192.12
545.993	1201.12
546.206	1189.12
546.42	1169.12
546.633	1159.12
546.847	1159.12
547.06	1192.12
547.274	1164.12
547.487	1173.12
547.7	1169.12
547.914	1159.12
548.127	1188.12
548.34	1160.12
548.554	1171.12
548.767	1215.12
548.98	1205.12
549.193	1152.12
549.407	1186.12
549.62	1197.12
549.833	1234.12
550.046	1237.12
550.259	1201.12
550.473	1158.12
550.686	1169.12
550.899	1182.12
551.112	1175.12
551.325	1141.12
551.538	1199.12
551.751	1162.12
551.964	1140.12
552.177	1174.12
552.39	1149.12
552.603	1183.12
552.816	1194.12
553.029	1162.12
553.242	1185.12
553.455	1159.12
553.667	1176.12
553.88	1187.12
554.093	1189.12
554.306	1157.12
554.519	1147.12
554.732	1097.12
554.944	1109.12
555.157	1100.12
555.37	1091.12
555.583	1070.12
555.795	1084.12
556.008	1090.12
556.221	1071.12
556.433	1035.12
556.646	1051.12
556.859	1038.12
557.071	1013.12
557.284	1027.12
557.496	1042.12
557.709	1061.12
557.921	1013.12
558.134	1039.12
558.346	1025.12
558.559	998.12
558.771	998.12
558.984	997.12
559.196	971.12
559.409	1011.12
559.621	1015.12
559.833	979.12
560.046	985.12
560.258	962.12
560.47	975.12
560.683	965.12
560.895	988.12
561.107	974.12
561.32	975.12
561.532	988.12
561.744	970.12
561.956	960.12
562.168	973.12
562.381	959.12
562.593	998.12
562.805	1029.12
563.017	1015.12
563.229	986.12
563.441	1011.12
563.653	960.12
563.865	1023.12
564.077	1023.12
564.289	1024.12
564.501	1031.12
564.713	1034.12
564.925	1052.12
565.137	1043.12
565.349	1093.12
565.561	1097.12
565.773	1112.12
565.985	1148.12
566.197	1150.12
566.408	1213.12
566.62	1226.12
566.832	1250.12
567.044	1248.12
567.255	1247.12
567.467	1296.12
567.679	1299.12
567.891	1312.12
568.102	1302.12
568.314	1266.12
568.526	1241.12
568.737	1161.12
568.949	1126.12
569.161	1101.12
569.372	1085.12
569.584	1037.12
569.795	986.12
570.007	992.12
570.218	974.12
570.43	1026.12
570.641	980.12
570.853	948.12
571.064	947.12
571.276	959.12
571.487	912.12
571.698	898.12
571.91	876.12
572.121	849.12
572.333	838.12
572.544	851.12
572.755	847.12
572.966	835.12
573.178	805.12
573.389	816.12
573.6	806.12
573.811	797.12
574.023	808.12
574.234	804.12
574.445	818.12
574.656	771.12
574.867	797.12
575.078	780.12
575.289	795.12
575.501	771.12
575.712	774.12
575.923	757.12
576.134	752.12
576.345	756.12
576.556	750.12
576.767	741.12
576.978	757.12
577.188	741.12
577.399	713.12
577.61	719.12
577.821	721.12
578.032	731.12
578.243	728.12
578.454	718.12
578.665	729.12
578.875	701.12
579.086	705.12
579.297	711.12
579.508	691.12
579.718	699.12
579.929	703.12
580.14	702.12
580.35	685.12
580.561	704.12
580.772	694.12
580.982	674.12
581.193	685.12
581.403	691.12
581.614	673.12
581.825	679.12
582.035	669.12
582.246	657.12
582.456	668.12
582.667	680.12
582.877	665.12
583.087	662.12
583.298	666.12
583.508	671.12
583.719	643.12
583.929	664.12
584.139	666.12
584.35	651.12
584.56	653.12
584.77	637.12
584.981	645.12
585.191	628.12
585.401	631.12
585.611	637.12
585.821	628.12
586.032	636.12
586.242	659.12
586.452	654.12
586.662	636.12
586.872	629.12
587.082	613.12
587.292	621.12
587.502	623.12
587.713	599.12
587.923	634.12
588.133	643.12
588.343	618.12
588.553	638.12
588.762	639.12
588.972	614.12
589.182	653.12
589.392	645.12
589.602	644.12
589.812	645.12
590.022	640.12
590.232	649.12
590.441	624.12
590.651	606.12
590.861	628.12
591.071	637.12
591.281	639.12
591.49	623.12
591.7	623.12
591.91	635.12
592.119	623.12
592.329	652.12
592.539	674.12
592.748	668.12
592.958	656.12
593.167	668.12
593.377	696.12
593.587	687.12
593.796	665.12
594.006	678.12
594.215	637.12
594.424	663.12
594.634	671.12
594.843	605.12
595.053	645.12
595.262	637.12
595.472	626.12
595.681	592.12
595.89	600.12
596.1	613.12
596.309	583.12
596.518	573.12
596.727	587.12
596.937	563.12
597.146	577.12
597.355	559.12
597.564	565.12
597.774	570.12
597.983	555.12
598.192	521.12
598.401	551.12
598.61	539.12
598.819	536.12
599.028	523.12
599.237	545.12
599.446	525.12
599.655	529.12
599.864	544.12
600.073	514.12
600.282	535.12
600.491	513.12
600.7	519.12
600.909	510.12
601.118	519.12
601.327	518.12
601.536	516.12
601.745	507.12
601.953	507.12
602.162	534.12
602.371	512.12
602.58	486.12
602.789	484.12
602.997	515.12
603.206	515.12
603.415	509.12
603.623	485.12
603.832	484.12
604.041	496.12
604.249	486.12
604.458	469.12
604.666	469.12
604.875	480.12
605.084	474.12
605.292	476.12
605.501	485.12
605.709	488.12
605.918	488.12
606.126	463.12
606.334	476.12
606.543	460.12
606.751	473.12
606.96	465.12
607.168	466.12
607.376	471.12
607.585	483.12
607.793	459.12
608.001	472.12
608.21	485.12
608.418	467.12
608.626	458.12
608.834	452.12
609.043	471.12
609.251	445.12
609.459	453.12
609.667	471.12
609.875	475.12
610.083	460.12
610.291	469.12
610.499	442.12
610.707	457.12
610.916	443.12
611.124	431.12
611.332	415.12
611.54	431.12
611.748	454.12
611.955	437.12
612.163	444.12
612.371	456.12
612.579	431.12
612.787	455.12
612.995	448.12
613.203	458.12
613.411	432.12
613.618	444.12
613.826	424.12
614.034	433.12
614.242	422.12
614.449	419.12
614.657	436.12
614.865	439.12
615.072	436.12
615.28	454.12
615.488	411.12
615.695	426.12
615.903	423.12
616.111	414.12
616.318	414.12
616.526	414.12
616.733	442.12
616.941	417.12
617.148	426.12
617.356	418.12
617.563	425.12
617.771	435.12
617.978	429.12
618.185	423.12
618.393	412.12
618.6	421.12
618.807	425.12
619.015	458.12
619.222	410.12
619.429	408.12
619.637	424.12
619.844	404.12
620.051	403.12
620.258	408.12
620.466	400.12
620.673	400.12
620.88	396.12
621.087	406.12
621.294	398.12
621.501	388.12
621.708	410.12
621.915	392.12
622.122	390.12
622.329	394.12
622.536	412.12
622.743	410.12
622.95	411.12
623.157	391.12
623.364	376.12
623.571	382.12
623.778	373.12
623.985	393.12
624.192	379.12
624.399	393.12
624.606	387.12
624.812	388.12
625.019	387.12
625.226	376.12
625.433	373.12
625.639	347.12
625.846	375.12
626.053	377.12
626.259	375.12
626.466	368.12
626.673	369.12
626.879	378.12
627.086	375.12
627.293	353.12
627.499	354.12
627.706	367.12
627.912	353.12
628.119	363.12
628.325	372.12
628.532	377.12
628.738	360.12
628.945	361.12
629.151	353.12
629.357	354.12
629.564	358.12
629.77	341.12
629.976	345.12
630.183	343.12
630.389	354.12
630.595	351.12
630.802	351.12
631.008	335.12
631.214	352.12
631.42	344.12
631.627	338.12
631.833	353.12
632.039	364.12
632.245	360.12
632.451	330.12
632.657	337.12
632.863	343.12
633.069	331.12
633.275	335.12
633.481	326.12
633.688	340.12
633.893	328.12
634.099	324.12
634.305	338.12
634.511	336.12
634.717	321.12
634.923	335.12
635.129	320.12
635.335	332.12
635.541	321.12
635.747	327.12
635.952	329.12
636.158	325.12
636.364	327.12
636.57	327.12
636.775	324.12
636.981	315.12
637.187	311.12
637.392	320.12
637.598	337.12
637.804	317.12
638.009	329.12
638.215	328.12
638.421	343.12
638.626	337.12
638.832	324.12
639.037	311.12
639.243	328.12
639.448	320.12
639.654	310.12
639.859	313.12
640.065	329.12
640.27	321.12
640.475	297.12
640.681	299.12
640.886	312.12
641.091	305.12
641.297	309.12
641.502	309.12
641.707	317.12
641.913	303.12
642.118	317.12
642.323	314.12
642.528	310.12
642.733	295.12
642.939	309.12
643.144	321.12
643.349	312.12
643.554	297.12
643.759	297.12
643.964	302.12
644.169	303.12
644.374	301.12
644.579	304.12
644.784	304.12
644.989	316.12
645.194	312.12
645.399	297.12
645.604	316.12
645.809	321.12
646.014	336.12
646.219	291.12
646.423	313.12
646.628	319.12
646.833	302.12
647.038	308.12
647.243	323.12
647.447	310.12
647.652	310.12
647.857	314.12
648.062	320.12
648.266	331.12
648.471	343.12
648.676	331.12
648.88	325.12
649.085	336.12
649.289	324.12
649.494	330.12
649.698	323.12
649.903	320.12
650.107	317.12
650.312	333.12
650.516	326.12
650.721	315.12
650.925	315.12
651.13	292.12
651.334	296.12
651.539	308.12
651.743	299.12
651.947	293.12
652.152	296.12
652.356	304.12
652.56	295.12
652.764	311.12
652.969	303.12
653.173	304.12
653.377	299.12
653.581	303.12
653.785	293.12
653.99	272.12
654.194	300.12
654.398	295.12
654.602	305.12
654.806	289.12
655.01	310.12
655.214	303.12
655.418	294.12
655.622	323.12
655.826	299.12
656.03	314.12
656.234	319.12
656.438	333.12
656.642	321.12
656.846	308.12
657.049	279.12
657.253	279.12
657.457	258.12
657.661	253.12
657.865	236.12
658.068	229.12
658.272	199.12
658.476	173.12
658.68	171.12
658.883	168.12
659.087	182.12
659.291	161.12
659.494	176.12
659.698	151.12
659.901	141.12
660.105	139.12
660.309	132.12
660.512	137.12
660.716	129.12
660.919	124.12
661.123	105.12
661.326	101.12
661.53	112.12
661.733	106.12
661.936	107.12
662.14	90.12
662.343	99.12
662.546	97.12
662.75	95.12
662.953	83.12
663.156	95.12
663.36	84.12
663.563	91.12
663.766	79.12
663.969	83.12
664.173	85.12
664.376	67.12
664.579	72.12
664.782	82.12
664.985	90.12
665.188	81.12
665.391	86.12
665.594	89.12
665.797	89.12
666	73.12
666.203	97.12
666.406	76.12
666.609	82.12
666.812	81.12
667.015	74.12
667.218	70.12
667.421	62.12
667.624	76.12
667.827	82.12
668.03	79.12
668.232	87.12
668.435	83.12
668.638	82.12
668.841	82.12
669.043	81.12
669.246	94.12
669.449	86.12
669.651	76.12
669.854	76.12
670.057	74.12
670.259	81.12
670.462	77.12
670.665	71.12
670.867	80.12
671.07	72.12
671.272	87.12
671.475	83.12
671.677	81.12
671.88	78.12
672.082	83.12
672.284	88.12
672.487	83.12
672.689	85.12
672.892	76.12
