Data from Fe(NO3)3@0.0125M.TitratingCurve.Agarose3%dH2O.NegLispCup.LampEnergy10.LIBS07252019_HRD10591_16-59-27-336.txt Node
Date: Thu Jul 25 16:59:27 EDT 2019
User: cochatt
Spectrometer: HR+D1059
Trigger mode: 1
Integration Time (sec): 1.000000E-1
Scans to average: 1
Electric dark correction enabled: true
Nonlinearity correction enabled: false
Boxcar width: 0
XAxis mode: Wavelengths
Number of Pixels in Spectrum: 2048
>>>>>Begin Spectral Data<<<<<
223.165	-22.12
223.4	-22.12
223.635	-22.12
223.869	-18.12
224.104	-15.12
224.338	-7.12
224.573	-9.12
224.808	-15.12
225.042	-11.12
225.277	-7.12
225.511	-8.12
225.746	-4.12
225.98	1.88
226.215	2.88
226.449	28.88
226.683	38.88
226.918	16.88
227.152	27.88
227.387	25.88
227.621	37.88
227.856	61.88
228.09	45.88
228.324	60.88
228.559	53.88
228.793	67.88
229.027	90.88
229.262	81.88
229.496	89.88
229.73	79.88
229.964	84.88
230.199	98.88
230.433	88.88
230.667	97.88
230.901	94.88
231.136	98.88
231.37	101.88
231.604	103.88
231.838	107.88
232.072	90.88
232.306	106.88
232.541	105.88
232.775	103.88
233.009	87.88
233.243	117.88
233.477	106.88
233.711	97.88
233.945	110.88
234.179	106.88
234.413	99.88
234.647	116.88
234.881	105.88
235.115	96.88
235.349	113.88
235.583	110.88
235.817	106.88
236.051	100.88
236.285	105.88
236.519	130.88
236.753	111.88
236.987	110.88
237.221	119.88
237.455	114.88
237.689	107.88
237.922	110.88
238.156	125.88
238.39	120.88
238.624	108.88
238.858	106.88
239.091	118.88
239.325	116.88
239.559	122.88
239.793	103.88
240.027	112.88
240.26	116.88
240.494	122.88
240.728	132.88
240.961	132.88
241.195	122.88
241.429	116.88
241.662	115.88
241.896	123.88
242.13	129.88
242.363	124.88
242.597	118.88
242.83	130.88
243.064	121.88
243.298	132.88
243.531	128.88
243.765	134.88
243.998	120.88
244.232	122.88
244.465	129.88
244.699	126.88
244.932	125.88
245.166	140.88
245.399	127.88
245.633	142.88
245.866	130.88
246.099	136.88
246.333	128.88
246.566	129.88
246.8	127.88
247.033	145.88
247.266	148.88
247.5	140.88
247.733	146.88
247.966	150.88
248.2	136.88
248.433	138.88
248.666	150.88
248.899	152.88
249.133	150.88
249.366	143.88
249.599	140.88
249.832	141.88
250.066	166.88
250.299	144.88
250.532	147.88
250.765	151.88
250.998	150.88
251.231	143.88
251.465	140.88
251.698	161.88
251.931	156.88
252.164	150.88
252.397	145.88
252.63	136.88
252.863	163.88
253.096	162.88
253.329	163.88
253.562	157.88
253.795	165.88
254.028	156.88
254.261	152.88
254.494	161.88
254.727	167.88
254.96	158.88
255.193	163.88
255.426	164.88
255.659	142.88
255.892	154.88
256.124	167.88
256.357	173.88
256.59	154.88
256.823	164.88
257.056	161.88
257.289	158.88
257.521	171.88
257.754	180.88
257.987	168.88
258.22	173.88
258.452	169.88
258.685	178.88
258.918	176.88
259.151	174.88
259.383	168.88
259.616	173.88
259.849	165.88
260.081	181.88
260.314	204.88
260.547	175.88
260.779	170.88
261.012	187.88
261.244	180.88
261.477	185.88
261.71	194.88
261.942	179.88
262.175	193.88
262.407	175.88
262.64	186.88
262.872	204.88
263.105	198.88
263.337	176.88
263.57	200.88
263.802	194.88
264.035	188.88
264.267	192.88
264.499	194.88
264.732	193.88
264.964	205.88
265.197	197.88
265.429	202.88
265.661	198.88
265.894	213.88
266.126	201.88
266.358	205.88
266.591	202.88
266.823	209.88
267.055	198.88
267.287	219.88
267.52	208.88
267.752	205.88
267.984	194.88
268.216	213.88
268.448	217.88
268.681	197.88
268.913	207.88
269.145	221.88
269.377	218.88
269.609	214.88
269.841	229.88
270.073	219.88
270.306	209.88
270.538	214.88
270.77	206.88
271.002	230.88
271.234	211.88
271.466	231.88
271.698	229.88
271.93	233.88
272.162	223.88
272.394	213.88
272.626	224.88
272.858	235.88
273.09	227.88
273.322	230.88
273.553	238.88
273.785	229.88
274.017	246.88
274.249	241.88
274.481	241.88
274.713	237.88
274.945	256.88
275.176	256.88
275.408	252.88
275.64	253.88
275.872	261.88
276.104	252.88
276.335	263.88
276.567	252.88
276.799	256.88
277.031	256.88
277.262	241.88
277.494	256.88
277.726	267.88
277.957	267.88
278.189	277.88
278.421	264.88
278.652	274.88
278.884	251.88
279.115	269.88
279.347	267.88
279.579	263.88
279.81	261.88
280.042	273.88
280.273	278.88
280.505	282.88
280.736	273.88
280.968	282.88
281.199	269.88
281.431	279.88
281.662	292.88
281.894	290.88
282.125	289.88
282.356	281.88
282.588	269.88
282.819	289.88
283.051	285.88
283.282	288.88
283.513	274.88
283.745	282.88
283.976	284.88
284.207	288.88
284.439	281.88
284.67	306.88
284.901	300.88
285.132	298.88
285.364	304.88
285.595	307.88
285.826	309.88
286.057	315.88
286.288	306.88
286.52	317.88
286.751	317.88
286.982	312.88
287.213	306.88
287.444	317.88
287.675	306.88
287.906	318.88
288.138	320.88
288.369	304.88
288.6	304.88
288.831	321.88
289.062	315.88
289.293	311.88
289.524	345.88
289.755	312.88
289.986	304.88
290.217	311.88
290.448	310.88
290.679	333.88
290.91	317.88
291.141	328.88
291.371	339.88
291.602	328.88
291.833	316.88
292.064	335.88
292.295	341.88
292.526	333.88
292.757	332.88
292.987	341.88
293.218	322.88
293.449	328.88
293.68	354.88
293.91	346.88
294.141	330.88
294.372	336.88
294.603	342.88
294.833	353.88
295.064	351.88
295.295	360.88
295.525	352.88
295.756	354.88
295.987	331.88
296.217	350.88
296.448	365.88
296.679	377.88
296.909	356.88
297.14	336.88
297.37	344.88
297.601	366.88
297.831	356.88
298.062	345.88
298.292	360.88
298.523	361.88
298.753	355.88
298.984	372.88
299.214	368.88
299.445	381.88
299.675	350.88
299.905	382.88
300.136	368.88
300.366	362.88
300.597	368.88
300.827	390.88
301.057	376.88
301.288	378.88
301.518	394.88
301.748	385.88
301.979	408.88
302.209	404.88
302.439	380.88
302.669	386.88
302.9	400.88
303.13	396.88
303.36	401.88
303.59	388.88
303.82	406.88
304.051	407.88
304.281	399.88
304.511	418.88
304.741	407.88
304.971	407.88
305.201	400.88
305.431	397.88
305.661	408.88
305.891	388.88
306.121	389.88
306.352	400.88
306.582	406.88
306.812	389.88
307.042	388.88
307.272	425.88
307.502	404.88
307.731	409.88
307.961	426.88
308.191	429.88
308.421	415.88
308.651	416.88
308.881	425.88
309.111	394.88
309.341	415.88
309.571	432.88
309.8	426.88
310.03	413.88
310.26	409.88
310.49	434.88
310.72	438.88
310.949	434.88
311.179	438.88
311.409	426.88
311.639	405.88
311.868	428.88
312.098	444.88
312.328	450.88
312.557	440.88
312.787	428.88
313.017	439.88
313.246	447.88
313.476	434.88
313.706	460.88
313.935	444.88
314.165	451.88
314.394	462.88
314.624	468.88
314.853	445.88
315.083	455.88
315.312	442.88
315.542	468.88
315.771	451.88
316.001	454.88
316.23	457.88
316.46	461.88
316.689	475.88
316.919	470.88
317.148	464.88
317.377	456.88
317.607	468.88
317.836	470.88
318.065	458.88
318.295	479.88
318.524	471.88
318.753	472.88
318.983	489.88
319.212	475.88
319.441	484.88
319.67	478.88
319.9	480.88
320.129	482.88
320.358	497.88
320.587	484.88
320.816	481.88
321.046	477.88
321.275	491.88
321.504	472.88
321.733	515.88
321.962	484.88
322.191	462.88
322.42	499.88
322.649	490.88
322.878	504.88
323.108	498.88
323.337	510.88
323.566	490.88
323.795	508.88
324.024	510.88
324.253	501.88
324.482	511.88
324.71	499.88
324.939	517.88
325.168	516.88
325.397	519.88
325.626	517.88
325.855	487.88
326.084	508.88
326.313	523.88
326.542	509.88
326.77	536.88
326.999	522.88
327.228	529.88
327.457	537.88
327.686	520.88
327.914	528.88
328.143	519.88
328.372	507.88
328.6	535.88
328.829	532.88
329.058	532.88
329.287	531.88
329.515	545.88
329.744	516.88
329.972	538.88
330.201	514.88
330.43	519.88
330.658	518.88
330.887	537.88
331.115	526.88
331.344	555.88
331.572	549.88
331.801	523.88
332.03	520.88
332.258	520.88
332.486	539.88
332.715	538.88
332.943	533.88
333.172	561.88
333.4	550.88
333.629	565.88
333.857	568.88
334.085	547.88
334.314	560.88
334.542	572.88
334.771	562.88
334.999	562.88
335.227	565.88
335.455	554.88
335.684	608.88
335.912	556.88
336.14	565.88
336.369	573.88
336.597	595.88
336.825	579.88
337.053	588.88
337.281	574.88
337.51	559.88
337.738	576.88
337.966	587.88
338.194	553.88
338.422	557.88
338.65	567.88
338.878	598.88
339.106	565.88
339.334	554.88
339.562	576.88
339.79	564.88
340.018	552.88
340.246	574.88
340.474	571.88
340.702	549.88
340.93	553.88
341.158	577.88
341.386	570.88
341.614	576.88
341.842	557.88
342.07	582.88
342.298	553.88
342.526	572.88
342.754	568.88
342.981	553.88
343.209	569.88
343.437	583.88
343.665	586.88
343.893	580.88
344.12	587.88
344.348	576.88
344.576	601.88
344.804	562.88
345.031	574.88
345.259	580.88
345.487	576.88
345.714	580.88
345.942	577.88
346.17	546.88
346.397	566.88
346.625	570.88
346.853	550.88
347.08	576.88
347.308	580.88
347.535	570.88
347.763	550.88
347.99	570.88
348.218	562.88
348.445	555.88
348.673	570.88
348.9	557.88
349.128	561.88
349.355	558.88
349.583	556.88
349.81	537.88
350.037	554.88
350.265	570.88
350.492	564.88
350.72	566.88
350.947	570.88
351.174	567.88
351.402	574.88
351.629	578.88
351.856	564.88
352.083	563.88
352.311	546.88
352.538	583.88
352.765	580.88
352.992	557.88
353.22	564.88
353.447	570.88
353.674	566.88
353.901	560.88
354.128	570.88
354.355	564.88
354.583	569.88
354.81	547.88
355.037	571.88
355.264	598.88
355.491	550.88
355.718	576.88
355.945	565.88
356.172	578.88
356.399	558.88
356.626	560.88
356.853	556.88
357.08	573.88
357.307	570.88
357.534	571.88
357.761	558.88
357.988	562.88
358.215	585.88
358.441	563.88
358.668	573.88
358.895	558.88
359.122	565.88
359.349	598.88
359.576	562.88
359.802	577.88
360.029	588.88
360.256	579.88
360.483	581.88
360.709	573.88
360.936	574.88
361.163	585.88
361.39	569.88
361.616	561.88
361.843	574.88
362.07	612.88
362.296	600.88
362.523	562.88
362.749	587.88
362.976	574.88
363.203	588.88
363.429	580.88
363.656	578.88
363.882	564.88
364.109	590.88
364.335	604.88
364.562	578.88
364.788	612.88
365.015	610.88
365.241	585.88
365.468	569.88
365.694	581.88
365.92	593.88
366.147	593.88
366.373	608.88
366.599	608.88
366.826	622.88
367.052	605.88
367.278	604.88
367.505	599.88
367.731	581.88
367.957	596.88
368.184	578.88
368.41	603.88
368.636	603.88
368.862	616.88
369.089	608.88
369.315	632.88
369.541	621.88
369.767	576.88
369.993	592.88
370.219	610.88
370.445	585.88
370.672	606.88
370.898	614.88
371.124	605.88
371.35	619.88
371.576	611.88
371.802	599.88
372.028	603.88
372.254	605.88
372.48	612.88
372.706	617.88
372.932	626.88
373.158	624.88
373.384	621.88
373.61	620.88
373.835	643.88
374.061	613.88
374.287	632.88
374.513	627.88
374.739	626.88
374.965	616.88
375.191	625.88
375.416	613.88
375.642	610.88
375.868	639.88
376.094	618.88
376.319	615.88
376.545	631.88
376.771	612.88
376.997	632.88
377.222	621.88
377.448	606.88
377.674	590.88
377.899	600.88
378.125	617.88
378.35	634.88
378.576	604.88
378.802	619.88
379.027	644.88
379.253	626.88
379.478	636.88
379.704	617.88
379.929	611.88
380.155	617.88
380.38	628.88
380.606	617.88
380.831	605.88
381.057	622.88
381.282	627.88
381.507	604.88
381.733	621.88
381.958	630.88
382.184	640.88
382.409	652.88
382.634	643.88
382.86	637.88
383.085	636.88
383.31	639.88
383.535	628.88
383.761	635.88
383.986	641.88
384.211	648.88
384.436	651.88
384.662	643.88
384.887	671.88
385.112	650.88
385.337	663.88
385.562	646.88
385.787	637.88
386.013	650.88
386.238	656.88
386.463	660.88
386.688	680.88
386.913	673.88
387.138	639.88
387.363	665.88
387.588	651.88
387.813	642.88
388.038	672.88
388.263	677.88
388.488	672.88
388.713	660.88
388.938	663.88
389.163	649.88
389.387	673.88
389.612	668.88
389.837	681.88
390.062	668.88
390.287	678.88
390.512	655.88
390.736	691.88
390.961	676.88
391.186	670.88
391.411	679.88
391.636	649.88
391.86	690.88
392.085	676.88
392.31	701.88
392.534	682.88
392.759	690.88
392.984	677.88
393.208	675.88
393.433	693.88
393.658	678.88
393.882	692.88
394.107	659.88
394.331	662.88
394.556	672.88
394.78	679.88
395.005	677.88
395.229	676.88
395.454	706.88
395.678	700.88
395.903	680.88
396.127	683.88
396.352	711.88
396.576	699.88
396.801	685.88
397.025	687.88
397.249	706.88
397.474	682.88
397.698	693.88
397.922	691.88
398.147	722.88
398.371	708.88
398.595	725.88
398.82	692.88
399.044	716.88
399.268	717.88
399.492	733.88
399.717	737.88
399.941	728.88
400.165	749.88
400.389	738.88
400.613	734.88
400.837	723.88
401.062	756.88
401.286	722.88
401.51	749.88
401.734	712.88
401.958	749.88
402.182	731.88
402.406	721.88
402.63	729.88
402.854	742.88
403.078	723.88
403.302	729.88
403.526	725.88
403.75	745.88
403.974	729.88
404.198	737.88
404.422	739.88
404.645	732.88
404.869	713.88
405.093	724.88
405.317	732.88
405.541	729.88
405.765	758.88
405.988	732.88
406.212	733.88
406.436	753.88
406.66	753.88
406.883	747.88
407.107	776.88
407.331	754.88
407.555	768.88
407.778	776.88
408.002	775.88
408.226	798.88
408.449	772.88
408.673	768.88
408.896	775.88
409.12	749.88
409.344	774.88
409.567	754.88
409.791	785.88
410.014	762.88
410.238	768.88
410.461	773.88
410.685	739.88
410.908	743.88
411.132	737.88
411.355	717.88
411.578	750.88
411.802	735.88
412.025	752.88
412.249	729.88
412.472	756.88
412.695	747.88
412.919	722.88
413.142	776.88
413.365	749.88
413.589	760.88
413.812	727.88
414.035	747.88
414.258	769.88
414.482	762.88
414.705	723.88
414.928	717.88
415.151	708.88
415.374	732.88
415.597	695.88
415.821	728.88
416.044	736.88
416.267	729.88
416.49	706.88
416.713	715.88
416.936	699.88
417.159	701.88
417.382	706.88
417.605	714.88
417.828	717.88
418.051	718.88
418.274	706.88
418.497	679.88
418.72	698.88
418.943	694.88
419.166	733.88
419.389	757.88
419.611	760.88
419.834	763.88
420.057	739.88
420.28	709.88
420.503	689.88
420.726	707.88
420.948	678.88
421.171	707.88
421.394	710.88
421.617	692.88
421.839	720.88
422.062	681.88
422.285	722.88
422.507	725.88
422.73	685.88
422.953	674.88
423.175	695.88
423.398	719.88
423.621	705.88
423.843	702.88
424.066	715.88
424.288	716.88
424.511	692.88
424.733	703.88
424.956	682.88
425.178	718.88
425.401	684.88
425.623	696.88
425.846	683.88
426.068	700.88
426.291	713.88
426.513	698.88
426.735	694.88
426.958	680.88
427.18	714.88
427.402	689.88
427.625	714.88
427.847	698.88
428.069	663.88
428.292	704.88
428.514	708.88
428.736	667.88
428.958	699.88
429.181	676.88
429.403	694.88
429.625	677.88
429.847	693.88
430.069	709.88
430.292	724.88
430.514	684.88
430.736	708.88
430.958	718.88
431.18	692.88
431.402	704.88
431.624	696.88
431.846	680.88
432.068	692.88
432.29	677.88
432.512	682.88
432.734	714.88
432.956	674.88
433.178	682.88
433.4	667.88
433.622	710.88
433.844	696.88
434.066	683.88
434.287	698.88
434.509	689.88
434.731	684.88
434.953	690.88
435.175	722.88
435.397	685.88
435.618	689.88
435.84	706.88
436.062	679.88
436.284	665.88
436.505	679.88
436.727	697.88
436.949	688.88
437.17	699.88
437.392	680.88
437.614	682.88
437.835	631.88
438.057	688.88
438.278	676.88
438.5	667.88
438.721	660.88
438.943	678.88
439.165	670.88
439.386	689.88
439.608	675.88
439.829	707.88
440.05	673.88
440.272	667.88
440.493	670.88
440.715	683.88
440.936	685.88
441.158	685.88
441.379	669.88
441.6	685.88
441.822	709.88
442.043	705.88
442.264	681.88
442.486	680.88
442.707	669.88
442.928	682.88
443.149	700.88
443.371	726.88
443.592	707.88
443.813	720.88
444.034	673.88
444.255	697.88
444.476	682.88
444.698	713.88
444.919	706.88
445.14	770.88
445.361	742.88
445.582	709.88
445.803	676.88
446.024	712.88
446.245	684.88
446.466	687.88
446.687	682.88
446.908	667.88
447.129	668.88
447.35	674.88
447.571	656.88
447.792	658.88
448.013	675.88
448.234	653.88
448.455	672.88
448.675	641.88
448.896	665.88
449.117	663.88
449.338	670.88
449.559	653.88
449.779	636.88
450	632.88
450.221	599.88
450.442	645.88
450.662	646.88
450.883	669.88
451.104	668.88
451.324	632.88
451.545	644.88
451.766	679.88
451.986	644.88
452.207	642.88
452.428	650.88
452.648	666.88
452.869	655.88
453.089	633.88
453.31	630.88
453.53	641.88
453.751	617.88
453.971	636.88
454.192	636.88
454.412	624.88
454.633	612.88
454.853	644.88
455.073	654.88
455.294	615.88
455.514	621.88
455.734	636.88
455.955	623.88
456.175	621.88
456.395	596.88
456.616	646.88
456.836	650.88
457.056	658.88
457.276	660.88
457.497	630.88
457.717	623.88
457.937	638.88
458.157	628.88
458.377	646.88
458.598	634.88
458.818	624.88
459.038	669.88
459.258	636.88
459.478	651.88
459.698	671.88
459.918	666.88
460.138	652.88
460.358	678.88
460.578	651.88
460.798	690.88
461.018	683.88
461.238	683.88
461.458	683.88
461.678	683.88
461.898	709.88
462.118	698.88
462.338	690.88
462.558	715.88
462.777	705.88
462.997	715.88
463.217	726.88
463.437	725.88
463.657	728.88
463.876	715.88
464.096	705.88
464.316	680.88
464.536	720.88
464.755	729.88
464.975	708.88
465.195	704.88
465.414	720.88
465.634	691.88
465.854	684.88
466.073	684.88
466.293	683.88
466.512	680.88
466.732	660.88
466.951	695.88
467.171	688.88
467.391	688.88
467.61	686.88
467.829	694.88
468.049	684.88
468.268	664.88
468.488	675.88
468.707	658.88
468.927	678.88
469.146	690.88
469.365	668.88
469.585	709.88
469.804	690.88
470.023	696.88
470.243	675.88
470.462	664.88
470.681	708.88
470.901	696.88
471.12	693.88
471.339	708.88
471.558	711.88
471.777	708.88
471.997	712.88
472.216	687.88
472.435	693.88
472.654	709.88
472.873	702.88
473.092	697.88
473.311	719.88
473.53	703.88
473.749	700.88
473.968	708.88
474.187	703.88
474.406	700.88
474.625	704.88
474.844	735.88
475.063	720.88
475.282	723.88
475.501	726.88
475.72	750.88
475.939	726.88
476.158	761.88
476.377	772.88
476.596	762.88
476.814	783.88
477.033	766.88
477.252	752.88
477.471	764.88
477.69	772.88
477.908	785.88
478.127	786.88
478.346	776.88
478.564	791.88
478.783	799.88
479.002	807.88
479.22	805.88
479.439	821.88
479.658	823.88
479.876	813.88
480.095	823.88
480.313	819.88
480.532	827.88
480.751	831.88
480.969	850.88
481.188	843.88
481.406	843.88
481.624	823.88
481.843	811.88
482.061	848.88
482.28	861.88
482.498	830.88
482.717	838.88
482.935	827.88
483.153	840.88
483.372	825.88
483.59	861.88
483.808	852.88
484.027	849.88
484.245	875.88
484.463	852.88
484.681	855.88
484.9	852.88
485.118	867.88
485.336	884.88
485.554	876.88
485.772	856.88
485.99	892.88
486.209	904.88
486.427	885.88
486.645	865.88
486.863	879.88
487.081	861.88
487.299	869.88
487.517	894.88
487.735	898.88
487.953	900.88
488.171	875.88
488.389	874.88
488.607	866.88
488.825	876.88
489.043	891.88
489.261	896.88
489.479	892.88
489.696	875.88
489.914	885.88
490.132	890.88
490.35	860.88
490.568	898.88
490.786	884.88
491.003	907.88
491.221	918.88
491.439	939.88
491.657	900.88
491.874	914.88
492.092	888.88
492.31	881.88
492.527	909.88
492.745	894.88
492.963	913.88
493.18	882.88
493.398	918.88
493.615	910.88
493.833	886.88
494.05	930.88
494.268	924.88
494.485	895.88
494.703	907.88
494.92	905.88
495.138	898.88
495.355	920.88
495.573	912.88
495.79	935.88
496.008	950.88
496.225	932.88
496.442	939.88
496.66	918.88
496.877	948.88
497.094	948.88
497.312	933.88
497.529	942.88
497.746	970.88
497.963	958.88
498.181	979.88
498.398	979.88
498.615	984.88
498.832	1005.88
499.049	994.88
499.267	1039.88
499.484	1018.88
499.701	1059.88
499.918	1035.88
500.135	1061.88
500.352	1081.88
500.569	1070.88
500.786	1065.88
501.003	1084.88
501.22	1061.88
501.437	1052.88
501.654	1022.88
501.871	1058.88
502.088	1015.88
502.305	1023.88
502.522	1004.88
502.739	994.88
502.956	993.88
503.172	961.88
503.389	978.88
503.606	964.88
503.823	973.88
504.04	938.88
504.256	906.88
504.473	940.88
504.69	908.88
504.907	907.88
505.123	917.88
505.34	882.88
505.557	920.88
505.773	898.88
505.99	879.88
506.207	893.88
506.423	886.88
506.64	850.88
506.856	858.88
507.073	838.88
507.289	846.88
507.506	833.88
507.722	844.88
507.939	828.88
508.155	856.88
508.372	831.88
508.588	831.88
508.805	826.88
509.021	852.88
509.238	793.88
509.454	797.88
509.67	805.88
509.887	778.88
510.103	791.88
510.319	814.88
510.536	819.88
510.752	788.88
510.968	797.88
511.184	799.88
511.401	803.88
511.617	809.88
511.833	802.88
512.049	794.88
512.265	797.88
512.481	791.88
512.698	768.88
512.914	772.88
513.13	809.88
513.346	796.88
513.562	795.88
513.778	797.88
513.994	789.88
514.21	801.88
514.426	798.88
514.642	786.88
514.858	789.88
515.074	788.88
515.29	809.88
515.506	792.88
515.721	799.88
515.937	778.88
516.153	803.88
516.369	810.88
516.585	804.88
516.801	785.88
517.016	796.88
517.232	792.88
517.448	786.88
517.664	788.88
517.879	818.88
518.095	801.88
518.311	788.88
518.527	786.88
518.742	774.88
518.958	783.88
519.173	789.88
519.389	808.88
519.605	792.88
519.82	798.88
520.036	806.88
520.251	780.88
520.467	779.88
520.682	793.88
520.898	768.88
521.113	775.88
521.329	766.88
521.544	748.88
521.76	739.88
521.975	770.88
522.19	763.88
522.406	759.88
522.621	737.88
522.836	765.88
523.052	777.88
523.267	742.88
523.482	753.88
523.698	738.88
523.913	734.88
524.128	724.88
524.343	772.88
524.559	749.88
524.774	722.88
524.989	734.88
525.204	736.88
525.419	737.88
525.634	737.88
525.849	733.88
526.064	742.88
526.28	717.88
526.495	727.88
526.71	739.88
526.925	717.88
527.14	734.88
527.355	738.88
527.57	709.88
527.785	724.88
527.999	719.88
528.214	745.88
528.429	721.88
528.644	718.88
528.859	736.88
529.074	712.88
529.289	716.88
529.503	723.88
529.718	737.88
529.933	729.88
530.148	719.88
530.363	737.88
530.577	701.88
530.792	705.88
531.007	713.88
531.221	726.88
531.436	747.88
531.651	710.88
531.865	697.88
532.08	702.88
532.295	715.88
532.509	697.88
532.724	704.88
532.938	725.88
533.153	698.88
533.367	720.88
533.582	731.88
533.796	704.88
534.011	694.88
534.225	706.88
534.44	690.88
534.654	692.88
534.868	694.88
535.083	692.88
535.297	680.88
535.511	691.88
535.726	700.88
535.94	705.88
536.154	684.88
536.369	665.88
536.583	678.88
536.797	704.88
537.011	662.88
537.225	696.88
537.44	682.88
537.654	689.88
537.868	677.88
538.082	663.88
538.296	648.88
538.51	691.88
538.724	683.88
538.938	681.88
539.153	677.88
539.367	669.88
539.581	650.88
539.795	661.88
540.009	688.88
540.222	664.88
540.436	646.88
540.65	670.88
540.864	668.88
541.078	661.88
541.292	682.88
541.506	671.88
541.72	682.88
541.934	671.88
542.147	675.88
542.361	655.88
542.575	667.88
542.789	663.88
543.002	655.88
543.216	640.88
543.43	660.88
543.644	658.88
543.857	638.88
544.071	664.88
544.285	672.88
544.498	646.88
544.712	660.88
544.925	664.88
545.139	647.88
545.352	648.88
545.566	622.88
545.779	638.88
545.993	639.88
546.206	648.88
546.42	647.88
546.633	639.88
546.847	653.88
547.06	655.88
547.274	656.88
547.487	648.88
547.7	630.88
547.914	638.88
548.127	642.88
548.34	622.88
548.554	641.88
548.767	636.88
548.98	628.88
549.193	637.88
549.407	627.88
549.62	662.88
549.833	643.88
550.046	642.88
550.259	638.88
550.473	640.88
550.686	624.88
550.899	651.88
551.112	648.88
551.325	614.88
551.538	615.88
551.751	626.88
551.964	601.88
552.177	627.88
552.39	625.88
552.603	632.88
552.816	636.88
553.029	594.88
553.242	614.88
553.455	600.88
553.667	627.88
553.88	627.88
554.093	610.88
554.306	613.88
554.519	593.88
554.732	617.88
554.944	620.88
555.157	604.88
555.37	600.88
555.583	599.88
555.795	585.88
556.008	608.88
556.221	607.88
556.433	573.88
556.646	591.88
556.859	596.88
557.071	605.88
557.284	565.88
557.496	599.88
557.709	586.88
557.921	581.88
558.134	587.88
558.346	566.88
558.559	574.88
558.771	566.88
558.984	564.88
559.196	580.88
559.409	570.88
559.621	562.88
559.833	555.88
560.046	535.88
560.258	551.88
560.47	566.88
560.683	572.88
560.895	560.88
561.107	570.88
561.32	566.88
561.532	552.88
561.744	568.88
561.956	574.88
562.168	558.88
562.381	574.88
562.593	546.88
562.805	542.88
563.017	549.88
563.229	552.88
563.441	558.88
563.653	572.88
563.865	551.88
564.077	560.88
564.289	561.88
564.501	549.88
564.713	566.88
564.925	574.88
565.137	560.88
565.349	553.88
565.561	550.88
565.773	556.88
565.985	553.88
566.197	569.88
566.408	580.88
566.62	566.88
566.832	548.88
567.044	561.88
567.255	551.88
567.467	565.88
567.679	571.88
567.891	579.88
568.102	560.88
568.314	548.88
568.526	562.88
568.737	541.88
568.949	542.88
569.161	510.88
569.372	531.88
569.584	534.88
569.795	532.88
570.007	518.88
570.218	499.88
570.43	514.88
570.641	531.88
570.853	501.88
571.064	487.88
571.276	506.88
571.487	506.88
571.698	490.88
571.91	486.88
572.121	503.88
572.333	470.88
572.544	492.88
572.755	474.88
572.966	471.88
573.178	472.88
573.389	490.88
573.6	474.88
573.811	468.88
574.023	452.88
574.234	452.88
574.445	458.88
574.656	462.88
574.867	452.88
575.078	452.88
575.289	438.88
575.501	445.88
575.712	452.88
575.923	446.88
576.134	446.88
576.345	435.88
576.556	448.88
576.767	430.88
576.978	446.88
577.188	439.88
577.399	438.88
577.61	444.88
577.821	445.88
578.032	430.88
578.243	429.88
578.454	441.88
578.665	446.88
578.875	426.88
579.086	410.88
579.297	424.88
579.508	429.88
579.718	428.88
579.929	440.88
580.14	421.88
580.35	426.88
580.561	419.88
580.772	399.88
580.982	402.88
581.193	406.88
581.403	404.88
581.614	409.88
581.825	416.88
582.035	436.88
582.246	411.88
582.456	406.88
582.667	394.88
582.877	405.88
583.087	406.88
583.298	395.88
583.508	399.88
583.719	392.88
583.929	394.88
584.139	409.88
584.35	408.88
584.56	394.88
584.77	398.88
584.981	398.88
585.191	411.88
585.401	380.88
585.611	381.88
585.821	402.88
586.032	371.88
586.242	386.88
586.452	384.88
586.662	386.88
586.872	380.88
587.082	382.88
587.292	395.88
587.502	388.88
587.713	398.88
587.923	372.88
588.133	382.88
588.343	370.88
588.553	361.88
588.762	375.88
588.972	368.88
589.182	384.88
589.392	378.88
589.602	376.88
589.812	364.88
590.022	380.88
590.232	363.88
590.441	363.88
590.651	347.88
590.861	371.88
591.071	361.88
591.281	373.88
591.49	374.88
591.7	368.88
591.91	366.88
592.119	366.88
592.329	349.88
592.539	363.88
592.748	374.88
592.958	376.88
593.167	363.88
593.377	355.88
593.587	368.88
593.796	372.88
594.006	338.88
594.215	350.88
594.424	358.88
594.634	360.88
594.843	340.88
595.053	358.88
595.262	337.88
595.472	344.88
595.681	341.88
595.89	352.88
596.1	344.88
596.309	340.88
596.518	355.88
596.727	337.88
596.937	352.88
597.146	335.88
597.355	343.88
597.564	346.88
597.774	326.88
597.983	313.88
598.192	322.88
598.401	331.88
598.61	349.88
598.819	325.88
599.028	341.88
599.237	316.88
599.446	338.88
599.655	312.88
599.864	335.88
600.073	318.88
600.282	316.88
600.491	315.88
600.7	306.88
600.909	316.88
601.118	318.88
601.327	316.88
601.536	324.88
601.745	306.88
601.953	313.88
602.162	343.88
602.371	323.88
602.58	306.88
602.789	325.88
602.997	310.88
603.206	317.88
603.415	311.88
603.623	321.88
603.832	314.88
604.041	316.88
604.249	313.88
604.458	323.88
604.666	314.88
604.875	312.88
605.084	315.88
605.292	312.88
605.501	313.88
605.709	307.88
605.918	310.88
606.126	311.88
606.334	308.88
606.543	312.88
606.751	282.88
606.96	297.88
607.168	307.88
607.376	296.88
607.585	307.88
607.793	308.88
608.001	297.88
608.21	303.88
608.418	297.88
608.626	298.88
608.834	289.88
609.043	272.88
609.251	294.88
609.459	306.88
609.667	286.88
609.875	281.88
610.083	285.88
610.291	283.88
610.499	260.88
610.707	288.88
610.916	300.88
611.124	290.88
611.332	288.88
611.54	292.88
611.748	290.88
611.955	289.88
612.163	290.88
612.371	288.88
612.579	294.88
612.787	274.88
612.995	279.88
613.203	275.88
613.411	299.88
613.618	288.88
613.826	270.88
614.034	286.88
614.242	283.88
614.449	273.88
614.657	272.88
614.865	278.88
615.072	297.88
615.28	289.88
615.488	285.88
615.695	267.88
615.903	276.88
616.111	280.88
616.318	282.88
616.526	265.88
616.733	275.88
616.941	264.88
617.148	274.88
617.356	274.88
617.563	261.88
617.771	278.88
617.978	268.88
618.185	260.88
618.393	270.88
618.6	273.88
618.807	282.88
619.015	272.88
619.222	281.88
619.429	279.88
619.637	269.88
619.844	274.88
620.051	265.88
620.258	259.88
620.466	257.88
620.673	258.88
620.88	252.88
621.087	271.88
621.294	240.88
621.501	257.88
621.708	262.88
621.915	260.88
622.122	262.88
622.329	261.88
622.536	283.88
622.743	252.88
622.95	267.88
623.157	281.88
623.364	275.88
623.571	282.88
623.778	258.88
623.985	247.88
624.192	263.88
624.399	257.88
624.606	234.88
624.812	252.88
625.019	249.88
625.226	244.88
625.433	236.88
625.639	231.88
625.846	256.88
626.053	258.88
626.259	252.88
626.466	234.88
626.673	250.88
626.879	242.88
627.086	227.88
627.293	251.88
627.499	258.88
627.706	232.88
627.912	259.88
628.119	258.88
628.325	248.88
628.532	231.88
628.738	240.88
628.945	241.88
629.151	242.88
629.357	232.88
629.564	217.88
629.77	227.88
629.976	212.88
630.183	239.88
630.389	242.88
630.595	233.88
630.802	237.88
631.008	225.88
631.214	227.88
631.42	232.88
631.627	228.88
631.833	234.88
632.039	222.88
632.245	226.88
632.451	214.88
632.657	225.88
632.863	228.88
633.069	208.88
633.275	225.88
633.481	211.88
633.688	225.88
633.893	214.88
634.099	212.88
634.305	216.88
634.511	223.88
634.717	211.88
634.923	216.88
635.129	206.88
635.335	228.88
635.541	219.88
635.747	205.88
635.952	214.88
636.158	206.88
636.364	198.88
636.57	226.88
636.775	210.88
636.981	202.88
637.187	214.88
637.392	196.88
637.598	197.88
637.804	202.88
638.009	217.88
638.215	201.88
638.421	198.88
638.626	222.88
638.832	216.88
639.037	215.88
639.243	212.88
639.448	224.88
639.654	201.88
639.859	195.88
640.065	222.88
640.27	206.88
640.475	212.88
640.681	216.88
640.886	198.88
641.091	206.88
641.297	213.88
641.502	196.88
641.707	200.88
641.913	210.88
642.118	211.88
642.323	199.88
642.528	218.88
642.733	221.88
642.939	212.88
643.144	208.88
643.349	208.88
643.554	209.88
643.759	210.88
643.964	199.88
644.169	218.88
644.374	200.88
644.579	200.88
644.784	214.88
644.989	209.88
645.194	190.88
645.399	198.88
645.604	205.88
645.809	207.88
646.014	189.88
646.219	202.88
646.423	221.88
646.628	194.88
646.833	209.88
647.038	210.88
647.243	214.88
647.447	201.88
647.652	202.88
647.857	202.88
648.062	204.88
648.266	196.88
648.471	199.88
648.676	217.88
648.88	211.88
649.085	212.88
649.289	204.88
649.494	210.88
649.698	199.88
649.903	210.88
650.107	196.88
650.312	194.88
650.516	190.88
650.721	188.88
650.925	183.88
651.13	198.88
651.334	192.88
651.539	192.88
651.743	217.88
651.947	199.88
652.152	177.88
652.356	181.88
652.56	165.88
652.764	192.88
652.969	176.88
653.173	173.88
653.377	186.88
653.581	195.88
653.785	174.88
653.99	168.88
654.194	168.88
654.398	170.88
654.602	176.88
654.806	173.88
655.01	181.88
655.214	168.88
655.418	170.88
655.622	172.88
655.826	170.88
656.03	162.88
656.234	157.88
656.438	165.88
656.642	173.88
656.846	164.88
657.049	155.88
657.253	165.88
657.457	160.88
657.661	145.88
657.865	144.88
658.068	123.88
658.272	137.88
658.476	116.88
658.68	128.88
658.883	118.88
659.087	118.88
659.291	110.88
659.494	119.88
659.698	105.88
659.901	122.88
660.105	120.88
660.309	109.88
660.512	93.88
660.716	109.88
660.919	93.88
661.123	99.88
661.326	94.88
661.53	94.88
661.733	103.88
661.936	99.88
662.14	98.88
662.343	86.88
662.546	97.88
662.75	100.88
662.953	92.88
663.156	84.88
663.36	96.88
663.563	96.88
663.766	68.88
663.969	84.88
664.173	92.88
664.376	89.88
664.579	96.88
664.782	86.88
664.985	76.88
665.188	92.88
665.391	94.88
665.594	92.88
665.797	90.88
666	92.88
666.203	86.88
666.406	80.88
666.609	84.88
666.812	85.88
667.015	90.88
667.218	90.88
667.421	96.88
667.624	73.88
667.827	84.88
668.03	90.88
668.232	77.88
668.435	97.88
668.638	84.88
668.841	90.88
669.043	72.88
669.246	74.88
669.449	76.88
669.651	84.88
669.854	72.88
670.057	79.88
670.259	77.88
670.462	73.88
670.665	91.88
670.867	96.88
671.07	80.88
671.272	74.88
671.475	97.88
671.677	89.88
671.88	90.88
672.082	76.88
672.284	85.88
672.487	98.88
672.689	92.88
672.892	78.88
