Data from Fe(NO3)3@0.05M.TitratingCurve.Agarose3%dH2O.NegLispCup.LampEnergy10.LIBS07252019_HRD10591_16-47-00-333.txt Node
Date: Thu Jul 25 16:47:00 EDT 2019
User: cochatt
Spectrometer: HR+D1059
Trigger mode: 1
Integration Time (sec): 1.000000E-1
Scans to average: 1
Electric dark correction enabled: true
Nonlinearity correction enabled: false
Boxcar width: 0
XAxis mode: Wavelengths
Number of Pixels in Spectrum: 2048
>>>>>Begin Spectral Data<<<<<
223.165	-3.62
223.4	-3.62
223.635	-3.62
223.869	0.38
224.104	-15.62
224.338	3.38
224.573	-10.62
224.808	-14.62
225.042	-15.62
225.277	-13.62
225.511	-10.62
225.746	-1.62
225.98	6.38
226.215	0.38
226.449	9.38
226.683	11.38
226.918	28.38
227.152	26.38
227.387	34.38
227.621	52.38
227.856	50.38
228.09	48.38
228.324	55.38
228.559	53.38
228.793	70.38
229.027	105.38
229.262	116.38
229.496	136.38
229.73	129.38
229.964	118.38
230.199	134.38
230.433	132.38
230.667	148.38
230.901	156.38
231.136	133.38
231.37	146.38
231.604	145.38
231.838	144.38
232.072	146.38
232.306	168.38
232.541	163.38
232.775	151.38
233.009	163.38
233.243	168.38
233.477	157.38
233.711	174.38
233.945	163.38
234.179	165.38
234.413	171.38
234.647	179.38
234.881	176.38
235.115	178.38
235.349	164.38
235.583	155.38
235.817	184.38
236.051	193.38
236.285	155.38
236.519	171.38
236.753	186.38
236.987	179.38
237.221	170.38
237.455	183.38
237.689	186.38
237.922	191.38
238.156	200.38
238.39	214.38
238.624	224.38
238.858	215.38
239.091	211.38
239.325	201.38
239.559	203.38
239.793	224.38
240.027	228.38
240.26	221.38
240.494	198.38
240.728	217.38
240.961	232.38
241.195	222.38
241.429	227.38
241.662	213.38
241.896	202.38
242.13	207.38
242.363	213.38
242.597	224.38
242.83	203.38
243.064	230.38
243.298	232.38
243.531	239.38
243.765	242.38
243.998	249.38
244.232	246.38
244.465	233.38
244.699	216.38
244.932	253.38
245.166	248.38
245.399	249.38
245.633	238.38
245.866	238.38
246.099	246.38
246.333	263.38
246.566	249.38
246.8	260.38
247.033	267.38
247.266	259.38
247.5	274.38
247.733	273.38
247.966	255.38
248.2	271.38
248.433	286.38
248.666	269.38
248.899	282.38
249.133	303.38
249.366	293.38
249.599	317.38
249.832	307.38
250.066	279.38
250.299	283.38
250.532	304.38
250.765	288.38
250.998	296.38
251.231	290.38
251.465	291.38
251.698	294.38
251.931	288.38
252.164	302.38
252.397	328.38
252.63	317.38
252.863	332.38
253.096	346.38
253.329	326.38
253.562	337.38
253.795	340.38
254.028	348.38
254.261	351.38
254.494	351.38
254.727	351.38
254.96	330.38
255.193	342.38
255.426	355.38
255.659	328.38
255.892	324.38
256.124	334.38
256.357	340.38
256.59	362.38
256.823	363.38
257.056	351.38
257.289	327.38
257.521	342.38
257.754	356.38
257.987	347.38
258.22	347.38
258.452	341.38
258.685	351.38
258.918	355.38
259.151	372.38
259.383	379.38
259.616	377.38
259.849	397.38
260.081	443.38
260.314	471.38
260.547	397.38
260.779	391.38
261.012	409.38
261.244	403.38
261.477	409.38
261.71	421.38
261.942	396.38
262.175	393.38
262.407	396.38
262.64	402.38
262.872	404.38
263.105	413.38
263.337	451.38
263.57	442.38
263.802	412.38
264.035	402.38
264.267	373.38
264.499	374.38
264.732	380.38
264.964	413.38
265.197	388.38
265.429	403.38
265.661	379.38
265.894	380.38
266.126	410.38
266.358	403.38
266.591	387.38
266.823	415.38
267.055	422.38
267.287	411.38
267.52	400.38
267.752	418.38
267.984	402.38
268.216	406.38
268.448	419.38
268.681	425.38
268.913	424.38
269.145	448.38
269.377	444.38
269.609	454.38
269.841	437.38
270.073	438.38
270.306	446.38
270.538	440.38
270.77	420.38
271.002	456.38
271.234	437.38
271.466	449.38
271.698	441.38
271.93	471.38
272.162	479.38
272.394	476.38
272.626	462.38
272.858	467.38
273.09	486.38
273.322	495.38
273.553	467.38
273.785	478.38
274.017	506.38
274.249	544.38
274.481	560.38
274.713	564.38
274.945	569.38
275.176	613.38
275.408	584.38
275.64	583.38
275.872	561.38
276.104	524.38
276.335	504.38
276.567	508.38
276.799	511.38
277.031	522.38
277.262	507.38
277.494	498.38
277.726	504.38
277.957	513.38
278.189	506.38
278.421	506.38
278.652	547.38
278.884	510.38
279.115	508.38
279.347	530.38
279.579	521.38
279.81	510.38
280.042	525.38
280.273	517.38
280.505	512.38
280.736	530.38
280.968	550.38
281.199	521.38
281.431	528.38
281.662	545.38
281.894	538.38
282.125	537.38
282.356	537.38
282.588	553.38
282.819	546.38
283.051	553.38
283.282	535.38
283.513	556.38
283.745	539.38
283.976	534.38
284.207	556.38
284.439	558.38
284.67	566.38
284.901	565.38
285.132	571.38
285.364	583.38
285.595	577.38
285.826	560.38
286.057	564.38
286.288	573.38
286.52	582.38
286.751	578.38
286.982	560.38
287.213	577.38
287.444	573.38
287.675	603.38
287.906	594.38
288.138	571.38
288.369	585.38
288.6	596.38
288.831	596.38
289.062	611.38
289.293	591.38
289.524	592.38
289.755	589.38
289.986	605.38
290.217	614.38
290.448	608.38
290.679	588.38
290.91	591.38
291.141	591.38
291.371	598.38
291.602	577.38
291.833	591.38
292.064	586.38
292.295	597.38
292.526	607.38
292.757	604.38
292.987	598.38
293.218	589.38
293.449	630.38
293.68	622.38
293.91	609.38
294.141	606.38
294.372	626.38
294.603	633.38
294.833	610.38
295.064	612.38
295.295	620.38
295.525	625.38
295.756	618.38
295.987	616.38
296.217	635.38
296.448	626.38
296.679	632.38
296.909	652.38
297.14	621.38
297.37	654.38
297.601	643.38
297.831	615.38
298.062	648.38
298.292	638.38
298.523	643.38
298.753	675.38
298.984	626.38
299.214	670.38
299.445	680.38
299.675	659.38
299.905	670.38
300.136	651.38
300.366	674.38
300.597	662.38
300.827	634.38
301.057	650.38
301.288	659.38
301.518	668.38
301.748	690.38
301.979	678.38
302.209	706.38
302.439	701.38
302.669	714.38
302.9	696.38
303.13	675.38
303.36	675.38
303.59	694.38
303.82	704.38
304.051	715.38
304.281	706.38
304.511	696.38
304.741	711.38
304.971	675.38
305.201	696.38
305.431	727.38
305.661	689.38
305.891	664.38
306.121	714.38
306.352	691.38
306.582	680.38
306.812	706.38
307.042	724.38
307.272	712.38
307.502	693.38
307.731	710.38
307.961	706.38
308.191	710.38
308.421	678.38
308.651	715.38
308.881	701.38
309.111	690.38
309.341	684.38
309.571	673.38
309.8	740.38
310.03	711.38
310.26	713.38
310.49	684.38
310.72	712.38
310.949	708.38
311.179	715.38
311.409	726.38
311.639	703.38
311.868	726.38
312.098	720.38
312.328	714.38
312.557	752.38
312.787	744.38
313.017	726.38
313.246	733.38
313.476	702.38
313.706	745.38
313.935	753.38
314.165	758.38
314.394	745.38
314.624	754.38
314.853	750.38
315.083	734.38
315.312	759.38
315.542	764.38
315.771	744.38
316.001	769.38
316.23	765.38
316.46	768.38
316.689	779.38
316.919	757.38
317.148	751.38
317.377	728.38
317.607	758.38
317.836	772.38
318.065	776.38
318.295	769.38
318.524	769.38
318.753	732.38
318.983	760.38
319.212	755.38
319.441	794.38
319.67	761.38
319.9	764.38
320.129	766.38
320.358	762.38
320.587	774.38
320.816	766.38
321.046	769.38
321.275	770.38
321.504	779.38
321.733	800.38
321.962	761.38
322.191	801.38
322.42	771.38
322.649	792.38
322.878	793.38
323.108	800.38
323.337	814.38
323.566	800.38
323.795	814.38
324.024	787.38
324.253	785.38
324.482	814.38
324.71	822.38
324.939	822.38
325.168	807.38
325.397	795.38
325.626	777.38
325.855	830.38
326.084	839.38
326.313	849.38
326.542	805.38
326.77	820.38
326.999	812.38
327.228	843.38
327.457	848.38
327.686	811.38
327.914	830.38
328.143	835.38
328.372	855.38
328.6	874.38
328.829	845.38
329.058	842.38
329.287	838.38
329.515	858.38
329.744	854.38
329.972	841.38
330.201	841.38
330.43	863.38
330.658	849.38
330.887	852.38
331.115	824.38
331.344	846.38
331.572	845.38
331.801	863.38
332.03	859.38
332.258	890.38
332.486	890.38
332.715	909.38
332.943	910.38
333.172	914.38
333.4	936.38
333.629	983.38
333.857	990.38
334.085	1005.38
334.314	994.38
334.542	984.38
334.771	986.38
334.999	980.38
335.227	992.38
335.455	994.38
335.684	991.38
335.912	980.38
336.14	958.38
336.369	986.38
336.597	963.38
336.825	963.38
337.053	986.38
337.281	949.38
337.51	935.38
337.738	946.38
337.966	932.38
338.194	938.38
338.422	972.38
338.65	937.38
338.878	917.38
339.106	915.38
339.334	924.38
339.562	904.38
339.79	900.38
340.018	914.38
340.246	897.38
340.474	913.38
340.702	934.38
340.93	892.38
341.158	914.38
341.386	908.38
341.614	881.38
341.842	889.38
342.07	888.38
342.298	904.38
342.526	907.38
342.754	866.38
342.981	909.38
343.209	906.38
343.437	926.38
343.665	963.38
343.893	971.38
344.12	1016.38
344.348	966.38
344.576	963.38
344.804	945.38
345.031	937.38
345.259	914.38
345.487	896.38
345.714	878.38
345.942	883.38
346.17	889.38
346.397	881.38
346.625	894.38
346.853	868.38
347.08	845.38
347.308	848.38
347.535	867.38
347.763	833.38
347.99	864.38
348.218	848.38
348.445	882.38
348.673	850.38
348.9	857.38
349.128	840.38
349.355	854.38
349.583	843.38
349.81	851.38
350.037	874.38
350.265	873.38
350.492	839.38
350.72	836.38
350.947	862.38
351.174	841.38
351.402	839.38
351.629	831.38
351.856	843.38
352.083	871.38
352.311	839.38
352.538	850.38
352.765	842.38
352.992	855.38
353.22	839.38
353.447	858.38
353.674	858.38
353.901	848.38
354.128	841.38
354.355	850.38
354.583	838.38
354.81	874.38
355.037	872.38
355.264	837.38
355.491	823.38
355.718	839.38
355.945	847.38
356.172	850.38
356.399	855.38
356.626	870.38
356.853	876.38
357.08	870.38
357.307	902.38
357.534	854.38
357.761	860.38
357.988	891.38
358.215	867.38
358.441	869.38
358.668	862.38
358.895	872.38
359.122	862.38
359.349	851.38
359.576	860.38
359.802	835.38
360.029	854.38
360.256	848.38
360.483	880.38
360.709	877.38
360.936	881.38
361.163	883.38
361.39	861.38
361.616	865.38
361.843	855.38
362.07	864.38
362.296	850.38
362.523	845.38
362.749	860.38
362.976	864.38
363.203	890.38
363.429	872.38
363.656	882.38
363.882	889.38
364.109	857.38
364.335	869.38
364.562	872.38
364.788	864.38
365.015	892.38
365.241	871.38
365.468	869.38
365.694	874.38
365.92	868.38
366.147	850.38
366.373	904.38
366.599	871.38
366.826	862.38
367.052	853.38
367.278	895.38
367.505	891.38
367.731	894.38
367.957	900.38
368.184	863.38
368.41	908.38
368.636	906.38
368.862	921.38
369.089	896.38
369.315	914.38
369.541	917.38
369.767	878.38
369.993	887.38
370.219	906.38
370.445	909.38
370.672	926.38
370.898	945.38
371.124	912.38
371.35	927.38
371.576	913.38
371.802	930.38
372.028	954.38
372.254	943.38
372.48	927.38
372.706	963.38
372.932	960.38
373.158	980.38
373.384	968.38
373.61	976.38
373.835	1016.38
374.061	972.38
374.287	979.38
374.513	984.38
374.739	1028.38
374.965	1026.38
375.191	1016.38
375.416	1013.38
375.642	988.38
375.868	1000.38
376.094	981.38
376.319	972.38
376.545	975.38
376.771	956.38
376.997	950.38
377.222	929.38
377.448	927.38
377.674	919.38
377.899	941.38
378.125	950.38
378.35	953.38
378.576	935.38
378.802	945.38
379.027	946.38
379.253	950.38
379.478	942.38
379.704	971.38
379.929	967.38
380.155	942.38
380.38	962.38
380.606	987.38
380.831	970.38
381.057	963.38
381.282	930.38
381.507	965.38
381.733	1001.38
381.958	991.38
382.184	995.38
382.409	1002.38
382.634	1014.38
382.86	1065.38
383.085	1000.38
383.31	1027.38
383.535	1008.38
383.761	1009.38
383.986	1030.38
384.211	1026.38
384.436	1077.38
384.662	1043.38
384.887	1080.38
385.112	1098.38
385.337	1085.38
385.562	1117.38
385.787	1071.38
386.013	1112.38
386.238	1104.38
386.463	1088.38
386.688	1126.38
386.913	1065.38
387.138	1130.38
387.363	1110.38
387.588	1125.38
387.813	1135.38
388.038	1114.38
388.263	1116.38
388.488	1124.38
388.713	1138.38
388.938	1134.38
389.163	1074.38
389.387	1097.38
389.612	1143.38
389.837	1138.38
390.062	1109.38
390.287	1148.38
390.512	1132.38
390.736	1146.38
390.961	1162.38
391.186	1154.38
391.411	1150.38
391.636	1203.38
391.86	1196.38
392.085	1224.38
392.31	1202.38
392.534	1214.38
392.759	1189.38
392.984	1207.38
393.208	1199.38
393.433	1186.38
393.658	1168.38
393.882	1172.38
394.107	1159.38
394.331	1182.38
394.556	1184.38
394.78	1218.38
395.005	1190.38
395.229	1195.38
395.454	1240.38
395.678	1222.38
395.903	1193.38
396.127	1221.38
396.352	1218.38
396.576	1200.38
396.801	1236.38
397.025	1246.38
397.249	1264.38
397.474	1249.38
397.698	1255.38
397.922	1283.38
398.147	1286.38
398.371	1331.38
398.595	1336.38
398.82	1346.38
399.044	1393.38
399.268	1454.38
399.492	1571.38
399.717	1662.38
399.941	1671.38
400.165	1568.38
400.389	1544.38
400.613	1516.38
400.837	1427.38
401.062	1456.38
401.286	1402.38
401.51	1440.38
401.734	1399.38
401.958	1403.38
402.182	1374.38
402.406	1380.38
402.63	1398.38
402.854	1395.38
403.078	1393.38
403.302	1383.38
403.526	1386.38
403.75	1404.38
403.974	1398.38
404.198	1435.38
404.422	1435.38
404.645	1414.38
404.869	1429.38
405.093	1427.38
405.317	1445.38
405.541	1410.38
405.765	1420.38
405.988	1442.38
406.212	1467.38
406.436	1454.38
406.66	1510.38
406.883	1512.38
407.107	1532.38
407.331	1614.38
407.555	1633.38
407.778	1635.38
408.002	1619.38
408.226	1590.38
408.449	1617.38
408.673	1532.38
408.896	1545.38
409.12	1489.38
409.344	1525.38
409.567	1477.38
409.791	1479.38
410.014	1484.38
410.238	1466.38
410.461	1467.38
410.685	1464.38
410.908	1450.38
411.132	1452.38
411.355	1437.38
411.578	1425.38
411.802	1403.38
412.025	1422.38
412.249	1448.38
412.472	1448.38
412.695	1421.38
412.919	1405.38
413.142	1367.38
413.365	1381.38
413.589	1423.38
413.812	1386.38
414.035	1381.38
414.258	1407.38
414.482	1398.38
414.705	1392.38
414.928	1382.38
415.151	1377.38
415.374	1376.38
415.597	1340.38
415.821	1339.38
416.044	1361.38
416.267	1343.38
416.49	1343.38
416.713	1344.38
416.936	1342.38
417.159	1306.38
417.382	1321.38
417.605	1307.38
417.828	1316.38
418.051	1317.38
418.274	1327.38
418.497	1321.38
418.72	1342.38
418.943	1321.38
419.166	1400.38
419.389	1488.38
419.611	1479.38
419.834	1409.38
420.057	1415.38
420.28	1353.38
420.503	1320.38
420.726	1300.38
420.948	1282.38
421.171	1336.38
421.394	1314.38
421.617	1312.38
421.839	1318.38
422.062	1307.38
422.285	1322.38
422.507	1322.38
422.73	1313.38
422.953	1311.38
423.175	1327.38
423.398	1299.38
423.621	1338.38
423.843	1341.38
424.066	1311.38
424.288	1300.38
424.511	1314.38
424.733	1311.38
424.956	1295.38
425.178	1331.38
425.401	1334.38
425.623	1312.38
425.846	1256.38
426.068	1301.38
426.291	1310.38
426.513	1296.38
426.735	1290.38
426.958	1280.38
427.18	1295.38
427.402	1286.38
427.625	1266.38
427.847	1244.38
428.069	1245.38
428.292	1245.38
428.514	1237.38
428.736	1225.38
428.958	1279.38
429.181	1208.38
429.403	1225.38
429.625	1217.38
429.847	1203.38
430.069	1232.38
430.292	1234.38
430.514	1233.38
430.736	1250.38
430.958	1238.38
431.18	1255.38
431.402	1245.38
431.624	1250.38
431.846	1252.38
432.068	1244.38
432.29	1244.38
432.512	1254.38
432.734	1291.38
432.956	1251.38
433.178	1273.38
433.4	1250.38
433.622	1262.38
433.844	1273.38
434.066	1290.38
434.287	1239.38
434.509	1273.38
434.731	1319.38
434.953	1299.38
435.175	1321.38
435.397	1340.38
435.618	1305.38
435.84	1253.38
436.062	1241.38
436.284	1249.38
436.505	1227.38
436.727	1250.38
436.949	1250.38
437.17	1258.38
437.392	1225.38
437.614	1214.38
437.835	1206.38
438.057	1216.38
438.278	1218.38
438.5	1257.38
438.721	1241.38
438.943	1187.38
439.165	1219.38
439.386	1221.38
439.608	1202.38
439.829	1234.38
440.05	1260.38
440.272	1247.38
440.493	1227.38
440.715	1258.38
440.936	1294.38
441.158	1254.38
441.379	1251.38
441.6	1327.38
441.822	1303.38
442.043	1278.38
442.264	1302.38
442.486	1255.38
442.707	1295.38
442.928	1285.38
443.149	1266.38
443.371	1273.38
443.592	1288.38
443.813	1283.38
444.034	1305.38
444.255	1332.38
444.476	1371.38
444.698	1415.38
444.919	1362.38
445.14	1432.38
445.361	1391.38
445.582	1320.38
445.803	1346.38
446.024	1292.38
446.245	1278.38
446.466	1272.38
446.687	1238.38
446.908	1239.38
447.129	1215.38
447.35	1202.38
447.571	1207.38
447.792	1150.38
448.013	1195.38
448.234	1172.38
448.455	1161.38
448.675	1174.38
448.896	1154.38
449.117	1107.38
449.338	1179.38
449.559	1136.38
449.779	1114.38
450	1144.38
450.221	1119.38
450.442	1178.38
450.662	1119.38
450.883	1161.38
451.104	1147.38
451.324	1143.38
451.545	1143.38
451.766	1116.38
451.986	1127.38
452.207	1130.38
452.428	1135.38
452.648	1126.38
452.869	1087.38
453.089	1072.38
453.31	1066.38
453.53	1121.38
453.751	1070.38
453.971	1113.38
454.192	1088.38
454.412	1042.38
454.633	1073.38
454.853	1079.38
455.073	1088.38
455.294	1083.38
455.514	1081.38
455.734	1080.38
455.955	1088.38
456.175	1102.38
456.395	1078.38
456.616	1084.38
456.836	1092.38
457.056	1090.38
457.276	1096.38
457.497	1102.38
457.717	1084.38
457.937	1095.38
458.157	1113.38
458.377	1098.38
458.598	1138.38
458.818	1153.38
459.038	1189.38
459.258	1178.38
459.478	1220.38
459.698	1221.38
459.918	1262.38
460.138	1259.38
460.358	1330.38
460.578	1340.38
460.798	1335.38
461.018	1327.38
461.238	1365.38
461.458	1302.38
461.678	1350.38
461.898	1390.38
462.118	1386.38
462.338	1441.38
462.558	1444.38
462.777	1482.38
462.997	1534.38
463.217	1538.38
463.437	1574.38
463.657	1554.38
463.876	1539.38
464.096	1539.38
464.316	1475.38
464.536	1478.38
464.755	1474.38
464.975	1439.38
465.195	1391.38
465.414	1372.38
465.634	1321.38
465.854	1305.38
466.073	1269.38
466.293	1232.38
466.512	1236.38
466.732	1226.38
466.951	1231.38
467.171	1180.38
467.391	1235.38
467.61	1226.38
467.829	1175.38
468.049	1178.38
468.268	1193.38
468.488	1152.38
468.707	1157.38
468.927	1195.38
469.146	1183.38
469.365	1187.38
469.585	1194.38
469.804	1187.38
470.023	1233.38
470.243	1225.38
470.462	1211.38
470.681	1217.38
470.901	1220.38
471.12	1243.38
471.339	1252.38
471.558	1200.38
471.777	1211.38
471.997	1220.38
472.216	1191.38
472.435	1198.38
472.654	1219.38
472.873	1172.38
473.092	1177.38
473.311	1166.38
473.53	1186.38
473.749	1196.38
473.968	1179.38
474.187	1170.38
474.406	1165.38
474.625	1198.38
474.844	1204.38
475.063	1188.38
475.282	1217.38
475.501	1234.38
475.72	1205.38
475.939	1264.38
476.158	1227.38
476.377	1277.38
476.596	1279.38
476.814	1340.38
477.033	1271.38
477.252	1303.38
477.471	1299.38
477.69	1315.38
477.908	1341.38
478.127	1381.38
478.346	1367.38
478.564	1381.38
478.783	1362.38
479.002	1379.38
479.22	1427.38
479.439	1474.38
479.658	1435.38
479.876	1427.38
480.095	1418.38
480.313	1478.38
480.532	1458.38
480.751	1461.38
480.969	1468.38
481.188	1410.38
481.406	1459.38
481.624	1406.38
481.843	1418.38
482.061	1376.38
482.28	1402.38
482.498	1392.38
482.717	1413.38
482.935	1420.38
483.153	1411.38
483.372	1382.38
483.59	1419.38
483.808	1398.38
484.027	1378.38
484.245	1390.38
484.463	1380.38
484.681	1377.38
484.9	1431.38
485.118	1429.38
485.336	1413.38
485.554	1430.38
485.772	1425.38
485.99	1421.38
486.209	1423.38
486.427	1445.38
486.645	1449.38
486.863	1442.38
487.081	1438.38
487.299	1436.38
487.517	1451.38
487.735	1471.38
487.953	1449.38
488.171	1447.38
488.389	1406.38
488.607	1451.38
488.825	1434.38
489.043	1421.38
489.261	1428.38
489.479	1457.38
489.696	1424.38
489.914	1428.38
490.132	1427.38
490.35	1419.38
490.568	1435.38
490.786	1458.38
491.003	1435.38
491.221	1467.38
491.439	1448.38
491.657	1430.38
491.874	1462.38
492.092	1472.38
492.31	1479.38
492.527	1436.38
492.745	1488.38
492.963	1471.38
493.18	1473.38
493.398	1470.38
493.615	1497.38
493.833	1494.38
494.05	1540.38
494.268	1487.38
494.485	1524.38
494.703	1536.38
494.92	1537.38
495.138	1536.38
495.355	1516.38
495.573	1571.38
495.79	1562.38
496.008	1552.38
496.225	1592.38
496.442	1600.38
496.66	1617.38
496.877	1607.38
497.094	1658.38
497.312	1679.38
497.529	1662.38
497.746	1710.38
497.963	1758.38
498.181	1802.38
498.398	1865.38
498.615	1927.38
498.832	2038.38
499.049	2048.38
499.267	2167.38
499.484	2247.38
499.701	2373.38
499.918	2538.38
500.135	2629.38
500.352	2762.38
500.569	2783.38
500.786	2774.38
501.003	2741.38
501.22	2608.38
501.437	2491.38
501.654	2396.38
501.871	2266.38
502.088	2164.38
502.305	2056.38
502.522	1966.38
502.739	1943.38
502.956	1894.38
503.172	1822.38
503.389	1752.38
503.606	1710.38
503.823	1718.38
504.04	1634.38
504.256	1673.38
504.473	1622.38
504.69	1637.38
504.907	1632.38
505.123	1555.38
505.34	1559.38
505.557	1513.38
505.773	1473.38
505.99	1440.38
506.207	1432.38
506.423	1416.38
506.64	1347.38
506.856	1360.38
507.073	1375.38
507.289	1330.38
507.506	1335.38
507.722	1322.38
507.939	1330.38
508.155	1306.38
508.372	1299.38
508.588	1330.38
508.805	1254.38
509.021	1250.38
509.238	1244.38
509.454	1277.38
509.67	1222.38
509.887	1249.38
510.103	1201.38
510.319	1216.38
510.536	1246.38
510.752	1192.38
510.968	1208.38
511.184	1177.38
511.401	1211.38
511.617	1193.38
511.833	1166.38
512.049	1186.38
512.265	1156.38
512.481	1191.38
512.698	1166.38
512.914	1192.38
513.13	1154.38
513.346	1180.38
513.562	1205.38
513.778	1209.38
513.994	1175.38
514.21	1205.38
514.426	1224.38
514.642	1191.38
514.858	1214.38
515.074	1218.38
515.29	1227.38
515.506	1193.38
515.721	1236.38
515.937	1254.38
516.153	1252.38
516.369	1257.38
516.585	1282.38
516.801	1295.38
517.016	1350.38
517.232	1350.38
517.448	1409.38
517.664	1436.38
517.879	1384.38
518.095	1388.38
518.311	1391.38
518.527	1351.38
518.742	1369.38
518.958	1328.38
519.173	1286.38
519.389	1263.38
519.605	1280.38
519.82	1271.38
520.036	1275.38
520.251	1240.38
520.467	1248.38
520.682	1180.38
520.898	1172.38
521.113	1157.38
521.329	1155.38
521.544	1143.38
521.76	1171.38
521.975	1122.38
522.19	1126.38
522.406	1113.38
522.621	1137.38
522.836	1160.38
523.052	1114.38
523.267	1106.38
523.482	1097.38
523.698	1112.38
523.913	1089.38
524.128	1099.38
524.343	1082.38
524.559	1089.38
524.774	1089.38
524.989	1094.38
525.204	1087.38
525.419	1058.38
525.634	1052.38
525.849	1071.38
526.064	1061.38
526.28	1033.38
526.495	1041.38
526.71	1052.38
526.925	1070.38
527.14	1020.38
527.355	1045.38
527.57	1049.38
527.785	1064.38
527.999	1056.38
528.214	1038.38
528.429	1035.38
528.644	1036.38
528.859	1020.38
529.074	1042.38
529.289	1048.38
529.503	1044.38
529.718	1028.38
529.933	1032.38
530.148	1039.38
530.363	1042.38
530.577	995.38
530.792	1023.38
531.007	1030.38
531.221	1018.38
531.436	1046.38
531.651	1032.38
531.865	1028.38
532.08	1030.38
532.295	1026.38
532.509	1033.38
532.724	1003.38
532.938	1040.38
533.153	1010.38
533.367	1047.38
533.582	1015.38
533.796	992.38
534.011	1014.38
534.225	1010.38
534.44	986.38
534.654	978.38
534.868	979.38
535.083	962.38
535.297	1014.38
535.511	1018.38
535.726	970.38
535.94	982.38
536.154	944.38
536.369	971.38
536.583	973.38
536.797	936.38
537.011	964.38
537.225	968.38
537.44	959.38
537.654	953.38
537.868	969.38
538.082	939.38
538.296	929.38
538.51	939.38
538.724	935.38
538.938	949.38
539.153	972.38
539.367	945.38
539.581	916.38
539.795	952.38
540.009	913.38
540.222	935.38
540.436	914.38
540.65	891.38
540.864	924.38
541.078	927.38
541.292	966.38
541.506	940.38
541.72	918.38
541.934	932.38
542.147	921.38
542.361	922.38
542.575	893.38
542.789	928.38
543.002	947.38
543.216	933.38
543.43	934.38
543.644	902.38
543.857	916.38
544.071	894.38
544.285	892.38
544.498	903.38
544.712	918.38
544.925	920.38
545.139	921.38
545.352	911.38
545.566	912.38
545.779	921.38
545.993	966.38
546.206	922.38
546.42	922.38
546.633	914.38
546.847	932.38
547.06	907.38
547.274	930.38
547.487	921.38
547.7	927.38
547.914	931.38
548.127	955.38
548.34	920.38
548.554	901.38
548.767	937.38
548.98	945.38
549.193	953.38
549.407	929.38
549.62	937.38
549.833	967.38
550.046	934.38
550.259	919.38
550.473	932.38
550.686	916.38
550.899	918.38
551.112	907.38
551.325	957.38
551.538	915.38
551.751	922.38
551.964	910.38
552.177	911.38
552.39	927.38
552.603	914.38
552.816	933.38
553.029	922.38
553.242	928.38
553.455	949.38
553.667	983.38
553.88	937.38
554.093	921.38
554.306	898.38
554.519	919.38
554.732	876.38
554.944	854.38
555.157	862.38
555.37	879.38
555.583	856.38
555.795	856.38
556.008	842.38
556.221	816.38
556.433	833.38
556.646	824.38
556.859	813.38
557.071	823.38
557.284	799.38
557.496	800.38
557.709	807.38
557.921	821.38
558.134	784.38
558.346	825.38
558.559	785.38
558.771	797.38
558.984	778.38
559.196	788.38
559.409	765.38
559.621	800.38
559.833	812.38
560.046	798.38
560.258	790.38
560.47	776.38
560.683	771.38
560.895	739.38
561.107	760.38
561.32	755.38
561.532	780.38
561.744	770.38
561.956	799.38
562.168	786.38
562.381	761.38
562.593	770.38
562.805	782.38
563.017	769.38
563.229	767.38
563.441	783.38
563.653	826.38
563.865	784.38
564.077	809.38
564.289	815.38
564.501	822.38
564.713	827.38
564.925	829.38
565.137	853.38
565.349	869.38
565.561	878.38
565.773	867.38
565.985	914.38
566.197	947.38
566.408	973.38
566.62	988.38
566.832	976.38
567.044	1031.38
567.255	1030.38
567.467	1038.38
567.679	1056.38
567.891	1074.38
568.102	1061.38
568.314	1042.38
568.526	983.38
568.737	972.38
568.949	915.38
569.161	894.38
569.372	861.38
569.584	862.38
569.795	807.38
570.007	772.38
570.218	774.38
570.43	760.38
570.641	755.38
570.853	763.38
571.064	753.38
571.276	710.38
571.487	740.38
571.698	723.38
571.91	714.38
572.121	678.38
572.333	692.38
572.544	649.38
572.755	652.38
572.966	683.38
573.178	675.38
573.389	650.38
573.6	636.38
573.811	638.38
574.023	636.38
574.234	603.38
574.445	608.38
574.656	633.38
574.867	628.38
575.078	617.38
575.289	632.38
575.501	610.38
575.712	607.38
575.923	587.38
576.134	609.38
576.345	616.38
576.556	605.38
576.767	609.38
576.978	603.38
577.188	567.38
577.399	605.38
577.61	592.38
577.821	576.38
578.032	561.38
578.243	578.38
578.454	576.38
578.665	559.38
578.875	551.38
579.086	573.38
579.297	574.38
579.508	541.38
579.718	552.38
579.929	550.38
580.14	537.38
580.35	549.38
580.561	550.38
580.772	548.38
580.982	549.38
581.193	526.38
581.403	523.38
581.614	537.38
581.825	547.38
582.035	549.38
582.246	523.38
582.456	535.38
582.667	532.38
582.877	525.38
583.087	522.38
583.298	522.38
583.508	531.38
583.719	524.38
583.929	532.38
584.139	511.38
584.35	502.38
584.56	524.38
584.77	535.38
584.981	502.38
585.191	519.38
585.401	506.38
585.611	521.38
585.821	514.38
586.032	471.38
586.242	492.38
586.452	511.38
586.662	500.38
586.872	519.38
587.082	498.38
587.292	502.38
587.502	506.38
587.713	517.38
587.923	505.38
588.133	513.38
588.343	494.38
588.553	506.38
588.762	518.38
588.972	504.38
589.182	524.38
589.392	532.38
589.602	511.38
589.812	510.38
590.022	514.38
590.232	508.38
590.441	498.38
590.651	502.38
590.861	506.38
591.071	484.38
591.281	510.38
591.49	498.38
591.7	525.38
591.91	519.38
592.119	522.38
592.329	525.38
592.539	551.38
592.748	544.38
592.958	551.38
593.167	542.38
593.377	535.38
593.587	548.38
593.796	542.38
594.006	576.38
594.215	549.38
594.424	536.38
594.634	558.38
594.843	503.38
595.053	494.38
595.262	510.38
595.472	519.38
595.681	506.38
595.89	489.38
596.1	493.38
596.309	466.38
596.518	481.38
596.727	456.38
596.937	460.38
597.146	459.38
597.355	446.38
597.564	460.38
597.774	440.38
597.983	454.38
598.192	471.38
598.401	448.38
598.61	424.38
598.819	433.38
599.028	422.38
599.237	422.38
599.446	432.38
599.655	427.38
599.864	418.38
600.073	414.38
600.282	404.38
600.491	420.38
600.7	410.38
600.909	421.38
601.118	408.38
601.327	394.38
601.536	402.38
601.745	425.38
601.953	405.38
602.162	422.38
602.371	395.38
602.58	402.38
602.789	412.38
602.997	407.38
603.206	414.38
603.415	398.38
603.623	391.38
603.832	378.38
604.041	393.38
604.249	402.38
604.458	398.38
604.666	384.38
604.875	400.38
605.084	380.38
605.292	392.38
605.501	393.38
605.709	380.38
605.918	382.38
606.126	395.38
606.334	388.38
606.543	379.38
606.751	393.38
606.96	415.38
607.168	392.38
607.376	389.38
607.585	377.38
607.793	373.38
608.001	371.38
608.21	375.38
608.418	372.38
608.626	376.38
608.834	372.38
609.043	374.38
609.251	367.38
609.459	377.38
609.667	367.38
609.875	362.38
610.083	357.38
610.291	361.38
610.499	387.38
610.707	381.38
610.916	370.38
611.124	369.38
611.332	364.38
611.54	356.38
611.748	366.38
611.955	374.38
612.163	368.38
612.371	361.38
612.579	362.38
612.787	363.38
612.995	364.38
613.203	341.38
613.411	336.38
613.618	367.38
613.826	368.38
614.034	360.38
614.242	363.38
614.449	363.38
614.657	354.38
614.865	353.38
615.072	362.38
615.28	350.38
615.488	358.38
615.695	348.38
615.903	349.38
616.111	363.38
616.318	356.38
616.526	340.38
616.733	341.38
616.941	322.38
617.148	353.38
617.356	343.38
617.563	363.38
617.771	343.38
617.978	327.38
618.185	371.38
618.393	344.38
618.6	354.38
618.807	356.38
619.015	350.38
619.222	340.38
619.429	345.38
619.637	334.38
619.844	339.38
620.051	332.38
620.258	345.38
620.466	348.38
620.673	327.38
620.88	317.38
621.087	328.38
621.294	332.38
621.501	342.38
621.708	327.38
621.915	331.38
622.122	339.38
622.329	342.38
622.536	332.38
622.743	325.38
622.95	328.38
623.157	337.38
623.364	346.38
623.571	334.38
623.778	312.38
623.985	322.38
624.192	318.38
624.399	322.38
624.606	323.38
624.812	336.38
625.019	304.38
625.226	302.38
625.433	318.38
625.639	302.38
625.846	303.38
626.053	298.38
626.259	317.38
626.466	310.38
626.673	306.38
626.879	299.38
627.086	296.38
627.293	292.38
627.499	295.38
627.706	292.38
627.912	297.38
628.119	295.38
628.325	305.38
628.532	305.38
628.738	299.38
628.945	283.38
629.151	304.38
629.357	283.38
629.564	282.38
629.77	272.38
629.976	277.38
630.183	276.38
630.389	296.38
630.595	290.38
630.802	295.38
631.008	275.38
631.214	270.38
631.42	281.38
631.627	282.38
631.833	280.38
632.039	287.38
632.245	275.38
632.451	264.38
632.657	275.38
632.863	298.38
633.069	279.38
633.275	262.38
633.481	267.38
633.688	283.38
633.893	273.38
634.099	268.38
634.305	274.38
634.511	255.38
634.717	280.38
634.923	286.38
635.129	270.38
635.335	277.38
635.541	258.38
635.747	264.38
635.952	267.38
636.158	255.38
636.364	267.38
636.57	258.38
636.775	265.38
636.981	276.38
637.187	261.38
637.392	276.38
637.598	258.38
637.804	276.38
638.009	269.38
638.215	261.38
638.421	261.38
638.626	266.38
638.832	252.38
639.037	246.38
639.243	249.38
639.448	256.38
639.654	273.38
639.859	250.38
640.065	255.38
640.27	261.38
640.475	232.38
640.681	229.38
640.886	258.38
641.091	260.38
641.297	249.38
641.502	244.38
641.707	216.38
641.913	264.38
642.118	263.38
642.323	250.38
642.528	246.38
642.733	263.38
642.939	256.38
643.144	255.38
643.349	234.38
643.554	260.38
643.759	247.38
643.964	263.38
644.169	239.38
644.374	256.38
644.579	258.38
644.784	258.38
644.989	251.38
645.194	262.38
645.399	244.38
645.604	274.38
645.809	258.38
646.014	260.38
646.219	274.38
646.423	242.38
646.628	238.38
646.833	263.38
647.038	244.38
647.243	272.38
647.447	269.38
647.652	258.38
647.857	284.38
648.062	263.38
648.266	255.38
648.471	272.38
648.676	255.38
648.88	261.38
649.085	268.38
649.289	266.38
649.494	260.38
649.698	260.38
649.903	252.38
650.107	260.38
650.312	255.38
650.516	267.38
650.721	251.38
650.925	247.38
651.13	252.38
651.334	257.38
651.539	234.38
651.743	222.38
651.947	238.38
652.152	232.38
652.356	234.38
652.56	233.38
652.764	236.38
652.969	234.38
653.173	226.38
653.377	247.38
653.581	228.38
653.785	218.38
653.99	238.38
654.194	219.38
654.398	223.38
654.602	233.38
654.806	216.38
655.01	222.38
655.214	215.38
655.418	218.38
655.622	223.38
655.826	223.38
656.03	217.38
656.234	207.38
656.438	234.38
656.642	221.38
656.846	196.38
657.049	211.38
657.253	206.38
657.457	183.38
657.661	201.38
657.865	167.38
658.068	166.38
658.272	149.38
658.476	154.38
658.68	134.38
658.883	154.38
659.087	134.38
659.291	126.38
659.494	137.38
659.698	118.38
659.901	142.38
660.105	120.38
660.309	133.38
660.512	106.38
660.716	116.38
660.919	109.38
661.123	107.38
661.326	105.38
661.53	95.38
661.733	114.38
661.936	100.38
662.14	77.38
662.343	84.38
662.546	87.38
662.75	102.38
662.953	82.38
663.156	109.38
663.36	97.38
663.563	87.38
663.766	90.38
663.969	96.38
664.173	91.38
664.376	85.38
664.579	86.38
664.782	88.38
664.985	83.38
665.188	88.38
665.391	79.38
665.594	78.38
665.797	70.38
666	89.38
666.203	77.38
666.406	92.38
666.609	83.38
666.812	84.38
667.015	72.38
667.218	74.38
667.421	76.38
667.624	79.38
667.827	78.38
668.03	83.38
668.232	81.38
668.435	83.38
668.638	78.38
668.841	74.38
669.043	74.38
669.246	86.38
669.449	82.38
669.651	91.38
669.854	84.38
670.057	84.38
670.259	86.38
670.462	85.38
670.665	91.38
670.867	72.38
671.07	79.38
671.272	94.38
671.475	84.38
671.677	79.38
671.88	83.38
672.082	74.38
672.284	83.38
672.487	87.38
672.689	80.38
672.892	73.38
