Data from Fe(NO3)3@0.1M.TitratingCurve.Agarose3%dH2O.NegLispCup.LampEnergy10.LIBS07252019_HRD10591_16-37-45-331.txt Node
Date: Thu Jul 25 16:37:45 EDT 2019
User: cochatt
Spectrometer: HR+D1059
Trigger mode: 1
Integration Time (sec): 1.000000E-1
Scans to average: 1
Electric dark correction enabled: true
Nonlinearity correction enabled: false
Boxcar width: 0
XAxis mode: Wavelengths
Number of Pixels in Spectrum: 2048
>>>>>Begin Spectral Data<<<<<
223.165	-11.94
223.4	-11.94
223.635	-11.94
223.869	-20.94
224.104	-26.94
224.338	-12.94
224.573	-16.94
224.808	-18.94
225.042	-10.94
225.277	-8.94
225.511	5.06
225.746	-4.94
225.98	7.06
226.215	14.06
226.449	27.06
226.683	21.06
226.918	36.06
227.152	23.06
227.387	39.06
227.621	57.06
227.856	33.06
228.09	47.06
228.324	52.06
228.559	55.06
228.793	48.06
229.027	62.06
229.262	58.06
229.496	75.06
229.73	63.06
229.964	85.06
230.199	70.06
230.433	74.06
230.667	81.06
230.901	86.06
231.136	82.06
231.37	74.06
231.604	84.06
231.838	102.06
232.072	91.06
232.306	78.06
232.541	83.06
232.775	96.06
233.009	93.06
233.243	92.06
233.477	102.06
233.711	87.06
233.945	72.06
234.179	99.06
234.413	74.06
234.647	83.06
234.881	79.06
235.115	73.06
235.349	57.06
235.583	81.06
235.817	92.06
236.051	96.06
236.285	66.06
236.519	85.06
236.753	87.06
236.987	70.06
237.221	80.06
237.455	79.06
237.689	98.06
237.922	75.06
238.156	83.06
238.39	77.06
238.624	99.06
238.858	95.06
239.091	88.06
239.325	84.06
239.559	74.06
239.793	84.06
240.027	96.06
240.26	84.06
240.494	89.06
240.728	75.06
240.961	91.06
241.195	94.06
241.429	74.06
241.662	81.06
241.896	79.06
242.13	93.06
242.363	95.06
242.597	108.06
242.83	86.06
243.064	92.06
243.298	78.06
243.531	76.06
243.765	75.06
243.998	87.06
244.232	90.06
244.465	89.06
244.699	80.06
244.932	84.06
245.166	86.06
245.399	92.06
245.633	93.06
245.866	94.06
246.099	84.06
246.333	93.06
246.566	84.06
246.8	80.06
247.033	96.06
247.266	81.06
247.5	91.06
247.733	84.06
247.966	90.06
248.2	85.06
248.433	97.06
248.666	85.06
248.899	91.06
249.133	97.06
249.366	107.06
249.599	105.06
249.832	90.06
250.066	91.06
250.299	94.06
250.532	81.06
250.765	97.06
250.998	82.06
251.231	88.06
251.465	79.06
251.698	96.06
251.931	96.06
252.164	85.06
252.397	99.06
252.63	100.06
252.863	106.06
253.096	110.06
253.329	106.06
253.562	81.06
253.795	111.06
254.028	90.06
254.261	103.06
254.494	94.06
254.727	90.06
254.96	87.06
255.193	92.06
255.426	94.06
255.659	80.06
255.892	73.06
256.124	99.06
256.357	100.06
256.59	88.06
256.823	99.06
257.056	106.06
257.289	90.06
257.521	89.06
257.754	99.06
257.987	87.06
258.22	92.06
258.452	104.06
258.685	96.06
258.918	101.06
259.151	92.06
259.383	107.06
259.616	101.06
259.849	87.06
260.081	101.06
260.314	93.06
260.547	91.06
260.779	99.06
261.012	88.06
261.244	96.06
261.477	115.06
261.71	106.06
261.942	93.06
262.175	95.06
262.407	96.06
262.64	94.06
262.872	116.06
263.105	101.06
263.337	92.06
263.57	95.06
263.802	114.06
264.035	92.06
264.267	113.06
264.499	112.06
264.732	95.06
264.964	111.06
265.197	84.06
265.429	92.06
265.661	84.06
265.894	96.06
266.126	86.06
266.358	96.06
266.591	95.06
266.823	97.06
267.055	119.06
267.287	114.06
267.52	94.06
267.752	101.06
267.984	107.06
268.216	102.06
268.448	114.06
268.681	106.06
268.913	101.06
269.145	98.06
269.377	95.06
269.609	97.06
269.841	113.06
270.073	95.06
270.306	96.06
270.538	98.06
270.77	80.06
271.002	91.06
271.234	111.06
271.466	102.06
271.698	101.06
271.93	105.06
272.162	99.06
272.394	107.06
272.626	112.06
272.858	121.06
273.09	95.06
273.322	106.06
273.553	107.06
273.785	93.06
274.017	122.06
274.249	96.06
274.481	96.06
274.713	113.06
274.945	120.06
275.176	106.06
275.408	121.06
275.64	124.06
275.872	112.06
276.104	103.06
276.335	92.06
276.567	109.06
276.799	105.06
277.031	115.06
277.262	103.06
277.494	120.06
277.726	131.06
277.957	105.06
278.189	109.06
278.421	106.06
278.652	109.06
278.884	105.06
279.115	103.06
279.347	106.06
279.579	95.06
279.81	105.06
280.042	119.06
280.273	110.06
280.505	111.06
280.736	111.06
280.968	107.06
281.199	102.06
281.431	94.06
281.662	107.06
281.894	108.06
282.125	113.06
282.356	92.06
282.588	99.06
282.819	103.06
283.051	113.06
283.282	120.06
283.513	113.06
283.745	118.06
283.976	97.06
284.207	105.06
284.439	104.06
284.67	101.06
284.901	101.06
285.132	94.06
285.364	99.06
285.595	111.06
285.826	115.06
286.057	110.06
286.288	123.06
286.52	111.06
286.751	113.06
286.982	99.06
287.213	98.06
287.444	127.06
287.675	109.06
287.906	117.06
288.138	114.06
288.369	99.06
288.6	107.06
288.831	123.06
289.062	106.06
289.293	112.06
289.524	130.06
289.755	103.06
289.986	108.06
290.217	118.06
290.448	115.06
290.679	116.06
290.91	111.06
291.141	110.06
291.371	117.06
291.602	125.06
291.833	141.06
292.064	119.06
292.295	110.06
292.526	120.06
292.757	89.06
292.987	130.06
293.218	106.06
293.449	112.06
293.68	110.06
293.91	123.06
294.141	110.06
294.372	121.06
294.603	115.06
294.833	121.06
295.064	125.06
295.295	115.06
295.525	110.06
295.756	116.06
295.987	105.06
296.217	126.06
296.448	122.06
296.679	120.06
296.909	113.06
297.14	112.06
297.37	108.06
297.601	121.06
297.831	115.06
298.062	125.06
298.292	120.06
298.523	118.06
298.753	127.06
298.984	114.06
299.214	110.06
299.445	118.06
299.675	117.06
299.905	121.06
300.136	124.06
300.366	111.06
300.597	123.06
300.827	118.06
301.057	136.06
301.288	117.06
301.518	118.06
301.748	120.06
301.979	102.06
302.209	122.06
302.439	126.06
302.669	110.06
302.9	107.06
303.13	130.06
303.36	113.06
303.59	123.06
303.82	124.06
304.051	112.06
304.281	117.06
304.511	128.06
304.741	119.06
304.971	115.06
305.201	127.06
305.431	119.06
305.661	117.06
305.891	113.06
306.121	120.06
306.352	115.06
306.582	124.06
306.812	120.06
307.042	112.06
307.272	115.06
307.502	125.06
307.731	123.06
307.961	110.06
308.191	108.06
308.421	131.06
308.651	125.06
308.881	118.06
309.111	108.06
309.341	110.06
309.571	122.06
309.8	113.06
310.03	130.06
310.26	126.06
310.49	112.06
310.72	120.06
310.949	109.06
311.179	121.06
311.409	127.06
311.639	137.06
311.868	123.06
312.098	124.06
312.328	132.06
312.557	131.06
312.787	129.06
313.017	131.06
313.246	127.06
313.476	118.06
313.706	121.06
313.935	120.06
314.165	129.06
314.394	136.06
314.624	138.06
314.853	136.06
315.083	110.06
315.312	127.06
315.542	117.06
315.771	129.06
316.001	140.06
316.23	129.06
316.46	116.06
316.689	124.06
316.919	130.06
317.148	122.06
317.377	123.06
317.607	115.06
317.836	119.06
318.065	136.06
318.295	119.06
318.524	125.06
318.753	125.06
318.983	120.06
319.212	123.06
319.441	112.06
319.67	110.06
319.9	128.06
320.129	125.06
320.358	124.06
320.587	121.06
320.816	126.06
321.046	115.06
321.275	107.06
321.504	126.06
321.733	105.06
321.962	133.06
322.191	135.06
322.42	129.06
322.649	122.06
322.878	131.06
323.108	131.06
323.337	112.06
323.566	115.06
323.795	119.06
324.024	122.06
324.253	122.06
324.482	127.06
324.71	125.06
324.939	128.06
325.168	129.06
325.397	118.06
325.626	132.06
325.855	123.06
326.084	112.06
326.313	132.06
326.542	123.06
326.77	127.06
326.999	132.06
327.228	113.06
327.457	133.06
327.686	125.06
327.914	129.06
328.143	136.06
328.372	123.06
328.6	143.06
328.829	127.06
329.058	128.06
329.287	131.06
329.515	126.06
329.744	126.06
329.972	127.06
330.201	131.06
330.43	132.06
330.658	130.06
330.887	127.06
331.115	120.06
331.344	137.06
331.572	137.06
331.801	140.06
332.03	138.06
332.258	137.06
332.486	131.06
332.715	135.06
332.943	142.06
333.172	142.06
333.4	128.06
333.629	143.06
333.857	141.06
334.085	145.06
334.314	129.06
334.542	123.06
334.771	131.06
334.999	137.06
335.227	108.06
335.455	133.06
335.684	131.06
335.912	125.06
336.14	141.06
336.369	131.06
336.597	142.06
336.825	131.06
337.053	144.06
337.281	148.06
337.51	126.06
337.738	123.06
337.966	131.06
338.194	144.06
338.422	125.06
338.65	131.06
338.878	126.06
339.106	131.06
339.334	132.06
339.562	120.06
339.79	135.06
340.018	127.06
340.246	124.06
340.474	134.06
340.702	127.06
340.93	113.06
341.158	131.06
341.386	118.06
341.614	122.06
341.842	131.06
342.07	122.06
342.298	119.06
342.526	135.06
342.754	125.06
342.981	119.06
343.209	133.06
343.437	139.06
343.665	136.06
343.893	142.06
344.12	140.06
344.348	136.06
344.576	131.06
344.804	152.06
345.031	124.06
345.259	128.06
345.487	125.06
345.714	125.06
345.942	122.06
346.17	127.06
346.397	144.06
346.625	130.06
346.853	122.06
347.08	128.06
347.308	135.06
347.535	130.06
347.763	137.06
347.99	123.06
348.218	124.06
348.445	126.06
348.673	130.06
348.9	132.06
349.128	127.06
349.355	116.06
349.583	115.06
349.81	134.06
350.037	135.06
350.265	124.06
350.492	142.06
350.72	128.06
350.947	131.06
351.174	123.06
351.402	128.06
351.629	127.06
351.856	119.06
352.083	132.06
352.311	135.06
352.538	131.06
352.765	143.06
352.992	122.06
353.22	133.06
353.447	124.06
353.674	125.06
353.901	126.06
354.128	129.06
354.355	128.06
354.583	124.06
354.81	132.06
355.037	121.06
355.264	127.06
355.491	124.06
355.718	127.06
355.945	126.06
356.172	133.06
356.399	152.06
356.626	124.06
356.853	139.06
357.08	130.06
357.307	129.06
357.534	151.06
357.761	128.06
357.988	133.06
358.215	123.06
358.441	137.06
358.668	133.06
358.895	115.06
359.122	123.06
359.349	128.06
359.576	136.06
359.802	127.06
360.029	151.06
360.256	124.06
360.483	120.06
360.709	123.06
360.936	138.06
361.163	128.06
361.39	138.06
361.616	140.06
361.843	130.06
362.07	125.06
362.296	133.06
362.523	139.06
362.749	129.06
362.976	127.06
363.203	127.06
363.429	133.06
363.656	133.06
363.882	143.06
364.109	127.06
364.335	135.06
364.562	139.06
364.788	127.06
365.015	127.06
365.241	130.06
365.468	126.06
365.694	108.06
365.92	131.06
366.147	121.06
366.373	126.06
366.599	137.06
366.826	139.06
367.052	139.06
367.278	133.06
367.505	129.06
367.731	135.06
367.957	131.06
368.184	115.06
368.41	116.06
368.636	134.06
368.862	134.06
369.089	123.06
369.315	137.06
369.541	138.06
369.767	143.06
369.993	136.06
370.219	123.06
370.445	149.06
370.672	145.06
370.898	143.06
371.124	146.06
371.35	130.06
371.576	139.06
371.802	146.06
372.028	146.06
372.254	156.06
372.48	159.06
372.706	152.06
372.932	144.06
373.158	153.06
373.384	139.06
373.61	159.06
373.835	149.06
374.061	152.06
374.287	160.06
374.513	149.06
374.739	148.06
374.965	150.06
375.191	139.06
375.416	151.06
375.642	143.06
375.868	155.06
376.094	128.06
376.319	153.06
376.545	153.06
376.771	144.06
376.997	144.06
377.222	161.06
377.448	145.06
377.674	155.06
377.899	160.06
378.125	147.06
378.35	137.06
378.576	157.06
378.802	155.06
379.027	164.06
379.253	164.06
379.478	158.06
379.704	173.06
379.929	158.06
380.155	159.06
380.38	157.06
380.606	160.06
380.831	164.06
381.057	167.06
381.282	155.06
381.507	152.06
381.733	146.06
381.958	158.06
382.184	173.06
382.409	170.06
382.634	167.06
382.86	153.06
383.085	161.06
383.31	168.06
383.535	177.06
383.761	165.06
383.986	174.06
384.211	175.06
384.436	177.06
384.662	181.06
384.887	168.06
385.112	183.06
385.337	181.06
385.562	175.06
385.787	185.06
386.013	188.06
386.238	193.06
386.463	189.06
386.688	183.06
386.913	166.06
387.138	184.06
387.363	192.06
387.588	185.06
387.813	184.06
388.038	193.06
388.263	192.06
388.488	173.06
388.713	197.06
388.938	181.06
389.163	174.06
389.387	177.06
389.612	182.06
389.837	188.06
390.062	176.06
390.287	191.06
390.512	195.06
390.736	183.06
390.961	175.06
391.186	206.06
391.411	197.06
391.636	200.06
391.86	209.06
392.085	198.06
392.31	189.06
392.534	197.06
392.759	214.06
392.984	201.06
393.208	213.06
393.433	189.06
393.658	198.06
393.882	197.06
394.107	205.06
394.331	192.06
394.556	197.06
394.78	206.06
395.005	213.06
395.229	192.06
395.454	213.06
395.678	215.06
395.903	204.06
396.127	204.06
396.352	197.06
396.576	210.06
396.801	200.06
397.025	203.06
397.249	206.06
397.474	202.06
397.698	205.06
397.922	216.06
398.147	199.06
398.371	216.06
398.595	199.06
398.82	214.06
399.044	235.06
399.268	252.06
399.492	252.06
399.717	303.06
399.941	296.06
400.165	286.06
400.389	259.06
400.613	245.06
400.837	247.06
401.062	240.06
401.286	230.06
401.51	227.06
401.734	236.06
401.958	227.06
402.182	235.06
402.406	253.06
402.63	238.06
402.854	245.06
403.078	231.06
403.302	245.06
403.526	252.06
403.75	249.06
403.974	239.06
404.198	250.06
404.422	268.06
404.645	243.06
404.869	249.06
405.093	256.06
405.317	244.06
405.541	245.06
405.765	256.06
405.988	264.06
406.212	233.06
406.436	255.06
406.66	269.06
406.883	259.06
407.107	251.06
407.331	265.06
407.555	264.06
407.778	249.06
408.002	284.06
408.226	251.06
408.449	252.06
408.673	264.06
408.896	247.06
409.12	245.06
409.344	250.06
409.567	241.06
409.791	255.06
410.014	270.06
410.238	247.06
410.461	261.06
410.685	249.06
410.908	255.06
411.132	257.06
411.355	239.06
411.578	235.06
411.802	241.06
412.025	246.06
412.249	255.06
412.472	245.06
412.695	252.06
412.919	243.06
413.142	235.06
413.365	231.06
413.589	246.06
413.812	251.06
414.035	235.06
414.258	243.06
414.482	254.06
414.705	224.06
414.928	239.06
415.151	241.06
415.374	241.06
415.597	237.06
415.821	242.06
416.044	259.06
416.267	248.06
416.49	228.06
416.713	245.06
416.936	247.06
417.159	219.06
417.382	251.06
417.605	251.06
417.828	242.06
418.051	243.06
418.274	257.06
418.497	245.06
418.72	237.06
418.943	227.06
419.166	247.06
419.389	262.06
419.611	246.06
419.834	232.06
420.057	237.06
420.28	245.06
420.503	224.06
420.726	259.06
420.948	245.06
421.171	232.06
421.394	238.06
421.617	243.06
421.839	248.06
422.062	243.06
422.285	239.06
422.507	233.06
422.73	239.06
422.953	244.06
423.175	245.06
423.398	242.06
423.621	243.06
423.843	262.06
424.066	257.06
424.288	244.06
424.511	247.06
424.733	226.06
424.956	239.06
425.178	247.06
425.401	259.06
425.623	247.06
425.846	229.06
426.068	245.06
426.291	240.06
426.513	236.06
426.735	222.06
426.958	235.06
427.18	206.06
427.402	219.06
427.625	227.06
427.847	229.06
428.069	231.06
428.292	232.06
428.514	207.06
428.736	227.06
428.958	237.06
429.181	232.06
429.403	223.06
429.625	228.06
429.847	226.06
430.069	221.06
430.292	210.06
430.514	211.06
430.736	217.06
430.958	216.06
431.18	223.06
431.402	225.06
431.624	228.06
431.846	214.06
432.068	205.06
432.29	220.06
432.512	218.06
432.734	214.06
432.956	238.06
433.178	212.06
433.4	219.06
433.622	240.06
433.844	220.06
434.066	231.06
434.287	220.06
434.509	241.06
434.731	247.06
434.953	257.06
435.175	223.06
435.397	263.06
435.618	244.06
435.84	237.06
436.062	232.06
436.284	225.06
436.505	234.06
436.727	229.06
436.949	228.06
437.17	226.06
437.392	216.06
437.614	230.06
437.835	217.06
438.057	223.06
438.278	227.06
438.5	221.06
438.721	215.06
438.943	217.06
439.165	215.06
439.386	216.06
439.608	233.06
439.829	223.06
440.05	243.06
440.272	244.06
440.493	225.06
440.715	238.06
440.936	241.06
441.158	250.06
441.379	246.06
441.6	227.06
441.822	246.06
442.043	245.06
442.264	237.06
442.486	253.06
442.707	236.06
442.928	253.06
443.149	245.06
443.371	229.06
443.592	263.06
443.813	247.06
444.034	235.06
444.255	262.06
444.476	261.06
444.698	271.06
444.919	287.06
445.14	390.06
445.361	323.06
445.582	257.06
445.803	252.06
446.024	248.06
446.245	246.06
446.466	240.06
446.687	228.06
446.908	246.06
447.129	221.06
447.35	245.06
447.571	234.06
447.792	224.06
448.013	219.06
448.234	232.06
448.455	217.06
448.675	219.06
448.896	222.06
449.117	214.06
449.338	229.06
449.559	209.06
449.779	205.06
450	231.06
450.221	216.06
450.442	229.06
450.662	185.06
450.883	208.06
451.104	230.06
451.324	214.06
451.545	214.06
451.766	223.06
451.986	225.06
452.207	211.06
452.428	216.06
452.648	214.06
452.869	200.06
453.089	218.06
453.31	209.06
453.53	198.06
453.751	219.06
453.971	204.06
454.192	216.06
454.412	206.06
454.633	209.06
454.853	209.06
455.073	198.06
455.294	205.06
455.514	208.06
455.734	211.06
455.955	219.06
456.175	196.06
456.395	203.06
456.616	192.06
456.836	204.06
457.056	203.06
457.276	202.06
457.497	206.06
457.717	201.06
457.937	202.06
458.157	199.06
458.377	195.06
458.598	205.06
458.818	200.06
459.038	235.06
459.258	233.06
459.478	223.06
459.698	224.06
459.918	250.06
460.138	237.06
460.358	248.06
460.578	253.06
460.798	260.06
461.018	270.06
461.238	271.06
461.458	254.06
461.678	260.06
461.898	268.06
462.118	251.06
462.338	261.06
462.558	269.06
462.777	277.06
462.997	302.06
463.217	295.06
463.437	292.06
463.657	283.06
463.876	275.06
464.096	275.06
464.316	278.06
464.536	284.06
464.755	289.06
464.975	276.06
465.195	265.06
465.414	255.06
465.634	237.06
465.854	235.06
466.073	238.06
466.293	245.06
466.512	223.06
466.732	242.06
466.951	236.06
467.171	245.06
467.391	224.06
467.61	231.06
467.829	230.06
468.049	214.06
468.268	227.06
468.488	227.06
468.707	220.06
468.927	217.06
469.146	245.06
469.365	234.06
469.585	221.06
469.804	228.06
470.023	233.06
470.243	231.06
470.462	243.06
470.681	251.06
470.901	238.06
471.12	235.06
471.339	227.06
471.558	205.06
471.777	230.06
471.997	225.06
472.216	202.06
472.435	218.06
472.654	233.06
472.873	230.06
473.092	220.06
473.311	213.06
473.53	225.06
473.749	207.06
473.968	230.06
474.187	220.06
474.406	204.06
474.625	216.06
474.844	224.06
475.063	231.06
475.282	217.06
475.501	206.06
475.72	224.06
475.939	231.06
476.158	237.06
476.377	225.06
476.596	222.06
476.814	225.06
477.033	229.06
477.252	233.06
477.471	228.06
477.69	255.06
477.908	248.06
478.127	271.06
478.346	264.06
478.564	267.06
478.783	247.06
479.002	259.06
479.22	261.06
479.439	245.06
479.658	232.06
479.876	243.06
480.095	261.06
480.313	265.06
480.532	257.06
480.751	255.06
480.969	243.06
481.188	251.06
481.406	245.06
481.624	240.06
481.843	250.06
482.061	220.06
482.28	230.06
482.498	237.06
482.717	232.06
482.935	237.06
483.153	249.06
483.372	218.06
483.59	264.06
483.808	245.06
484.027	234.06
484.245	234.06
484.463	251.06
484.681	238.06
484.9	247.06
485.118	262.06
485.336	245.06
485.554	237.06
485.772	243.06
485.99	243.06
486.209	244.06
486.427	250.06
486.645	249.06
486.863	254.06
487.081	238.06
487.299	247.06
487.517	251.06
487.735	262.06
487.953	261.06
488.171	280.06
488.389	267.06
488.607	238.06
488.825	246.06
489.043	257.06
489.261	260.06
489.479	245.06
489.696	238.06
489.914	255.06
490.132	263.06
490.35	236.06
490.568	247.06
490.786	250.06
491.003	258.06
491.221	257.06
491.439	254.06
491.657	262.06
491.874	281.06
492.092	271.06
492.31	268.06
492.527	252.06
492.745	246.06
492.963	257.06
493.18	275.06
493.398	281.06
493.615	279.06
493.833	291.06
494.05	267.06
494.268	269.06
494.485	250.06
494.703	264.06
494.92	270.06
495.138	256.06
495.355	271.06
495.573	279.06
495.79	284.06
496.008	266.06
496.225	277.06
496.442	279.06
496.66	279.06
496.877	261.06
497.094	289.06
497.312	273.06
497.529	296.06
497.746	287.06
497.963	311.06
498.181	299.06
498.398	313.06
498.615	340.06
498.832	351.06
499.049	337.06
499.267	363.06
499.484	393.06
499.701	433.06
499.918	467.06
500.135	527.06
500.352	546.06
500.569	557.06
500.786	558.06
501.003	535.06
501.22	483.06
501.437	442.06
501.654	393.06
501.871	384.06
502.088	375.06
502.305	356.06
502.522	327.06
502.739	335.06
502.956	313.06
503.172	323.06
503.389	309.06
503.606	315.06
503.823	295.06
504.04	299.06
504.256	286.06
504.473	290.06
504.69	308.06
504.907	282.06
505.123	292.06
505.34	275.06
505.557	264.06
505.773	267.06
505.99	264.06
506.207	263.06
506.423	236.06
506.64	262.06
506.856	260.06
507.073	242.06
507.289	251.06
507.506	261.06
507.722	248.06
507.939	240.06
508.155	237.06
508.372	226.06
508.588	232.06
508.805	227.06
509.021	248.06
509.238	235.06
509.454	225.06
509.67	234.06
509.887	237.06
510.103	221.06
510.319	240.06
510.536	236.06
510.752	239.06
510.968	227.06
511.184	230.06
511.401	213.06
511.617	230.06
511.833	221.06
512.049	223.06
512.265	225.06
512.481	228.06
512.698	209.06
512.914	236.06
513.13	226.06
513.346	229.06
513.562	248.06
513.778	228.06
513.994	239.06
514.21	231.06
514.426	222.06
514.642	239.06
514.858	237.06
515.074	223.06
515.29	235.06
515.506	234.06
515.721	224.06
515.937	251.06
516.153	237.06
516.369	240.06
516.585	252.06
516.801	248.06
517.016	266.06
517.232	269.06
517.448	274.06
517.664	281.06
517.879	279.06
518.095	268.06
518.311	270.06
518.527	257.06
518.742	261.06
518.958	247.06
519.173	248.06
519.389	251.06
519.605	249.06
519.82	245.06
520.036	260.06
520.251	230.06
520.467	228.06
520.682	235.06
520.898	232.06
521.113	233.06
521.329	212.06
521.544	215.06
521.76	237.06
521.975	223.06
522.19	225.06
522.406	220.06
522.621	224.06
522.836	225.06
523.052	214.06
523.267	222.06
523.482	208.06
523.698	221.06
523.913	209.06
524.128	219.06
524.343	220.06
524.559	228.06
524.774	223.06
524.989	225.06
525.204	230.06
525.419	205.06
525.634	214.06
525.849	217.06
526.064	215.06
526.28	228.06
526.495	193.06
526.71	208.06
526.925	213.06
527.14	219.06
527.355	211.06
527.57	209.06
527.785	216.06
527.999	204.06
528.214	226.06
528.429	227.06
528.644	231.06
528.859	216.06
529.074	226.06
529.289	221.06
529.503	219.06
529.718	228.06
529.933	214.06
530.148	235.06
530.363	216.06
530.577	211.06
530.792	214.06
531.007	217.06
531.221	203.06
531.436	207.06
531.651	206.06
531.865	227.06
532.08	204.06
532.295	214.06
532.509	212.06
532.724	209.06
532.938	221.06
533.153	196.06
533.367	222.06
533.582	212.06
533.796	193.06
534.011	218.06
534.225	217.06
534.44	208.06
534.654	210.06
534.868	192.06
535.083	232.06
535.297	214.06
535.511	218.06
535.726	210.06
535.94	200.06
536.154	217.06
536.369	206.06
536.583	198.06
536.797	207.06
537.011	187.06
537.225	200.06
537.44	201.06
537.654	202.06
537.868	214.06
538.082	210.06
538.296	219.06
538.51	219.06
538.724	207.06
538.938	203.06
539.153	206.06
539.367	206.06
539.581	209.06
539.795	203.06
540.009	210.06
540.222	222.06
540.436	212.06
540.65	213.06
540.864	199.06
541.078	221.06
541.292	186.06
541.506	201.06
541.72	223.06
541.934	220.06
542.147	217.06
542.361	229.06
542.575	208.06
542.789	208.06
543.002	198.06
543.216	199.06
543.43	201.06
543.644	208.06
543.857	204.06
544.071	198.06
544.285	212.06
544.498	209.06
544.712	193.06
544.925	213.06
545.139	204.06
545.352	210.06
545.566	209.06
545.779	227.06
545.993	214.06
546.206	215.06
546.42	202.06
546.633	225.06
546.847	201.06
547.06	211.06
547.274	209.06
547.487	215.06
547.7	207.06
547.914	202.06
548.127	209.06
548.34	211.06
548.554	201.06
548.767	203.06
548.98	199.06
549.193	199.06
549.407	215.06
549.62	222.06
549.833	216.06
550.046	217.06
550.259	199.06
550.473	216.06
550.686	213.06
550.899	231.06
551.112	213.06
551.325	189.06
551.538	203.06
551.751	204.06
551.964	185.06
552.177	200.06
552.39	208.06
552.603	223.06
552.816	214.06
553.029	220.06
553.242	218.06
553.455	223.06
553.667	221.06
553.88	216.06
554.093	204.06
554.306	197.06
554.519	205.06
554.732	207.06
554.944	208.06
555.157	196.06
555.37	189.06
555.583	196.06
555.795	181.06
556.008	207.06
556.221	181.06
556.433	196.06
556.646	179.06
556.859	185.06
557.071	187.06
557.284	182.06
557.496	185.06
557.709	192.06
557.921	191.06
558.134	198.06
558.346	190.06
558.559	179.06
558.771	199.06
558.984	179.06
559.196	181.06
559.409	179.06
559.621	186.06
559.833	192.06
560.046	203.06
560.258	181.06
560.47	184.06
560.683	200.06
560.895	193.06
561.107	190.06
561.32	188.06
561.532	190.06
561.744	182.06
561.956	192.06
562.168	174.06
562.381	187.06
562.593	201.06
562.805	197.06
563.017	188.06
563.229	196.06
563.441	183.06
563.653	168.06
563.865	187.06
564.077	187.06
564.289	197.06
564.501	188.06
564.713	195.06
564.925	196.06
565.137	195.06
565.349	199.06
565.561	197.06
565.773	211.06
565.985	214.06
566.197	205.06
566.408	235.06
566.62	216.06
566.832	222.06
567.044	228.06
567.255	231.06
567.467	232.06
567.679	263.06
567.891	280.06
568.102	261.06
568.314	247.06
568.526	240.06
568.737	227.06
568.949	226.06
569.161	203.06
569.372	195.06
569.584	205.06
569.795	197.06
570.007	197.06
570.218	187.06
570.43	179.06
570.641	175.06
570.853	180.06
571.064	192.06
571.276	179.06
571.487	183.06
571.698	182.06
571.91	174.06
572.121	187.06
572.333	174.06
572.544	167.06
572.755	151.06
572.966	173.06
573.178	175.06
573.389	165.06
573.6	168.06
573.811	143.06
574.023	148.06
574.234	157.06
574.445	151.06
574.656	172.06
574.867	168.06
575.078	161.06
575.289	172.06
575.501	167.06
575.712	166.06
575.923	153.06
576.134	165.06
576.345	170.06
576.556	161.06
576.767	162.06
576.978	159.06
577.188	155.06
577.399	158.06
577.61	164.06
577.821	147.06
578.032	149.06
578.243	154.06
578.454	156.06
578.665	148.06
578.875	154.06
579.086	163.06
579.297	181.06
579.508	149.06
579.718	142.06
579.929	161.06
580.14	159.06
580.35	148.06
580.561	137.06
580.772	157.06
580.982	139.06
581.193	157.06
581.403	132.06
581.614	141.06
581.825	144.06
582.035	141.06
582.246	157.06
582.456	148.06
582.667	163.06
582.877	144.06
583.087	150.06
583.298	146.06
583.508	130.06
583.719	146.06
583.929	135.06
584.139	143.06
584.35	152.06
584.56	157.06
584.77	148.06
584.981	138.06
585.191	143.06
585.401	152.06
585.611	151.06
585.821	148.06
586.032	136.06
586.242	145.06
586.452	159.06
586.662	156.06
586.872	155.06
587.082	149.06
587.292	159.06
587.502	160.06
587.713	143.06
587.923	155.06
588.133	152.06
588.343	140.06
588.553	128.06
588.762	149.06
588.972	153.06
589.182	153.06
589.392	165.06
589.602	131.06
589.812	128.06
590.022	144.06
590.232	153.06
590.441	156.06
590.651	156.06
590.861	141.06
591.071	138.06
591.281	145.06
591.49	156.06
591.7	155.06
591.91	155.06
592.119	154.06
592.329	148.06
592.539	144.06
592.748	151.06
592.958	156.06
593.167	164.06
593.377	153.06
593.587	166.06
593.796	160.06
594.006	159.06
594.215	164.06
594.424	163.06
594.634	172.06
594.843	146.06
595.053	151.06
595.262	149.06
595.472	147.06
595.681	151.06
595.89	150.06
596.1	149.06
596.309	158.06
596.518	137.06
596.727	145.06
596.937	132.06
597.146	137.06
597.355	143.06
597.564	131.06
597.774	152.06
597.983	140.06
598.192	159.06
598.401	127.06
598.61	128.06
598.819	142.06
599.028	137.06
599.237	117.06
599.446	142.06
599.655	123.06
599.864	150.06
600.073	132.06
600.282	142.06
600.491	128.06
600.7	140.06
600.909	141.06
601.118	135.06
601.327	131.06
601.536	135.06
601.745	124.06
601.953	123.06
602.162	129.06
602.371	131.06
602.58	136.06
602.789	143.06
602.997	122.06
603.206	141.06
603.415	126.06
603.623	123.06
603.832	131.06
604.041	129.06
604.249	120.06
604.458	131.06
604.666	122.06
604.875	136.06
605.084	122.06
605.292	124.06
605.501	133.06
605.709	132.06
605.918	134.06
606.126	132.06
606.334	119.06
606.543	118.06
606.751	129.06
606.96	147.06
607.168	143.06
607.376	134.06
607.585	142.06
607.793	126.06
608.001	127.06
608.21	134.06
608.418	127.06
608.626	129.06
608.834	138.06
609.043	131.06
609.251	135.06
609.459	132.06
609.667	126.06
609.875	127.06
610.083	122.06
610.291	133.06
610.499	140.06
610.707	134.06
610.916	139.06
611.124	135.06
611.332	132.06
611.54	119.06
611.748	117.06
611.955	117.06
612.163	129.06
612.371	143.06
612.579	129.06
612.787	125.06
612.995	126.06
613.203	130.06
613.411	131.06
613.618	125.06
613.826	126.06
614.034	142.06
614.242	130.06
614.449	143.06
614.657	119.06
614.865	133.06
615.072	119.06
615.28	135.06
615.488	123.06
615.695	123.06
615.903	144.06
616.111	141.06
616.318	124.06
616.526	126.06
616.733	145.06
616.941	128.06
617.148	122.06
617.356	119.06
617.563	112.06
617.771	129.06
617.978	125.06
618.185	117.06
618.393	126.06
618.6	117.06
618.807	129.06
619.015	116.06
619.222	126.06
619.429	110.06
619.637	126.06
619.844	127.06
620.051	130.06
620.258	130.06
620.466	117.06
620.673	122.06
620.88	121.06
621.087	120.06
621.294	127.06
621.501	119.06
621.708	143.06
621.915	120.06
622.122	125.06
622.329	135.06
622.536	120.06
622.743	118.06
622.95	115.06
623.157	116.06
623.364	126.06
623.571	120.06
623.778	129.06
623.985	119.06
624.192	128.06
624.399	143.06
624.606	122.06
624.812	122.06
625.019	120.06
625.226	104.06
625.433	115.06
625.639	106.06
625.846	120.06
626.053	101.06
626.259	122.06
626.466	127.06
626.673	128.06
626.879	125.06
627.086	124.06
627.293	135.06
627.499	137.06
627.706	107.06
627.912	115.06
628.119	123.06
628.325	119.06
628.532	105.06
628.738	120.06
628.945	125.06
629.151	118.06
629.357	122.06
629.564	133.06
629.77	112.06
629.976	119.06
630.183	122.06
630.389	133.06
630.595	128.06
630.802	117.06
631.008	106.06
631.214	129.06
631.42	112.06
631.627	120.06
631.833	110.06
632.039	114.06
632.245	98.06
632.451	118.06
632.657	125.06
632.863	126.06
633.069	119.06
633.275	106.06
633.481	127.06
633.688	91.06
633.893	126.06
634.099	118.06
634.305	112.06
634.511	119.06
634.717	109.06
634.923	103.06
635.129	89.06
635.335	98.06
635.541	119.06
635.747	118.06
635.952	108.06
636.158	101.06
636.364	116.06
636.57	111.06
636.775	108.06
636.981	126.06
637.187	114.06
637.392	104.06
637.598	109.06
637.804	112.06
638.009	120.06
638.215	98.06
638.421	119.06
638.626	116.06
638.832	105.06
639.037	117.06
639.243	107.06
639.448	105.06
639.654	106.06
639.859	111.06
640.065	110.06
640.27	114.06
640.475	109.06
640.681	101.06
640.886	99.06
641.091	112.06
641.297	118.06
641.502	113.06
641.707	109.06
641.913	118.06
642.118	116.06
642.323	107.06
642.528	109.06
642.733	125.06
642.939	117.06
643.144	101.06
643.349	117.06
643.554	100.06
643.759	100.06
643.964	115.06
644.169	115.06
644.374	107.06
644.579	114.06
644.784	129.06
644.989	101.06
645.194	106.06
645.399	105.06
645.604	113.06
645.809	105.06
646.014	107.06
646.219	102.06
646.423	97.06
646.628	109.06
646.833	110.06
647.038	109.06
647.243	129.06
647.447	105.06
647.652	125.06
647.857	101.06
648.062	115.06
648.266	117.06
648.471	121.06
648.676	101.06
648.88	111.06
649.085	117.06
649.289	110.06
649.494	113.06
649.698	119.06
649.903	93.06
650.107	108.06
650.312	115.06
650.516	112.06
650.721	100.06
650.925	119.06
651.13	117.06
651.334	97.06
651.539	124.06
651.743	101.06
651.947	107.06
652.152	105.06
652.356	108.06
652.56	108.06
652.764	126.06
652.969	99.06
653.173	113.06
653.377	97.06
653.581	105.06
653.785	100.06
653.99	111.06
654.194	99.06
654.398	101.06
654.602	103.06
654.806	102.06
655.01	100.06
655.214	98.06
655.418	108.06
655.622	96.06
655.826	104.06
656.03	94.06
656.234	106.06
656.438	110.06
656.642	99.06
656.846	92.06
657.049	108.06
657.253	102.06
657.457	104.06
657.661	97.06
657.865	81.06
658.068	94.06
658.272	99.06
658.476	92.06
658.68	98.06
658.883	96.06
659.087	100.06
659.291	93.06
659.494	84.06
659.698	93.06
659.901	91.06
660.105	100.06
660.309	106.06
660.512	92.06
660.716	91.06
660.919	81.06
661.123	94.06
661.326	86.06
661.53	97.06
661.733	94.06
661.936	87.06
662.14	92.06
662.343	79.06
662.546	90.06
662.75	90.06
662.953	100.06
663.156	83.06
663.36	95.06
663.563	82.06
663.766	84.06
663.969	88.06
664.173	78.06
664.376	99.06
664.579	92.06
664.782	87.06
664.985	78.06
665.188	78.06
665.391	82.06
665.594	89.06
665.797	88.06
666	83.06
666.203	89.06
666.406	83.06
666.609	81.06
666.812	94.06
667.015	95.06
667.218	96.06
667.421	81.06
667.624	78.06
667.827	101.06
668.03	79.06
668.232	91.06
668.435	81.06
668.638	76.06
668.841	75.06
669.043	85.06
669.246	88.06
669.449	76.06
669.651	87.06
669.854	75.06
670.057	86.06
670.259	80.06
670.462	95.06
670.665	89.06
670.867	63.06
671.07	86.06
671.272	83.06
671.475	85.06
671.677	79.06
671.88	84.06
672.082	70.06
672.284	82.06
672.487	84.06
672.689	81.06
672.892	83.06
