Data from Fe(NO3)3@0.1M.TitratingCurve.Agarose3%dH2O.NegLispCup.LampEnergy10.LIBS07252019_HRD10591_16-41-56-334.txt Node
Date: Thu Jul 25 16:41:56 EDT 2019
User: cochatt
Spectrometer: HR+D1059
Trigger mode: 1
Integration Time (sec): 1.000000E-1
Scans to average: 1
Electric dark correction enabled: true
Nonlinearity correction enabled: false
Boxcar width: 0
XAxis mode: Wavelengths
Number of Pixels in Spectrum: 2048
>>>>>Begin Spectral Data<<<<<
223.165	-25.12
223.4	-25.12
223.635	-25.12
223.869	-19.12
224.104	-33.12
224.338	-15.12
224.573	-17.12
224.808	-16.12
225.042	-9.12
225.277	-7.12
225.511	3.88
225.746	-6.12
225.98	14.88
226.215	13.88
226.449	26.88
226.683	20.88
226.918	18.88
227.152	48.88
227.387	34.88
227.621	34.88
227.856	41.88
228.09	37.88
228.324	48.88
228.559	49.88
228.793	47.88
229.027	58.88
229.262	68.88
229.496	70.88
229.73	81.88
229.964	83.88
230.199	74.88
230.433	81.88
230.667	96.88
230.901	90.88
231.136	83.88
231.37	94.88
231.604	97.88
231.838	90.88
232.072	106.88
232.306	88.88
232.541	86.88
232.775	93.88
233.009	88.88
233.243	105.88
233.477	101.88
233.711	91.88
233.945	93.88
234.179	82.88
234.413	85.88
234.647	97.88
234.881	100.88
235.115	99.88
235.349	83.88
235.583	76.88
235.817	83.88
236.051	81.88
236.285	76.88
236.519	84.88
236.753	78.88
236.987	87.88
237.221	81.88
237.455	107.88
237.689	83.88
237.922	88.88
238.156	104.88
238.39	94.88
238.624	94.88
238.858	86.88
239.091	98.88
239.325	89.88
239.559	104.88
239.793	90.88
240.027	100.88
240.26	90.88
240.494	84.88
240.728	96.88
240.961	85.88
241.195	97.88
241.429	105.88
241.662	97.88
241.896	82.88
242.13	94.88
242.363	92.88
242.597	94.88
242.83	103.88
243.064	87.88
243.298	104.88
243.531	105.88
243.765	115.88
243.998	105.88
244.232	105.88
244.465	110.88
244.699	104.88
244.932	93.88
245.166	102.88
245.399	107.88
245.633	91.88
245.866	96.88
246.099	94.88
246.333	109.88
246.566	114.88
246.8	110.88
247.033	101.88
247.266	117.88
247.5	100.88
247.733	103.88
247.966	112.88
248.2	110.88
248.433	107.88
248.666	106.88
248.899	110.88
249.133	113.88
249.366	120.88
249.599	104.88
249.832	104.88
250.066	107.88
250.299	97.88
250.532	104.88
250.765	112.88
250.998	100.88
251.231	120.88
251.465	118.88
251.698	112.88
251.931	108.88
252.164	119.88
252.397	121.88
252.63	117.88
252.863	115.88
253.096	108.88
253.329	121.88
253.562	122.88
253.795	112.88
254.028	120.88
254.261	127.88
254.494	125.88
254.727	107.88
254.96	119.88
255.193	110.88
255.426	112.88
255.659	116.88
255.892	114.88
256.124	131.88
256.357	112.88
256.59	111.88
256.823	103.88
257.056	125.88
257.289	119.88
257.521	126.88
257.754	107.88
257.987	116.88
258.22	105.88
258.452	130.88
258.685	113.88
258.918	116.88
259.151	131.88
259.383	119.88
259.616	114.88
259.849	129.88
260.081	146.88
260.314	134.88
260.547	130.88
260.779	126.88
261.012	122.88
261.244	122.88
261.477	122.88
261.71	131.88
261.942	125.88
262.175	132.88
262.407	128.88
262.64	124.88
262.872	120.88
263.105	126.88
263.337	129.88
263.57	119.88
263.802	123.88
264.035	124.88
264.267	107.88
264.499	128.88
264.732	119.88
264.964	137.88
265.197	131.88
265.429	123.88
265.661	121.88
265.894	118.88
266.126	130.88
266.358	128.88
266.591	124.88
266.823	126.88
267.055	138.88
267.287	124.88
267.52	130.88
267.752	136.88
267.984	132.88
268.216	155.88
268.448	150.88
268.681	129.88
268.913	138.88
269.145	128.88
269.377	131.88
269.609	138.88
269.841	134.88
270.073	140.88
270.306	147.88
270.538	136.88
270.77	123.88
271.002	150.88
271.234	131.88
271.466	128.88
271.698	138.88
271.93	149.88
272.162	149.88
272.394	145.88
272.626	139.88
272.858	137.88
273.09	136.88
273.322	140.88
273.553	137.88
273.785	135.88
274.017	143.88
274.249	152.88
274.481	149.88
274.713	139.88
274.945	146.88
275.176	146.88
275.408	148.88
275.64	156.88
275.872	138.88
276.104	151.88
276.335	150.88
276.567	139.88
276.799	150.88
277.031	133.88
277.262	139.88
277.494	145.88
277.726	132.88
277.957	154.88
278.189	138.88
278.421	137.88
278.652	146.88
278.884	140.88
279.115	138.88
279.347	151.88
279.579	152.88
279.81	141.88
280.042	164.88
280.273	164.88
280.505	148.88
280.736	138.88
280.968	159.88
281.199	160.88
281.431	140.88
281.662	148.88
281.894	157.88
282.125	152.88
282.356	161.88
282.588	152.88
282.819	152.88
283.051	165.88
283.282	152.88
283.513	163.88
283.745	163.88
283.976	161.88
284.207	152.88
284.439	154.88
284.67	153.88
284.901	164.88
285.132	158.88
285.364	155.88
285.595	186.88
285.826	155.88
286.057	166.88
286.288	175.88
286.52	169.88
286.751	170.88
286.982	174.88
287.213	175.88
287.444	166.88
287.675	170.88
287.906	164.88
288.138	179.88
288.369	174.88
288.6	179.88
288.831	174.88
289.062	164.88
289.293	180.88
289.524	167.88
289.755	160.88
289.986	163.88
290.217	171.88
290.448	165.88
290.679	167.88
290.91	158.88
291.141	153.88
291.371	179.88
291.602	178.88
291.833	164.88
292.064	164.88
292.295	170.88
292.526	169.88
292.757	164.88
292.987	162.88
293.218	157.88
293.449	182.88
293.68	174.88
293.91	174.88
294.141	192.88
294.372	164.88
294.603	162.88
294.833	152.88
295.064	167.88
295.295	187.88
295.525	181.88
295.756	182.88
295.987	168.88
296.217	168.88
296.448	167.88
296.679	172.88
296.909	161.88
297.14	184.88
297.37	163.88
297.601	170.88
297.831	181.88
298.062	179.88
298.292	178.88
298.523	186.88
298.753	183.88
298.984	172.88
299.214	180.88
299.445	202.88
299.675	175.88
299.905	169.88
300.136	177.88
300.366	167.88
300.597	186.88
300.827	196.88
301.057	188.88
301.288	190.88
301.518	207.88
301.748	194.88
301.979	186.88
302.209	187.88
302.439	217.88
302.669	187.88
302.9	176.88
303.13	186.88
303.36	188.88
303.59	188.88
303.82	178.88
304.051	186.88
304.281	170.88
304.511	178.88
304.741	163.88
304.971	178.88
305.201	187.88
305.431	201.88
305.661	177.88
305.891	190.88
306.121	197.88
306.352	182.88
306.582	194.88
306.812	171.88
307.042	184.88
307.272	180.88
307.502	176.88
307.731	182.88
307.961	169.88
308.191	190.88
308.421	195.88
308.651	192.88
308.881	199.88
309.111	191.88
309.341	184.88
309.571	194.88
309.8	171.88
310.03	158.88
310.26	191.88
310.49	183.88
310.72	196.88
310.949	195.88
311.179	177.88
311.409	180.88
311.639	183.88
311.868	184.88
312.098	177.88
312.328	194.88
312.557	197.88
312.787	182.88
313.017	179.88
313.246	183.88
313.476	191.88
313.706	197.88
313.935	191.88
314.165	184.88
314.394	199.88
314.624	187.88
314.853	174.88
315.083	198.88
315.312	216.88
315.542	182.88
315.771	192.88
316.001	208.88
316.23	201.88
316.46	182.88
316.689	196.88
316.919	185.88
317.148	190.88
317.377	198.88
317.607	200.88
317.836	190.88
318.065	191.88
318.295	197.88
318.524	199.88
318.753	193.88
318.983	178.88
319.212	194.88
319.441	194.88
319.67	199.88
319.9	183.88
320.129	198.88
320.358	194.88
320.587	210.88
320.816	198.88
321.046	216.88
321.275	202.88
321.504	201.88
321.733	192.88
321.962	213.88
322.191	200.88
322.42	184.88
322.649	199.88
322.878	221.88
323.108	218.88
323.337	200.88
323.566	193.88
323.795	201.88
324.024	208.88
324.253	212.88
324.482	193.88
324.71	198.88
324.939	210.88
325.168	208.88
325.397	213.88
325.626	210.88
325.855	199.88
326.084	206.88
326.313	198.88
326.542	200.88
326.77	201.88
326.999	221.88
327.228	203.88
327.457	198.88
327.686	214.88
327.914	215.88
328.143	216.88
328.372	204.88
328.6	213.88
328.829	220.88
329.058	205.88
329.287	205.88
329.515	201.88
329.744	212.88
329.972	194.88
330.201	227.88
330.43	221.88
330.658	217.88
330.887	229.88
331.115	207.88
331.344	220.88
331.572	229.88
331.801	218.88
332.03	214.88
332.258	233.88
332.486	236.88
332.715	236.88
332.943	250.88
333.172	259.88
333.4	249.88
333.629	238.88
333.857	270.88
334.085	251.88
334.314	230.88
334.542	243.88
334.771	256.88
334.999	259.88
335.227	230.88
335.455	257.88
335.684	260.88
335.912	240.88
336.14	250.88
336.369	225.88
336.597	246.88
336.825	236.88
337.053	242.88
337.281	240.88
337.51	233.88
337.738	215.88
337.966	228.88
338.194	233.88
338.422	231.88
338.65	222.88
338.878	222.88
339.106	223.88
339.334	222.88
339.562	234.88
339.79	227.88
340.018	215.88
340.246	224.88
340.474	222.88
340.702	228.88
340.93	203.88
341.158	217.88
341.386	217.88
341.614	230.88
341.842	238.88
342.07	222.88
342.298	210.88
342.526	228.88
342.754	236.88
342.981	218.88
343.209	219.88
343.437	227.88
343.665	230.88
343.893	240.88
344.12	254.88
344.348	234.88
344.576	254.88
344.804	238.88
345.031	227.88
345.259	220.88
345.487	216.88
345.714	217.88
345.942	221.88
346.17	216.88
346.397	208.88
346.625	205.88
346.853	207.88
347.08	203.88
347.308	219.88
347.535	225.88
347.763	221.88
347.99	217.88
348.218	221.88
348.445	206.88
348.673	194.88
348.9	220.88
349.128	223.88
349.355	202.88
349.583	214.88
349.81	213.88
350.037	177.88
350.265	207.88
350.492	203.88
350.72	205.88
350.947	212.88
351.174	209.88
351.402	212.88
351.629	215.88
351.856	210.88
352.083	201.88
352.311	206.88
352.538	224.88
352.765	202.88
352.992	201.88
353.22	224.88
353.447	214.88
353.674	217.88
353.901	194.88
354.128	213.88
354.355	196.88
354.583	218.88
354.81	208.88
355.037	213.88
355.264	196.88
355.491	212.88
355.718	207.88
355.945	218.88
356.172	213.88
356.399	230.88
356.626	205.88
356.853	213.88
357.08	211.88
357.307	198.88
357.534	203.88
357.761	208.88
357.988	220.88
358.215	212.88
358.441	198.88
358.668	205.88
358.895	209.88
359.122	199.88
359.349	225.88
359.576	202.88
359.802	210.88
360.029	222.88
360.256	211.88
360.483	207.88
360.709	218.88
360.936	211.88
361.163	196.88
361.39	210.88
361.616	212.88
361.843	219.88
362.07	223.88
362.296	233.88
362.523	217.88
362.749	223.88
362.976	197.88
363.203	206.88
363.429	211.88
363.656	204.88
363.882	216.88
364.109	232.88
364.335	203.88
364.562	213.88
364.788	213.88
365.015	208.88
365.241	232.88
365.468	215.88
365.694	224.88
365.92	217.88
366.147	225.88
366.373	224.88
366.599	219.88
366.826	215.88
367.052	211.88
367.278	222.88
367.505	220.88
367.731	224.88
367.957	213.88
368.184	220.88
368.41	214.88
368.636	209.88
368.862	223.88
369.089	234.88
369.315	224.88
369.541	231.88
369.767	222.88
369.993	234.88
370.219	229.88
370.445	244.88
370.672	222.88
370.898	234.88
371.124	232.88
371.35	229.88
371.576	242.88
371.802	205.88
372.028	215.88
372.254	239.88
372.48	222.88
372.706	234.88
372.932	228.88
373.158	243.88
373.384	223.88
373.61	228.88
373.835	234.88
374.061	228.88
374.287	244.88
374.513	240.88
374.739	249.88
374.965	234.88
375.191	252.88
375.416	245.88
375.642	240.88
375.868	226.88
376.094	235.88
376.319	238.88
376.545	243.88
376.771	233.88
376.997	231.88
377.222	238.88
377.448	217.88
377.674	222.88
377.899	219.88
378.125	211.88
378.35	223.88
378.576	238.88
378.802	227.88
379.027	229.88
379.253	227.88
379.478	243.88
379.704	224.88
379.929	234.88
380.155	218.88
380.38	252.88
380.606	236.88
380.831	233.88
381.057	221.88
381.282	222.88
381.507	232.88
381.733	223.88
381.958	231.88
382.184	236.88
382.409	234.88
382.634	241.88
382.86	244.88
383.085	228.88
383.31	237.88
383.535	247.88
383.761	260.88
383.986	252.88
384.211	267.88
384.436	260.88
384.662	258.88
384.887	289.88
385.112	261.88
385.337	256.88
385.562	254.88
385.787	258.88
386.013	275.88
386.238	263.88
386.463	268.88
386.688	275.88
386.913	263.88
387.138	247.88
387.363	250.88
387.588	268.88
387.813	269.88
388.038	268.88
388.263	260.88
388.488	264.88
388.713	264.88
388.938	255.88
389.163	258.88
389.387	263.88
389.612	246.88
389.837	256.88
390.062	275.88
390.287	252.88
390.512	270.88
390.736	266.88
390.961	274.88
391.186	281.88
391.411	275.88
391.636	293.88
391.86	305.88
392.085	296.88
392.31	279.88
392.534	297.88
392.759	283.88
392.984	299.88
393.208	273.88
393.433	284.88
393.658	299.88
393.882	294.88
394.107	278.88
394.331	284.88
394.556	293.88
394.78	280.88
395.005	274.88
395.229	267.88
395.454	300.88
395.678	299.88
395.903	308.88
396.127	302.88
396.352	286.88
396.576	291.88
396.801	278.88
397.025	280.88
397.249	287.88
397.474	286.88
397.698	296.88
397.922	306.88
398.147	293.88
398.371	309.88
398.595	313.88
398.82	321.88
399.044	332.88
399.268	342.88
399.492	415.88
399.717	448.88
399.941	425.88
400.165	388.88
400.389	367.88
400.613	344.88
400.837	330.88
401.062	326.88
401.286	319.88
401.51	331.88
401.734	324.88
401.958	333.88
402.182	322.88
402.406	339.88
402.63	326.88
402.854	334.88
403.078	338.88
403.302	351.88
403.526	361.88
403.75	371.88
403.974	353.88
404.198	371.88
404.422	367.88
404.645	353.88
404.869	363.88
405.093	371.88
405.317	348.88
405.541	350.88
405.765	354.88
405.988	338.88
406.212	345.88
406.436	361.88
406.66	356.88
406.883	351.88
407.107	380.88
407.331	398.88
407.555	403.88
407.778	401.88
408.002	400.88
408.226	407.88
408.449	363.88
408.673	355.88
408.896	353.88
409.12	337.88
409.344	375.88
409.567	366.88
409.791	374.88
410.014	355.88
410.238	363.88
410.461	354.88
410.685	340.88
410.908	346.88
411.132	343.88
411.355	326.88
411.578	353.88
411.802	349.88
412.025	330.88
412.249	343.88
412.472	340.88
412.695	324.88
412.919	323.88
413.142	329.88
413.365	340.88
413.589	320.88
413.812	328.88
414.035	316.88
414.258	315.88
414.482	323.88
414.705	334.88
414.928	315.88
415.151	348.88
415.374	322.88
415.597	326.88
415.821	316.88
416.044	332.88
416.267	342.88
416.49	335.88
416.713	329.88
416.936	332.88
417.159	332.88
417.382	342.88
417.605	339.88
417.828	325.88
418.051	346.88
418.274	316.88
418.497	342.88
418.72	340.88
418.943	364.88
419.166	346.88
419.389	371.88
419.611	360.88
419.834	350.88
420.057	346.88
420.28	334.88
420.503	327.88
420.726	334.88
420.948	345.88
421.171	329.88
421.394	338.88
421.617	344.88
421.839	348.88
422.062	351.88
422.285	338.88
422.507	340.88
422.73	342.88
422.953	338.88
423.175	332.88
423.398	357.88
423.621	345.88
423.843	358.88
424.066	347.88
424.288	350.88
424.511	353.88
424.733	352.88
424.956	336.88
425.178	324.88
425.401	353.88
425.623	335.88
425.846	325.88
426.068	331.88
426.291	325.88
426.513	318.88
426.735	310.88
426.958	317.88
427.18	320.88
427.402	329.88
427.625	314.88
427.847	308.88
428.069	313.88
428.292	306.88
428.514	328.88
428.736	303.88
428.958	299.88
429.181	320.88
429.403	321.88
429.625	295.88
429.847	299.88
430.069	309.88
430.292	297.88
430.514	293.88
430.736	314.88
430.958	320.88
431.18	286.88
431.402	305.88
431.624	314.88
431.846	306.88
432.068	307.88
432.29	297.88
432.512	299.88
432.734	303.88
432.956	307.88
433.178	324.88
433.4	315.88
433.622	307.88
433.844	316.88
434.066	303.88
434.287	299.88
434.509	329.88
434.731	336.88
434.953	323.88
435.175	345.88
435.397	345.88
435.618	305.88
435.84	317.88
436.062	332.88
436.284	304.88
436.505	296.88
436.727	297.88
436.949	334.88
437.17	318.88
437.392	322.88
437.614	307.88
437.835	293.88
438.057	306.88
438.278	311.88
438.5	325.88
438.721	317.88
438.943	332.88
439.165	315.88
439.386	313.88
439.608	320.88
439.829	303.88
440.05	309.88
440.272	312.88
440.493	305.88
440.715	338.88
440.936	348.88
441.158	338.88
441.379	330.88
441.6	370.88
441.822	344.88
442.043	360.88
442.264	338.88
442.486	348.88
442.707	338.88
442.928	361.88
443.149	358.88
443.371	351.88
443.592	333.88
443.813	339.88
444.034	343.88
444.255	359.88
444.476	376.88
444.698	385.88
444.919	385.88
445.14	471.88
445.361	405.88
445.582	353.88
445.803	347.88
446.024	337.88
446.245	345.88
446.466	345.88
446.687	324.88
446.908	330.88
447.129	323.88
447.35	345.88
447.571	323.88
447.792	305.88
448.013	316.88
448.234	346.88
448.455	299.88
448.675	316.88
448.896	338.88
449.117	284.88
449.338	306.88
449.559	318.88
449.779	285.88
450	312.88
450.221	332.88
450.442	322.88
450.662	311.88
450.883	318.88
451.104	299.88
451.324	312.88
451.545	306.88
451.766	299.88
451.986	306.88
452.207	303.88
452.428	306.88
452.648	296.88
452.869	293.88
453.089	288.88
453.31	288.88
453.53	285.88
453.751	278.88
453.971	302.88
454.192	292.88
454.412	279.88
454.633	294.88
454.853	298.88
455.073	297.88
455.294	268.88
455.514	297.88
455.734	293.88
455.955	280.88
456.175	279.88
456.395	289.88
456.616	288.88
456.836	283.88
457.056	280.88
457.276	265.88
457.497	289.88
457.717	280.88
457.937	282.88
458.157	281.88
458.377	280.88
458.598	297.88
458.818	294.88
459.038	296.88
459.258	295.88
459.478	320.88
459.698	307.88
459.918	324.88
460.138	341.88
460.358	342.88
460.578	350.88
460.798	358.88
461.018	356.88
461.238	363.88
461.458	346.88
461.678	352.88
461.898	368.88
462.118	362.88
462.338	377.88
462.558	361.88
462.777	384.88
462.997	426.88
463.217	438.88
463.437	455.88
463.657	404.88
463.876	379.88
464.096	410.88
464.316	394.88
464.536	397.88
464.755	409.88
464.975	366.88
465.195	380.88
465.414	347.88
465.634	331.88
465.854	333.88
466.073	320.88
466.293	317.88
466.512	320.88
466.732	306.88
466.951	309.88
467.171	307.88
467.391	320.88
467.61	312.88
467.829	295.88
468.049	302.88
468.268	314.88
468.488	310.88
468.707	305.88
468.927	306.88
469.146	300.88
469.365	293.88
469.585	292.88
469.804	302.88
470.023	311.88
470.243	321.88
470.462	314.88
470.681	315.88
470.901	327.88
471.12	320.88
471.339	326.88
471.558	304.88
471.777	305.88
471.997	287.88
472.216	312.88
472.435	292.88
472.654	294.88
472.873	300.88
473.092	283.88
473.311	290.88
473.53	306.88
473.749	267.88
473.968	276.88
474.187	294.88
474.406	309.88
474.625	286.88
474.844	300.88
475.063	282.88
475.282	306.88
475.501	303.88
475.72	301.88
475.939	292.88
476.158	286.88
476.377	306.88
476.596	299.88
476.814	302.88
477.033	308.88
477.252	296.88
477.471	312.88
477.69	318.88
477.908	342.88
478.127	347.88
478.346	329.88
478.564	332.88
478.783	329.88
479.002	344.88
479.22	343.88
479.439	350.88
479.658	350.88
479.876	332.88
480.095	315.88
480.313	346.88
480.532	357.88
480.751	359.88
480.969	350.88
481.188	350.88
481.406	344.88
481.624	306.88
481.843	330.88
482.061	311.88
482.28	313.88
482.498	322.88
482.717	311.88
482.935	306.88
483.153	323.88
483.372	337.88
483.59	327.88
483.808	324.88
484.027	324.88
484.245	318.88
484.463	333.88
484.681	331.88
484.9	342.88
485.118	340.88
485.336	337.88
485.554	337.88
485.772	354.88
485.99	335.88
486.209	342.88
486.427	328.88
486.645	341.88
486.863	352.88
487.081	355.88
487.299	321.88
487.517	330.88
487.735	335.88
487.953	331.88
488.171	337.88
488.389	318.88
488.607	347.88
488.825	326.88
489.043	335.88
489.261	339.88
489.479	348.88
489.696	339.88
489.914	348.88
490.132	342.88
490.35	333.88
490.568	339.88
490.786	345.88
491.003	348.88
491.221	353.88
491.439	355.88
491.657	339.88
491.874	338.88
492.092	354.88
492.31	360.88
492.527	347.88
492.745	355.88
492.963	338.88
493.18	332.88
493.398	346.88
493.615	355.88
493.833	382.88
494.05	357.88
494.268	348.88
494.485	370.88
494.703	338.88
494.92	372.88
495.138	332.88
495.355	367.88
495.573	359.88
495.79	342.88
496.008	345.88
496.225	364.88
496.442	363.88
496.66	388.88
496.877	371.88
497.094	366.88
497.312	363.88
497.529	373.88
497.746	383.88
497.963	397.88
498.181	389.88
498.398	425.88
498.615	427.88
498.832	452.88
499.049	471.88
499.267	514.88
499.484	554.88
499.701	607.88
499.918	661.88
500.135	718.88
500.352	810.88
500.569	859.88
500.786	791.88
501.003	745.88
501.22	701.88
501.437	634.88
501.654	555.88
501.871	546.88
502.088	495.88
502.305	476.88
502.522	464.88
502.739	423.88
502.956	403.88
503.172	411.88
503.389	394.88
503.606	372.88
503.823	388.88
504.04	366.88
504.256	397.88
504.473	376.88
504.69	379.88
504.907	370.88
505.123	354.88
505.34	346.88
505.557	327.88
505.773	360.88
505.99	336.88
506.207	331.88
506.423	332.88
506.64	314.88
506.856	327.88
507.073	324.88
507.289	323.88
507.506	296.88
507.722	306.88
507.939	286.88
508.155	303.88
508.372	310.88
508.588	311.88
508.805	286.88
509.021	292.88
509.238	304.88
509.454	299.88
509.67	282.88
509.887	287.88
510.103	279.88
510.319	286.88
510.536	282.88
510.752	297.88
510.968	278.88
511.184	290.88
511.401	278.88
511.617	277.88
511.833	259.88
512.049	290.88
512.265	295.88
512.481	289.88
512.698	291.88
512.914	289.88
513.13	284.88
513.346	278.88
513.562	286.88
513.778	276.88
513.994	275.88
514.21	279.88
514.426	268.88
514.642	289.88
514.858	291.88
515.074	288.88
515.29	295.88
515.506	286.88
515.721	311.88
515.937	296.88
516.153	316.88
516.369	294.88
516.585	299.88
516.801	318.88
517.016	329.88
517.232	351.88
517.448	351.88
517.664	363.88
517.879	359.88
518.095	354.88
518.311	361.88
518.527	322.88
518.742	348.88
518.958	337.88
519.173	315.88
519.389	322.88
519.605	274.88
519.82	301.88
520.036	305.88
520.251	281.88
520.467	282.88
520.682	296.88
520.898	287.88
521.113	286.88
521.329	268.88
521.544	266.88
521.76	278.88
521.975	273.88
522.19	263.88
522.406	268.88
522.621	250.88
522.836	264.88
523.052	268.88
523.267	266.88
523.482	274.88
523.698	263.88
523.913	266.88
524.128	254.88
524.343	274.88
524.559	247.88
524.774	276.88
524.989	266.88
525.204	265.88
525.419	258.88
525.634	265.88
525.849	252.88
526.064	246.88
526.28	256.88
526.495	240.88
526.71	261.88
526.925	261.88
527.14	261.88
527.355	257.88
527.57	254.88
527.785	249.88
527.999	264.88
528.214	258.88
528.429	261.88
528.644	254.88
528.859	271.88
529.074	268.88
529.289	261.88
529.503	263.88
529.718	266.88
529.933	257.88
530.148	271.88
530.363	265.88
530.577	259.88
530.792	253.88
531.007	244.88
531.221	266.88
531.436	263.88
531.651	258.88
531.865	269.88
532.08	248.88
532.295	272.88
532.509	247.88
532.724	249.88
532.938	250.88
533.153	263.88
533.367	271.88
533.582	248.88
533.796	248.88
534.011	243.88
534.225	270.88
534.44	231.88
534.654	260.88
534.868	248.88
535.083	246.88
535.297	245.88
535.511	244.88
535.726	243.88
535.94	274.88
536.154	241.88
536.369	249.88
536.583	234.88
536.797	248.88
537.011	240.88
537.225	234.88
537.44	239.88
537.654	221.88
537.868	240.88
538.082	226.88
538.296	233.88
538.51	254.88
538.724	244.88
538.938	256.88
539.153	243.88
539.367	239.88
539.581	239.88
539.795	234.88
540.009	241.88
540.222	242.88
540.436	241.88
540.65	249.88
540.864	250.88
541.078	240.88
541.292	243.88
541.506	252.88
541.72	249.88
541.934	252.88
542.147	243.88
542.361	261.88
542.575	207.88
542.789	242.88
543.002	241.88
543.216	229.88
543.43	233.88
543.644	233.88
543.857	236.88
544.071	227.88
544.285	242.88
544.498	240.88
544.712	250.88
544.925	234.88
545.139	247.88
545.352	240.88
545.566	258.88
545.779	232.88
545.993	265.88
546.206	257.88
546.42	239.88
546.633	250.88
546.847	246.88
547.06	247.88
547.274	246.88
547.487	249.88
547.7	257.88
547.914	246.88
548.127	254.88
548.34	230.88
548.554	244.88
548.767	261.88
548.98	258.88
549.193	240.88
549.407	248.88
549.62	254.88
549.833	245.88
550.046	260.88
550.259	248.88
550.473	243.88
550.686	242.88
550.899	239.88
551.112	254.88
551.325	245.88
551.538	238.88
551.751	233.88
551.964	236.88
552.177	246.88
552.39	233.88
552.603	248.88
552.816	258.88
553.029	233.88
553.242	265.88
553.455	261.88
553.667	267.88
553.88	270.88
554.093	249.88
554.306	255.88
554.519	246.88
554.732	259.88
554.944	230.88
555.157	227.88
555.37	242.88
555.583	223.88
555.795	219.88
556.008	232.88
556.221	233.88
556.433	222.88
556.646	208.88
556.859	217.88
557.071	220.88
557.284	207.88
557.496	207.88
557.709	217.88
557.921	210.88
558.134	208.88
558.346	214.88
558.559	205.88
558.771	223.88
558.984	216.88
559.196	201.88
559.409	218.88
559.621	207.88
559.833	218.88
560.046	221.88
560.258	196.88
560.47	202.88
560.683	199.88
560.895	220.88
561.107	227.88
561.32	204.88
561.532	204.88
561.744	210.88
561.956	218.88
562.168	199.88
562.381	209.88
562.593	219.88
562.805	209.88
563.017	212.88
563.229	219.88
563.441	223.88
563.653	225.88
563.865	208.88
564.077	216.88
564.289	216.88
564.501	211.88
564.713	212.88
564.925	209.88
565.137	244.88
565.349	220.88
565.561	250.88
565.773	250.88
565.985	233.88
566.197	233.88
566.408	266.88
566.62	280.88
566.832	296.88
567.044	307.88
567.255	289.88
567.467	311.88
567.679	306.88
567.891	332.88
568.102	361.88
568.314	336.88
568.526	302.88
568.737	302.88
568.949	279.88
569.161	243.88
569.372	236.88
569.584	236.88
569.795	210.88
570.007	214.88
570.218	210.88
570.43	214.88
570.641	234.88
570.853	209.88
571.064	208.88
571.276	207.88
571.487	225.88
571.698	196.88
571.91	203.88
572.121	196.88
572.333	202.88
572.544	180.88
572.755	192.88
572.966	194.88
573.178	183.88
573.389	185.88
573.6	202.88
573.811	172.88
574.023	187.88
574.234	166.88
574.445	187.88
574.656	156.88
574.867	191.88
575.078	187.88
575.289	180.88
575.501	170.88
575.712	190.88
575.923	183.88
576.134	183.88
576.345	193.88
576.556	192.88
576.767	188.88
576.978	168.88
577.188	178.88
577.399	165.88
577.61	166.88
577.821	178.88
578.032	183.88
578.243	166.88
578.454	170.88
578.665	178.88
578.875	166.88
579.086	167.88
579.297	163.88
579.508	169.88
579.718	179.88
579.929	181.88
580.14	183.88
580.35	162.88
580.561	169.88
580.772	167.88
580.982	164.88
581.193	175.88
581.403	174.88
581.614	174.88
581.825	166.88
582.035	155.88
582.246	159.88
582.456	161.88
582.667	160.88
582.877	175.88
583.087	168.88
583.298	155.88
583.508	155.88
583.719	164.88
583.929	158.88
584.139	159.88
584.35	176.88
584.56	170.88
584.77	160.88
584.981	152.88
585.191	155.88
585.401	163.88
585.611	159.88
585.821	158.88
586.032	176.88
586.242	142.88
586.452	171.88
586.662	155.88
586.872	151.88
587.082	147.88
587.292	164.88
587.502	152.88
587.713	159.88
587.923	171.88
588.133	167.88
588.343	158.88
588.553	156.88
588.762	175.88
588.972	147.88
589.182	178.88
589.392	165.88
589.602	154.88
589.812	163.88
590.022	169.88
590.232	158.88
590.441	165.88
590.651	163.88
590.861	158.88
591.071	158.88
591.281	152.88
591.49	164.88
591.7	169.88
591.91	180.88
592.119	162.88
592.329	174.88
592.539	169.88
592.748	186.88
592.958	186.88
593.167	176.88
593.377	187.88
593.587	188.88
593.796	185.88
594.006	171.88
594.215	174.88
594.424	174.88
594.634	179.88
594.843	186.88
595.053	177.88
595.262	180.88
595.472	160.88
595.681	170.88
595.89	150.88
596.1	183.88
596.309	160.88
596.518	162.88
596.727	157.88
596.937	158.88
597.146	135.88
597.355	168.88
597.564	165.88
597.774	157.88
597.983	144.88
598.192	149.88
598.401	135.88
598.61	148.88
598.819	148.88
599.028	136.88
599.237	151.88
599.446	144.88
599.655	159.88
599.864	175.88
600.073	119.88
600.282	135.88
600.491	127.88
600.7	143.88
600.909	154.88
601.118	142.88
601.327	141.88
601.536	147.88
601.745	153.88
601.953	136.88
602.162	150.88
602.371	149.88
602.58	145.88
602.789	148.88
602.997	138.88
603.206	146.88
603.415	149.88
603.623	135.88
603.832	146.88
604.041	132.88
604.249	135.88
604.458	148.88
604.666	146.88
604.875	140.88
605.084	141.88
605.292	130.88
605.501	132.88
605.709	150.88
605.918	132.88
606.126	137.88
606.334	132.88
606.543	140.88
606.751	136.88
606.96	130.88
607.168	140.88
607.376	136.88
607.585	144.88
607.793	129.88
608.001	130.88
608.21	141.88
608.418	119.88
608.626	126.88
608.834	141.88
609.043	153.88
609.251	127.88
609.459	118.88
609.667	140.88
609.875	139.88
610.083	138.88
610.291	142.88
610.499	134.88
610.707	129.88
610.916	146.88
611.124	136.88
611.332	130.88
611.54	137.88
611.748	149.88
611.955	132.88
612.163	123.88
612.371	136.88
612.579	132.88
612.787	138.88
612.995	150.88
613.203	147.88
613.411	135.88
613.618	137.88
613.826	147.88
614.034	137.88
614.242	144.88
614.449	142.88
614.657	134.88
614.865	128.88
615.072	140.88
615.28	138.88
615.488	122.88
615.695	137.88
615.903	138.88
616.111	122.88
616.318	130.88
616.526	132.88
616.733	141.88
616.941	138.88
617.148	130.88
617.356	136.88
617.563	140.88
617.771	134.88
617.978	140.88
618.185	133.88
618.393	129.88
618.6	132.88
618.807	122.88
619.015	134.88
619.222	148.88
619.429	129.88
619.637	132.88
619.844	137.88
620.051	144.88
620.258	144.88
620.466	130.88
620.673	138.88
620.88	131.88
621.087	117.88
621.294	133.88
621.501	116.88
621.708	117.88
621.915	122.88
622.122	126.88
622.329	138.88
622.536	126.88
622.743	136.88
622.95	136.88
623.157	126.88
623.364	129.88
623.571	122.88
623.778	137.88
623.985	142.88
624.192	128.88
624.399	132.88
624.606	143.88
624.812	122.88
625.019	128.88
625.226	143.88
625.433	139.88
625.639	125.88
625.846	110.88
626.053	135.88
626.259	125.88
626.466	122.88
626.673	121.88
626.879	136.88
627.086	121.88
627.293	125.88
627.499	145.88
627.706	130.88
627.912	126.88
628.119	117.88
628.325	126.88
628.532	128.88
628.738	120.88
628.945	116.88
629.151	117.88
629.357	122.88
629.564	135.88
629.77	121.88
629.976	127.88
630.183	115.88
630.389	130.88
630.595	139.88
630.802	132.88
631.008	110.88
631.214	125.88
631.42	118.88
631.627	112.88
631.833	123.88
632.039	130.88
632.245	118.88
632.451	110.88
632.657	130.88
632.863	122.88
633.069	113.88
633.275	116.88
633.481	114.88
633.688	115.88
633.893	128.88
634.099	112.88
634.305	121.88
634.511	116.88
634.717	104.88
634.923	120.88
635.129	111.88
635.335	122.88
635.541	122.88
635.747	125.88
635.952	120.88
636.158	115.88
636.364	122.88
636.57	106.88
636.775	126.88
636.981	122.88
637.187	114.88
637.392	119.88
637.598	119.88
637.804	112.88
638.009	113.88
638.215	115.88
638.421	132.88
638.626	115.88
638.832	113.88
639.037	119.88
639.243	115.88
639.448	117.88
639.654	112.88
639.859	101.88
640.065	105.88
640.27	115.88
640.475	118.88
640.681	111.88
640.886	109.88
641.091	112.88
641.297	115.88
641.502	118.88
641.707	113.88
641.913	108.88
642.118	112.88
642.323	119.88
642.528	121.88
642.733	124.88
642.939	112.88
643.144	114.88
643.349	113.88
643.554	105.88
643.759	128.88
643.964	120.88
644.169	116.88
644.374	115.88
644.579	119.88
644.784	111.88
644.989	115.88
645.194	101.88
645.399	117.88
645.604	116.88
645.809	117.88
646.014	129.88
646.219	116.88
646.423	112.88
646.628	122.88
646.833	119.88
647.038	111.88
647.243	110.88
647.447	114.88
647.652	120.88
647.857	121.88
648.062	115.88
648.266	126.88
648.471	107.88
648.676	120.88
648.88	112.88
649.085	119.88
649.289	126.88
649.494	111.88
649.698	118.88
649.903	121.88
650.107	133.88
650.312	128.88
650.516	124.88
650.721	121.88
650.925	100.88
651.13	120.88
651.334	102.88
651.539	115.88
651.743	111.88
651.947	116.88
652.152	107.88
652.356	112.88
652.56	108.88
652.764	114.88
652.969	115.88
653.173	95.88
653.377	110.88
653.581	122.88
653.785	119.88
653.99	92.88
654.194	107.88
654.398	106.88
654.602	120.88
654.806	107.88
655.01	116.88
655.214	102.88
655.418	112.88
655.622	113.88
655.826	123.88
656.03	109.88
656.234	107.88
656.438	113.88
656.642	124.88
656.846	111.88
657.049	116.88
657.253	113.88
657.457	110.88
657.661	97.88
657.865	100.88
658.068	98.88
658.272	103.88
658.476	102.88
658.68	106.88
658.883	106.88
659.087	86.88
659.291	92.88
659.494	93.88
659.698	112.88
659.901	87.88
660.105	97.88
660.309	83.88
660.512	94.88
660.716	84.88
660.919	102.88
661.123	93.88
661.326	96.88
661.53	86.88
661.733	83.88
661.936	89.88
662.14	74.88
662.343	86.88
662.546	83.88
662.75	93.88
662.953	76.88
663.156	74.88
663.36	82.88
663.563	95.88
663.766	88.88
663.969	80.88
664.173	73.88
664.376	90.88
664.579	70.88
664.782	74.88
664.985	71.88
665.188	82.88
665.391	64.88
665.594	88.88
665.797	83.88
666	87.88
666.203	87.88
666.406	81.88
666.609	81.88
666.812	84.88
667.015	95.88
667.218	74.88
667.421	71.88
667.624	86.88
667.827	97.88
668.03	75.88
668.232	76.88
668.435	95.88
668.638	86.88
668.841	92.88
669.043	94.88
669.246	79.88
669.449	79.88
669.651	94.88
669.854	90.88
670.057	72.88
670.259	80.88
670.462	82.88
670.665	65.88
670.867	80.88
671.07	102.88
671.272	75.88
671.475	87.88
671.677	81.88
671.88	67.88
672.082	73.88
672.284	91.88
672.487	85.88
672.689	79.88
672.892	88.88
