Data from Fe(NO3)3@0.0125M.TitratingCurve.Agarose3%dH2O.NegLispCup.LampEnergy10.LIBS07252019_HRD10591_16-58-32-336.txt Node
Date: Thu Jul 25 16:58:32 EDT 2019
User: cochatt
Spectrometer: HR+D1059
Trigger mode: 1
Integration Time (sec): 1.000000E-1
Scans to average: 1
Electric dark correction enabled: true
Nonlinearity correction enabled: false
Boxcar width: 0
XAxis mode: Wavelengths
Number of Pixels in Spectrum: 2048
>>>>>Begin Spectral Data<<<<<
223.165	-21.94
223.4	-21.94
223.635	-21.94
223.869	-25.94
224.104	-13.94
224.338	-10.94
224.573	-2.94
224.808	-7.94
225.042	0.06
225.277	0.06
225.511	2.06
225.746	-11.94
225.98	-6.94
226.215	3.06
226.449	5.06
226.683	31.06
226.918	35.06
227.152	26.06
227.387	36.06
227.621	45.06
227.856	52.06
228.09	59.06
228.324	54.06
228.559	36.06
228.793	53.06
229.027	76.06
229.262	80.06
229.496	81.06
229.73	86.06
229.964	98.06
230.199	95.06
230.433	79.06
230.667	101.06
230.901	103.06
231.136	102.06
231.37	93.06
231.604	101.06
231.838	112.06
232.072	105.06
232.306	96.06
232.541	112.06
232.775	105.06
233.009	119.06
233.243	104.06
233.477	98.06
233.711	102.06
233.945	115.06
234.179	111.06
234.413	97.06
234.647	117.06
234.881	111.06
235.115	111.06
235.349	94.06
235.583	102.06
235.817	115.06
236.051	110.06
236.285	122.06
236.519	109.06
236.753	116.06
236.987	117.06
237.221	104.06
237.455	100.06
237.689	101.06
237.922	123.06
238.156	103.06
238.39	105.06
238.624	101.06
238.858	106.06
239.091	114.06
239.325	113.06
239.559	116.06
239.793	119.06
240.027	117.06
240.26	105.06
240.494	133.06
240.728	121.06
240.961	106.06
241.195	124.06
241.429	119.06
241.662	114.06
241.896	122.06
242.13	112.06
242.363	119.06
242.597	121.06
242.83	121.06
243.064	129.06
243.298	127.06
243.531	116.06
243.765	120.06
243.998	131.06
244.232	115.06
244.465	113.06
244.699	126.06
244.932	137.06
245.166	124.06
245.399	145.06
245.633	127.06
245.866	115.06
246.099	131.06
246.333	127.06
246.566	125.06
246.8	126.06
247.033	155.06
247.266	140.06
247.5	145.06
247.733	140.06
247.966	140.06
248.2	142.06
248.433	130.06
248.666	127.06
248.899	133.06
249.133	127.06
249.366	131.06
249.599	134.06
249.832	137.06
250.066	155.06
250.299	145.06
250.532	140.06
250.765	141.06
250.998	146.06
251.231	147.06
251.465	149.06
251.698	151.06
251.931	153.06
252.164	153.06
252.397	143.06
252.63	156.06
252.863	147.06
253.096	140.06
253.329	155.06
253.562	152.06
253.795	168.06
254.028	154.06
254.261	159.06
254.494	155.06
254.727	162.06
254.96	148.06
255.193	147.06
255.426	165.06
255.659	166.06
255.892	162.06
256.124	175.06
256.357	151.06
256.59	163.06
256.823	164.06
257.056	161.06
257.289	167.06
257.521	177.06
257.754	178.06
257.987	158.06
258.22	163.06
258.452	174.06
258.685	167.06
258.918	152.06
259.151	163.06
259.383	183.06
259.616	171.06
259.849	177.06
260.081	175.06
260.314	172.06
260.547	175.06
260.779	177.06
261.012	199.06
261.244	174.06
261.477	179.06
261.71	179.06
261.942	165.06
262.175	172.06
262.407	185.06
262.64	171.06
262.872	181.06
263.105	184.06
263.337	190.06
263.57	187.06
263.802	197.06
264.035	192.06
264.267	182.06
264.499	189.06
264.732	195.06
264.964	182.06
265.197	182.06
265.429	176.06
265.661	199.06
265.894	201.06
266.126	207.06
266.358	191.06
266.591	188.06
266.823	184.06
267.055	197.06
267.287	180.06
267.52	195.06
267.752	196.06
267.984	203.06
268.216	204.06
268.448	204.06
268.681	197.06
268.913	205.06
269.145	194.06
269.377	199.06
269.609	198.06
269.841	203.06
270.073	213.06
270.306	223.06
270.538	206.06
270.77	192.06
271.002	201.06
271.234	203.06
271.466	210.06
271.698	204.06
271.93	194.06
272.162	197.06
272.394	203.06
272.626	212.06
272.858	221.06
273.09	217.06
273.322	218.06
273.553	201.06
273.785	216.06
274.017	217.06
274.249	231.06
274.481	228.06
274.713	220.06
274.945	240.06
275.176	216.06
275.408	217.06
275.64	227.06
275.872	230.06
276.104	257.06
276.335	243.06
276.567	224.06
276.799	241.06
277.031	223.06
277.262	239.06
277.494	233.06
277.726	232.06
277.957	222.06
278.189	243.06
278.421	235.06
278.652	232.06
278.884	255.06
279.115	228.06
279.347	237.06
279.579	224.06
279.81	234.06
280.042	249.06
280.273	234.06
280.505	248.06
280.736	242.06
280.968	250.06
281.199	244.06
281.431	249.06
281.662	247.06
281.894	274.06
282.125	252.06
282.356	253.06
282.588	236.06
282.819	244.06
283.051	239.06
283.282	252.06
283.513	274.06
283.745	251.06
283.976	261.06
284.207	247.06
284.439	266.06
284.67	252.06
284.901	283.06
285.132	287.06
285.364	269.06
285.595	253.06
285.826	273.06
286.057	275.06
286.288	275.06
286.52	262.06
286.751	274.06
286.982	273.06
287.213	272.06
287.444	267.06
287.675	280.06
287.906	253.06
288.138	263.06
288.369	289.06
288.6	283.06
288.831	294.06
289.062	289.06
289.293	292.06
289.524	292.06
289.755	279.06
289.986	279.06
290.217	299.06
290.448	308.06
290.679	292.06
290.91	292.06
291.141	283.06
291.371	280.06
291.602	286.06
291.833	284.06
292.064	272.06
292.295	281.06
292.526	287.06
292.757	304.06
292.987	295.06
293.218	292.06
293.449	303.06
293.68	285.06
293.91	285.06
294.141	288.06
294.372	288.06
294.603	284.06
294.833	284.06
295.064	293.06
295.295	305.06
295.525	307.06
295.756	270.06
295.987	292.06
296.217	290.06
296.448	303.06
296.679	316.06
296.909	315.06
297.14	295.06
297.37	298.06
297.601	305.06
297.831	296.06
298.062	310.06
298.292	304.06
298.523	315.06
298.753	326.06
298.984	314.06
299.214	320.06
299.445	325.06
299.675	296.06
299.905	311.06
300.136	293.06
300.366	304.06
300.597	305.06
300.827	323.06
301.057	335.06
301.288	303.06
301.518	303.06
301.748	322.06
301.979	328.06
302.209	315.06
302.439	324.06
302.669	340.06
302.9	352.06
303.13	319.06
303.36	336.06
303.59	330.06
303.82	325.06
304.051	310.06
304.281	338.06
304.511	316.06
304.741	337.06
304.971	339.06
305.201	347.06
305.431	326.06
305.661	333.06
305.891	340.06
306.121	325.06
306.352	336.06
306.582	337.06
306.812	331.06
307.042	347.06
307.272	343.06
307.502	335.06
307.731	332.06
307.961	352.06
308.191	327.06
308.421	327.06
308.651	335.06
308.881	350.06
309.111	344.06
309.341	326.06
309.571	331.06
309.8	344.06
310.03	345.06
310.26	336.06
310.49	350.06
310.72	352.06
310.949	348.06
311.179	344.06
311.409	354.06
311.639	339.06
311.868	334.06
312.098	335.06
312.328	348.06
312.557	363.06
312.787	347.06
313.017	357.06
313.246	350.06
313.476	329.06
313.706	352.06
313.935	362.06
314.165	364.06
314.394	352.06
314.624	372.06
314.853	349.06
315.083	363.06
315.312	363.06
315.542	368.06
315.771	360.06
316.001	372.06
316.23	379.06
316.46	385.06
316.689	358.06
316.919	377.06
317.148	358.06
317.377	378.06
317.607	385.06
317.836	381.06
318.065	367.06
318.295	376.06
318.524	368.06
318.753	352.06
318.983	384.06
319.212	368.06
319.441	378.06
319.67	364.06
319.9	371.06
320.129	378.06
320.358	383.06
320.587	389.06
320.816	375.06
321.046	386.06
321.275	344.06
321.504	381.06
321.733	383.06
321.962	391.06
322.191	380.06
322.42	367.06
322.649	386.06
322.878	383.06
323.108	390.06
323.337	396.06
323.566	409.06
323.795	403.06
324.024	402.06
324.253	396.06
324.482	399.06
324.71	406.06
324.939	404.06
325.168	395.06
325.397	400.06
325.626	393.06
325.855	403.06
326.084	406.06
326.313	417.06
326.542	388.06
326.77	403.06
326.999	417.06
327.228	409.06
327.457	418.06
327.686	419.06
327.914	401.06
328.143	403.06
328.372	401.06
328.6	407.06
328.829	381.06
329.058	406.06
329.287	429.06
329.515	416.06
329.744	385.06
329.972	411.06
330.201	419.06
330.43	415.06
330.658	413.06
330.887	418.06
331.115	424.06
331.344	435.06
331.572	427.06
331.801	427.06
332.03	424.06
332.258	419.06
332.486	404.06
332.715	424.06
332.943	437.06
333.172	433.06
333.4	448.06
333.629	462.06
333.857	441.06
334.085	449.06
334.314	457.06
334.542	455.06
334.771	484.06
334.999	435.06
335.227	449.06
335.455	451.06
335.684	476.06
335.912	457.06
336.14	455.06
336.369	448.06
336.597	456.06
336.825	457.06
337.053	460.06
337.281	473.06
337.51	480.06
337.738	460.06
337.966	434.06
338.194	449.06
338.422	439.06
338.65	451.06
338.878	434.06
339.106	453.06
339.334	447.06
339.562	468.06
339.79	449.06
340.018	449.06
340.246	429.06
340.474	453.06
340.702	448.06
340.93	423.06
341.158	452.06
341.386	433.06
341.614	441.06
341.842	459.06
342.07	417.06
342.298	441.06
342.526	447.06
342.754	424.06
342.981	428.06
343.209	441.06
343.437	441.06
343.665	442.06
343.893	463.06
344.12	451.06
344.348	443.06
344.576	469.06
344.804	458.06
345.031	441.06
345.259	454.06
345.487	452.06
345.714	434.06
345.942	437.06
346.17	421.06
346.397	431.06
346.625	433.06
346.853	426.06
347.08	423.06
347.308	432.06
347.535	423.06
347.763	411.06
347.99	417.06
348.218	411.06
348.445	442.06
348.673	414.06
348.9	434.06
349.128	435.06
349.355	418.06
349.583	434.06
349.81	431.06
350.037	416.06
350.265	425.06
350.492	411.06
350.72	429.06
350.947	419.06
351.174	437.06
351.402	392.06
351.629	434.06
351.856	437.06
352.083	419.06
352.311	410.06
352.538	421.06
352.765	431.06
352.992	424.06
353.22	410.06
353.447	427.06
353.674	417.06
353.901	407.06
354.128	406.06
354.355	408.06
354.583	415.06
354.81	409.06
355.037	431.06
355.264	436.06
355.491	406.06
355.718	427.06
355.945	428.06
356.172	426.06
356.399	420.06
356.626	417.06
356.853	406.06
357.08	425.06
357.307	430.06
357.534	415.06
357.761	428.06
357.988	410.06
358.215	422.06
358.441	420.06
358.668	396.06
358.895	421.06
359.122	421.06
359.349	408.06
359.576	404.06
359.802	407.06
360.029	403.06
360.256	414.06
360.483	426.06
360.709	427.06
360.936	424.06
361.163	426.06
361.39	431.06
361.616	403.06
361.843	431.06
362.07	417.06
362.296	415.06
362.523	419.06
362.749	432.06
362.976	445.06
363.203	434.06
363.429	424.06
363.656	443.06
363.882	435.06
364.109	414.06
364.335	425.06
364.562	436.06
364.788	437.06
365.015	410.06
365.241	449.06
365.468	436.06
365.694	427.06
365.92	439.06
366.147	432.06
366.373	436.06
366.599	449.06
366.826	414.06
367.052	446.06
367.278	439.06
367.505	432.06
367.731	447.06
367.957	441.06
368.184	446.06
368.41	433.06
368.636	427.06
368.862	435.06
369.089	458.06
369.315	447.06
369.541	444.06
369.767	444.06
369.993	459.06
370.219	453.06
370.445	442.06
370.672	458.06
370.898	465.06
371.124	455.06
371.35	429.06
371.576	446.06
371.802	453.06
372.028	442.06
372.254	468.06
372.48	469.06
372.706	456.06
372.932	475.06
373.158	464.06
373.384	471.06
373.61	445.06
373.835	465.06
374.061	478.06
374.287	458.06
374.513	455.06
374.739	459.06
374.965	468.06
375.191	483.06
375.416	466.06
375.642	477.06
375.868	457.06
376.094	466.06
376.319	445.06
376.545	466.06
376.771	465.06
376.997	475.06
377.222	442.06
377.448	449.06
377.674	460.06
377.899	458.06
378.125	477.06
378.35	443.06
378.576	474.06
378.802	450.06
379.027	450.06
379.253	460.06
379.478	449.06
379.704	446.06
379.929	469.06
380.155	459.06
380.38	465.06
380.606	467.06
380.831	452.06
381.057	467.06
381.282	440.06
381.507	464.06
381.733	481.06
381.958	456.06
382.184	460.06
382.409	469.06
382.634	453.06
382.86	476.06
383.085	487.06
383.31	483.06
383.535	466.06
383.761	498.06
383.986	497.06
384.211	462.06
384.436	470.06
384.662	480.06
384.887	491.06
385.112	521.06
385.337	516.06
385.562	499.06
385.787	512.06
386.013	506.06
386.238	509.06
386.463	471.06
386.688	497.06
386.913	493.06
387.138	492.06
387.363	503.06
387.588	515.06
387.813	499.06
388.038	515.06
388.263	486.06
388.488	523.06
388.713	501.06
388.938	501.06
389.163	507.06
389.387	516.06
389.612	521.06
389.837	531.06
390.062	523.06
390.287	510.06
390.512	527.06
390.736	493.06
390.961	511.06
391.186	517.06
391.411	527.06
391.636	537.06
391.86	537.06
392.085	516.06
392.31	534.06
392.534	541.06
392.759	526.06
392.984	519.06
393.208	547.06
393.433	519.06
393.658	529.06
393.882	519.06
394.107	522.06
394.331	533.06
394.556	528.06
394.78	530.06
395.005	537.06
395.229	517.06
395.454	539.06
395.678	536.06
395.903	524.06
396.127	538.06
396.352	543.06
396.576	532.06
396.801	521.06
397.025	546.06
397.249	553.06
397.474	564.06
397.698	559.06
397.922	585.06
398.147	551.06
398.371	566.06
398.595	570.06
398.82	577.06
399.044	592.06
399.268	587.06
399.492	611.06
399.717	634.06
399.941	631.06
400.165	629.06
400.389	619.06
400.613	620.06
400.837	585.06
401.062	610.06
401.286	598.06
401.51	598.06
401.734	578.06
401.958	586.06
402.182	596.06
402.406	596.06
402.63	592.06
402.854	583.06
403.078	593.06
403.302	588.06
403.526	583.06
403.75	550.06
403.974	570.06
404.198	597.06
404.422	587.06
404.645	593.06
404.869	583.06
405.093	586.06
405.317	598.06
405.541	615.06
405.765	582.06
405.988	606.06
406.212	597.06
406.436	604.06
406.66	615.06
406.883	588.06
407.107	608.06
407.331	645.06
407.555	637.06
407.778	635.06
408.002	638.06
408.226	646.06
408.449	642.06
408.673	639.06
408.896	625.06
409.12	610.06
409.344	629.06
409.567	597.06
409.791	635.06
410.014	614.06
410.238	634.06
410.461	605.06
410.685	605.06
410.908	615.06
411.132	637.06
411.355	614.06
411.578	626.06
411.802	618.06
412.025	589.06
412.249	602.06
412.472	603.06
412.695	585.06
412.919	580.06
413.142	608.06
413.365	580.06
413.589	623.06
413.812	567.06
414.035	594.06
414.258	590.06
414.482	605.06
414.705	579.06
414.928	583.06
415.151	602.06
415.374	585.06
415.597	576.06
415.821	583.06
416.044	558.06
416.267	569.06
416.49	559.06
416.713	579.06
416.936	579.06
417.159	571.06
417.382	547.06
417.605	563.06
417.828	571.06
418.051	553.06
418.274	569.06
418.497	561.06
418.72	559.06
418.943	539.06
419.166	591.06
419.389	626.06
419.611	595.06
419.834	591.06
420.057	584.06
420.28	567.06
420.503	550.06
420.726	554.06
420.948	565.06
421.171	567.06
421.394	547.06
421.617	543.06
421.839	559.06
422.062	547.06
422.285	561.06
422.507	541.06
422.73	563.06
422.953	551.06
423.175	564.06
423.398	543.06
423.621	543.06
423.843	560.06
424.066	559.06
424.288	571.06
424.511	536.06
424.733	558.06
424.956	565.06
425.178	545.06
425.401	560.06
425.623	523.06
425.846	495.06
426.068	529.06
426.291	557.06
426.513	546.06
426.735	536.06
426.958	549.06
427.18	515.06
427.402	536.06
427.625	533.06
427.847	541.06
428.069	540.06
428.292	553.06
428.514	545.06
428.736	536.06
428.958	543.06
429.181	529.06
429.403	542.06
429.625	541.06
429.847	529.06
430.069	538.06
430.292	561.06
430.514	556.06
430.736	553.06
430.958	551.06
431.18	524.06
431.402	525.06
431.624	522.06
431.846	513.06
432.068	521.06
432.29	535.06
432.512	555.06
432.734	547.06
432.956	529.06
433.178	540.06
433.4	543.06
433.622	552.06
433.844	546.06
434.066	525.06
434.287	545.06
434.509	533.06
434.731	520.06
434.953	531.06
435.175	545.06
435.397	577.06
435.618	542.06
435.84	561.06
436.062	560.06
436.284	549.06
436.505	543.06
436.727	548.06
436.949	540.06
437.17	526.06
437.392	529.06
437.614	542.06
437.835	530.06
438.057	501.06
438.278	512.06
438.5	545.06
438.721	520.06
438.943	528.06
439.165	524.06
439.386	515.06
439.608	520.06
439.829	538.06
440.05	503.06
440.272	517.06
440.493	522.06
440.715	540.06
440.936	536.06
441.158	516.06
441.379	536.06
441.6	536.06
441.822	555.06
442.043	545.06
442.264	532.06
442.486	541.06
442.707	530.06
442.928	542.06
443.149	527.06
443.371	547.06
443.592	535.06
443.813	545.06
444.034	553.06
444.255	528.06
444.476	562.06
444.698	531.06
444.919	562.06
445.14	642.06
445.361	605.06
445.582	550.06
445.803	537.06
446.024	528.06
446.245	545.06
446.466	543.06
446.687	523.06
446.908	543.06
447.129	536.06
447.35	518.06
447.571	513.06
447.792	535.06
448.013	490.06
448.234	493.06
448.455	486.06
448.675	487.06
448.896	497.06
449.117	513.06
449.338	502.06
449.559	503.06
449.779	507.06
450	508.06
450.221	511.06
450.442	499.06
450.662	505.06
450.883	493.06
451.104	495.06
451.324	501.06
451.545	512.06
451.766	507.06
451.986	487.06
452.207	480.06
452.428	475.06
452.648	468.06
452.869	462.06
453.089	471.06
453.31	474.06
453.53	476.06
453.751	465.06
453.971	474.06
454.192	481.06
454.412	460.06
454.633	486.06
454.853	480.06
455.073	471.06
455.294	488.06
455.514	483.06
455.734	467.06
455.955	465.06
456.175	468.06
456.395	484.06
456.616	469.06
456.836	452.06
457.056	468.06
457.276	455.06
457.497	494.06
457.717	470.06
457.937	501.06
458.157	483.06
458.377	490.06
458.598	524.06
458.818	499.06
459.038	489.06
459.258	506.06
459.478	513.06
459.698	534.06
459.918	536.06
460.138	527.06
460.358	548.06
460.578	548.06
460.798	539.06
461.018	543.06
461.238	552.06
461.458	564.06
461.678	548.06
461.898	559.06
462.118	579.06
462.338	551.06
462.558	563.06
462.777	580.06
462.997	576.06
463.217	593.06
463.437	595.06
463.657	585.06
463.876	597.06
464.096	623.06
464.316	577.06
464.536	567.06
464.755	570.06
464.975	586.06
465.195	576.06
465.414	543.06
465.634	535.06
465.854	524.06
466.073	509.06
466.293	533.06
466.512	520.06
466.732	510.06
466.951	528.06
467.171	536.06
467.391	520.06
467.61	518.06
467.829	523.06
468.049	513.06
468.268	492.06
468.488	517.06
468.707	518.06
468.927	515.06
469.146	509.06
469.365	513.06
469.585	514.06
469.804	504.06
470.023	525.06
470.243	521.06
470.462	491.06
470.681	523.06
470.901	509.06
471.12	525.06
471.339	514.06
471.558	535.06
471.777	503.06
471.997	515.06
472.216	509.06
472.435	552.06
472.654	522.06
472.873	516.06
473.092	513.06
473.311	504.06
473.53	531.06
473.749	523.06
473.968	535.06
474.187	536.06
474.406	499.06
474.625	529.06
474.844	537.06
475.063	525.06
475.282	532.06
475.501	516.06
475.72	533.06
475.939	536.06
476.158	552.06
476.377	544.06
476.596	513.06
476.814	560.06
477.033	555.06
477.252	569.06
477.471	573.06
477.69	556.06
477.908	546.06
478.127	571.06
478.346	580.06
478.564	591.06
478.783	610.06
479.002	597.06
479.22	565.06
479.439	598.06
479.658	608.06
479.876	598.06
480.095	600.06
480.313	595.06
480.532	615.06
480.751	588.06
480.969	595.06
481.188	614.06
481.406	633.06
481.624	591.06
481.843	589.06
482.061	592.06
482.28	581.06
482.498	595.06
482.717	601.06
482.935	587.06
483.153	594.06
483.372	599.06
483.59	583.06
483.808	611.06
484.027	630.06
484.245	601.06
484.463	629.06
484.681	587.06
484.9	618.06
485.118	627.06
485.336	606.06
485.554	633.06
485.772	633.06
485.99	605.06
486.209	632.06
486.427	643.06
486.645	616.06
486.863	633.06
487.081	612.06
487.299	623.06
487.517	615.06
487.735	636.06
487.953	625.06
488.171	615.06
488.389	622.06
488.607	617.06
488.825	615.06
489.043	606.06
489.261	625.06
489.479	635.06
489.696	623.06
489.914	617.06
490.132	631.06
490.35	633.06
490.568	630.06
490.786	609.06
491.003	632.06
491.221	649.06
491.439	637.06
491.657	635.06
491.874	664.06
492.092	629.06
492.31	634.06
492.527	668.06
492.745	657.06
492.963	645.06
493.18	630.06
493.398	647.06
493.615	636.06
493.833	653.06
494.05	648.06
494.268	653.06
494.485	648.06
494.703	660.06
494.92	656.06
495.138	646.06
495.355	675.06
495.573	666.06
495.79	667.06
496.008	660.06
496.225	647.06
496.442	700.06
496.66	671.06
496.877	695.06
497.094	714.06
497.312	695.06
497.529	688.06
497.746	723.06
497.963	713.06
498.181	728.06
498.398	751.06
498.615	764.06
498.832	787.06
499.049	789.06
499.267	808.06
499.484	858.06
499.701	850.06
499.918	864.06
500.135	898.06
500.352	931.06
500.569	945.06
500.786	951.06
501.003	929.06
501.22	923.06
501.437	881.06
501.654	870.06
501.871	808.06
502.088	812.06
502.305	782.06
502.522	764.06
502.739	779.06
502.956	758.06
503.172	734.06
503.389	724.06
503.606	721.06
503.823	700.06
504.04	696.06
504.256	697.06
504.473	694.06
504.69	692.06
504.907	693.06
505.123	668.06
505.34	661.06
505.557	633.06
505.773	638.06
505.99	617.06
506.207	612.06
506.423	596.06
506.64	606.06
506.856	615.06
507.073	599.06
507.289	616.06
507.506	591.06
507.722	591.06
507.939	585.06
508.155	581.06
508.372	586.06
508.588	579.06
508.805	561.06
509.021	564.06
509.238	565.06
509.454	556.06
509.67	557.06
509.887	562.06
510.103	575.06
510.319	588.06
510.536	555.06
510.752	554.06
510.968	551.06
511.184	541.06
511.401	543.06
511.617	541.06
511.833	539.06
512.049	544.06
512.265	537.06
512.481	559.06
512.698	541.06
512.914	539.06
513.13	547.06
513.346	527.06
513.562	543.06
513.778	536.06
513.994	549.06
514.21	543.06
514.426	538.06
514.642	539.06
514.858	547.06
515.074	547.06
515.29	552.06
515.506	563.06
515.721	550.06
515.937	548.06
516.153	553.06
516.369	577.06
516.585	578.06
516.801	555.06
517.016	571.06
517.232	578.06
517.448	577.06
517.664	609.06
517.879	594.06
518.095	588.06
518.311	573.06
518.527	564.06
518.742	567.06
518.958	553.06
519.173	553.06
519.389	559.06
519.605	555.06
519.82	561.06
520.036	552.06
520.251	559.06
520.467	539.06
520.682	537.06
520.898	538.06
521.113	539.06
521.329	521.06
521.544	522.06
521.76	525.06
521.975	525.06
522.19	533.06
522.406	521.06
522.621	524.06
522.836	509.06
523.052	513.06
523.267	501.06
523.482	504.06
523.698	496.06
523.913	496.06
524.128	515.06
524.343	507.06
524.559	508.06
524.774	528.06
524.989	476.06
525.204	522.06
525.419	516.06
525.634	479.06
525.849	485.06
526.064	486.06
526.28	487.06
526.495	497.06
526.71	481.06
526.925	479.06
527.14	487.06
527.355	490.06
527.57	488.06
527.785	480.06
527.999	487.06
528.214	462.06
528.429	475.06
528.644	460.06
528.859	505.06
529.074	507.06
529.289	506.06
529.503	492.06
529.718	511.06
529.933	476.06
530.148	476.06
530.363	490.06
530.577	496.06
530.792	491.06
531.007	465.06
531.221	467.06
531.436	463.06
531.651	495.06
531.865	484.06
532.08	482.06
532.295	463.06
532.509	459.06
532.724	470.06
532.938	457.06
533.153	474.06
533.367	462.06
533.582	472.06
533.796	474.06
534.011	464.06
534.225	462.06
534.44	463.06
534.654	469.06
534.868	460.06
535.083	472.06
535.297	461.06
535.511	465.06
535.726	467.06
535.94	459.06
536.154	450.06
536.369	456.06
536.583	461.06
536.797	446.06
537.011	456.06
537.225	442.06
537.44	453.06
537.654	459.06
537.868	464.06
538.082	460.06
538.296	453.06
538.51	440.06
538.724	436.06
538.938	441.06
539.153	448.06
539.367	460.06
539.581	471.06
539.795	439.06
540.009	433.06
540.222	438.06
540.436	435.06
540.65	428.06
540.864	458.06
541.078	428.06
541.292	441.06
541.506	456.06
541.72	455.06
541.934	470.06
542.147	480.06
542.361	474.06
542.575	442.06
542.789	444.06
543.002	453.06
543.216	408.06
543.43	445.06
543.644	429.06
543.857	433.06
544.071	444.06
544.285	443.06
544.498	446.06
544.712	425.06
544.925	433.06
545.139	433.06
545.352	437.06
545.566	435.06
545.779	452.06
545.993	425.06
546.206	442.06
546.42	445.06
546.633	452.06
546.847	458.06
547.06	420.06
547.274	437.06
547.487	434.06
547.7	438.06
547.914	442.06
548.127	455.06
548.34	435.06
548.554	446.06
548.767	446.06
548.98	444.06
549.193	457.06
549.407	441.06
549.62	439.06
549.833	448.06
550.046	438.06
550.259	425.06
550.473	443.06
550.686	423.06
550.899	431.06
551.112	439.06
551.325	428.06
551.538	433.06
551.751	447.06
551.964	409.06
552.177	425.06
552.39	441.06
552.603	446.06
552.816	444.06
553.029	462.06
553.242	453.06
553.455	427.06
553.667	424.06
553.88	439.06
554.093	417.06
554.306	437.06
554.519	431.06
554.732	406.06
554.944	421.06
555.157	405.06
555.37	416.06
555.583	426.06
555.795	420.06
556.008	417.06
556.221	383.06
556.433	428.06
556.646	397.06
556.859	399.06
557.071	399.06
557.284	412.06
557.496	407.06
557.709	415.06
557.921	410.06
558.134	386.06
558.346	395.06
558.559	396.06
558.771	378.06
558.984	379.06
559.196	389.06
559.409	403.06
559.621	391.06
559.833	382.06
560.046	390.06
560.258	385.06
560.47	378.06
560.683	371.06
560.895	373.06
561.107	386.06
561.32	373.06
561.532	388.06
561.744	386.06
561.956	389.06
562.168	374.06
562.381	365.06
562.593	379.06
562.805	377.06
563.017	380.06
563.229	376.06
563.441	395.06
563.653	367.06
563.865	379.06
564.077	393.06
564.289	394.06
564.501	395.06
564.713	382.06
564.925	403.06
565.137	379.06
565.349	404.06
565.561	401.06
565.773	408.06
565.985	417.06
566.197	402.06
566.408	424.06
566.62	429.06
566.832	427.06
567.044	411.06
567.255	433.06
567.467	441.06
567.679	452.06
567.891	433.06
568.102	417.06
568.314	433.06
568.526	384.06
568.737	393.06
568.949	392.06
569.161	399.06
569.372	362.06
569.584	378.06
569.795	380.06
570.007	363.06
570.218	350.06
570.43	341.06
570.641	355.06
570.853	362.06
571.064	355.06
571.276	346.06
571.487	352.06
571.698	342.06
571.91	343.06
572.121	344.06
572.333	346.06
572.544	340.06
572.755	337.06
572.966	328.06
573.178	325.06
573.389	319.06
573.6	321.06
573.811	319.06
574.023	316.06
574.234	342.06
574.445	330.06
574.656	315.06
574.867	308.06
575.078	325.06
575.289	329.06
575.501	307.06
575.712	297.06
575.923	307.06
576.134	319.06
576.345	299.06
576.556	292.06
576.767	292.06
576.978	309.06
577.188	284.06
577.399	321.06
577.61	305.06
577.821	299.06
578.032	296.06
578.243	277.06
578.454	289.06
578.665	293.06
578.875	287.06
579.086	280.06
579.297	281.06
579.508	295.06
579.718	304.06
579.929	305.06
580.14	291.06
580.35	292.06
580.561	268.06
580.772	275.06
580.982	287.06
581.193	293.06
581.403	271.06
581.614	269.06
581.825	292.06
582.035	288.06
582.246	281.06
582.456	277.06
582.667	272.06
582.877	256.06
583.087	289.06
583.298	266.06
583.508	274.06
583.719	278.06
583.929	273.06
584.139	272.06
584.35	265.06
584.56	274.06
584.77	280.06
584.981	276.06
585.191	256.06
585.401	269.06
585.611	270.06
585.821	275.06
586.032	289.06
586.242	264.06
586.452	284.06
586.662	263.06
586.872	269.06
587.082	272.06
587.292	259.06
587.502	263.06
587.713	254.06
587.923	263.06
588.133	268.06
588.343	272.06
588.553	255.06
588.762	280.06
588.972	275.06
589.182	266.06
589.392	271.06
589.602	263.06
589.812	274.06
590.022	272.06
590.232	280.06
590.441	241.06
590.651	253.06
590.861	280.06
591.071	250.06
591.281	259.06
591.49	259.06
591.7	267.06
591.91	264.06
592.119	258.06
592.329	245.06
592.539	268.06
592.748	273.06
592.958	266.06
593.167	267.06
593.377	264.06
593.587	261.06
593.796	247.06
594.006	247.06
594.215	260.06
594.424	263.06
594.634	272.06
594.843	258.06
595.053	267.06
595.262	269.06
595.472	260.06
595.681	252.06
595.89	269.06
596.1	233.06
596.309	250.06
596.518	257.06
596.727	257.06
596.937	245.06
597.146	247.06
597.355	239.06
597.564	244.06
597.774	233.06
597.983	240.06
598.192	238.06
598.401	242.06
598.61	245.06
598.819	252.06
599.028	239.06
599.237	224.06
599.446	230.06
599.655	248.06
599.864	215.06
600.073	233.06
600.282	227.06
600.491	240.06
600.7	220.06
600.909	220.06
601.118	223.06
601.327	233.06
601.536	247.06
601.745	231.06
601.953	233.06
602.162	232.06
602.371	219.06
602.58	228.06
602.789	233.06
602.997	222.06
603.206	221.06
603.415	212.06
603.623	224.06
603.832	226.06
604.041	215.06
604.249	212.06
604.458	215.06
604.666	231.06
604.875	212.06
605.084	214.06
605.292	192.06
605.501	216.06
605.709	236.06
605.918	226.06
606.126	222.06
606.334	220.06
606.543	218.06
606.751	251.06
606.96	211.06
607.168	223.06
607.376	200.06
607.585	195.06
607.793	207.06
608.001	212.06
608.21	225.06
608.418	214.06
608.626	213.06
608.834	204.06
609.043	216.06
609.251	219.06
609.459	209.06
609.667	184.06
609.875	207.06
610.083	206.06
610.291	197.06
610.499	217.06
610.707	197.06
610.916	218.06
611.124	223.06
611.332	201.06
611.54	205.06
611.748	203.06
611.955	216.06
612.163	192.06
612.371	195.06
612.579	194.06
612.787	210.06
612.995	198.06
613.203	198.06
613.411	205.06
613.618	211.06
613.826	211.06
614.034	200.06
614.242	219.06
614.449	193.06
614.657	207.06
614.865	203.06
615.072	198.06
615.28	211.06
615.488	192.06
615.695	184.06
615.903	203.06
616.111	203.06
616.318	202.06
616.526	204.06
616.733	213.06
616.941	185.06
617.148	208.06
617.356	196.06
617.563	199.06
617.771	198.06
617.978	194.06
618.185	212.06
618.393	185.06
618.6	191.06
618.807	199.06
619.015	209.06
619.222	200.06
619.429	189.06
619.637	179.06
619.844	204.06
620.051	183.06
620.258	191.06
620.466	191.06
620.673	175.06
620.88	190.06
621.087	196.06
621.294	177.06
621.501	182.06
621.708	194.06
621.915	208.06
622.122	175.06
622.329	176.06
622.536	183.06
622.743	192.06
622.95	183.06
623.157	191.06
623.364	191.06
623.571	179.06
623.778	195.06
623.985	197.06
624.192	176.06
624.399	174.06
624.606	179.06
624.812	185.06
625.019	186.06
625.226	177.06
625.433	190.06
625.639	184.06
625.846	178.06
626.053	181.06
626.259	184.06
626.466	188.06
626.673	188.06
626.879	165.06
627.086	168.06
627.293	175.06
627.499	164.06
627.706	178.06
627.912	184.06
628.119	173.06
628.325	183.06
628.532	186.06
628.738	168.06
628.945	166.06
629.151	170.06
629.357	154.06
629.564	182.06
629.77	175.06
629.976	177.06
630.183	173.06
630.389	168.06
630.595	170.06
630.802	178.06
631.008	176.06
631.214	168.06
631.42	178.06
631.627	178.06
631.833	181.06
632.039	157.06
632.245	163.06
632.451	176.06
632.657	162.06
632.863	179.06
633.069	175.06
633.275	169.06
633.481	176.06
633.688	169.06
633.893	161.06
634.099	162.06
634.305	179.06
634.511	183.06
634.717	170.06
634.923	156.06
635.129	152.06
635.335	172.06
635.541	159.06
635.747	172.06
635.952	168.06
636.158	169.06
636.364	161.06
636.57	180.06
636.775	175.06
636.981	162.06
637.187	165.06
637.392	156.06
637.598	170.06
637.804	170.06
638.009	166.06
638.215	152.06
638.421	160.06
638.626	157.06
638.832	155.06
639.037	162.06
639.243	162.06
639.448	166.06
639.654	161.06
639.859	160.06
640.065	164.06
640.27	168.06
640.475	157.06
640.681	145.06
640.886	161.06
641.091	152.06
641.297	162.06
641.502	149.06
641.707	155.06
641.913	168.06
642.118	163.06
642.323	157.06
642.528	151.06
642.733	170.06
642.939	159.06
643.144	157.06
643.349	144.06
643.554	168.06
643.759	159.06
643.964	153.06
644.169	165.06
644.374	163.06
644.579	147.06
644.784	159.06
644.989	163.06
645.194	162.06
645.399	145.06
645.604	154.06
645.809	161.06
646.014	168.06
646.219	152.06
646.423	140.06
646.628	141.06
646.833	159.06
647.038	167.06
647.243	155.06
647.447	155.06
647.652	146.06
647.857	147.06
648.062	153.06
648.266	159.06
648.471	150.06
648.676	149.06
648.88	165.06
649.085	168.06
649.289	157.06
649.494	149.06
649.698	152.06
649.903	153.06
650.107	151.06
650.312	153.06
650.516	149.06
650.721	146.06
650.925	141.06
651.13	143.06
651.334	156.06
651.539	145.06
651.743	144.06
651.947	148.06
652.152	155.06
652.356	150.06
652.56	136.06
652.764	142.06
652.969	154.06
653.173	128.06
653.377	141.06
653.581	151.06
653.785	136.06
653.99	141.06
654.194	152.06
654.398	139.06
654.602	129.06
654.806	124.06
655.01	135.06
655.214	132.06
655.418	128.06
655.622	120.06
655.826	142.06
656.03	143.06
656.234	136.06
656.438	144.06
656.642	137.06
656.846	147.06
657.049	125.06
657.253	118.06
657.457	115.06
657.661	127.06
657.865	130.06
658.068	131.06
658.272	107.06
658.476	109.06
658.68	102.06
658.883	108.06
659.087	111.06
659.291	111.06
659.494	103.06
659.698	105.06
659.901	82.06
660.105	93.06
660.309	103.06
660.512	99.06
660.716	83.06
660.919	87.06
661.123	86.06
661.326	88.06
661.53	93.06
661.733	88.06
661.936	93.06
662.14	79.06
662.343	79.06
662.546	86.06
662.75	88.06
662.953	77.06
663.156	81.06
663.36	85.06
663.563	90.06
663.766	85.06
663.969	81.06
664.173	83.06
664.376	75.06
664.579	75.06
664.782	85.06
664.985	80.06
665.188	97.06
665.391	75.06
665.594	97.06
665.797	76.06
666	89.06
666.203	71.06
666.406	89.06
666.609	86.06
666.812	91.06
667.015	83.06
667.218	89.06
667.421	76.06
667.624	77.06
667.827	82.06
668.03	91.06
668.232	71.06
668.435	85.06
668.638	87.06
668.841	92.06
669.043	79.06
669.246	87.06
669.449	91.06
669.651	86.06
669.854	97.06
670.057	90.06
670.259	87.06
670.462	56.06
670.665	82.06
670.867	85.06
671.07	91.06
671.272	87.06
671.475	85.06
671.677	82.06
671.88	96.06
672.082	73.06
672.284	74.06
672.487	64.06
672.689	71.06
672.892	83.06
