Data from Fe(NO3)3@0.0125M.TitratingCurve.Agarose3%dH2O.NegLispCup.LampEnergy10.LIBS07252019_HRD10591_16-59-00-337.txt Node
Date: Thu Jul 25 16:59:00 EDT 2019
User: cochatt
Spectrometer: HR+D1059
Trigger mode: 1
Integration Time (sec): 1.000000E-1
Scans to average: 1
Electric dark correction enabled: true
Nonlinearity correction enabled: false
Boxcar width: 0
XAxis mode: Wavelengths
Number of Pixels in Spectrum: 2048
>>>>>Begin Spectral Data<<<<<
223.165	-4.31
223.4	-4.31
223.635	-4.31
223.869	-25.31
224.104	-24.31
224.338	-13.31
224.573	-18.31
224.808	-26.31
225.042	-6.31
225.277	10.69
225.511	-3.31
225.746	12.69
225.98	-4.31
226.215	8.69
226.449	9.69
226.683	31.69
226.918	21.69
227.152	30.69
227.387	40.69
227.621	32.69
227.856	40.69
228.09	41.69
228.324	46.69
228.559	30.69
228.793	59.69
229.027	96.69
229.262	101.69
229.496	111.69
229.73	114.69
229.964	117.69
230.199	116.69
230.433	121.69
230.667	121.69
230.901	144.69
231.136	124.69
231.37	131.69
231.604	151.69
231.838	129.69
232.072	135.69
232.306	144.69
232.541	137.69
232.775	128.69
233.009	137.69
233.243	136.69
233.477	143.69
233.711	140.69
233.945	143.69
234.179	140.69
234.413	138.69
234.647	159.69
234.881	150.69
235.115	162.69
235.349	141.69
235.583	156.69
235.817	143.69
236.051	153.69
236.285	154.69
236.519	155.69
236.753	171.69
236.987	162.69
237.221	165.69
237.455	146.69
237.689	168.69
237.922	176.69
238.156	155.69
238.39	177.69
238.624	179.69
238.858	165.69
239.091	182.69
239.325	156.69
239.559	177.69
239.793	168.69
240.027	189.69
240.26	180.69
240.494	169.69
240.728	180.69
240.961	196.69
241.195	181.69
241.429	186.69
241.662	176.69
241.896	187.69
242.13	180.69
242.363	197.69
242.597	187.69
242.83	196.69
243.064	197.69
243.298	180.69
243.531	175.69
243.765	206.69
243.998	195.69
244.232	192.69
244.465	203.69
244.699	209.69
244.932	212.69
245.166	212.69
245.399	200.69
245.633	202.69
245.866	201.69
246.099	209.69
246.333	214.69
246.566	219.69
246.8	211.69
247.033	217.69
247.266	209.69
247.5	185.69
247.733	214.69
247.966	223.69
248.2	231.69
248.433	225.69
248.666	233.69
248.899	223.69
249.133	243.69
249.366	243.69
249.599	241.69
249.832	246.69
250.066	234.69
250.299	232.69
250.532	255.69
250.765	255.69
250.998	256.69
251.231	254.69
251.465	251.69
251.698	243.69
251.931	271.69
252.164	262.69
252.397	258.69
252.63	263.69
252.863	257.69
253.096	257.69
253.329	278.69
253.562	257.69
253.795	252.69
254.028	276.69
254.261	285.69
254.494	267.69
254.727	268.69
254.96	280.69
255.193	275.69
255.426	259.69
255.659	291.69
255.892	274.69
256.124	286.69
256.357	278.69
256.59	305.69
256.823	284.69
257.056	283.69
257.289	279.69
257.521	281.69
257.754	311.69
257.987	301.69
258.22	297.69
258.452	292.69
258.685	308.69
258.918	306.69
259.151	314.69
259.383	305.69
259.616	299.69
259.849	315.69
260.081	341.69
260.314	355.69
260.547	343.69
260.779	326.69
261.012	344.69
261.244	339.69
261.477	321.69
261.71	340.69
261.942	312.69
262.175	341.69
262.407	322.69
262.64	335.69
262.872	328.69
263.105	329.69
263.337	353.69
263.57	347.69
263.802	340.69
264.035	352.69
264.267	321.69
264.499	324.69
264.732	346.69
264.964	339.69
265.197	347.69
265.429	341.69
265.661	350.69
265.894	358.69
266.126	355.69
266.358	348.69
266.591	370.69
266.823	373.69
267.055	353.69
267.287	370.69
267.52	347.69
267.752	372.69
267.984	364.69
268.216	380.69
268.448	352.69
268.681	364.69
268.913	361.69
269.145	370.69
269.377	367.69
269.609	377.69
269.841	385.69
270.073	379.69
270.306	373.69
270.538	390.69
270.77	379.69
271.002	377.69
271.234	388.69
271.466	392.69
271.698	384.69
271.93	412.69
272.162	379.69
272.394	395.69
272.626	408.69
272.858	399.69
273.09	397.69
273.322	389.69
273.553	418.69
273.785	422.69
274.017	435.69
274.249	447.69
274.481	448.69
274.713	439.69
274.945	476.69
275.176	472.69
275.408	453.69
275.64	431.69
275.872	448.69
276.104	431.69
276.335	421.69
276.567	432.69
276.799	425.69
277.031	454.69
277.262	461.69
277.494	447.69
277.726	448.69
277.957	449.69
278.189	443.69
278.421	433.69
278.652	457.69
278.884	438.69
279.115	442.69
279.347	457.69
279.579	465.69
279.81	448.69
280.042	442.69
280.273	444.69
280.505	448.69
280.736	472.69
280.968	454.69
281.199	453.69
281.431	457.69
281.662	467.69
281.894	471.69
282.125	483.69
282.356	477.69
282.588	478.69
282.819	483.69
283.051	472.69
283.282	488.69
283.513	506.69
283.745	517.69
283.976	479.69
284.207	473.69
284.439	491.69
284.67	498.69
284.901	513.69
285.132	534.69
285.364	516.69
285.595	515.69
285.826	501.69
286.057	522.69
286.288	495.69
286.52	505.69
286.751	505.69
286.982	512.69
287.213	495.69
287.444	509.69
287.675	523.69
287.906	514.69
288.138	495.69
288.369	515.69
288.6	515.69
288.831	517.69
289.062	538.69
289.293	530.69
289.524	534.69
289.755	532.69
289.986	522.69
290.217	549.69
290.448	539.69
290.679	535.69
290.91	541.69
291.141	542.69
291.371	568.69
291.602	541.69
291.833	538.69
292.064	531.69
292.295	563.69
292.526	548.69
292.757	529.69
292.987	538.69
293.218	533.69
293.449	545.69
293.68	537.69
293.91	564.69
294.141	551.69
294.372	545.69
294.603	543.69
294.833	551.69
295.064	547.69
295.295	575.69
295.525	542.69
295.756	554.69
295.987	556.69
296.217	585.69
296.448	566.69
296.679	570.69
296.909	550.69
297.14	549.69
297.37	589.69
297.601	587.69
297.831	589.69
298.062	579.69
298.292	553.69
298.523	626.69
298.753	589.69
298.984	584.69
299.214	596.69
299.445	602.69
299.675	599.69
299.905	588.69
300.136	578.69
300.366	603.69
300.597	604.69
300.827	592.69
301.057	612.69
301.288	623.69
301.518	624.69
301.748	604.69
301.979	625.69
302.209	645.69
302.439	632.69
302.669	619.69
302.9	611.69
303.13	621.69
303.36	627.69
303.59	634.69
303.82	637.69
304.051	630.69
304.281	640.69
304.511	628.69
304.741	633.69
304.971	628.69
305.201	633.69
305.431	649.69
305.661	641.69
305.891	636.69
306.121	633.69
306.352	633.69
306.582	641.69
306.812	623.69
307.042	660.69
307.272	637.69
307.502	647.69
307.731	655.69
307.961	660.69
308.191	648.69
308.421	647.69
308.651	638.69
308.881	655.69
309.111	683.69
309.341	649.69
309.571	635.69
309.8	661.69
310.03	660.69
310.26	686.69
310.49	691.69
310.72	672.69
310.949	661.69
311.179	680.69
311.409	691.69
311.639	661.69
311.868	684.69
312.098	693.69
312.328	680.69
312.557	681.69
312.787	710.69
313.017	717.69
313.246	689.69
313.476	681.69
313.706	731.69
313.935	698.69
314.165	692.69
314.394	708.69
314.624	705.69
314.853	705.69
315.083	715.69
315.312	714.69
315.542	728.69
315.771	696.69
316.001	709.69
316.23	731.69
316.46	734.69
316.689	744.69
316.919	721.69
317.148	732.69
317.377	741.69
317.607	715.69
317.836	753.69
318.065	711.69
318.295	740.69
318.524	756.69
318.753	726.69
318.983	737.69
319.212	738.69
319.441	743.69
319.67	745.69
319.9	744.69
320.129	716.69
320.358	730.69
320.587	743.69
320.816	746.69
321.046	758.69
321.275	757.69
321.504	754.69
321.733	740.69
321.962	771.69
322.191	769.69
322.42	759.69
322.649	785.69
322.878	782.69
323.108	795.69
323.337	776.69
323.566	747.69
323.795	771.69
324.024	797.69
324.253	803.69
324.482	791.69
324.71	788.69
324.939	775.69
325.168	799.69
325.397	809.69
325.626	754.69
325.855	765.69
326.084	787.69
326.313	760.69
326.542	802.69
326.77	799.69
326.999	805.69
327.228	801.69
327.457	820.69
327.686	811.69
327.914	819.69
328.143	797.69
328.372	783.69
328.6	790.69
328.829	813.69
329.058	813.69
329.287	799.69
329.515	827.69
329.744	784.69
329.972	817.69
330.201	834.69
330.43	833.69
330.658	843.69
330.887	830.69
331.115	821.69
331.344	812.69
331.572	845.69
331.801	838.69
332.03	835.69
332.258	842.69
332.486	828.69
332.715	840.69
332.943	832.69
333.172	846.69
333.4	863.69
333.629	856.69
333.857	875.69
334.085	862.69
334.314	860.69
334.542	862.69
334.771	877.69
334.999	866.69
335.227	889.69
335.455	867.69
335.684	873.69
335.912	890.69
336.14	881.69
336.369	888.69
336.597	914.69
336.825	871.69
337.053	875.69
337.281	864.69
337.51	884.69
337.738	877.69
337.966	880.69
338.194	835.69
338.422	872.69
338.65	882.69
338.878	890.69
339.106	889.69
339.334	867.69
339.562	877.69
339.79	856.69
340.018	881.69
340.246	883.69
340.474	842.69
340.702	858.69
340.93	835.69
341.158	859.69
341.386	863.69
341.614	855.69
341.842	864.69
342.07	864.69
342.298	865.69
342.526	854.69
342.754	864.69
342.981	872.69
343.209	842.69
343.437	868.69
343.665	856.69
343.893	928.69
344.12	850.69
344.348	863.69
344.576	907.69
344.804	875.69
345.031	881.69
345.259	855.69
345.487	859.69
345.714	868.69
345.942	893.69
346.17	860.69
346.397	856.69
346.625	859.69
346.853	857.69
347.08	841.69
347.308	852.69
347.535	851.69
347.763	846.69
347.99	845.69
348.218	848.69
348.445	864.69
348.673	839.69
348.9	835.69
349.128	863.69
349.355	835.69
349.583	838.69
349.81	843.69
350.037	843.69
350.265	823.69
350.492	841.69
350.72	834.69
350.947	857.69
351.174	817.69
351.402	836.69
351.629	835.69
351.856	859.69
352.083	842.69
352.311	841.69
352.538	831.69
352.765	854.69
352.992	832.69
353.22	813.69
353.447	855.69
353.674	841.69
353.901	854.69
354.128	835.69
354.355	848.69
354.583	851.69
354.81	864.69
355.037	845.69
355.264	836.69
355.491	827.69
355.718	810.69
355.945	817.69
356.172	817.69
356.399	843.69
356.626	857.69
356.853	852.69
357.08	827.69
357.307	836.69
357.534	832.69
357.761	858.69
357.988	822.69
358.215	846.69
358.441	846.69
358.668	850.69
358.895	821.69
359.122	839.69
359.349	824.69
359.576	850.69
359.802	828.69
360.029	837.69
360.256	849.69
360.483	823.69
360.709	822.69
360.936	859.69
361.163	831.69
361.39	871.69
361.616	820.69
361.843	837.69
362.07	865.69
362.296	834.69
362.523	851.69
362.749	838.69
362.976	855.69
363.203	839.69
363.429	864.69
363.656	856.69
363.882	868.69
364.109	860.69
364.335	851.69
364.562	840.69
364.788	879.69
365.015	867.69
365.241	856.69
365.468	858.69
365.694	877.69
365.92	880.69
366.147	849.69
366.373	843.69
366.599	868.69
366.826	875.69
367.052	867.69
367.278	845.69
367.505	863.69
367.731	865.69
367.957	889.69
368.184	875.69
368.41	889.69
368.636	858.69
368.862	895.69
369.089	885.69
369.315	883.69
369.541	872.69
369.767	899.69
369.993	892.69
370.219	877.69
370.445	890.69
370.672	891.69
370.898	891.69
371.124	880.69
371.35	903.69
371.576	908.69
371.802	899.69
372.028	890.69
372.254	891.69
372.48	903.69
372.706	888.69
372.932	895.69
373.158	936.69
373.384	920.69
373.61	921.69
373.835	927.69
374.061	912.69
374.287	903.69
374.513	922.69
374.739	927.69
374.965	907.69
375.191	932.69
375.416	923.69
375.642	898.69
375.868	891.69
376.094	923.69
376.319	913.69
376.545	930.69
376.771	901.69
376.997	895.69
377.222	874.69
377.448	894.69
377.674	897.69
377.899	897.69
378.125	915.69
378.35	923.69
378.576	885.69
378.802	906.69
379.027	906.69
379.253	921.69
379.478	865.69
379.704	902.69
379.929	912.69
380.155	881.69
380.38	876.69
380.606	883.69
380.831	890.69
381.057	890.69
381.282	904.69
381.507	914.69
381.733	888.69
381.958	918.69
382.184	943.69
382.409	909.69
382.634	926.69
382.86	915.69
383.085	917.69
383.31	917.69
383.535	955.69
383.761	940.69
383.986	951.69
384.211	932.69
384.436	953.69
384.662	915.69
384.887	976.69
385.112	959.69
385.337	966.69
385.562	950.69
385.787	939.69
386.013	961.69
386.238	953.69
386.463	966.69
386.688	971.69
386.913	952.69
387.138	969.69
387.363	962.69
387.588	973.69
387.813	957.69
388.038	966.69
388.263	982.69
388.488	996.69
388.713	961.69
388.938	958.69
389.163	990.69
389.387	1007.69
389.612	958.69
389.837	984.69
390.062	979.69
390.287	985.69
390.512	968.69
390.736	1002.69
390.961	980.69
391.186	976.69
391.411	1002.69
391.636	1010.69
391.86	1020.69
392.085	1002.69
392.31	1009.69
392.534	993.69
392.759	992.69
392.984	992.69
393.208	1041.69
393.433	1043.69
393.658	1003.69
393.882	991.69
394.107	995.69
394.331	999.69
394.556	1003.69
394.78	1003.69
395.005	991.69
395.229	996.69
395.454	1001.69
395.678	997.69
395.903	993.69
396.127	1021.69
396.352	1005.69
396.576	983.69
396.801	1011.69
397.025	1026.69
397.249	1025.69
397.474	1012.69
397.698	1024.69
397.922	1048.69
398.147	1041.69
398.371	1067.69
398.595	1051.69
398.82	1056.69
399.044	1077.69
399.268	1079.69
399.492	1137.69
399.717	1145.69
399.941	1141.69
400.165	1128.69
400.389	1128.69
400.613	1119.69
400.837	1094.69
401.062	1123.69
401.286	1079.69
401.51	1094.69
401.734	1096.69
401.958	1098.69
402.182	1088.69
402.406	1068.69
402.63	1095.69
402.854	1104.69
403.078	1079.69
403.302	1054.69
403.526	1051.69
403.75	1055.69
403.974	1046.69
404.198	1084.69
404.422	1117.69
404.645	1091.69
404.869	1091.69
405.093	1079.69
405.317	1086.69
405.541	1110.69
405.765	1095.69
405.988	1098.69
406.212	1107.69
406.436	1127.69
406.66	1116.69
406.883	1105.69
407.107	1130.69
407.331	1149.69
407.555	1178.69
407.778	1167.69
408.002	1156.69
408.226	1163.69
408.449	1188.69
408.673	1179.69
408.896	1131.69
409.12	1127.69
409.344	1117.69
409.567	1110.69
409.791	1112.69
410.014	1106.69
410.238	1081.69
410.461	1127.69
410.685	1129.69
410.908	1094.69
411.132	1098.69
411.355	1108.69
411.578	1080.69
411.802	1107.69
412.025	1099.69
412.249	1076.69
412.472	1100.69
412.695	1079.69
412.919	1060.69
413.142	1091.69
413.365	1075.69
413.589	1081.69
413.812	1084.69
414.035	1073.69
414.258	1092.69
414.482	1065.69
414.705	1079.69
414.928	1042.69
415.151	1049.69
415.374	1073.69
415.597	1037.69
415.821	1037.69
416.044	1062.69
416.267	1049.69
416.49	1051.69
416.713	1036.69
416.936	1040.69
417.159	1026.69
417.382	1000.69
417.605	1010.69
417.828	1012.69
418.051	1025.69
418.274	1017.69
418.497	981.69
418.72	1006.69
418.943	995.69
419.166	1051.69
419.389	1076.69
419.611	1071.69
419.834	1052.69
420.057	1048.69
420.28	1035.69
420.503	994.69
420.726	977.69
420.948	984.69
421.171	1004.69
421.394	989.69
421.617	1000.69
421.839	1013.69
422.062	1009.69
422.285	1007.69
422.507	1026.69
422.73	1012.69
422.953	968.69
423.175	991.69
423.398	994.69
423.621	1004.69
423.843	1011.69
424.066	1026.69
424.288	967.69
424.511	1026.69
424.733	1019.69
424.956	1008.69
425.178	1002.69
425.401	1029.69
425.623	995.69
425.846	989.69
426.068	981.69
426.291	988.69
426.513	984.69
426.735	999.69
426.958	989.69
427.18	985.69
427.402	1009.69
427.625	1023.69
427.847	1025.69
428.069	987.69
428.292	981.69
428.514	984.69
428.736	987.69
428.958	984.69
429.181	991.69
429.403	1001.69
429.625	992.69
429.847	947.69
430.069	985.69
430.292	988.69
430.514	975.69
430.736	964.69
430.958	992.69
431.18	977.69
431.402	988.69
431.624	979.69
431.846	971.69
432.068	965.69
432.29	978.69
432.512	976.69
432.734	996.69
432.956	981.69
433.178	979.69
433.4	995.69
433.622	979.69
433.844	980.69
434.066	959.69
434.287	990.69
434.509	1003.69
434.731	971.69
434.953	999.69
435.175	1008.69
435.397	987.69
435.618	984.69
435.84	1003.69
436.062	978.69
436.284	975.69
436.505	961.69
436.727	960.69
436.949	966.69
437.17	967.69
437.392	973.69
437.614	961.69
437.835	975.69
438.057	945.69
438.278	941.69
438.5	936.69
438.721	980.69
438.943	941.69
439.165	947.69
439.386	963.69
439.608	952.69
439.829	947.69
440.05	978.69
440.272	949.69
440.493	931.69
440.715	957.69
440.936	964.69
441.158	966.69
441.379	973.69
441.6	972.69
441.822	948.69
442.043	961.69
442.264	978.69
442.486	972.69
442.707	938.69
442.928	964.69
443.149	952.69
443.371	966.69
443.592	983.69
443.813	971.69
444.034	969.69
444.255	972.69
444.476	955.69
444.698	950.69
444.919	986.69
445.14	1048.69
445.361	1019.69
445.582	999.69
445.803	1002.69
446.024	952.69
446.245	971.69
446.466	975.69
446.687	932.69
446.908	963.69
447.129	922.69
447.35	910.69
447.571	918.69
447.792	903.69
448.013	926.69
448.234	907.69
448.455	892.69
448.675	933.69
448.896	885.69
449.117	907.69
449.338	912.69
449.559	931.69
449.779	897.69
450	879.69
450.221	919.69
450.442	896.69
450.662	907.69
450.883	892.69
451.104	871.69
451.324	876.69
451.545	910.69
451.766	879.69
451.986	881.69
452.207	896.69
452.428	875.69
452.648	871.69
452.869	872.69
453.089	859.69
453.31	888.69
453.53	845.69
453.751	863.69
453.971	855.69
454.192	865.69
454.412	873.69
454.633	873.69
454.853	874.69
455.073	867.69
455.294	907.69
455.514	865.69
455.734	879.69
455.955	849.69
456.175	867.69
456.395	864.69
456.616	864.69
456.836	871.69
457.056	876.69
457.276	860.69
457.497	882.69
457.717	895.69
457.937	873.69
458.157	900.69
458.377	888.69
458.598	895.69
458.818	916.69
459.038	893.69
459.258	937.69
459.478	933.69
459.698	939.69
459.918	933.69
460.138	925.69
460.358	967.69
460.578	957.69
460.798	950.69
461.018	933.69
461.238	938.69
461.458	975.69
461.678	961.69
461.898	1003.69
462.118	997.69
462.338	1003.69
462.558	996.69
462.777	1023.69
462.997	1025.69
463.217	1000.69
463.437	1047.69
463.657	1004.69
463.876	1002.69
464.096	1064.69
464.316	984.69
464.536	1018.69
464.755	995.69
464.975	1015.69
465.195	990.69
465.414	980.69
465.634	985.69
465.854	969.69
466.073	952.69
466.293	995.69
466.512	963.69
466.732	972.69
466.951	970.69
467.171	946.69
467.391	947.69
467.61	914.69
467.829	922.69
468.049	950.69
468.268	933.69
468.488	942.69
468.707	928.69
468.927	914.69
469.146	942.69
469.365	930.69
469.585	925.69
469.804	940.69
470.023	937.69
470.243	919.69
470.462	907.69
470.681	959.69
470.901	940.69
471.12	933.69
471.339	964.69
471.558	972.69
471.777	943.69
471.997	977.69
472.216	940.69
472.435	945.69
472.654	966.69
472.873	967.69
473.092	979.69
473.311	963.69
473.53	977.69
473.749	963.69
473.968	957.69
474.187	958.69
474.406	960.69
474.625	974.69
474.844	1003.69
475.063	991.69
475.282	1001.69
475.501	1013.69
475.72	1016.69
475.939	1015.69
476.158	1002.69
476.377	1011.69
476.596	1017.69
476.814	1063.69
477.033	1061.69
477.252	1040.69
477.471	1047.69
477.69	1027.69
477.908	1046.69
478.127	1073.69
478.346	1075.69
478.564	1082.69
478.783	1101.69
479.002	1133.69
479.22	1148.69
479.439	1100.69
479.658	1122.69
479.876	1126.69
480.095	1136.69
480.313	1139.69
480.532	1129.69
480.751	1144.69
480.969	1135.69
481.188	1133.69
481.406	1139.69
481.624	1143.69
481.843	1158.69
482.061	1132.69
482.28	1137.69
482.498	1172.69
482.717	1147.69
482.935	1171.69
483.153	1159.69
483.372	1132.69
483.59	1159.69
483.808	1157.69
484.027	1186.69
484.245	1166.69
484.463	1159.69
484.681	1206.69
484.9	1166.69
485.118	1165.69
485.336	1163.69
485.554	1189.69
485.772	1165.69
485.99	1180.69
486.209	1175.69
486.427	1189.69
486.645	1161.69
486.863	1215.69
487.081	1212.69
487.299	1200.69
487.517	1167.69
487.735	1196.69
487.953	1227.69
488.171	1238.69
488.389	1194.69
488.607	1175.69
488.825	1195.69
489.043	1182.69
489.261	1202.69
489.479	1196.69
489.696	1178.69
489.914	1235.69
490.132	1222.69
490.35	1204.69
490.568	1195.69
490.786	1197.69
491.003	1190.69
491.221	1213.69
491.439	1228.69
491.657	1225.69
491.874	1210.69
492.092	1203.69
492.31	1207.69
492.527	1224.69
492.745	1203.69
492.963	1242.69
493.18	1251.69
493.398	1220.69
493.615	1223.69
493.833	1244.69
494.05	1246.69
494.268	1203.69
494.485	1242.69
494.703	1213.69
494.92	1230.69
495.138	1267.69
495.355	1271.69
495.573	1269.69
495.79	1293.69
496.008	1283.69
496.225	1297.69
496.442	1256.69
496.66	1312.69
496.877	1268.69
497.094	1291.69
497.312	1299.69
497.529	1330.69
497.746	1310.69
497.963	1351.69
498.181	1339.69
498.398	1356.69
498.615	1393.69
498.832	1405.69
499.049	1423.69
499.267	1463.69
499.484	1467.69
499.701	1547.69
499.918	1553.69
500.135	1532.69
500.352	1557.69
500.569	1597.69
500.786	1580.69
501.003	1620.69
501.22	1571.69
501.437	1520.69
501.654	1505.69
501.871	1468.69
502.088	1479.69
502.305	1407.69
502.522	1427.69
502.739	1413.69
502.956	1370.69
503.172	1345.69
503.389	1344.69
503.606	1321.69
503.823	1289.69
504.04	1292.69
504.256	1268.69
504.473	1268.69
504.69	1222.69
504.907	1295.69
505.123	1206.69
505.34	1237.69
505.557	1211.69
505.773	1212.69
505.99	1204.69
506.207	1143.69
506.423	1169.69
506.64	1145.69
506.856	1140.69
507.073	1129.69
507.289	1130.69
507.506	1132.69
507.722	1097.69
507.939	1108.69
508.155	1095.69
508.372	1109.69
508.588	1117.69
508.805	1108.69
509.021	1089.69
509.238	1071.69
509.454	1041.69
509.67	1075.69
509.887	1045.69
510.103	1045.69
510.319	1073.69
510.536	1083.69
510.752	1065.69
510.968	1065.69
511.184	1035.69
511.401	1036.69
511.617	1049.69
511.833	1018.69
512.049	1018.69
512.265	1016.69
512.481	1040.69
512.698	1029.69
512.914	1035.69
513.13	1026.69
513.346	1013.69
513.562	1038.69
513.778	996.69
513.994	1051.69
514.21	1027.69
514.426	1033.69
514.642	1053.69
514.858	1012.69
515.074	1032.69
515.29	1048.69
515.506	1014.69
515.721	1055.69
515.937	1051.69
516.153	1050.69
516.369	1056.69
516.585	1056.69
516.801	1024.69
517.016	1040.69
517.232	1055.69
517.448	1049.69
517.664	1080.69
517.879	1081.69
518.095	1040.69
518.311	1071.69
518.527	1057.69
518.742	1043.69
518.958	1021.69
519.173	1034.69
519.389	1048.69
519.605	1038.69
519.82	995.69
520.036	1049.69
520.251	1029.69
520.467	996.69
520.682	1009.69
520.898	969.69
521.113	1006.69
521.329	954.69
521.544	983.69
521.76	976.69
521.975	989.69
522.19	986.69
522.406	968.69
522.621	975.69
522.836	988.69
523.052	980.69
523.267	960.69
523.482	964.69
523.698	949.69
523.913	928.69
524.128	977.69
524.343	957.69
524.559	966.69
524.774	916.69
524.989	949.69
525.204	971.69
525.419	941.69
525.634	937.69
525.849	938.69
526.064	937.69
526.28	944.69
526.495	929.69
526.71	925.69
526.925	947.69
527.14	908.69
527.355	939.69
527.57	898.69
527.785	896.69
527.999	932.69
528.214	907.69
528.429	917.69
528.644	921.69
528.859	893.69
529.074	907.69
529.289	931.69
529.503	908.69
529.718	921.69
529.933	907.69
530.148	895.69
530.363	883.69
530.577	896.69
530.792	893.69
531.007	883.69
531.221	875.69
531.436	906.69
531.651	897.69
531.865	885.69
532.08	876.69
532.295	916.69
532.509	898.69
532.724	894.69
532.938	890.69
533.153	915.69
533.367	866.69
533.582	897.69
533.796	859.69
534.011	866.69
534.225	865.69
534.44	871.69
534.654	881.69
534.868	868.69
535.083	884.69
535.297	886.69
535.511	831.69
535.726	875.69
535.94	872.69
536.154	858.69
536.369	887.69
536.583	868.69
536.797	867.69
537.011	851.69
537.225	844.69
537.44	824.69
537.654	853.69
537.868	820.69
538.082	854.69
538.296	833.69
538.51	831.69
538.724	833.69
538.938	820.69
539.153	843.69
539.367	845.69
539.581	827.69
539.795	795.69
540.009	828.69
540.222	858.69
540.436	827.69
540.65	837.69
540.864	833.69
541.078	847.69
541.292	820.69
541.506	803.69
541.72	824.69
541.934	822.69
542.147	859.69
542.361	817.69
542.575	813.69
542.789	801.69
543.002	803.69
543.216	796.69
543.43	815.69
543.644	799.69
543.857	797.69
544.071	794.69
544.285	835.69
544.498	821.69
544.712	797.69
544.925	789.69
545.139	800.69
545.352	789.69
545.566	798.69
545.779	798.69
545.993	799.69
546.206	820.69
546.42	825.69
546.633	793.69
546.847	818.69
547.06	767.69
547.274	799.69
547.487	803.69
547.7	795.69
547.914	819.69
548.127	808.69
548.34	800.69
548.554	787.69
548.767	797.69
548.98	804.69
549.193	796.69
549.407	805.69
549.62	772.69
549.833	792.69
550.046	809.69
550.259	778.69
550.473	787.69
550.686	786.69
550.899	781.69
551.112	778.69
551.325	764.69
551.538	784.69
551.751	757.69
551.964	763.69
552.177	773.69
552.39	751.69
552.603	764.69
552.816	752.69
553.029	773.69
553.242	779.69
553.455	768.69
553.667	769.69
553.88	792.69
554.093	731.69
554.306	773.69
554.519	745.69
554.732	756.69
554.944	737.69
555.157	732.69
555.37	771.69
555.583	719.69
555.795	713.69
556.008	725.69
556.221	714.69
556.433	719.69
556.646	722.69
556.859	720.69
557.071	712.69
557.284	692.69
557.496	694.69
557.709	673.69
557.921	714.69
558.134	719.69
558.346	704.69
558.559	679.69
558.771	689.69
558.984	721.69
559.196	682.69
559.409	691.69
559.621	677.69
559.833	700.69
560.046	687.69
560.258	689.69
560.47	685.69
560.683	688.69
560.895	661.69
561.107	671.69
561.32	672.69
561.532	687.69
561.744	682.69
561.956	680.69
562.168	661.69
562.381	691.69
562.593	673.69
562.805	658.69
563.017	709.69
563.229	691.69
563.441	667.69
563.653	697.69
563.865	653.69
564.077	695.69
564.289	681.69
564.501	695.69
564.713	694.69
564.925	697.69
565.137	694.69
565.349	707.69
565.561	696.69
565.773	719.69
565.985	713.69
566.197	739.69
566.408	733.69
566.62	727.69
566.832	728.69
567.044	710.69
567.255	705.69
567.467	711.69
567.679	699.69
567.891	725.69
568.102	716.69
568.314	691.69
568.526	722.69
568.737	692.69
568.949	659.69
569.161	675.69
569.372	661.69
569.584	663.69
569.795	648.69
570.007	647.69
570.218	615.69
570.43	628.69
570.641	605.69
570.853	613.69
571.064	599.69
571.276	605.69
571.487	575.69
571.698	593.69
571.91	624.69
572.121	589.69
572.333	573.69
572.544	573.69
572.755	569.69
572.966	584.69
573.178	585.69
573.389	579.69
573.6	579.69
573.811	564.69
574.023	553.69
574.234	538.69
574.445	564.69
574.656	546.69
574.867	539.69
575.078	547.69
575.289	541.69
575.501	529.69
575.712	546.69
575.923	524.69
576.134	537.69
576.345	533.69
576.556	536.69
576.767	528.69
576.978	519.69
577.188	507.69
577.399	529.69
577.61	527.69
577.821	518.69
578.032	519.69
578.243	496.69
578.454	507.69
578.665	490.69
578.875	502.69
579.086	507.69
579.297	529.69
579.508	493.69
579.718	504.69
579.929	515.69
580.14	522.69
580.35	511.69
580.561	515.69
580.772	483.69
580.982	477.69
581.193	493.69
581.403	506.69
581.614	463.69
581.825	466.69
582.035	463.69
582.246	460.69
582.456	500.69
582.667	465.69
582.877	461.69
583.087	459.69
583.298	468.69
583.508	479.69
583.719	475.69
583.929	474.69
584.139	488.69
584.35	484.69
584.56	466.69
584.77	455.69
584.981	448.69
585.191	454.69
585.401	438.69
585.611	426.69
585.821	456.69
586.032	477.69
586.242	440.69
586.452	436.69
586.662	449.69
586.872	450.69
587.082	450.69
587.292	452.69
587.502	450.69
587.713	456.69
587.923	444.69
588.133	441.69
588.343	453.69
588.553	451.69
588.762	449.69
588.972	432.69
589.182	462.69
589.392	448.69
589.602	453.69
589.812	435.69
590.022	447.69
590.232	423.69
590.441	432.69
590.651	433.69
590.861	410.69
591.071	430.69
591.281	449.69
591.49	442.69
591.7	426.69
591.91	445.69
592.119	422.69
592.329	432.69
592.539	430.69
592.748	427.69
592.958	410.69
593.167	439.69
593.377	434.69
593.587	436.69
593.796	441.69
594.006	448.69
594.215	441.69
594.424	422.69
594.634	401.69
594.843	417.69
595.053	425.69
595.262	410.69
595.472	403.69
595.681	394.69
595.89	399.69
596.1	420.69
596.309	423.69
596.518	414.69
596.727	423.69
596.937	417.69
597.146	392.69
597.355	406.69
597.564	401.69
597.774	392.69
597.983	384.69
598.192	375.69
598.401	387.69
598.61	386.69
598.819	375.69
599.028	374.69
599.237	402.69
599.446	373.69
599.655	359.69
599.864	393.69
600.073	394.69
600.282	385.69
600.491	394.69
600.7	376.69
600.909	373.69
601.118	381.69
601.327	383.69
601.536	379.69
601.745	388.69
601.953	375.69
602.162	358.69
602.371	369.69
602.58	360.69
602.789	372.69
602.997	363.69
603.206	369.69
603.415	353.69
603.623	348.69
603.832	353.69
604.041	369.69
604.249	365.69
604.458	349.69
604.666	360.69
604.875	351.69
605.084	364.69
605.292	363.69
605.501	355.69
605.709	337.69
605.918	341.69
606.126	342.69
606.334	344.69
606.543	338.69
606.751	344.69
606.96	338.69
607.168	355.69
607.376	336.69
607.585	344.69
607.793	337.69
608.001	362.69
608.21	339.69
608.418	331.69
608.626	342.69
608.834	349.69
609.043	354.69
609.251	331.69
609.459	322.69
609.667	339.69
609.875	316.69
610.083	327.69
610.291	327.69
610.499	355.69
610.707	327.69
610.916	328.69
611.124	328.69
611.332	318.69
611.54	319.69
611.748	327.69
611.955	319.69
612.163	341.69
612.371	324.69
612.579	307.69
612.787	309.69
612.995	320.69
613.203	341.69
613.411	318.69
613.618	337.69
613.826	303.69
614.034	317.69
614.242	330.69
614.449	323.69
614.657	311.69
614.865	333.69
615.072	305.69
615.28	310.69
615.488	323.69
615.695	333.69
615.903	321.69
616.111	326.69
616.318	313.69
616.526	318.69
616.733	315.69
616.941	316.69
617.148	311.69
617.356	322.69
617.563	309.69
617.771	299.69
617.978	305.69
618.185	315.69
618.393	289.69
618.6	297.69
618.807	305.69
619.015	323.69
619.222	300.69
619.429	303.69
619.637	319.69
619.844	298.69
620.051	299.69
620.258	320.69
620.466	300.69
620.673	284.69
620.88	295.69
621.087	291.69
621.294	279.69
621.501	291.69
621.708	305.69
621.915	300.69
622.122	295.69
622.329	292.69
622.536	308.69
622.743	300.69
622.95	293.69
623.157	287.69
623.364	275.69
623.571	290.69
623.778	284.69
623.985	283.69
624.192	280.69
624.399	302.69
624.606	278.69
624.812	298.69
625.019	268.69
625.226	271.69
625.433	289.69
625.639	275.69
625.846	280.69
626.053	257.69
626.259	271.69
626.466	274.69
626.673	272.69
626.879	280.69
627.086	257.69
627.293	283.69
627.499	268.69
627.706	267.69
627.912	275.69
628.119	291.69
628.325	267.69
628.532	262.69
628.738	253.69
628.945	261.69
629.151	272.69
629.357	261.69
629.564	281.69
629.77	263.69
629.976	269.69
630.183	259.69
630.389	254.69
630.595	270.69
630.802	272.69
631.008	245.69
631.214	264.69
631.42	245.69
631.627	250.69
631.833	252.69
632.039	265.69
632.245	246.69
632.451	245.69
632.657	250.69
632.863	241.69
633.069	240.69
633.275	248.69
633.481	235.69
633.688	259.69
633.893	269.69
634.099	257.69
634.305	249.69
634.511	227.69
634.717	257.69
634.923	235.69
635.129	241.69
635.335	225.69
635.541	255.69
635.747	251.69
635.952	250.69
636.158	240.69
636.364	243.69
636.57	232.69
636.775	241.69
636.981	257.69
637.187	236.69
637.392	244.69
637.598	223.69
637.804	235.69
638.009	243.69
638.215	241.69
638.421	222.69
638.626	228.69
638.832	226.69
639.037	250.69
639.243	247.69
639.448	208.69
639.654	227.69
639.859	229.69
640.065	233.69
640.27	230.69
640.475	226.69
640.681	224.69
640.886	234.69
641.091	232.69
641.297	234.69
641.502	236.69
641.707	234.69
641.913	232.69
642.118	227.69
642.323	233.69
642.528	211.69
642.733	229.69
642.939	225.69
643.144	235.69
643.349	232.69
643.554	238.69
643.759	222.69
643.964	229.69
644.169	224.69
644.374	230.69
644.579	239.69
644.784	234.69
644.989	230.69
645.194	233.69
645.399	234.69
645.604	236.69
645.809	208.69
646.014	237.69
646.219	234.69
646.423	223.69
646.628	211.69
646.833	224.69
647.038	227.69
647.243	233.69
647.447	227.69
647.652	228.69
647.857	226.69
648.062	227.69
648.266	207.69
648.471	217.69
648.676	236.69
648.88	231.69
649.085	236.69
649.289	244.69
649.494	223.69
649.698	229.69
649.903	239.69
650.107	229.69
650.312	233.69
650.516	224.69
650.721	228.69
650.925	224.69
651.13	219.69
651.334	221.69
651.539	228.69
651.743	204.69
651.947	198.69
652.152	199.69
652.356	236.69
652.56	215.69
652.764	202.69
652.969	227.69
653.173	220.69
653.377	200.69
653.581	211.69
653.785	216.69
653.99	204.69
654.194	197.69
654.398	205.69
654.602	192.69
654.806	190.69
655.01	203.69
655.214	204.69
655.418	219.69
655.622	202.69
655.826	208.69
656.03	217.69
656.234	216.69
656.438	210.69
656.642	194.69
656.846	201.69
657.049	157.69
657.253	176.69
657.457	181.69
657.661	171.69
657.865	172.69
658.068	147.69
658.272	153.69
658.476	145.69
658.68	151.69
658.883	140.69
659.087	139.69
659.291	133.69
659.494	127.69
659.698	129.69
659.901	125.69
660.105	118.69
660.309	127.69
660.512	127.69
660.716	107.69
660.919	102.69
661.123	102.69
661.326	109.69
661.53	107.69
661.733	111.69
661.936	100.69
662.14	99.69
662.343	94.69
662.546	105.69
662.75	87.69
662.953	99.69
663.156	76.69
663.36	87.69
663.563	72.69
663.766	90.69
663.969	91.69
664.173	83.69
664.376	82.69
664.579	83.69
664.782	77.69
664.985	83.69
665.188	87.69
665.391	81.69
665.594	86.69
665.797	83.69
666	89.69
666.203	76.69
666.406	87.69
666.609	80.69
666.812	87.69
667.015	88.69
667.218	74.69
667.421	83.69
667.624	83.69
667.827	85.69
668.03	80.69
668.232	82.69
668.435	67.69
668.638	77.69
668.841	83.69
669.043	81.69
669.246	77.69
669.449	73.69
669.651	85.69
669.854	87.69
670.057	99.69
670.259	76.69
670.462	84.69
670.665	89.69
670.867	85.69
671.07	87.69
671.272	87.69
671.475	69.69
671.677	79.69
671.88	92.69
672.082	84.69
672.284	81.69
672.487	86.69
672.689	88.69
672.892	80.69
