Data from Fe(NO3)3@0.1M.TitratingCurve.Agarose3%dH2O.NegLispCup.LampEnergy10.LIBS07252019_HRD10591_16-39-39-332.txt Node
Date: Thu Jul 25 16:39:39 EDT 2019
User: cochatt
Spectrometer: HR+D1059
Trigger mode: 1
Integration Time (sec): 1.000000E-1
Scans to average: 1
Electric dark correction enabled: true
Nonlinearity correction enabled: false
Boxcar width: 0
XAxis mode: Wavelengths
Number of Pixels in Spectrum: 2048
>>>>>Begin Spectral Data<<<<<
223.165	-30.62
223.4	-30.62
223.635	-30.62
223.869	-15.62
224.104	-16.62
224.338	-12.62
224.573	-13.62
224.808	-23.62
225.042	8.38
225.277	-5.62
225.511	2.38
225.746	-14.62
225.98	12.38
226.215	10.38
226.449	25.38
226.683	27.38
226.918	22.38
227.152	24.38
227.387	22.38
227.621	29.38
227.856	46.38
228.09	53.38
228.324	45.38
228.559	58.38
228.793	61.38
229.027	69.38
229.262	71.38
229.496	80.38
229.73	85.38
229.964	86.38
230.199	84.38
230.433	81.38
230.667	89.38
230.901	109.38
231.136	104.38
231.37	98.38
231.604	95.38
231.838	92.38
232.072	99.38
232.306	110.38
232.541	104.38
232.775	114.38
233.009	104.38
233.243	112.38
233.477	104.38
233.711	106.38
233.945	104.38
234.179	112.38
234.413	113.38
234.647	107.38
234.881	120.38
235.115	110.38
235.349	111.38
235.583	99.38
235.817	107.38
236.051	115.38
236.285	107.38
236.519	90.38
236.753	101.38
236.987	115.38
237.221	110.38
237.455	93.38
237.689	112.38
237.922	95.38
238.156	106.38
238.39	113.38
238.624	110.38
238.858	112.38
239.091	116.38
239.325	107.38
239.559	97.38
239.793	105.38
240.027	108.38
240.26	113.38
240.494	118.38
240.728	108.38
240.961	111.38
241.195	123.38
241.429	114.38
241.662	119.38
241.896	118.38
242.13	123.38
242.363	130.38
242.597	118.38
242.83	110.38
243.064	114.38
243.298	120.38
243.531	134.38
243.765	126.38
243.998	116.38
244.232	120.38
244.465	122.38
244.699	127.38
244.932	116.38
245.166	140.38
245.399	130.38
245.633	123.38
245.866	144.38
246.099	126.38
246.333	125.38
246.566	123.38
246.8	120.38
247.033	120.38
247.266	129.38
247.5	134.38
247.733	121.38
247.966	126.38
248.2	135.38
248.433	129.38
248.666	122.38
248.899	128.38
249.133	154.38
249.366	134.38
249.599	135.38
249.832	120.38
250.066	138.38
250.299	146.38
250.532	154.38
250.765	133.38
250.998	121.38
251.231	132.38
251.465	135.38
251.698	135.38
251.931	139.38
252.164	138.38
252.397	141.38
252.63	164.38
252.863	150.38
253.096	147.38
253.329	136.38
253.562	147.38
253.795	145.38
254.028	148.38
254.261	148.38
254.494	151.38
254.727	147.38
254.96	143.38
255.193	129.38
255.426	158.38
255.659	154.38
255.892	142.38
256.124	148.38
256.357	153.38
256.59	166.38
256.823	147.38
257.056	165.38
257.289	163.38
257.521	161.38
257.754	176.38
257.987	153.38
258.22	170.38
258.452	153.38
258.685	148.38
258.918	154.38
259.151	163.38
259.383	174.38
259.616	176.38
259.849	176.38
260.081	168.38
260.314	171.38
260.547	174.38
260.779	171.38
261.012	150.38
261.244	171.38
261.477	176.38
261.71	164.38
261.942	180.38
262.175	172.38
262.407	192.38
262.64	174.38
262.872	159.38
263.105	166.38
263.337	188.38
263.57	181.38
263.802	185.38
264.035	178.38
264.267	172.38
264.499	174.38
264.732	180.38
264.964	192.38
265.197	180.38
265.429	176.38
265.661	178.38
265.894	190.38
266.126	173.38
266.358	164.38
266.591	190.38
266.823	170.38
267.055	172.38
267.287	185.38
267.52	186.38
267.752	205.38
267.984	185.38
268.216	194.38
268.448	180.38
268.681	172.38
268.913	208.38
269.145	191.38
269.377	199.38
269.609	191.38
269.841	184.38
270.073	193.38
270.306	181.38
270.538	183.38
270.77	184.38
271.002	193.38
271.234	194.38
271.466	186.38
271.698	196.38
271.93	198.38
272.162	199.38
272.394	209.38
272.626	186.38
272.858	196.38
273.09	199.38
273.322	190.38
273.553	200.38
273.785	204.38
274.017	214.38
274.249	200.38
274.481	203.38
274.713	194.38
274.945	203.38
275.176	219.38
275.408	210.38
275.64	196.38
275.872	210.38
276.104	197.38
276.335	210.38
276.567	201.38
276.799	202.38
277.031	190.38
277.262	199.38
277.494	206.38
277.726	216.38
277.957	204.38
278.189	227.38
278.421	222.38
278.652	227.38
278.884	228.38
279.115	211.38
279.347	212.38
279.579	220.38
279.81	228.38
280.042	211.38
280.273	226.38
280.505	206.38
280.736	209.38
280.968	224.38
281.199	242.38
281.431	215.38
281.662	235.38
281.894	234.38
282.125	222.38
282.356	222.38
282.588	211.38
282.819	219.38
283.051	229.38
283.282	212.38
283.513	235.38
283.745	233.38
283.976	214.38
284.207	236.38
284.439	218.38
284.67	218.38
284.901	243.38
285.132	222.38
285.364	226.38
285.595	220.38
285.826	219.38
286.057	246.38
286.288	232.38
286.52	236.38
286.751	236.38
286.982	260.38
287.213	238.38
287.444	238.38
287.675	234.38
287.906	242.38
288.138	260.38
288.369	269.38
288.6	239.38
288.831	235.38
289.062	242.38
289.293	254.38
289.524	240.38
289.755	243.38
289.986	254.38
290.217	239.38
290.448	250.38
290.679	267.38
290.91	243.38
291.141	243.38
291.371	241.38
291.602	250.38
291.833	264.38
292.064	242.38
292.295	239.38
292.526	232.38
292.757	252.38
292.987	246.38
293.218	244.38
293.449	247.38
293.68	248.38
293.91	271.38
294.141	268.38
294.372	268.38
294.603	235.38
294.833	262.38
295.064	245.38
295.295	259.38
295.525	255.38
295.756	259.38
295.987	256.38
296.217	293.38
296.448	248.38
296.679	248.38
296.909	254.38
297.14	244.38
297.37	268.38
297.601	264.38
297.831	262.38
298.062	267.38
298.292	251.38
298.523	268.38
298.753	274.38
298.984	267.38
299.214	255.38
299.445	279.38
299.675	267.38
299.905	278.38
300.136	264.38
300.366	291.38
300.597	278.38
300.827	277.38
301.057	282.38
301.288	290.38
301.518	282.38
301.748	288.38
301.979	295.38
302.209	299.38
302.439	281.38
302.669	292.38
302.9	278.38
303.13	264.38
303.36	256.38
303.59	294.38
303.82	274.38
304.051	293.38
304.281	283.38
304.511	282.38
304.741	284.38
304.971	294.38
305.201	289.38
305.431	278.38
305.661	290.38
305.891	270.38
306.121	279.38
306.352	288.38
306.582	276.38
306.812	295.38
307.042	288.38
307.272	294.38
307.502	292.38
307.731	284.38
307.961	272.38
308.191	304.38
308.421	259.38
308.651	282.38
308.881	284.38
309.111	277.38
309.341	269.38
309.571	278.38
309.8	279.38
310.03	263.38
310.26	291.38
310.49	287.38
310.72	288.38
310.949	278.38
311.179	262.38
311.409	287.38
311.639	292.38
311.868	289.38
312.098	283.38
312.328	285.38
312.557	283.38
312.787	290.38
313.017	309.38
313.246	304.38
313.476	285.38
313.706	308.38
313.935	290.38
314.165	316.38
314.394	279.38
314.624	306.38
314.853	298.38
315.083	289.38
315.312	292.38
315.542	290.38
315.771	271.38
316.001	307.38
316.23	295.38
316.46	282.38
316.689	281.38
316.919	296.38
317.148	310.38
317.377	286.38
317.607	316.38
317.836	318.38
318.065	298.38
318.295	307.38
318.524	293.38
318.753	286.38
318.983	287.38
319.212	292.38
319.441	295.38
319.67	305.38
319.9	292.38
320.129	299.38
320.358	297.38
320.587	294.38
320.816	306.38
321.046	302.38
321.275	299.38
321.504	329.38
321.733	286.38
321.962	289.38
322.191	329.38
322.42	299.38
322.649	306.38
322.878	306.38
323.108	293.38
323.337	307.38
323.566	312.38
323.795	314.38
324.024	292.38
324.253	315.38
324.482	296.38
324.71	302.38
324.939	299.38
325.168	308.38
325.397	314.38
325.626	299.38
325.855	323.38
326.084	324.38
326.313	322.38
326.542	327.38
326.77	335.38
326.999	338.38
327.228	337.38
327.457	328.38
327.686	334.38
327.914	324.38
328.143	334.38
328.372	320.38
328.6	328.38
328.829	316.38
329.058	318.38
329.287	328.38
329.515	335.38
329.744	314.38
329.972	344.38
330.201	359.38
330.43	325.38
330.658	324.38
330.887	338.38
331.115	331.38
331.344	331.38
331.572	347.38
331.801	339.38
332.03	348.38
332.258	359.38
332.486	351.38
332.715	390.38
332.943	387.38
333.172	402.38
333.4	416.38
333.629	416.38
333.857	427.38
334.085	428.38
334.314	431.38
334.542	409.38
334.771	411.38
334.999	383.38
335.227	401.38
335.455	403.38
335.684	402.38
335.912	395.38
336.14	396.38
336.369	391.38
336.597	380.38
336.825	387.38
337.053	378.38
337.281	377.38
337.51	366.38
337.738	371.38
337.966	371.38
338.194	354.38
338.422	367.38
338.65	348.38
338.878	343.38
339.106	354.38
339.334	342.38
339.562	363.38
339.79	344.38
340.018	346.38
340.246	343.38
340.474	345.38
340.702	361.38
340.93	354.38
341.158	354.38
341.386	346.38
341.614	343.38
341.842	364.38
342.07	331.38
342.298	334.38
342.526	352.38
342.754	337.38
342.981	350.38
343.209	332.38
343.437	341.38
343.665	363.38
343.893	400.38
344.12	400.38
344.348	387.38
344.576	388.38
344.804	389.38
345.031	358.38
345.259	354.38
345.487	362.38
345.714	334.38
345.942	335.38
346.17	334.38
346.397	354.38
346.625	344.38
346.853	343.38
347.08	328.38
347.308	343.38
347.535	337.38
347.763	345.38
347.99	345.38
348.218	336.38
348.445	345.38
348.673	339.38
348.9	338.38
349.128	336.38
349.355	319.38
349.583	328.38
349.81	338.38
350.037	317.38
350.265	341.38
350.492	335.38
350.72	340.38
350.947	314.38
351.174	327.38
351.402	327.38
351.629	309.38
351.856	322.38
352.083	325.38
352.311	330.38
352.538	328.38
352.765	333.38
352.992	334.38
353.22	332.38
353.447	309.38
353.674	352.38
353.901	316.38
354.128	338.38
354.355	348.38
354.583	322.38
354.81	343.38
355.037	337.38
355.264	338.38
355.491	310.38
355.718	330.38
355.945	323.38
356.172	334.38
356.399	326.38
356.626	336.38
356.853	318.38
357.08	330.38
357.307	330.38
357.534	333.38
357.761	338.38
357.988	302.38
358.215	320.38
358.441	338.38
358.668	341.38
358.895	336.38
359.122	323.38
359.349	336.38
359.576	330.38
359.802	327.38
360.029	352.38
360.256	319.38
360.483	318.38
360.709	327.38
360.936	338.38
361.163	339.38
361.39	332.38
361.616	300.38
361.843	347.38
362.07	312.38
362.296	324.38
362.523	340.38
362.749	345.38
362.976	342.38
363.203	311.38
363.429	319.38
363.656	331.38
363.882	353.38
364.109	329.38
364.335	329.38
364.562	330.38
364.788	336.38
365.015	324.38
365.241	332.38
365.468	353.38
365.694	322.38
365.92	326.38
366.147	353.38
366.373	324.38
366.599	346.38
366.826	332.38
367.052	338.38
367.278	330.38
367.505	353.38
367.731	328.38
367.957	343.38
368.184	322.38
368.41	345.38
368.636	334.38
368.862	355.38
369.089	331.38
369.315	347.38
369.541	338.38
369.767	345.38
369.993	339.38
370.219	352.38
370.445	348.38
370.672	354.38
370.898	351.38
371.124	356.38
371.35	363.38
371.576	364.38
371.802	354.38
372.028	360.38
372.254	371.38
372.48	340.38
372.706	375.38
372.932	366.38
373.158	370.38
373.384	387.38
373.61	355.38
373.835	366.38
374.061	352.38
374.287	372.38
374.513	374.38
374.739	375.38
374.965	376.38
375.191	423.38
375.416	400.38
375.642	399.38
375.868	382.38
376.094	380.38
376.319	361.38
376.545	364.38
376.771	358.38
376.997	378.38
377.222	362.38
377.448	374.38
377.674	371.38
377.899	386.38
378.125	370.38
378.35	362.38
378.576	360.38
378.802	355.38
379.027	350.38
379.253	358.38
379.478	359.38
379.704	361.38
379.929	359.38
380.155	358.38
380.38	367.38
380.606	360.38
380.831	374.38
381.057	378.38
381.282	373.38
381.507	337.38
381.733	370.38
381.958	372.38
382.184	393.38
382.409	375.38
382.634	388.38
382.86	396.38
383.085	392.38
383.31	386.38
383.535	415.38
383.761	395.38
383.986	389.38
384.211	392.38
384.436	422.38
384.662	434.38
384.887	434.38
385.112	432.38
385.337	411.38
385.562	419.38
385.787	423.38
386.013	449.38
386.238	448.38
386.463	447.38
386.688	414.38
386.913	415.38
387.138	436.38
387.363	429.38
387.588	424.38
387.813	420.38
388.038	400.38
388.263	434.38
388.488	428.38
388.713	440.38
388.938	451.38
389.163	426.38
389.387	443.38
389.612	408.38
389.837	425.38
390.062	410.38
390.287	441.38
390.512	442.38
390.736	405.38
390.961	452.38
391.186	445.38
391.411	455.38
391.636	454.38
391.86	467.38
392.085	479.38
392.31	464.38
392.534	468.38
392.759	466.38
392.984	456.38
393.208	460.38
393.433	466.38
393.658	463.38
393.882	443.38
394.107	431.38
394.331	467.38
394.556	465.38
394.78	453.38
395.005	460.38
395.229	449.38
395.454	479.38
395.678	463.38
395.903	478.38
396.127	476.38
396.352	457.38
396.576	468.38
396.801	463.38
397.025	462.38
397.249	496.38
397.474	482.38
397.698	504.38
397.922	492.38
398.147	494.38
398.371	491.38
398.595	521.38
398.82	539.38
399.044	574.38
399.268	594.38
399.492	692.38
399.717	747.38
399.941	734.38
400.165	683.38
400.389	619.38
400.613	580.38
400.837	577.38
401.062	542.38
401.286	542.38
401.51	555.38
401.734	550.38
401.958	545.38
402.182	536.38
402.406	534.38
402.63	549.38
402.854	549.38
403.078	574.38
403.302	560.38
403.526	598.38
403.75	591.38
403.974	604.38
404.198	593.38
404.422	596.38
404.645	595.38
404.869	600.38
405.093	582.38
405.317	568.38
405.541	578.38
405.765	582.38
405.988	587.38
406.212	569.38
406.436	591.38
406.66	594.38
406.883	585.38
407.107	626.38
407.331	666.38
407.555	684.38
407.778	666.38
408.002	660.38
408.226	650.38
408.449	644.38
408.673	620.38
408.896	597.38
409.12	611.38
409.344	580.38
409.567	608.38
409.791	609.38
410.014	609.38
410.238	599.38
410.461	580.38
410.685	602.38
410.908	593.38
411.132	585.38
411.355	544.38
411.578	560.38
411.802	565.38
412.025	585.38
412.249	560.38
412.472	565.38
412.695	565.38
412.919	543.38
413.142	565.38
413.365	553.38
413.589	558.38
413.812	566.38
414.035	539.38
414.258	548.38
414.482	567.38
414.705	546.38
414.928	554.38
415.151	548.38
415.374	542.38
415.597	550.38
415.821	548.38
416.044	542.38
416.267	542.38
416.49	546.38
416.713	533.38
416.936	518.38
417.159	534.38
417.382	530.38
417.605	512.38
417.828	556.38
418.051	520.38
418.274	524.38
418.497	545.38
418.72	552.38
418.943	560.38
419.166	558.38
419.389	617.38
419.611	596.38
419.834	575.38
420.057	568.38
420.28	541.38
420.503	542.38
420.726	530.38
420.948	539.38
421.171	519.38
421.394	537.38
421.617	551.38
421.839	536.38
422.062	565.38
422.285	528.38
422.507	537.38
422.73	554.38
422.953	531.38
423.175	571.38
423.398	564.38
423.621	534.38
423.843	572.38
424.066	567.38
424.288	571.38
424.511	568.38
424.733	539.38
424.956	551.38
425.178	552.38
425.401	541.38
425.623	516.38
425.846	524.38
426.068	524.38
426.291	551.38
426.513	522.38
426.735	534.38
426.958	503.38
427.18	499.38
427.402	489.38
427.625	510.38
427.847	483.38
428.069	483.38
428.292	478.38
428.514	483.38
428.736	482.38
428.958	475.38
429.181	482.38
429.403	471.38
429.625	488.38
429.847	472.38
430.069	481.38
430.292	491.38
430.514	483.38
430.736	479.38
430.958	471.38
431.18	487.38
431.402	499.38
431.624	489.38
431.846	508.38
432.068	503.38
432.29	534.38
432.512	504.38
432.734	515.38
432.956	491.38
433.178	487.38
433.4	488.38
433.622	509.38
433.844	498.38
434.066	509.38
434.287	502.38
434.509	532.38
434.731	558.38
434.953	529.38
435.175	532.38
435.397	532.38
435.618	513.38
435.84	540.38
436.062	516.38
436.284	502.38
436.505	491.38
436.727	498.38
436.949	479.38
437.17	510.38
437.392	503.38
437.614	485.38
437.835	476.38
438.057	479.38
438.278	489.38
438.5	479.38
438.721	467.38
438.943	487.38
439.165	479.38
439.386	497.38
439.608	498.38
439.829	519.38
440.05	498.38
440.272	491.38
440.493	510.38
440.715	509.38
440.936	506.38
441.158	531.38
441.379	531.38
441.6	562.38
441.822	548.38
442.043	568.38
442.264	549.38
442.486	518.38
442.707	533.38
442.928	565.38
443.149	528.38
443.371	564.38
443.592	526.38
443.813	559.38
444.034	543.38
444.255	558.38
444.476	577.38
444.698	630.38
444.919	613.38
445.14	700.38
445.361	619.38
445.582	547.38
445.803	534.38
446.024	528.38
446.245	495.38
446.466	529.38
446.687	534.38
446.908	507.38
447.129	520.38
447.35	499.38
447.571	474.38
447.792	506.38
448.013	482.38
448.234	482.38
448.455	479.38
448.675	452.38
448.896	498.38
449.117	465.38
449.338	470.38
449.559	483.38
449.779	459.38
450	463.38
450.221	502.38
450.442	464.38
450.662	484.38
450.883	473.38
451.104	468.38
451.324	462.38
451.545	465.38
451.766	476.38
451.986	460.38
452.207	459.38
452.428	465.38
452.648	448.38
452.869	427.38
453.089	451.38
453.31	440.38
453.53	441.38
453.751	435.38
453.971	447.38
454.192	446.38
454.412	424.38
454.633	430.38
454.853	449.38
455.073	427.38
455.294	436.38
455.514	449.38
455.734	432.38
455.955	431.38
456.175	447.38
456.395	402.38
456.616	434.38
456.836	433.38
457.056	406.38
457.276	419.38
457.497	423.38
457.717	423.38
457.937	434.38
458.157	455.38
458.377	458.38
458.598	466.38
458.818	448.38
459.038	450.38
459.258	475.38
459.478	494.38
459.698	506.38
459.918	527.38
460.138	546.38
460.358	548.38
460.578	557.38
460.798	555.38
461.018	565.38
461.238	576.38
461.458	560.38
461.678	570.38
461.898	583.38
462.118	558.38
462.338	609.38
462.558	627.38
462.777	654.38
462.997	663.38
463.217	713.38
463.437	727.38
463.657	675.38
463.876	657.38
464.096	641.38
464.316	635.38
464.536	634.38
464.755	651.38
464.975	596.38
465.195	576.38
465.414	539.38
465.634	523.38
465.854	511.38
466.073	484.38
466.293	478.38
466.512	476.38
466.732	474.38
466.951	477.38
467.171	478.38
467.391	490.38
467.61	490.38
467.829	468.38
468.049	491.38
468.268	460.38
468.488	451.38
468.707	468.38
468.927	445.38
469.146	464.38
469.365	464.38
469.585	479.38
469.804	451.38
470.023	487.38
470.243	494.38
470.462	499.38
470.681	499.38
470.901	469.38
471.12	494.38
471.339	470.38
471.558	481.38
471.777	470.38
471.997	458.38
472.216	446.38
472.435	442.38
472.654	436.38
472.873	452.38
473.092	426.38
473.311	476.38
473.53	454.38
473.749	443.38
473.968	455.38
474.187	461.38
474.406	431.38
474.625	458.38
474.844	451.38
475.063	450.38
475.282	440.38
475.501	459.38
475.72	453.38
475.939	440.38
476.158	455.38
476.377	458.38
476.596	479.38
476.814	478.38
477.033	477.38
477.252	473.38
477.471	474.38
477.69	486.38
477.908	494.38
478.127	501.38
478.346	513.38
478.564	525.38
478.783	535.38
479.002	566.38
479.22	556.38
479.439	547.38
479.658	532.38
479.876	552.38
480.095	554.38
480.313	550.38
480.532	577.38
480.751	565.38
480.969	519.38
481.188	543.38
481.406	528.38
481.624	503.38
481.843	495.38
482.061	515.38
482.28	501.38
482.498	512.38
482.717	509.38
482.935	518.38
483.153	483.38
483.372	492.38
483.59	532.38
483.808	489.38
484.027	490.38
484.245	501.38
484.463	525.38
484.681	530.38
484.9	488.38
485.118	514.38
485.336	491.38
485.554	535.38
485.772	532.38
485.99	499.38
486.209	499.38
486.427	530.38
486.645	522.38
486.863	531.38
487.081	528.38
487.299	514.38
487.517	492.38
487.735	528.38
487.953	525.38
488.171	512.38
488.389	518.38
488.607	516.38
488.825	507.38
489.043	501.38
489.261	500.38
489.479	520.38
489.696	539.38
489.914	522.38
490.132	526.38
490.35	542.38
490.568	511.38
490.786	513.38
491.003	538.38
491.221	516.38
491.439	532.38
491.657	526.38
491.874	540.38
492.092	526.38
492.31	553.38
492.527	549.38
492.745	535.38
492.963	536.38
493.18	540.38
493.398	547.38
493.615	542.38
493.833	524.38
494.05	572.38
494.268	553.38
494.485	550.38
494.703	546.38
494.92	546.38
495.138	550.38
495.355	563.38
495.573	555.38
495.79	569.38
496.008	573.38
496.225	559.38
496.442	571.38
496.66	561.38
496.877	600.38
497.094	592.38
497.312	590.38
497.529	626.38
497.746	629.38
497.963	638.38
498.181	653.38
498.398	657.38
498.615	710.38
498.832	744.38
499.049	809.38
499.267	859.38
499.484	959.38
499.701	1020.38
499.918	1131.38
500.135	1251.38
500.352	1378.38
500.569	1434.38
500.786	1400.38
501.003	1314.38
501.22	1204.38
501.437	1100.38
501.654	966.38
501.871	890.38
502.088	806.38
502.305	773.38
502.522	750.38
502.739	711.38
502.956	679.38
503.172	673.38
503.389	652.38
503.606	638.38
503.823	627.38
504.04	641.38
504.256	637.38
504.473	631.38
504.69	660.38
504.907	653.38
505.123	613.38
505.34	571.38
505.557	578.38
505.773	550.38
505.99	542.38
506.207	533.38
506.423	508.38
506.64	487.38
506.856	497.38
507.073	502.38
507.289	515.38
507.506	510.38
507.722	491.38
507.939	494.38
508.155	466.38
508.372	477.38
508.588	449.38
508.805	439.38
509.021	457.38
509.238	457.38
509.454	448.38
509.67	463.38
509.887	442.38
510.103	466.38
510.319	468.38
510.536	441.38
510.752	464.38
510.968	460.38
511.184	434.38
511.401	447.38
511.617	443.38
511.833	458.38
512.049	429.38
512.265	439.38
512.481	428.38
512.698	441.38
512.914	432.38
513.13	450.38
513.346	445.38
513.562	462.38
513.778	444.38
513.994	453.38
514.21	434.38
514.426	455.38
514.642	457.38
514.858	468.38
515.074	470.38
515.29	472.38
515.506	446.38
515.721	470.38
515.937	470.38
516.153	485.38
516.369	504.38
516.585	516.38
516.801	501.38
517.016	531.38
517.232	552.38
517.448	578.38
517.664	579.38
517.879	627.38
518.095	590.38
518.311	564.38
518.527	551.38
518.742	539.38
518.958	522.38
519.173	505.38
519.389	482.38
519.605	498.38
519.82	470.38
520.036	479.38
520.251	458.38
520.467	451.38
520.682	454.38
520.898	446.38
521.113	454.38
521.329	446.38
521.544	436.38
521.76	420.38
521.975	441.38
522.19	432.38
522.406	420.38
522.621	418.38
522.836	432.38
523.052	419.38
523.267	418.38
523.482	418.38
523.698	417.38
523.913	406.38
524.128	394.38
524.343	418.38
524.559	406.38
524.774	416.38
524.989	421.38
525.204	394.38
525.419	413.38
525.634	410.38
525.849	406.38
526.064	396.38
526.28	413.38
526.495	420.38
526.71	406.38
526.925	404.38
527.14	412.38
527.355	409.38
527.57	423.38
527.785	424.38
527.999	414.38
528.214	412.38
528.429	425.38
528.644	414.38
528.859	407.38
529.074	432.38
529.289	408.38
529.503	400.38
529.718	423.38
529.933	410.38
530.148	392.38
530.363	423.38
530.577	398.38
530.792	402.38
531.007	385.38
531.221	386.38
531.436	446.38
531.651	424.38
531.865	404.38
532.08	422.38
532.295	407.38
532.509	409.38
532.724	401.38
532.938	417.38
533.153	414.38
533.367	408.38
533.582	418.38
533.796	402.38
534.011	397.38
534.225	403.38
534.44	411.38
534.654	397.38
534.868	400.38
535.083	396.38
535.297	406.38
535.511	396.38
535.726	408.38
535.94	402.38
536.154	392.38
536.369	386.38
536.583	366.38
536.797	380.38
537.011	382.38
537.225	362.38
537.44	380.38
537.654	372.38
537.868	383.38
538.082	365.38
538.296	376.38
538.51	372.38
538.724	372.38
538.938	360.38
539.153	364.38
539.367	383.38
539.581	389.38
539.795	387.38
540.009	369.38
540.222	380.38
540.436	367.38
540.65	360.38
540.864	378.38
541.078	380.38
541.292	355.38
541.506	378.38
541.72	368.38
541.934	374.38
542.147	382.38
542.361	361.38
542.575	386.38
542.789	362.38
543.002	358.38
543.216	381.38
543.43	354.38
543.644	370.38
543.857	377.38
544.071	378.38
544.285	353.38
544.498	380.38
544.712	388.38
544.925	377.38
545.139	392.38
545.352	366.38
545.566	384.38
545.779	385.38
545.993	373.38
546.206	378.38
546.42	362.38
546.633	376.38
546.847	388.38
547.06	367.38
547.274	398.38
547.487	370.38
547.7	373.38
547.914	395.38
548.127	382.38
548.34	402.38
548.554	391.38
548.767	361.38
548.98	384.38
549.193	378.38
549.407	378.38
549.62	379.38
549.833	399.38
550.046	374.38
550.259	399.38
550.473	371.38
550.686	360.38
550.899	360.38
551.112	359.38
551.325	361.38
551.538	370.38
551.751	359.38
551.964	358.38
552.177	371.38
552.39	394.38
552.603	397.38
552.816	405.38
553.029	412.38
553.242	403.38
553.455	401.38
553.667	401.38
553.88	387.38
554.093	392.38
554.306	383.38
554.519	375.38
554.732	368.38
554.944	388.38
555.157	373.38
555.37	353.38
555.583	363.38
555.795	353.38
556.008	330.38
556.221	342.38
556.433	341.38
556.646	341.38
556.859	335.38
557.071	336.38
557.284	361.38
557.496	323.38
557.709	322.38
557.921	327.38
558.134	334.38
558.346	315.38
558.559	332.38
558.771	335.38
558.984	344.38
559.196	339.38
559.409	329.38
559.621	295.38
559.833	315.38
560.046	313.38
560.258	306.38
560.47	309.38
560.683	320.38
560.895	316.38
561.107	341.38
561.32	332.38
561.532	334.38
561.744	316.38
561.956	334.38
562.168	336.38
562.381	332.38
562.593	310.38
562.805	318.38
563.017	317.38
563.229	315.38
563.441	317.38
563.653	330.38
563.865	332.38
564.077	322.38
564.289	322.38
564.501	343.38
564.713	338.38
564.925	362.38
565.137	362.38
565.349	368.38
565.561	372.38
565.773	378.38
565.985	378.38
566.197	403.38
566.408	435.38
566.62	443.38
566.832	467.38
567.044	475.38
567.255	491.38
567.467	494.38
567.679	537.38
567.891	555.38
568.102	569.38
568.314	528.38
568.526	466.38
568.737	422.38
568.949	416.38
569.161	400.38
569.372	368.38
569.584	364.38
569.795	361.38
570.007	334.38
570.218	351.38
570.43	332.38
570.641	352.38
570.853	303.38
571.064	324.38
571.276	334.38
571.487	314.38
571.698	323.38
571.91	303.38
572.121	304.38
572.333	305.38
572.544	294.38
572.755	284.38
572.966	267.38
573.178	275.38
573.389	265.38
573.6	284.38
573.811	260.38
574.023	278.38
574.234	291.38
574.445	280.38
574.656	272.38
574.867	271.38
575.078	263.38
575.289	277.38
575.501	267.38
575.712	260.38
575.923	257.38
576.134	265.38
576.345	255.38
576.556	269.38
576.767	255.38
576.978	276.38
577.188	261.38
577.399	242.38
577.61	246.38
577.821	255.38
578.032	252.38
578.243	244.38
578.454	240.38
578.665	240.38
578.875	240.38
579.086	255.38
579.297	256.38
579.508	249.38
579.718	258.38
579.929	230.38
580.14	251.38
580.35	246.38
580.561	256.38
580.772	260.38
580.982	243.38
581.193	233.38
581.403	224.38
581.614	243.38
581.825	242.38
582.035	231.38
582.246	231.38
582.456	234.38
582.667	250.38
582.877	232.38
583.087	230.38
583.298	223.38
583.508	237.38
583.719	223.38
583.929	242.38
584.139	238.38
584.35	220.38
584.56	231.38
584.77	224.38
584.981	227.38
585.191	233.38
585.401	223.38
585.611	242.38
585.821	224.38
586.032	236.38
586.242	251.38
586.452	226.38
586.662	225.38
586.872	209.38
587.082	233.38
587.292	230.38
587.502	231.38
587.713	227.38
587.923	224.38
588.133	235.38
588.343	226.38
588.553	215.38
588.762	214.38
588.972	227.38
589.182	233.38
589.392	228.38
589.602	222.38
589.812	220.38
590.022	242.38
590.232	239.38
590.441	227.38
590.651	224.38
590.861	226.38
591.071	228.38
591.281	228.38
591.49	233.38
591.7	242.38
591.91	244.38
592.119	236.38
592.329	229.38
592.539	252.38
592.748	236.38
592.958	261.38
593.167	240.38
593.377	272.38
593.587	287.38
593.796	241.38
594.006	277.38
594.215	267.38
594.424	257.38
594.634	254.38
594.843	255.38
595.053	248.38
595.262	258.38
595.472	235.38
595.681	210.38
595.89	208.38
596.1	239.38
596.309	229.38
596.518	233.38
596.727	223.38
596.937	210.38
597.146	226.38
597.355	205.38
597.564	208.38
597.774	208.38
597.983	202.38
598.192	204.38
598.401	200.38
598.61	203.38
598.819	197.38
599.028	197.38
599.237	194.38
599.446	182.38
599.655	216.38
599.864	203.38
600.073	179.38
600.282	201.38
600.491	208.38
600.7	194.38
600.909	203.38
601.118	211.38
601.327	196.38
601.536	202.38
601.745	204.38
601.953	215.38
602.162	183.38
602.371	203.38
602.58	200.38
602.789	195.38
602.997	196.38
603.206	196.38
603.415	184.38
603.623	203.38
603.832	184.38
604.041	186.38
604.249	186.38
604.458	188.38
604.666	196.38
604.875	198.38
605.084	185.38
605.292	181.38
605.501	182.38
605.709	190.38
605.918	190.38
606.126	189.38
606.334	188.38
606.543	190.38
606.751	187.38
606.96	185.38
607.168	187.38
607.376	200.38
607.585	185.38
607.793	165.38
608.001	176.38
608.21	175.38
608.418	176.38
608.626	183.38
608.834	185.38
609.043	174.38
609.251	184.38
609.459	195.38
609.667	184.38
609.875	189.38
610.083	187.38
610.291	184.38
610.499	182.38
610.707	179.38
610.916	189.38
611.124	185.38
611.332	172.38
611.54	199.38
611.748	188.38
611.955	176.38
612.163	179.38
612.371	187.38
612.579	169.38
612.787	168.38
612.995	172.38
613.203	193.38
613.411	169.38
613.618	193.38
613.826	189.38
614.034	177.38
614.242	197.38
614.449	183.38
614.657	182.38
614.865	178.38
615.072	180.38
615.28	177.38
615.488	188.38
615.695	162.38
615.903	169.38
616.111	169.38
616.318	189.38
616.526	177.38
616.733	188.38
616.941	191.38
617.148	186.38
617.356	166.38
617.563	171.38
617.771	175.38
617.978	181.38
618.185	179.38
618.393	182.38
618.6	172.38
618.807	176.38
619.015	170.38
619.222	179.38
619.429	164.38
619.637	172.38
619.844	168.38
620.051	175.38
620.258	180.38
620.466	167.38
620.673	176.38
620.88	174.38
621.087	167.38
621.294	158.38
621.501	174.38
621.708	174.38
621.915	158.38
622.122	164.38
622.329	164.38
622.536	160.38
622.743	158.38
622.95	165.38
623.157	177.38
623.364	150.38
623.571	154.38
623.778	175.38
623.985	171.38
624.192	160.38
624.399	158.38
624.606	166.38
624.812	151.38
625.019	168.38
625.226	178.38
625.433	164.38
625.639	176.38
625.846	171.38
626.053	162.38
626.259	169.38
626.466	170.38
626.673	164.38
626.879	143.38
627.086	153.38
627.293	157.38
627.499	154.38
627.706	158.38
627.912	159.38
628.119	152.38
628.325	168.38
628.532	141.38
628.738	147.38
628.945	138.38
629.151	157.38
629.357	158.38
629.564	155.38
629.77	154.38
629.976	142.38
630.183	150.38
630.389	141.38
630.595	138.38
630.802	164.38
631.008	141.38
631.214	155.38
631.42	140.38
631.627	146.38
631.833	138.38
632.039	129.38
632.245	131.38
632.451	154.38
632.657	148.38
632.863	132.38
633.069	139.38
633.275	156.38
633.481	141.38
633.688	139.38
633.893	153.38
634.099	145.38
634.305	157.38
634.511	164.38
634.717	151.38
634.923	144.38
635.129	127.38
635.335	137.38
635.541	131.38
635.747	145.38
635.952	143.38
636.158	136.38
636.364	134.38
636.57	143.38
636.775	144.38
636.981	141.38
637.187	140.38
637.392	144.38
637.598	136.38
637.804	146.38
638.009	140.38
638.215	139.38
638.421	156.38
638.626	117.38
638.832	138.38
639.037	145.38
639.243	140.38
639.448	147.38
639.654	140.38
639.859	131.38
640.065	134.38
640.27	140.38
640.475	139.38
640.681	130.38
640.886	135.38
641.091	127.38
641.297	133.38
641.502	124.38
641.707	140.38
641.913	141.38
642.118	135.38
642.323	131.38
642.528	131.38
642.733	124.38
642.939	130.38
643.144	132.38
643.349	141.38
643.554	140.38
643.759	124.38
643.964	124.38
644.169	129.38
644.374	130.38
644.579	138.38
644.784	152.38
644.989	144.38
645.194	128.38
645.399	138.38
645.604	131.38
645.809	136.38
646.014	143.38
646.219	140.38
646.423	122.38
646.628	120.38
646.833	136.38
647.038	155.38
647.243	153.38
647.447	136.38
647.652	119.38
647.857	131.38
648.062	144.38
648.266	126.38
648.471	117.38
648.676	143.38
648.88	122.38
649.085	140.38
649.289	142.38
649.494	138.38
649.698	132.38
649.903	120.38
650.107	134.38
650.312	134.38
650.516	137.38
650.721	132.38
650.925	131.38
651.13	142.38
651.334	120.38
651.539	104.38
651.743	121.38
651.947	128.38
652.152	128.38
652.356	131.38
652.56	126.38
652.764	116.38
652.969	118.38
653.173	117.38
653.377	114.38
653.581	118.38
653.785	121.38
653.99	103.38
654.194	124.38
654.398	114.38
654.602	121.38
654.806	118.38
655.01	114.38
655.214	116.38
655.418	113.38
655.622	123.38
655.826	107.38
656.03	119.38
656.234	118.38
656.438	116.38
656.642	104.38
656.846	115.38
657.049	98.38
657.253	120.38
657.457	117.38
657.661	99.38
657.865	103.38
658.068	123.38
658.272	103.38
658.476	95.38
658.68	96.38
658.883	109.38
659.087	78.38
659.291	82.38
659.494	98.38
659.698	94.38
659.901	85.38
660.105	91.38
660.309	82.38
660.512	87.38
660.716	101.38
660.919	92.38
661.123	100.38
661.326	97.38
661.53	82.38
661.733	83.38
661.936	85.38
662.14	83.38
662.343	86.38
662.546	72.38
662.75	85.38
662.953	91.38
663.156	97.38
663.36	83.38
663.563	85.38
663.766	79.38
663.969	75.38
664.173	83.38
664.376	69.38
664.579	70.38
664.782	82.38
664.985	91.38
665.188	80.38
665.391	92.38
665.594	88.38
665.797	74.38
666	75.38
666.203	66.38
666.406	63.38
666.609	74.38
666.812	84.38
667.015	79.38
667.218	92.38
667.421	79.38
667.624	82.38
667.827	74.38
668.03	92.38
668.232	75.38
668.435	64.38
668.638	76.38
668.841	74.38
669.043	75.38
669.246	65.38
669.449	75.38
669.651	83.38
669.854	84.38
670.057	73.38
670.259	73.38
670.462	70.38
670.665	75.38
670.867	67.38
671.07	79.38
671.272	77.38
671.475	81.38
671.677	79.38
671.88	72.38
672.082	86.38
672.284	78.38
672.487	70.38
672.689	80.38
672.892	71.38
