Data from Fe(NO3)3@0.1M.TitratingCurve.Agarose3%dH2O.NegLispCup.LampEnergy10.LIBS07252019_HRD10591_16-39-56-332.txt Node
Date: Thu Jul 25 16:39:56 EDT 2019
User: cochatt
Spectrometer: HR+D1059
Trigger mode: 1
Integration Time (sec): 1.000000E-1
Scans to average: 1
Electric dark correction enabled: true
Nonlinearity correction enabled: false
Boxcar width: 0
XAxis mode: Wavelengths
Number of Pixels in Spectrum: 2048
>>>>>Begin Spectral Data<<<<<
223.165	-8.25
223.4	-8.25
223.635	-8.25
223.869	-24.25
224.104	-25.25
224.338	-10.25
224.573	-34.25
224.808	-8.25
225.042	-9.25
225.277	-2.25
225.511	9.75
225.746	7.75
225.98	7.75
226.215	16.75
226.449	28.75
226.683	8.75
226.918	14.75
227.152	27.75
227.387	28.75
227.621	49.75
227.856	36.75
228.09	56.75
228.324	45.75
228.559	58.75
228.793	62.75
229.027	88.75
229.262	76.75
229.496	66.75
229.73	84.75
229.964	82.75
230.199	73.75
230.433	86.75
230.667	82.75
230.901	88.75
231.136	92.75
231.37	97.75
231.604	91.75
231.838	86.75
232.072	109.75
232.306	107.75
232.541	110.75
232.775	102.75
233.009	101.75
233.243	108.75
233.477	106.75
233.711	98.75
233.945	101.75
234.179	97.75
234.413	104.75
234.647	105.75
234.881	106.75
235.115	99.75
235.349	104.75
235.583	103.75
235.817	94.75
236.051	114.75
236.285	113.75
236.519	112.75
236.753	97.75
236.987	106.75
237.221	99.75
237.455	99.75
237.689	113.75
237.922	110.75
238.156	106.75
238.39	97.75
238.624	100.75
238.858	100.75
239.091	122.75
239.325	104.75
239.559	112.75
239.793	113.75
240.027	116.75
240.26	107.75
240.494	106.75
240.728	98.75
240.961	116.75
241.195	101.75
241.429	112.75
241.662	103.75
241.896	106.75
242.13	119.75
242.363	114.75
242.597	119.75
242.83	138.75
243.064	107.75
243.298	123.75
243.531	123.75
243.765	119.75
243.998	118.75
244.232	107.75
244.465	118.75
244.699	130.75
244.932	126.75
245.166	134.75
245.399	114.75
245.633	122.75
245.866	109.75
246.099	115.75
246.333	124.75
246.566	118.75
246.8	121.75
247.033	130.75
247.266	137.75
247.5	125.75
247.733	121.75
247.966	124.75
248.2	123.75
248.433	115.75
248.666	129.75
248.899	130.75
249.133	136.75
249.366	133.75
249.599	120.75
249.832	126.75
250.066	143.75
250.299	136.75
250.532	135.75
250.765	137.75
250.998	145.75
251.231	130.75
251.465	140.75
251.698	144.75
251.931	155.75
252.164	137.75
252.397	159.75
252.63	148.75
252.863	138.75
253.096	136.75
253.329	156.75
253.562	134.75
253.795	134.75
254.028	157.75
254.261	147.75
254.494	140.75
254.727	123.75
254.96	135.75
255.193	118.75
255.426	142.75
255.659	149.75
255.892	148.75
256.124	144.75
256.357	144.75
256.59	149.75
256.823	137.75
257.056	153.75
257.289	148.75
257.521	153.75
257.754	163.75
257.987	162.75
258.22	151.75
258.452	159.75
258.685	162.75
258.918	148.75
259.151	169.75
259.383	156.75
259.616	163.75
259.849	136.75
260.081	156.75
260.314	165.75
260.547	154.75
260.779	154.75
261.012	150.75
261.244	158.75
261.477	167.75
261.71	158.75
261.942	170.75
262.175	171.75
262.407	158.75
262.64	162.75
262.872	173.75
263.105	163.75
263.337	156.75
263.57	171.75
263.802	145.75
264.035	163.75
264.267	187.75
264.499	164.75
264.732	170.75
264.964	160.75
265.197	162.75
265.429	168.75
265.661	170.75
265.894	161.75
266.126	167.75
266.358	169.75
266.591	180.75
266.823	152.75
267.055	166.75
267.287	164.75
267.52	170.75
267.752	171.75
267.984	176.75
268.216	172.75
268.448	166.75
268.681	176.75
268.913	180.75
269.145	177.75
269.377	170.75
269.609	190.75
269.841	179.75
270.073	183.75
270.306	189.75
270.538	180.75
270.77	167.75
271.002	182.75
271.234	178.75
271.466	173.75
271.698	166.75
271.93	188.75
272.162	175.75
272.394	173.75
272.626	185.75
272.858	181.75
273.09	175.75
273.322	178.75
273.553	189.75
273.785	203.75
274.017	184.75
274.249	179.75
274.481	180.75
274.713	177.75
274.945	202.75
275.176	192.75
275.408	188.75
275.64	193.75
275.872	192.75
276.104	199.75
276.335	193.75
276.567	188.75
276.799	203.75
277.031	204.75
277.262	186.75
277.494	189.75
277.726	196.75
277.957	208.75
278.189	176.75
278.421	210.75
278.652	200.75
278.884	200.75
279.115	204.75
279.347	195.75
279.579	189.75
279.81	198.75
280.042	210.75
280.273	194.75
280.505	192.75
280.736	198.75
280.968	210.75
281.199	196.75
281.431	208.75
281.662	196.75
281.894	206.75
282.125	192.75
282.356	216.75
282.588	212.75
282.819	211.75
283.051	198.75
283.282	208.75
283.513	208.75
283.745	212.75
283.976	212.75
284.207	206.75
284.439	217.75
284.67	220.75
284.901	201.75
285.132	196.75
285.364	224.75
285.595	215.75
285.826	193.75
286.057	213.75
286.288	225.75
286.52	222.75
286.751	215.75
286.982	218.75
287.213	216.75
287.444	219.75
287.675	212.75
287.906	234.75
288.138	215.75
288.369	196.75
288.6	218.75
288.831	225.75
289.062	229.75
289.293	224.75
289.524	204.75
289.755	201.75
289.986	210.75
290.217	230.75
290.448	230.75
290.679	227.75
290.91	243.75
291.141	236.75
291.371	232.75
291.602	244.75
291.833	219.75
292.064	225.75
292.295	229.75
292.526	214.75
292.757	232.75
292.987	227.75
293.218	232.75
293.449	218.75
293.68	233.75
293.91	225.75
294.141	222.75
294.372	242.75
294.603	232.75
294.833	235.75
295.064	240.75
295.295	238.75
295.525	228.75
295.756	219.75
295.987	236.75
296.217	230.75
296.448	238.75
296.679	240.75
296.909	240.75
297.14	241.75
297.37	249.75
297.601	231.75
297.831	240.75
298.062	248.75
298.292	245.75
298.523	248.75
298.753	270.75
298.984	250.75
299.214	251.75
299.445	256.75
299.675	262.75
299.905	259.75
300.136	266.75
300.366	238.75
300.597	252.75
300.827	265.75
301.057	249.75
301.288	235.75
301.518	266.75
301.748	254.75
301.979	283.75
302.209	269.75
302.439	254.75
302.669	243.75
302.9	261.75
303.13	245.75
303.36	252.75
303.59	269.75
303.82	251.75
304.051	252.75
304.281	261.75
304.511	265.75
304.741	266.75
304.971	246.75
305.201	266.75
305.431	250.75
305.661	268.75
305.891	282.75
306.121	251.75
306.352	250.75
306.582	244.75
306.812	260.75
307.042	258.75
307.272	262.75
307.502	256.75
307.731	273.75
307.961	248.75
308.191	272.75
308.421	260.75
308.651	267.75
308.881	265.75
309.111	246.75
309.341	246.75
309.571	259.75
309.8	268.75
310.03	262.75
310.26	244.75
310.49	247.75
310.72	264.75
310.949	263.75
311.179	258.75
311.409	250.75
311.639	237.75
311.868	263.75
312.098	257.75
312.328	278.75
312.557	280.75
312.787	256.75
313.017	275.75
313.246	267.75
313.476	282.75
313.706	286.75
313.935	288.75
314.165	274.75
314.394	262.75
314.624	277.75
314.853	271.75
315.083	278.75
315.312	266.75
315.542	279.75
315.771	256.75
316.001	273.75
316.23	274.75
316.46	276.75
316.689	288.75
316.919	277.75
317.148	278.75
317.377	265.75
317.607	282.75
317.836	262.75
318.065	278.75
318.295	275.75
318.524	283.75
318.753	252.75
318.983	273.75
319.212	276.75
319.441	285.75
319.67	280.75
319.9	299.75
320.129	280.75
320.358	280.75
320.587	260.75
320.816	281.75
321.046	280.75
321.275	276.75
321.504	304.75
321.733	266.75
321.962	269.75
322.191	269.75
322.42	287.75
322.649	288.75
322.878	295.75
323.108	280.75
323.337	295.75
323.566	275.75
323.795	270.75
324.024	282.75
324.253	278.75
324.482	274.75
324.71	294.75
324.939	296.75
325.168	298.75
325.397	308.75
325.626	300.75
325.855	269.75
326.084	288.75
326.313	298.75
326.542	296.75
326.77	301.75
326.999	288.75
327.228	298.75
327.457	285.75
327.686	286.75
327.914	286.75
328.143	285.75
328.372	279.75
328.6	310.75
328.829	304.75
329.058	296.75
329.287	285.75
329.515	296.75
329.744	307.75
329.972	296.75
330.201	324.75
330.43	304.75
330.658	316.75
330.887	304.75
331.115	316.75
331.344	317.75
331.572	315.75
331.801	311.75
332.03	330.75
332.258	328.75
332.486	326.75
332.715	363.75
332.943	355.75
333.172	358.75
333.4	364.75
333.629	368.75
333.857	372.75
334.085	381.75
334.314	387.75
334.542	368.75
334.771	362.75
334.999	356.75
335.227	336.75
335.455	361.75
335.684	352.75
335.912	338.75
336.14	378.75
336.369	344.75
336.597	354.75
336.825	356.75
337.053	346.75
337.281	358.75
337.51	345.75
337.738	334.75
337.966	325.75
338.194	326.75
338.422	313.75
338.65	336.75
338.878	327.75
339.106	342.75
339.334	319.75
339.562	320.75
339.79	331.75
340.018	338.75
340.246	309.75
340.474	313.75
340.702	299.75
340.93	332.75
341.158	329.75
341.386	312.75
341.614	321.75
341.842	304.75
342.07	306.75
342.298	311.75
342.526	306.75
342.754	317.75
342.981	304.75
343.209	324.75
343.437	343.75
343.665	336.75
343.893	336.75
344.12	354.75
344.348	355.75
344.576	354.75
344.804	313.75
345.031	325.75
345.259	313.75
345.487	326.75
345.714	332.75
345.942	318.75
346.17	322.75
346.397	301.75
346.625	308.75
346.853	308.75
347.08	314.75
347.308	317.75
347.535	312.75
347.763	328.75
347.99	318.75
348.218	322.75
348.445	294.75
348.673	293.75
348.9	297.75
349.128	283.75
349.355	316.75
349.583	295.75
349.81	308.75
350.037	298.75
350.265	277.75
350.492	293.75
350.72	321.75
350.947	293.75
351.174	286.75
351.402	294.75
351.629	287.75
351.856	277.75
352.083	299.75
352.311	298.75
352.538	282.75
352.765	308.75
352.992	310.75
353.22	293.75
353.447	296.75
353.674	293.75
353.901	294.75
354.128	296.75
354.355	299.75
354.583	300.75
354.81	298.75
355.037	307.75
355.264	290.75
355.491	295.75
355.718	306.75
355.945	299.75
356.172	293.75
356.399	294.75
356.626	297.75
356.853	321.75
357.08	293.75
357.307	294.75
357.534	317.75
357.761	301.75
357.988	300.75
358.215	321.75
358.441	301.75
358.668	298.75
358.895	305.75
359.122	308.75
359.349	304.75
359.576	299.75
359.802	293.75
360.029	299.75
360.256	300.75
360.483	279.75
360.709	288.75
360.936	292.75
361.163	313.75
361.39	299.75
361.616	295.75
361.843	313.75
362.07	315.75
362.296	312.75
362.523	293.75
362.749	306.75
362.976	299.75
363.203	288.75
363.429	304.75
363.656	313.75
363.882	295.75
364.109	286.75
364.335	313.75
364.562	284.75
364.788	306.75
365.015	296.75
365.241	310.75
365.468	296.75
365.694	312.75
365.92	289.75
366.147	304.75
366.373	284.75
366.599	307.75
366.826	317.75
367.052	296.75
367.278	300.75
367.505	300.75
367.731	315.75
367.957	311.75
368.184	309.75
368.41	293.75
368.636	320.75
368.862	333.75
369.089	311.75
369.315	310.75
369.541	325.75
369.767	305.75
369.993	320.75
370.219	307.75
370.445	323.75
370.672	345.75
370.898	328.75
371.124	338.75
371.35	335.75
371.576	323.75
371.802	324.75
372.028	335.75
372.254	339.75
372.48	347.75
372.706	348.75
372.932	340.75
373.158	344.75
373.384	342.75
373.61	310.75
373.835	329.75
374.061	328.75
374.287	337.75
374.513	336.75
374.739	339.75
374.965	355.75
375.191	365.75
375.416	371.75
375.642	331.75
375.868	348.75
376.094	336.75
376.319	350.75
376.545	341.75
376.771	326.75
376.997	341.75
377.222	341.75
377.448	331.75
377.674	315.75
377.899	318.75
378.125	335.75
378.35	318.75
378.576	314.75
378.802	316.75
379.027	334.75
379.253	330.75
379.478	317.75
379.704	317.75
379.929	344.75
380.155	332.75
380.38	337.75
380.606	341.75
380.831	325.75
381.057	340.75
381.282	314.75
381.507	329.75
381.733	337.75
381.958	339.75
382.184	349.75
382.409	352.75
382.634	355.75
382.86	362.75
383.085	357.75
383.31	344.75
383.535	354.75
383.761	357.75
383.986	388.75
384.211	364.75
384.436	380.75
384.662	392.75
384.887	382.75
385.112	381.75
385.337	390.75
385.562	393.75
385.787	380.75
386.013	394.75
386.238	397.75
386.463	404.75
386.688	398.75
386.913	378.75
387.138	374.75
387.363	375.75
387.588	390.75
387.813	372.75
388.038	382.75
388.263	397.75
388.488	390.75
388.713	382.75
388.938	380.75
389.163	389.75
389.387	408.75
389.612	373.75
389.837	391.75
390.062	401.75
390.287	384.75
390.512	371.75
390.736	392.75
390.961	397.75
391.186	390.75
391.411	393.75
391.636	411.75
391.86	444.75
392.085	412.75
392.31	432.75
392.534	412.75
392.759	407.75
392.984	402.75
393.208	423.75
393.433	406.75
393.658	413.75
393.882	438.75
394.107	441.75
394.331	420.75
394.556	388.75
394.78	412.75
395.005	413.75
395.229	415.75
395.454	430.75
395.678	448.75
395.903	456.75
396.127	433.75
396.352	418.75
396.576	432.75
396.801	424.75
397.025	403.75
397.249	445.75
397.474	443.75
397.698	445.75
397.922	436.75
398.147	434.75
398.371	458.75
398.595	485.75
398.82	482.75
399.044	511.75
399.268	548.75
399.492	603.75
399.717	645.75
399.941	628.75
400.165	588.75
400.389	542.75
400.613	509.75
400.837	490.75
401.062	492.75
401.286	467.75
401.51	474.75
401.734	481.75
401.958	497.75
402.182	469.75
402.406	497.75
402.63	487.75
402.854	472.75
403.078	488.75
403.302	509.75
403.526	538.75
403.75	525.75
403.974	530.75
404.198	534.75
404.422	531.75
404.645	507.75
404.869	515.75
405.093	504.75
405.317	517.75
405.541	522.75
405.765	513.75
405.988	513.75
406.212	520.75
406.436	522.75
406.66	510.75
406.883	539.75
407.107	546.75
407.331	555.75
407.555	593.75
407.778	597.75
408.002	562.75
408.226	557.75
408.449	548.75
408.673	560.75
408.896	542.75
409.12	534.75
409.344	526.75
409.567	543.75
409.791	552.75
410.014	530.75
410.238	545.75
410.461	530.75
410.685	525.75
410.908	539.75
411.132	535.75
411.355	516.75
411.578	502.75
411.802	493.75
412.025	500.75
412.249	490.75
412.472	513.75
412.695	520.75
412.919	486.75
413.142	486.75
413.365	475.75
413.589	482.75
413.812	483.75
414.035	515.75
414.258	489.75
414.482	509.75
414.705	505.75
414.928	485.75
415.151	496.75
415.374	473.75
415.597	474.75
415.821	475.75
416.044	466.75
416.267	454.75
416.49	468.75
416.713	472.75
416.936	479.75
417.159	481.75
417.382	489.75
417.605	462.75
417.828	486.75
418.051	481.75
418.274	501.75
418.497	482.75
418.72	499.75
418.943	498.75
419.166	521.75
419.389	532.75
419.611	531.75
419.834	511.75
420.057	471.75
420.28	484.75
420.503	479.75
420.726	494.75
420.948	487.75
421.171	472.75
421.394	486.75
421.617	494.75
421.839	482.75
422.062	477.75
422.285	500.75
422.507	483.75
422.73	510.75
422.953	484.75
423.175	484.75
423.398	513.75
423.621	469.75
423.843	498.75
424.066	497.75
424.288	504.75
424.511	498.75
424.733	501.75
424.956	518.75
425.178	482.75
425.401	475.75
425.623	512.75
425.846	475.75
426.068	474.75
426.291	452.75
426.513	481.75
426.735	454.75
426.958	460.75
427.18	472.75
427.402	454.75
427.625	450.75
427.847	439.75
428.069	436.75
428.292	434.75
428.514	458.75
428.736	467.75
428.958	440.75
429.181	440.75
429.403	423.75
429.625	437.75
429.847	440.75
430.069	426.75
430.292	449.75
430.514	438.75
430.736	437.75
430.958	423.75
431.18	416.75
431.402	436.75
431.624	429.75
431.846	432.75
432.068	448.75
432.29	457.75
432.512	432.75
432.734	435.75
432.956	454.75
433.178	432.75
433.4	464.75
433.622	446.75
433.844	475.75
434.066	464.75
434.287	444.75
434.509	461.75
434.731	480.75
434.953	466.75
435.175	485.75
435.397	474.75
435.618	451.75
435.84	446.75
436.062	472.75
436.284	470.75
436.505	439.75
436.727	462.75
436.949	454.75
437.17	439.75
437.392	437.75
437.614	441.75
437.835	416.75
438.057	434.75
438.278	417.75
438.5	448.75
438.721	434.75
438.943	452.75
439.165	435.75
439.386	427.75
439.608	449.75
439.829	465.75
440.05	448.75
440.272	472.75
440.493	460.75
440.715	464.75
440.936	452.75
441.158	471.75
441.379	472.75
441.6	493.75
441.822	508.75
442.043	491.75
442.264	501.75
442.486	500.75
442.707	515.75
442.928	503.75
443.149	512.75
443.371	493.75
443.592	509.75
443.813	512.75
444.034	490.75
444.255	492.75
444.476	519.75
444.698	530.75
444.919	572.75
445.14	642.75
445.361	550.75
445.582	503.75
445.803	490.75
446.024	482.75
446.245	477.75
446.466	473.75
446.687	456.75
446.908	470.75
447.129	447.75
447.35	463.75
447.571	424.75
447.792	430.75
448.013	436.75
448.234	428.75
448.455	419.75
448.675	448.75
448.896	424.75
449.117	417.75
449.338	407.75
449.559	409.75
449.779	432.75
450	426.75
450.221	418.75
450.442	434.75
450.662	418.75
450.883	425.75
451.104	432.75
451.324	415.75
451.545	440.75
451.766	450.75
451.986	420.75
452.207	427.75
452.428	412.75
452.648	404.75
452.869	411.75
453.089	401.75
453.31	418.75
453.53	398.75
453.751	409.75
453.971	392.75
454.192	406.75
454.412	394.75
454.633	407.75
454.853	408.75
455.073	402.75
455.294	394.75
455.514	389.75
455.734	404.75
455.955	397.75
456.175	402.75
456.395	387.75
456.616	388.75
456.836	361.75
457.056	392.75
457.276	406.75
457.497	408.75
457.717	401.75
457.937	404.75
458.157	371.75
458.377	397.75
458.598	426.75
458.818	436.75
459.038	421.75
459.258	440.75
459.478	428.75
459.698	447.75
459.918	456.75
460.138	477.75
460.358	510.75
460.578	480.75
460.798	508.75
461.018	507.75
461.238	513.75
461.458	512.75
461.678	514.75
461.898	530.75
462.118	520.75
462.338	549.75
462.558	559.75
462.777	568.75
462.997	601.75
463.217	630.75
463.437	634.75
463.657	611.75
463.876	574.75
464.096	579.75
464.316	581.75
464.536	567.75
464.755	549.75
464.975	535.75
465.195	513.75
465.414	508.75
465.634	473.75
465.854	461.75
466.073	464.75
466.293	455.75
466.512	418.75
466.732	439.75
466.951	456.75
467.171	445.75
467.391	454.75
467.61	427.75
467.829	431.75
468.049	432.75
468.268	422.75
468.488	418.75
468.707	416.75
468.927	416.75
469.146	427.75
469.365	429.75
469.585	434.75
469.804	426.75
470.023	429.75
470.243	443.75
470.462	461.75
470.681	445.75
470.901	436.75
471.12	427.75
471.339	436.75
471.558	420.75
471.777	432.75
471.997	420.75
472.216	428.75
472.435	424.75
472.654	402.75
472.873	419.75
473.092	420.75
473.311	393.75
473.53	406.75
473.749	409.75
473.968	402.75
474.187	403.75
474.406	407.75
474.625	395.75
474.844	412.75
475.063	415.75
475.282	417.75
475.501	408.75
475.72	429.75
475.939	415.75
476.158	406.75
476.377	418.75
476.596	414.75
476.814	427.75
477.033	435.75
477.252	413.75
477.471	459.75
477.69	441.75
477.908	475.75
478.127	465.75
478.346	466.75
478.564	486.75
478.783	489.75
479.002	493.75
479.22	500.75
479.439	514.75
479.658	501.75
479.876	480.75
480.095	505.75
480.313	527.75
480.532	503.75
480.751	509.75
480.969	479.75
481.188	486.75
481.406	491.75
481.624	451.75
481.843	434.75
482.061	461.75
482.28	464.75
482.498	462.75
482.717	461.75
482.935	464.75
483.153	432.75
483.372	453.75
483.59	457.75
483.808	458.75
484.027	450.75
484.245	467.75
484.463	450.75
484.681	459.75
484.9	448.75
485.118	464.75
485.336	453.75
485.554	489.75
485.772	467.75
485.99	468.75
486.209	465.75
486.427	445.75
486.645	476.75
486.863	474.75
487.081	452.75
487.299	466.75
487.517	472.75
487.735	460.75
487.953	459.75
488.171	476.75
488.389	456.75
488.607	478.75
488.825	468.75
489.043	463.75
489.261	485.75
489.479	460.75
489.696	452.75
489.914	473.75
490.132	468.75
490.35	460.75
490.568	476.75
490.786	488.75
491.003	479.75
491.221	507.75
491.439	462.75
491.657	504.75
491.874	490.75
492.092	500.75
492.31	509.75
492.527	499.75
492.745	485.75
492.963	492.75
493.18	485.75
493.398	493.75
493.615	483.75
493.833	501.75
494.05	470.75
494.268	481.75
494.485	482.75
494.703	491.75
494.92	493.75
495.138	494.75
495.355	491.75
495.573	522.75
495.79	508.75
496.008	518.75
496.225	517.75
496.442	526.75
496.66	530.75
496.877	520.75
497.094	538.75
497.312	537.75
497.529	552.75
497.746	558.75
497.963	604.75
498.181	581.75
498.398	588.75
498.615	660.75
498.832	702.75
499.049	714.75
499.267	752.75
499.484	851.75
499.701	873.75
499.918	980.75
500.135	1065.75
500.352	1184.75
500.569	1244.75
500.786	1204.75
501.003	1148.75
501.22	1061.75
501.437	933.75
501.654	862.75
501.871	788.75
502.088	762.75
502.305	707.75
502.522	664.75
502.739	642.75
502.956	613.75
503.172	613.75
503.389	583.75
503.606	553.75
503.823	553.75
504.04	564.75
504.256	556.75
504.473	553.75
504.69	565.75
504.907	558.75
505.123	546.75
505.34	520.75
505.557	495.75
505.773	475.75
505.99	462.75
506.207	444.75
506.423	473.75
506.64	459.75
506.856	444.75
507.073	440.75
507.289	455.75
507.506	446.75
507.722	432.75
507.939	438.75
508.155	444.75
508.372	422.75
508.588	415.75
508.805	406.75
509.021	419.75
509.238	425.75
509.454	420.75
509.67	393.75
509.887	404.75
510.103	396.75
510.319	413.75
510.536	397.75
510.752	389.75
510.968	406.75
511.184	413.75
511.401	402.75
511.617	410.75
511.833	396.75
512.049	384.75
512.265	393.75
512.481	411.75
512.698	393.75
512.914	403.75
513.13	404.75
513.346	392.75
513.562	406.75
513.778	428.75
513.994	404.75
514.21	399.75
514.426	399.75
514.642	407.75
514.858	398.75
515.074	426.75
515.29	422.75
515.506	423.75
515.721	420.75
515.937	421.75
516.153	442.75
516.369	466.75
516.585	448.75
516.801	442.75
517.016	474.75
517.232	487.75
517.448	499.75
517.664	525.75
517.879	512.75
518.095	512.75
518.311	514.75
518.527	482.75
518.742	484.75
518.958	479.75
519.173	454.75
519.389	432.75
519.605	434.75
519.82	448.75
520.036	418.75
520.251	427.75
520.467	417.75
520.682	404.75
520.898	412.75
521.113	400.75
521.329	394.75
521.544	401.75
521.76	384.75
521.975	393.75
522.19	389.75
522.406	376.75
522.621	386.75
522.836	363.75
523.052	384.75
523.267	383.75
523.482	400.75
523.698	385.75
523.913	380.75
524.128	368.75
524.343	366.75
524.559	378.75
524.774	384.75
524.989	395.75
525.204	369.75
525.419	388.75
525.634	381.75
525.849	382.75
526.064	364.75
526.28	388.75
526.495	364.75
526.71	352.75
526.925	351.75
527.14	402.75
527.355	358.75
527.57	377.75
527.785	360.75
527.999	361.75
528.214	355.75
528.429	366.75
528.644	363.75
528.859	353.75
529.074	367.75
529.289	376.75
529.503	368.75
529.718	372.75
529.933	355.75
530.148	380.75
530.363	380.75
530.577	366.75
530.792	359.75
531.007	356.75
531.221	369.75
531.436	370.75
531.651	371.75
531.865	354.75
532.08	380.75
532.295	370.75
532.509	373.75
532.724	361.75
532.938	370.75
533.153	370.75
533.367	375.75
533.582	363.75
533.796	374.75
534.011	360.75
534.225	363.75
534.44	359.75
534.654	384.75
534.868	346.75
535.083	365.75
535.297	364.75
535.511	365.75
535.726	366.75
535.94	371.75
536.154	343.75
536.369	322.75
536.583	353.75
536.797	345.75
537.011	341.75
537.225	349.75
537.44	348.75
537.654	341.75
537.868	349.75
538.082	339.75
538.296	311.75
538.51	336.75
538.724	324.75
538.938	340.75
539.153	338.75
539.367	334.75
539.581	331.75
539.795	342.75
540.009	344.75
540.222	332.75
540.436	340.75
540.65	339.75
540.864	334.75
541.078	340.75
541.292	336.75
541.506	329.75
541.72	330.75
541.934	355.75
542.147	324.75
542.361	339.75
542.575	329.75
542.789	342.75
543.002	322.75
543.216	322.75
543.43	322.75
543.644	319.75
543.857	341.75
544.071	329.75
544.285	323.75
544.498	337.75
544.712	326.75
544.925	330.75
545.139	333.75
545.352	340.75
545.566	344.75
545.779	339.75
545.993	339.75
546.206	347.75
546.42	354.75
546.633	340.75
546.847	343.75
547.06	332.75
547.274	318.75
547.487	338.75
547.7	329.75
547.914	347.75
548.127	330.75
548.34	354.75
548.554	351.75
548.767	351.75
548.98	344.75
549.193	329.75
549.407	351.75
549.62	346.75
549.833	340.75
550.046	341.75
550.259	347.75
550.473	346.75
550.686	328.75
550.899	338.75
551.112	347.75
551.325	322.75
551.538	331.75
551.751	362.75
551.964	345.75
552.177	359.75
552.39	353.75
552.603	362.75
552.816	360.75
553.029	361.75
553.242	348.75
553.455	387.75
553.667	378.75
553.88	357.75
554.093	348.75
554.306	357.75
554.519	356.75
554.732	344.75
554.944	317.75
555.157	325.75
555.37	333.75
555.583	330.75
555.795	319.75
556.008	346.75
556.221	330.75
556.433	307.75
556.646	304.75
556.859	270.75
557.071	324.75
557.284	315.75
557.496	308.75
557.709	300.75
557.921	292.75
558.134	301.75
558.346	294.75
558.559	272.75
558.771	288.75
558.984	283.75
559.196	274.75
559.409	280.75
559.621	309.75
559.833	290.75
560.046	272.75
560.258	290.75
560.47	292.75
560.683	292.75
560.895	290.75
561.107	279.75
561.32	298.75
561.532	282.75
561.744	289.75
561.956	300.75
562.168	292.75
562.381	282.75
562.593	294.75
562.805	318.75
563.017	284.75
563.229	297.75
563.441	288.75
563.653	307.75
563.865	304.75
564.077	299.75
564.289	310.75
564.501	310.75
564.713	319.75
564.925	303.75
565.137	318.75
565.349	310.75
565.561	317.75
565.773	328.75
565.985	335.75
566.197	358.75
566.408	378.75
566.62	398.75
566.832	417.75
567.044	413.75
567.255	418.75
567.467	427.75
567.679	435.75
567.891	475.75
568.102	459.75
568.314	461.75
568.526	409.75
568.737	403.75
568.949	374.75
569.161	349.75
569.372	321.75
569.584	323.75
569.795	312.75
570.007	282.75
570.218	289.75
570.43	299.75
570.641	299.75
570.853	294.75
571.064	308.75
571.276	298.75
571.487	286.75
571.698	286.75
571.91	260.75
572.121	272.75
572.333	265.75
572.544	256.75
572.755	262.75
572.966	261.75
573.178	257.75
573.389	245.75
573.6	250.75
573.811	240.75
574.023	266.75
574.234	254.75
574.445	235.75
574.656	246.75
574.867	262.75
575.078	242.75
575.289	257.75
575.501	251.75
575.712	246.75
575.923	260.75
576.134	227.75
576.345	246.75
576.556	258.75
576.767	247.75
576.978	250.75
577.188	227.75
577.399	210.75
577.61	247.75
577.821	226.75
578.032	231.75
578.243	234.75
578.454	245.75
578.665	228.75
578.875	202.75
579.086	213.75
579.297	233.75
579.508	225.75
579.718	225.75
579.929	235.75
580.14	220.75
580.35	223.75
580.561	205.75
580.772	216.75
580.982	224.75
581.193	230.75
581.403	232.75
581.614	220.75
581.825	215.75
582.035	217.75
582.246	203.75
582.456	223.75
582.667	222.75
582.877	200.75
583.087	206.75
583.298	214.75
583.508	212.75
583.719	218.75
583.929	209.75
584.139	225.75
584.35	219.75
584.56	237.75
584.77	206.75
584.981	205.75
585.191	195.75
585.401	201.75
585.611	213.75
585.821	211.75
586.032	224.75
586.242	221.75
586.452	213.75
586.662	206.75
586.872	216.75
587.082	223.75
587.292	208.75
587.502	212.75
587.713	214.75
587.923	227.75
588.133	214.75
588.343	198.75
588.553	203.75
588.762	213.75
588.972	216.75
589.182	217.75
589.392	218.75
589.602	210.75
589.812	226.75
590.022	216.75
590.232	216.75
590.441	209.75
590.651	209.75
590.861	216.75
591.071	213.75
591.281	232.75
591.49	210.75
591.7	210.75
591.91	216.75
592.119	206.75
592.329	214.75
592.539	230.75
592.748	227.75
592.958	248.75
593.167	242.75
593.377	241.75
593.587	250.75
593.796	242.75
594.006	265.75
594.215	245.75
594.424	249.75
594.634	232.75
594.843	231.75
595.053	216.75
595.262	230.75
595.472	225.75
595.681	213.75
595.89	211.75
596.1	196.75
596.309	214.75
596.518	209.75
596.727	202.75
596.937	206.75
597.146	213.75
597.355	196.75
597.564	182.75
597.774	178.75
597.983	182.75
598.192	186.75
598.401	181.75
598.61	196.75
598.819	195.75
599.028	203.75
599.237	183.75
599.446	194.75
599.655	183.75
599.864	173.75
600.073	180.75
600.282	192.75
600.491	173.75
600.7	168.75
600.909	187.75
601.118	186.75
601.327	178.75
601.536	197.75
601.745	173.75
601.953	155.75
602.162	185.75
602.371	180.75
602.58	173.75
602.789	182.75
602.997	177.75
603.206	184.75
603.415	186.75
603.623	174.75
603.832	165.75
604.041	182.75
604.249	192.75
604.458	186.75
604.666	176.75
604.875	180.75
605.084	166.75
605.292	173.75
605.501	164.75
605.709	184.75
605.918	166.75
606.126	184.75
606.334	167.75
606.543	173.75
606.751	182.75
606.96	177.75
607.168	185.75
607.376	178.75
607.585	165.75
607.793	177.75
608.001	176.75
608.21	180.75
608.418	171.75
608.626	164.75
608.834	154.75
609.043	170.75
609.251	184.75
609.459	168.75
609.667	154.75
609.875	174.75
610.083	177.75
610.291	161.75
610.499	158.75
610.707	168.75
610.916	166.75
611.124	174.75
611.332	170.75
611.54	175.75
611.748	169.75
611.955	171.75
612.163	170.75
612.371	166.75
612.579	171.75
612.787	169.75
612.995	156.75
613.203	170.75
613.411	187.75
613.618	170.75
613.826	163.75
614.034	161.75
614.242	168.75
614.449	144.75
614.657	161.75
614.865	162.75
615.072	161.75
615.28	171.75
615.488	172.75
615.695	176.75
615.903	158.75
616.111	153.75
616.318	171.75
616.526	166.75
616.733	161.75
616.941	157.75
617.148	171.75
617.356	185.75
617.563	167.75
617.771	156.75
617.978	155.75
618.185	149.75
618.393	163.75
618.6	170.75
618.807	163.75
619.015	168.75
619.222	166.75
619.429	171.75
619.637	180.75
619.844	176.75
620.051	157.75
620.258	154.75
620.466	160.75
620.673	151.75
620.88	151.75
621.087	155.75
621.294	155.75
621.501	160.75
621.708	141.75
621.915	161.75
622.122	164.75
622.329	170.75
622.536	163.75
622.743	154.75
622.95	143.75
623.157	138.75
623.364	144.75
623.571	146.75
623.778	151.75
623.985	166.75
624.192	158.75
624.399	153.75
624.606	157.75
624.812	157.75
625.019	157.75
625.226	154.75
625.433	138.75
625.639	139.75
625.846	138.75
626.053	149.75
626.259	150.75
626.466	140.75
626.673	151.75
626.879	155.75
627.086	153.75
627.293	142.75
627.499	150.75
627.706	132.75
627.912	152.75
628.119	155.75
628.325	161.75
628.532	155.75
628.738	150.75
628.945	146.75
629.151	141.75
629.357	124.75
629.564	142.75
629.77	158.75
629.976	153.75
630.183	148.75
630.389	148.75
630.595	145.75
630.802	130.75
631.008	144.75
631.214	162.75
631.42	141.75
631.627	148.75
631.833	130.75
632.039	146.75
632.245	142.75
632.451	143.75
632.657	148.75
632.863	132.75
633.069	142.75
633.275	140.75
633.481	148.75
633.688	148.75
633.893	134.75
634.099	134.75
634.305	136.75
634.511	139.75
634.717	141.75
634.923	130.75
635.129	130.75
635.335	138.75
635.541	139.75
635.747	117.75
635.952	131.75
636.158	127.75
636.364	130.75
636.57	136.75
636.775	108.75
636.981	139.75
637.187	141.75
637.392	137.75
637.598	141.75
637.804	123.75
638.009	149.75
638.215	127.75
638.421	144.75
638.626	144.75
638.832	141.75
639.037	125.75
639.243	129.75
639.448	140.75
639.654	148.75
639.859	132.75
640.065	126.75
640.27	133.75
640.475	139.75
640.681	136.75
640.886	128.75
641.091	125.75
641.297	135.75
641.502	100.75
641.707	127.75
641.913	129.75
642.118	151.75
642.323	145.75
642.528	132.75
642.733	134.75
642.939	133.75
643.144	133.75
643.349	153.75
643.554	128.75
643.759	152.75
643.964	124.75
644.169	144.75
644.374	138.75
644.579	125.75
644.784	128.75
644.989	138.75
645.194	115.75
645.399	128.75
645.604	130.75
645.809	128.75
646.014	126.75
646.219	132.75
646.423	123.75
646.628	136.75
646.833	128.75
647.038	125.75
647.243	140.75
647.447	126.75
647.652	127.75
647.857	124.75
648.062	133.75
648.266	128.75
648.471	120.75
648.676	143.75
648.88	148.75
649.085	124.75
649.289	127.75
649.494	109.75
649.698	138.75
649.903	115.75
650.107	123.75
650.312	131.75
650.516	126.75
650.721	109.75
650.925	110.75
651.13	128.75
651.334	109.75
651.539	130.75
651.743	114.75
651.947	114.75
652.152	119.75
652.356	113.75
652.56	125.75
652.764	112.75
652.969	124.75
653.173	127.75
653.377	123.75
653.581	115.75
653.785	121.75
653.99	105.75
654.194	122.75
654.398	114.75
654.602	121.75
654.806	117.75
655.01	121.75
655.214	110.75
655.418	110.75
655.622	125.75
655.826	142.75
656.03	122.75
656.234	112.75
656.438	104.75
656.642	112.75
656.846	98.75
657.049	102.75
657.253	112.75
657.457	109.75
657.661	107.75
657.865	90.75
658.068	94.75
658.272	102.75
658.476	112.75
658.68	105.75
658.883	103.75
659.087	106.75
659.291	86.75
659.494	97.75
659.698	90.75
659.901	93.75
660.105	97.75
660.309	104.75
660.512	91.75
660.716	93.75
660.919	86.75
661.123	99.75
661.326	86.75
661.53	78.75
661.733	93.75
661.936	93.75
662.14	86.75
662.343	91.75
662.546	79.75
662.75	88.75
662.953	103.75
663.156	73.75
663.36	86.75
663.563	92.75
663.766	77.75
663.969	85.75
664.173	80.75
664.376	92.75
664.579	74.75
664.782	79.75
664.985	84.75
665.188	90.75
665.391	75.75
665.594	70.75
665.797	89.75
666	88.75
666.203	99.75
666.406	89.75
666.609	81.75
666.812	80.75
667.015	78.75
667.218	77.75
667.421	81.75
667.624	87.75
667.827	87.75
668.03	73.75
668.232	90.75
668.435	85.75
668.638	88.75
668.841	85.75
669.043	79.75
669.246	70.75
669.449	91.75
669.651	86.75
669.854	81.75
670.057	82.75
670.259	81.75
670.462	68.75
670.665	77.75
670.867	80.75
671.07	86.75
671.272	87.75
671.475	85.75
671.677	82.75
671.88	87.75
672.082	70.75
672.284	84.75
672.487	71.75
672.689	73.75
672.892	92.75
