Data from Fe(NO3)3@0.025M.TitratingCurve.Agarose3%dH2O.NegLispCup.LampEnergy10.LIBS07252019_HRD10591_16-54-40-335.txt Node
Date: Thu Jul 25 16:54:40 EDT 2019
User: cochatt
Spectrometer: HR+D1059
Trigger mode: 1
Integration Time (sec): 1.000000E-1
Scans to average: 1
Electric dark correction enabled: true
Nonlinearity correction enabled: false
Boxcar width: 0
XAxis mode: Wavelengths
Number of Pixels in Spectrum: 2048
>>>>>Begin Spectral Data<<<<<
223.165	-13.94
223.4	-13.94
223.635	-13.94
223.869	-12.94
224.104	-20.94
224.338	-10.94
224.573	-14.94
224.808	-3.94
225.042	-11.94
225.277	-12.94
225.511	-5.94
225.746	-9.94
225.98	19.06
226.215	5.06
226.449	30.06
226.683	11.06
226.918	27.06
227.152	26.06
227.387	18.06
227.621	37.06
227.856	43.06
228.09	42.06
228.324	43.06
228.559	41.06
228.793	56.06
229.027	85.06
229.262	86.06
229.496	89.06
229.73	96.06
229.964	87.06
230.199	92.06
230.433	94.06
230.667	98.06
230.901	97.06
231.136	112.06
231.37	114.06
231.604	105.06
231.838	105.06
232.072	99.06
232.306	104.06
232.541	106.06
232.775	105.06
233.009	121.06
233.243	113.06
233.477	108.06
233.711	114.06
233.945	120.06
234.179	102.06
234.413	110.06
234.647	84.06
234.881	116.06
235.115	124.06
235.349	122.06
235.583	103.06
235.817	120.06
236.051	115.06
236.285	117.06
236.519	109.06
236.753	112.06
236.987	117.06
237.221	127.06
237.455	124.06
237.689	108.06
237.922	112.06
238.156	111.06
238.39	108.06
238.624	139.06
238.858	113.06
239.091	135.06
239.325	121.06
239.559	144.06
239.793	108.06
240.027	140.06
240.26	128.06
240.494	139.06
240.728	128.06
240.961	126.06
241.195	112.06
241.429	123.06
241.662	131.06
241.896	134.06
242.13	126.06
242.363	123.06
242.597	131.06
242.83	136.06
243.064	136.06
243.298	121.06
243.531	126.06
243.765	128.06
243.998	137.06
244.232	132.06
244.465	132.06
244.699	133.06
244.932	140.06
245.166	137.06
245.399	152.06
245.633	132.06
245.866	130.06
246.099	137.06
246.333	148.06
246.566	140.06
246.8	130.06
247.033	142.06
247.266	152.06
247.5	137.06
247.733	148.06
247.966	149.06
248.2	153.06
248.433	143.06
248.666	145.06
248.899	149.06
249.133	140.06
249.366	147.06
249.599	167.06
249.832	163.06
250.066	142.06
250.299	146.06
250.532	140.06
250.765	143.06
250.998	145.06
251.231	153.06
251.465	146.06
251.698	145.06
251.931	137.06
252.164	152.06
252.397	147.06
252.63	162.06
252.863	149.06
253.096	172.06
253.329	158.06
253.562	156.06
253.795	178.06
254.028	181.06
254.261	177.06
254.494	163.06
254.727	168.06
254.96	158.06
255.193	169.06
255.426	168.06
255.659	164.06
255.892	167.06
256.124	173.06
256.357	146.06
256.59	180.06
256.823	150.06
257.056	180.06
257.289	180.06
257.521	165.06
257.754	182.06
257.987	182.06
258.22	171.06
258.452	184.06
258.685	164.06
258.918	173.06
259.151	189.06
259.383	178.06
259.616	160.06
259.849	196.06
260.081	212.06
260.314	185.06
260.547	190.06
260.779	176.06
261.012	189.06
261.244	195.06
261.477	204.06
261.71	172.06
261.942	180.06
262.175	202.06
262.407	200.06
262.64	183.06
262.872	197.06
263.105	178.06
263.337	204.06
263.57	194.06
263.802	185.06
264.035	184.06
264.267	178.06
264.499	173.06
264.732	201.06
264.964	186.06
265.197	191.06
265.429	193.06
265.661	177.06
265.894	202.06
266.126	198.06
266.358	189.06
266.591	198.06
266.823	221.06
267.055	216.06
267.287	193.06
267.52	197.06
267.752	198.06
267.984	202.06
268.216	216.06
268.448	216.06
268.681	216.06
268.913	216.06
269.145	204.06
269.377	214.06
269.609	207.06
269.841	215.06
270.073	199.06
270.306	213.06
270.538	217.06
270.77	209.06
271.002	217.06
271.234	214.06
271.466	217.06
271.698	225.06
271.93	207.06
272.162	218.06
272.394	217.06
272.626	210.06
272.858	211.06
273.09	230.06
273.322	234.06
273.553	214.06
273.785	231.06
274.017	261.06
274.249	237.06
274.481	241.06
274.713	265.06
274.945	250.06
275.176	273.06
275.408	245.06
275.64	252.06
275.872	262.06
276.104	250.06
276.335	238.06
276.567	245.06
276.799	243.06
277.031	236.06
277.262	217.06
277.494	245.06
277.726	243.06
277.957	244.06
278.189	260.06
278.421	245.06
278.652	229.06
278.884	242.06
279.115	236.06
279.347	244.06
279.579	242.06
279.81	253.06
280.042	245.06
280.273	249.06
280.505	238.06
280.736	251.06
280.968	254.06
281.199	242.06
281.431	265.06
281.662	270.06
281.894	249.06
282.125	257.06
282.356	260.06
282.588	274.06
282.819	268.06
283.051	258.06
283.282	261.06
283.513	257.06
283.745	258.06
283.976	264.06
284.207	263.06
284.439	256.06
284.67	256.06
284.901	277.06
285.132	261.06
285.364	266.06
285.595	266.06
285.826	270.06
286.057	286.06
286.288	278.06
286.52	273.06
286.751	261.06
286.982	281.06
287.213	263.06
287.444	278.06
287.675	275.06
287.906	284.06
288.138	266.06
288.369	286.06
288.6	296.06
288.831	272.06
289.062	277.06
289.293	294.06
289.524	266.06
289.755	286.06
289.986	286.06
290.217	283.06
290.448	280.06
290.679	296.06
290.91	288.06
291.141	274.06
291.371	288.06
291.602	286.06
291.833	294.06
292.064	292.06
292.295	278.06
292.526	293.06
292.757	290.06
292.987	309.06
293.218	295.06
293.449	281.06
293.68	293.06
293.91	301.06
294.141	289.06
294.372	283.06
294.603	286.06
294.833	302.06
295.064	292.06
295.295	278.06
295.525	308.06
295.756	292.06
295.987	292.06
296.217	302.06
296.448	300.06
296.679	301.06
296.909	311.06
297.14	303.06
297.37	291.06
297.601	326.06
297.831	311.06
298.062	315.06
298.292	307.06
298.523	324.06
298.753	327.06
298.984	310.06
299.214	310.06
299.445	315.06
299.675	307.06
299.905	319.06
300.136	297.06
300.366	317.06
300.597	321.06
300.827	311.06
301.057	328.06
301.288	334.06
301.518	318.06
301.748	314.06
301.979	338.06
302.209	325.06
302.439	330.06
302.669	321.06
302.9	332.06
303.13	339.06
303.36	338.06
303.59	341.06
303.82	328.06
304.051	334.06
304.281	325.06
304.511	347.06
304.741	336.06
304.971	336.06
305.201	348.06
305.431	344.06
305.661	333.06
305.891	332.06
306.121	342.06
306.352	335.06
306.582	344.06
306.812	325.06
307.042	323.06
307.272	358.06
307.502	340.06
307.731	328.06
307.961	322.06
308.191	324.06
308.421	324.06
308.651	334.06
308.881	329.06
309.111	326.06
309.341	358.06
309.571	328.06
309.8	337.06
310.03	356.06
310.26	353.06
310.49	332.06
310.72	356.06
310.949	336.06
311.179	355.06
311.409	339.06
311.639	370.06
311.868	348.06
312.098	347.06
312.328	358.06
312.557	337.06
312.787	355.06
313.017	380.06
313.246	364.06
313.476	362.06
313.706	350.06
313.935	350.06
314.165	347.06
314.394	355.06
314.624	359.06
314.853	363.06
315.083	377.06
315.312	369.06
315.542	375.06
315.771	384.06
316.001	358.06
316.23	365.06
316.46	371.06
316.689	368.06
316.919	386.06
317.148	365.06
317.377	392.06
317.607	368.06
317.836	366.06
318.065	368.06
318.295	384.06
318.524	375.06
318.753	376.06
318.983	357.06
319.212	346.06
319.441	383.06
319.67	369.06
319.9	384.06
320.129	375.06
320.358	382.06
320.587	390.06
320.816	390.06
321.046	393.06
321.275	390.06
321.504	374.06
321.733	375.06
321.962	388.06
322.191	380.06
322.42	373.06
322.649	387.06
322.878	374.06
323.108	365.06
323.337	380.06
323.566	382.06
323.795	392.06
324.024	404.06
324.253	398.06
324.482	390.06
324.71	370.06
324.939	387.06
325.168	402.06
325.397	396.06
325.626	402.06
325.855	396.06
326.084	395.06
326.313	396.06
326.542	387.06
326.77	416.06
326.999	394.06
327.228	408.06
327.457	399.06
327.686	410.06
327.914	392.06
328.143	416.06
328.372	386.06
328.6	414.06
328.829	393.06
329.058	417.06
329.287	409.06
329.515	415.06
329.744	413.06
329.972	425.06
330.201	409.06
330.43	417.06
330.658	410.06
330.887	424.06
331.115	422.06
331.344	427.06
331.572	428.06
331.801	414.06
332.03	432.06
332.258	439.06
332.486	445.06
332.715	435.06
332.943	458.06
333.172	436.06
333.4	453.06
333.629	466.06
333.857	473.06
334.085	474.06
334.314	476.06
334.542	461.06
334.771	478.06
334.999	478.06
335.227	481.06
335.455	471.06
335.684	498.06
335.912	458.06
336.14	475.06
336.369	476.06
336.597	471.06
336.825	468.06
337.053	474.06
337.281	466.06
337.51	473.06
337.738	474.06
337.966	465.06
338.194	449.06
338.422	446.06
338.65	441.06
338.878	458.06
339.106	444.06
339.334	455.06
339.562	437.06
339.79	442.06
340.018	452.06
340.246	426.06
340.474	425.06
340.702	448.06
340.93	428.06
341.158	426.06
341.386	445.06
341.614	446.06
341.842	425.06
342.07	452.06
342.298	449.06
342.526	460.06
342.754	434.06
342.981	419.06
343.209	448.06
343.437	456.06
343.665	460.06
343.893	477.06
344.12	473.06
344.348	479.06
344.576	482.06
344.804	472.06
345.031	444.06
345.259	447.06
345.487	435.06
345.714	450.06
345.942	446.06
346.17	418.06
346.397	425.06
346.625	433.06
346.853	423.06
347.08	426.06
347.308	437.06
347.535	416.06
347.763	413.06
347.99	423.06
348.218	425.06
348.445	440.06
348.673	433.06
348.9	422.06
349.128	425.06
349.355	418.06
349.583	420.06
349.81	443.06
350.037	426.06
350.265	422.06
350.492	412.06
350.72	427.06
350.947	422.06
351.174	430.06
351.402	425.06
351.629	433.06
351.856	431.06
352.083	411.06
352.311	416.06
352.538	418.06
352.765	426.06
352.992	420.06
353.22	430.06
353.447	424.06
353.674	425.06
353.901	414.06
354.128	413.06
354.355	405.06
354.583	417.06
354.81	412.06
355.037	420.06
355.264	410.06
355.491	409.06
355.718	410.06
355.945	430.06
356.172	425.06
356.399	402.06
356.626	423.06
356.853	436.06
357.08	418.06
357.307	466.06
357.534	440.06
357.761	426.06
357.988	434.06
358.215	430.06
358.441	425.06
358.668	421.06
358.895	409.06
359.122	436.06
359.349	435.06
359.576	436.06
359.802	422.06
360.029	416.06
360.256	425.06
360.483	430.06
360.709	429.06
360.936	448.06
361.163	424.06
361.39	434.06
361.616	441.06
361.843	405.06
362.07	426.06
362.296	426.06
362.523	432.06
362.749	448.06
362.976	449.06
363.203	436.06
363.429	416.06
363.656	443.06
363.882	443.06
364.109	435.06
364.335	432.06
364.562	428.06
364.788	430.06
365.015	449.06
365.241	434.06
365.468	436.06
365.694	417.06
365.92	438.06
366.147	444.06
366.373	433.06
366.599	440.06
366.826	426.06
367.052	444.06
367.278	436.06
367.505	427.06
367.731	455.06
367.957	428.06
368.184	440.06
368.41	426.06
368.636	419.06
368.862	436.06
369.089	430.06
369.315	453.06
369.541	450.06
369.767	468.06
369.993	463.06
370.219	443.06
370.445	432.06
370.672	477.06
370.898	452.06
371.124	464.06
371.35	467.06
371.576	454.06
371.802	465.06
372.028	446.06
372.254	457.06
372.48	466.06
372.706	458.06
372.932	473.06
373.158	496.06
373.384	459.06
373.61	483.06
373.835	497.06
374.061	481.06
374.287	468.06
374.513	474.06
374.739	481.06
374.965	491.06
375.191	505.06
375.416	498.06
375.642	481.06
375.868	482.06
376.094	472.06
376.319	470.06
376.545	474.06
376.771	448.06
376.997	467.06
377.222	479.06
377.448	466.06
377.674	448.06
377.899	460.06
378.125	489.06
378.35	449.06
378.576	458.06
378.802	445.06
379.027	458.06
379.253	461.06
379.478	473.06
379.704	460.06
379.929	478.06
380.155	468.06
380.38	461.06
380.606	479.06
380.831	457.06
381.057	478.06
381.282	463.06
381.507	451.06
381.733	495.06
381.958	475.06
382.184	494.06
382.409	478.06
382.634	498.06
382.86	505.06
383.085	478.06
383.31	492.06
383.535	491.06
383.761	520.06
383.986	521.06
384.211	525.06
384.436	495.06
384.662	507.06
384.887	502.06
385.112	532.06
385.337	526.06
385.562	521.06
385.787	516.06
386.013	552.06
386.238	540.06
386.463	556.06
386.688	518.06
386.913	541.06
387.138	541.06
387.363	554.06
387.588	544.06
387.813	538.06
388.038	534.06
388.263	527.06
388.488	546.06
388.713	530.06
388.938	562.06
389.163	541.06
389.387	550.06
389.612	557.06
389.837	550.06
390.062	530.06
390.287	557.06
390.512	534.06
390.736	554.06
390.961	548.06
391.186	545.06
391.411	583.06
391.636	573.06
391.86	573.06
392.085	576.06
392.31	572.06
392.534	566.06
392.759	560.06
392.984	558.06
393.208	570.06
393.433	555.06
393.658	568.06
393.882	563.06
394.107	554.06
394.331	554.06
394.556	560.06
394.78	577.06
395.005	595.06
395.229	573.06
395.454	610.06
395.678	584.06
395.903	574.06
396.127	574.06
396.352	586.06
396.576	581.06
396.801	573.06
397.025	595.06
397.249	615.06
397.474	612.06
397.698	618.06
397.922	619.06
398.147	591.06
398.371	611.06
398.595	646.06
398.82	640.06
399.044	679.06
399.268	704.06
399.492	714.06
399.717	734.06
399.941	747.06
400.165	745.06
400.389	724.06
400.613	678.06
400.837	666.06
401.062	645.06
401.286	669.06
401.51	644.06
401.734	637.06
401.958	666.06
402.182	629.06
402.406	638.06
402.63	658.06
402.854	635.06
403.078	642.06
403.302	636.06
403.526	655.06
403.75	650.06
403.974	646.06
404.198	640.06
404.422	663.06
404.645	643.06
404.869	656.06
405.093	644.06
405.317	667.06
405.541	667.06
405.765	643.06
405.988	667.06
406.212	695.06
406.436	690.06
406.66	694.06
406.883	688.06
407.107	724.06
407.331	742.06
407.555	723.06
407.778	731.06
408.002	730.06
408.226	717.06
408.449	720.06
408.673	690.06
408.896	683.06
409.12	678.06
409.344	686.06
409.567	692.06
409.791	682.06
410.014	683.06
410.238	658.06
410.461	676.06
410.685	636.06
410.908	646.06
411.132	660.06
411.355	648.06
411.578	668.06
411.802	649.06
412.025	646.06
412.249	666.06
412.472	668.06
412.695	656.06
412.919	629.06
413.142	670.06
413.365	661.06
413.589	641.06
413.812	630.06
414.035	651.06
414.258	637.06
414.482	667.06
414.705	654.06
414.928	644.06
415.151	615.06
415.374	655.06
415.597	654.06
415.821	632.06
416.044	616.06
416.267	617.06
416.49	622.06
416.713	619.06
416.936	622.06
417.159	634.06
417.382	613.06
417.605	586.06
417.828	599.06
418.051	626.06
418.274	622.06
418.497	597.06
418.72	611.06
418.943	605.06
419.166	632.06
419.389	668.06
419.611	668.06
419.834	625.06
420.057	641.06
420.28	640.06
420.503	598.06
420.726	622.06
420.948	609.06
421.171	584.06
421.394	610.06
421.617	624.06
421.839	601.06
422.062	600.06
422.285	575.06
422.507	614.06
422.73	606.06
422.953	593.06
423.175	606.06
423.398	612.06
423.621	600.06
423.843	596.06
424.066	615.06
424.288	602.06
424.511	602.06
424.733	601.06
424.956	579.06
425.178	618.06
425.401	599.06
425.623	580.06
425.846	585.06
426.068	593.06
426.291	586.06
426.513	600.06
426.735	584.06
426.958	583.06
427.18	569.06
427.402	556.06
427.625	577.06
427.847	579.06
428.069	595.06
428.292	579.06
428.514	569.06
428.736	569.06
428.958	570.06
429.181	567.06
429.403	562.06
429.625	562.06
429.847	564.06
430.069	554.06
430.292	566.06
430.514	554.06
430.736	573.06
430.958	590.06
431.18	571.06
431.402	574.06
431.624	552.06
431.846	550.06
432.068	573.06
432.29	582.06
432.512	589.06
432.734	538.06
432.956	575.06
433.178	566.06
433.4	572.06
433.622	566.06
433.844	593.06
434.066	609.06
434.287	579.06
434.509	594.06
434.731	613.06
434.953	587.06
435.175	611.06
435.397	588.06
435.618	569.06
435.84	589.06
436.062	592.06
436.284	571.06
436.505	576.06
436.727	566.06
436.949	538.06
437.17	567.06
437.392	568.06
437.614	568.06
437.835	554.06
438.057	548.06
438.278	545.06
438.5	557.06
438.721	553.06
438.943	572.06
439.165	536.06
439.386	545.06
439.608	562.06
439.829	559.06
440.05	561.06
440.272	565.06
440.493	544.06
440.715	554.06
440.936	586.06
441.158	555.06
441.379	567.06
441.6	579.06
441.822	594.06
442.043	579.06
442.264	589.06
442.486	590.06
442.707	593.06
442.928	580.06
443.149	587.06
443.371	583.06
443.592	586.06
443.813	586.06
444.034	595.06
444.255	606.06
444.476	613.06
444.698	617.06
444.919	622.06
445.14	744.06
445.361	665.06
445.582	588.06
445.803	568.06
446.024	573.06
446.245	587.06
446.466	552.06
446.687	562.06
446.908	537.06
447.129	528.06
447.35	544.06
447.571	548.06
447.792	546.06
448.013	521.06
448.234	526.06
448.455	525.06
448.675	524.06
448.896	516.06
449.117	500.06
449.338	496.06
449.559	522.06
449.779	516.06
450	528.06
450.221	531.06
450.442	526.06
450.662	514.06
450.883	492.06
451.104	505.06
451.324	524.06
451.545	531.06
451.766	518.06
451.986	514.06
452.207	513.06
452.428	517.06
452.648	501.06
452.869	502.06
453.089	513.06
453.31	504.06
453.53	502.06
453.751	488.06
453.971	509.06
454.192	488.06
454.412	478.06
454.633	470.06
454.853	489.06
455.073	512.06
455.294	534.06
455.514	489.06
455.734	479.06
455.955	484.06
456.175	486.06
456.395	505.06
456.616	490.06
456.836	496.06
457.056	512.06
457.276	484.06
457.497	524.06
457.717	499.06
457.937	496.06
458.157	513.06
458.377	507.06
458.598	524.06
458.818	523.06
459.038	530.06
459.258	527.06
459.478	560.06
459.698	568.06
459.918	573.06
460.138	581.06
460.358	594.06
460.578	608.06
460.798	600.06
461.018	616.06
461.238	616.06
461.458	624.06
461.678	629.06
461.898	607.06
462.118	613.06
462.338	632.06
462.558	648.06
462.777	659.06
462.997	680.06
463.217	694.06
463.437	699.06
463.657	698.06
463.876	658.06
464.096	706.06
464.316	650.06
464.536	646.06
464.755	654.06
464.975	657.06
465.195	615.06
465.414	604.06
465.634	574.06
465.854	588.06
466.073	569.06
466.293	562.06
466.512	562.06
466.732	587.06
466.951	545.06
467.171	549.06
467.391	561.06
467.61	548.06
467.829	532.06
468.049	537.06
468.268	547.06
468.488	525.06
468.707	543.06
468.927	546.06
469.146	533.06
469.365	555.06
469.585	521.06
469.804	532.06
470.023	560.06
470.243	558.06
470.462	548.06
470.681	564.06
470.901	561.06
471.12	532.06
471.339	562.06
471.558	542.06
471.777	539.06
471.997	553.06
472.216	548.06
472.435	556.06
472.654	524.06
472.873	523.06
473.092	517.06
473.311	544.06
473.53	527.06
473.749	536.06
473.968	545.06
474.187	523.06
474.406	537.06
474.625	555.06
474.844	546.06
475.063	535.06
475.282	558.06
475.501	556.06
475.72	566.06
475.939	536.06
476.158	557.06
476.377	558.06
476.596	574.06
476.814	600.06
477.033	587.06
477.252	578.06
477.471	579.06
477.69	592.06
477.908	614.06
478.127	636.06
478.346	632.06
478.564	622.06
478.783	641.06
479.002	620.06
479.22	631.06
479.439	658.06
479.658	664.06
479.876	671.06
480.095	624.06
480.313	658.06
480.532	651.06
480.751	662.06
480.969	638.06
481.188	654.06
481.406	642.06
481.624	644.06
481.843	625.06
482.061	641.06
482.28	646.06
482.498	622.06
482.717	614.06
482.935	626.06
483.153	621.06
483.372	640.06
483.59	644.06
483.808	643.06
484.027	626.06
484.245	643.06
484.463	651.06
484.681	646.06
484.9	635.06
485.118	644.06
485.336	658.06
485.554	674.06
485.772	649.06
485.99	633.06
486.209	654.06
486.427	660.06
486.645	626.06
486.863	676.06
487.081	633.06
487.299	662.06
487.517	666.06
487.735	654.06
487.953	668.06
488.171	650.06
488.389	644.06
488.607	650.06
488.825	634.06
489.043	626.06
489.261	677.06
489.479	676.06
489.696	654.06
489.914	627.06
490.132	640.06
490.35	681.06
490.568	667.06
490.786	692.06
491.003	652.06
491.221	646.06
491.439	664.06
491.657	658.06
491.874	687.06
492.092	675.06
492.31	675.06
492.527	685.06
492.745	662.06
492.963	668.06
493.18	677.06
493.398	691.06
493.615	680.06
493.833	656.06
494.05	690.06
494.268	658.06
494.485	685.06
494.703	696.06
494.92	683.06
495.138	683.06
495.355	700.06
495.573	694.06
495.79	704.06
496.008	717.06
496.225	705.06
496.442	700.06
496.66	743.06
496.877	719.06
497.094	754.06
497.312	774.06
497.529	777.06
497.746	782.06
497.963	788.06
498.181	832.06
498.398	877.06
498.615	850.06
498.832	906.06
499.049	940.06
499.267	953.06
499.484	1021.06
499.701	1066.06
499.918	1094.06
500.135	1123.06
500.352	1197.06
500.569	1220.06
500.786	1226.06
501.003	1163.06
501.22	1138.06
501.437	1082.06
501.654	1014.06
501.871	992.06
502.088	994.06
502.305	924.06
502.522	906.06
502.739	853.06
502.956	832.06
503.172	818.06
503.389	794.06
503.606	780.06
503.823	770.06
504.04	771.06
504.256	764.06
504.473	746.06
504.69	765.06
504.907	736.06
505.123	718.06
505.34	703.06
505.557	662.06
505.773	674.06
505.99	668.06
506.207	644.06
506.423	621.06
506.64	622.06
506.856	629.06
507.073	621.06
507.289	621.06
507.506	603.06
507.722	625.06
507.939	628.06
508.155	605.06
508.372	602.06
508.588	597.06
508.805	621.06
509.021	587.06
509.238	582.06
509.454	549.06
509.67	586.06
509.887	582.06
510.103	584.06
510.319	572.06
510.536	583.06
510.752	553.06
510.968	545.06
511.184	557.06
511.401	560.06
511.617	544.06
511.833	566.06
512.049	551.06
512.265	568.06
512.481	560.06
512.698	571.06
512.914	564.06
513.13	562.06
513.346	556.06
513.562	564.06
513.778	556.06
513.994	556.06
514.21	545.06
514.426	573.06
514.642	577.06
514.858	582.06
515.074	563.06
515.29	582.06
515.506	571.06
515.721	604.06
515.937	582.06
516.153	607.06
516.369	601.06
516.585	601.06
516.801	608.06
517.016	639.06
517.232	616.06
517.448	654.06
517.664	646.06
517.879	648.06
518.095	630.06
518.311	636.06
518.527	595.06
518.742	632.06
518.958	582.06
519.173	607.06
519.389	613.06
519.605	598.06
519.82	595.06
520.036	616.06
520.251	557.06
520.467	558.06
520.682	563.06
520.898	545.06
521.113	521.06
521.329	576.06
521.544	549.06
521.76	560.06
521.975	532.06
522.19	549.06
522.406	521.06
522.621	545.06
522.836	523.06
523.052	549.06
523.267	540.06
523.482	500.06
523.698	521.06
523.913	499.06
524.128	528.06
524.343	523.06
524.559	520.06
524.774	512.06
524.989	521.06
525.204	504.06
525.419	519.06
525.634	515.06
525.849	512.06
526.064	506.06
526.28	522.06
526.495	529.06
526.71	485.06
526.925	509.06
527.14	509.06
527.355	489.06
527.57	505.06
527.785	497.06
527.999	481.06
528.214	473.06
528.429	499.06
528.644	510.06
528.859	506.06
529.074	514.06
529.289	491.06
529.503	503.06
529.718	498.06
529.933	483.06
530.148	492.06
530.363	487.06
530.577	500.06
530.792	495.06
531.007	505.06
531.221	486.06
531.436	494.06
531.651	492.06
531.865	492.06
532.08	494.06
532.295	515.06
532.509	498.06
532.724	492.06
532.938	493.06
533.153	510.06
533.367	487.06
533.582	500.06
533.796	474.06
534.011	505.06
534.225	488.06
534.44	478.06
534.654	512.06
534.868	475.06
535.083	475.06
535.297	475.06
535.511	473.06
535.726	487.06
535.94	471.06
536.154	467.06
536.369	480.06
536.583	452.06
536.797	469.06
537.011	480.06
537.225	468.06
537.44	469.06
537.654	469.06
537.868	462.06
538.082	456.06
538.296	476.06
538.51	466.06
538.724	481.06
538.938	459.06
539.153	448.06
539.367	456.06
539.581	452.06
539.795	467.06
540.009	450.06
540.222	458.06
540.436	458.06
540.65	453.06
540.864	462.06
541.078	467.06
541.292	486.06
541.506	462.06
541.72	469.06
541.934	439.06
542.147	462.06
542.361	448.06
542.575	470.06
542.789	455.06
543.002	422.06
543.216	445.06
543.43	454.06
543.644	448.06
543.857	445.06
544.071	446.06
544.285	456.06
544.498	450.06
544.712	445.06
544.925	472.06
545.139	473.06
545.352	461.06
545.566	451.06
545.779	438.06
545.993	440.06
546.206	449.06
546.42	454.06
546.633	444.06
546.847	469.06
547.06	468.06
547.274	445.06
547.487	452.06
547.7	430.06
547.914	469.06
548.127	476.06
548.34	468.06
548.554	446.06
548.767	483.06
548.98	484.06
549.193	451.06
549.407	476.06
549.62	476.06
549.833	467.06
550.046	457.06
550.259	473.06
550.473	439.06
550.686	464.06
550.899	462.06
551.112	454.06
551.325	464.06
551.538	459.06
551.751	452.06
551.964	460.06
552.177	456.06
552.39	447.06
552.603	462.06
552.816	474.06
553.029	460.06
553.242	465.06
553.455	466.06
553.667	465.06
553.88	465.06
554.093	457.06
554.306	475.06
554.519	454.06
554.732	445.06
554.944	435.06
555.157	449.06
555.37	430.06
555.583	434.06
555.795	444.06
556.008	400.06
556.221	412.06
556.433	430.06
556.646	404.06
556.859	425.06
557.071	414.06
557.284	414.06
557.496	407.06
557.709	401.06
557.921	416.06
558.134	412.06
558.346	405.06
558.559	396.06
558.771	412.06
558.984	398.06
559.196	413.06
559.409	380.06
559.621	400.06
559.833	392.06
560.046	397.06
560.258	394.06
560.47	386.06
560.683	397.06
560.895	378.06
561.107	373.06
561.32	386.06
561.532	388.06
561.744	389.06
561.956	400.06
562.168	390.06
562.381	423.06
562.593	406.06
562.805	387.06
563.017	408.06
563.229	405.06
563.441	398.06
563.653	418.06
563.865	396.06
564.077	379.06
564.289	413.06
564.501	427.06
564.713	425.06
564.925	433.06
565.137	428.06
565.349	452.06
565.561	416.06
565.773	456.06
565.985	462.06
566.197	492.06
566.408	480.06
566.62	504.06
566.832	506.06
567.044	515.06
567.255	529.06
567.467	544.06
567.679	514.06
567.891	515.06
568.102	507.06
568.314	503.06
568.526	505.06
568.737	481.06
568.949	456.06
569.161	473.06
569.372	454.06
569.584	439.06
569.795	406.06
570.007	408.06
570.218	401.06
570.43	391.06
570.641	403.06
570.853	378.06
571.064	400.06
571.276	380.06
571.487	387.06
571.698	377.06
571.91	364.06
572.121	359.06
572.333	347.06
572.544	371.06
572.755	360.06
572.966	358.06
573.178	346.06
573.389	360.06
573.6	328.06
573.811	340.06
574.023	329.06
574.234	334.06
574.445	331.06
574.656	329.06
574.867	338.06
575.078	327.06
575.289	338.06
575.501	326.06
575.712	330.06
575.923	333.06
576.134	315.06
576.345	312.06
576.556	326.06
576.767	293.06
576.978	313.06
577.188	311.06
577.399	334.06
577.61	312.06
577.821	312.06
578.032	309.06
578.243	316.06
578.454	306.06
578.665	303.06
578.875	292.06
579.086	314.06
579.297	310.06
579.508	292.06
579.718	308.06
579.929	301.06
580.14	283.06
580.35	292.06
580.561	294.06
580.772	300.06
580.982	304.06
581.193	306.06
581.403	292.06
581.614	292.06
581.825	279.06
582.035	287.06
582.246	291.06
582.456	285.06
582.667	310.06
582.877	276.06
583.087	296.06
583.298	290.06
583.508	296.06
583.719	290.06
583.929	290.06
584.139	290.06
584.35	284.06
584.56	277.06
584.77	275.06
584.981	269.06
585.191	288.06
585.401	281.06
585.611	302.06
585.821	295.06
586.032	283.06
586.242	295.06
586.452	276.06
586.662	257.06
586.872	280.06
587.082	262.06
587.292	272.06
587.502	282.06
587.713	275.06
587.923	277.06
588.133	265.06
588.343	286.06
588.553	276.06
588.762	275.06
588.972	281.06
589.182	295.06
589.392	294.06
589.602	276.06
589.812	290.06
590.022	279.06
590.232	277.06
590.441	296.06
590.651	276.06
590.861	272.06
591.071	273.06
591.281	282.06
591.49	296.06
591.7	283.06
591.91	296.06
592.119	283.06
592.329	284.06
592.539	294.06
592.748	292.06
592.958	300.06
593.167	299.06
593.377	306.06
593.587	298.06
593.796	293.06
594.006	306.06
594.215	294.06
594.424	294.06
594.634	274.06
594.843	294.06
595.053	299.06
595.262	291.06
595.472	294.06
595.681	276.06
595.89	270.06
596.1	261.06
596.309	285.06
596.518	279.06
596.727	277.06
596.937	258.06
597.146	261.06
597.355	263.06
597.564	232.06
597.774	244.06
597.983	261.06
598.192	239.06
598.401	243.06
598.61	245.06
598.819	236.06
599.028	237.06
599.237	237.06
599.446	246.06
599.655	237.06
599.864	244.06
600.073	248.06
600.282	238.06
600.491	252.06
600.7	234.06
600.909	234.06
601.118	220.06
601.327	240.06
601.536	242.06
601.745	223.06
601.953	241.06
602.162	231.06
602.371	215.06
602.58	234.06
602.789	221.06
602.997	224.06
603.206	242.06
603.415	226.06
603.623	230.06
603.832	234.06
604.041	232.06
604.249	213.06
604.458	224.06
604.666	233.06
604.875	204.06
605.084	220.06
605.292	226.06
605.501	222.06
605.709	229.06
605.918	224.06
606.126	228.06
606.334	226.06
606.543	228.06
606.751	225.06
606.96	217.06
607.168	214.06
607.376	214.06
607.585	224.06
607.793	222.06
608.001	220.06
608.21	228.06
608.418	220.06
608.626	201.06
608.834	217.06
609.043	228.06
609.251	198.06
609.459	224.06
609.667	228.06
609.875	205.06
610.083	210.06
610.291	212.06
610.499	208.06
610.707	212.06
610.916	211.06
611.124	213.06
611.332	220.06
611.54	222.06
611.748	225.06
611.955	213.06
612.163	231.06
612.371	213.06
612.579	225.06
612.787	226.06
612.995	217.06
613.203	204.06
613.411	220.06
613.618	190.06
613.826	213.06
614.034	226.06
614.242	204.06
614.449	205.06
614.657	205.06
614.865	210.06
615.072	212.06
615.28	216.06
615.488	205.06
615.695	213.06
615.903	220.06
616.111	222.06
616.318	204.06
616.526	214.06
616.733	219.06
616.941	211.06
617.148	205.06
617.356	212.06
617.563	212.06
617.771	209.06
617.978	194.06
618.185	206.06
618.393	217.06
618.6	205.06
618.807	212.06
619.015	223.06
619.222	198.06
619.429	188.06
619.637	202.06
619.844	206.06
620.051	197.06
620.258	196.06
620.466	194.06
620.673	203.06
620.88	199.06
621.087	200.06
621.294	217.06
621.501	207.06
621.708	197.06
621.915	210.06
622.122	188.06
622.329	204.06
622.536	207.06
622.743	210.06
622.95	198.06
623.157	188.06
623.364	206.06
623.571	189.06
623.778	195.06
623.985	207.06
624.192	188.06
624.399	203.06
624.606	186.06
624.812	173.06
625.019	186.06
625.226	184.06
625.433	185.06
625.639	204.06
625.846	203.06
626.053	192.06
626.259	180.06
626.466	177.06
626.673	186.06
626.879	189.06
627.086	195.06
627.293	176.06
627.499	187.06
627.706	202.06
627.912	197.06
628.119	190.06
628.325	191.06
628.532	180.06
628.738	180.06
628.945	184.06
629.151	184.06
629.357	193.06
629.564	196.06
629.77	189.06
629.976	168.06
630.183	170.06
630.389	187.06
630.595	186.06
630.802	184.06
631.008	182.06
631.214	171.06
631.42	215.06
631.627	178.06
631.833	182.06
632.039	163.06
632.245	171.06
632.451	174.06
632.657	184.06
632.863	174.06
633.069	178.06
633.275	180.06
633.481	172.06
633.688	161.06
633.893	176.06
634.099	176.06
634.305	160.06
634.511	172.06
634.717	183.06
634.923	168.06
635.129	166.06
635.335	176.06
635.541	192.06
635.747	174.06
635.952	176.06
636.158	156.06
636.364	173.06
636.57	171.06
636.775	179.06
636.981	190.06
637.187	182.06
637.392	173.06
637.598	178.06
637.804	160.06
638.009	163.06
638.215	168.06
638.421	156.06
638.626	154.06
638.832	184.06
639.037	174.06
639.243	160.06
639.448	171.06
639.654	182.06
639.859	177.06
640.065	160.06
640.27	166.06
640.475	158.06
640.681	166.06
640.886	149.06
641.091	153.06
641.297	158.06
641.502	170.06
641.707	174.06
641.913	162.06
642.118	161.06
642.323	161.06
642.528	170.06
642.733	163.06
642.939	164.06
643.144	177.06
643.349	178.06
643.554	158.06
643.759	164.06
643.964	157.06
644.169	156.06
644.374	165.06
644.579	164.06
644.784	154.06
644.989	162.06
645.194	167.06
645.399	162.06
645.604	161.06
645.809	165.06
646.014	168.06
646.219	173.06
646.423	167.06
646.628	172.06
646.833	166.06
647.038	174.06
647.243	182.06
647.447	162.06
647.652	176.06
647.857	168.06
648.062	171.06
648.266	184.06
648.471	160.06
648.676	163.06
648.88	181.06
649.085	174.06
649.289	169.06
649.494	176.06
649.698	176.06
649.903	183.06
650.107	161.06
650.312	171.06
650.516	168.06
650.721	172.06
650.925	181.06
651.13	187.06
651.334	158.06
651.539	173.06
651.743	162.06
651.947	169.06
652.152	161.06
652.356	166.06
652.56	181.06
652.764	163.06
652.969	168.06
653.173	167.06
653.377	160.06
653.581	149.06
653.785	164.06
653.99	141.06
654.194	165.06
654.398	157.06
654.602	169.06
654.806	162.06
655.01	170.06
655.214	163.06
655.418	161.06
655.622	158.06
655.826	166.06
656.03	165.06
656.234	176.06
656.438	160.06
656.642	164.06
656.846	176.06
657.049	152.06
657.253	160.06
657.457	143.06
657.661	150.06
657.865	146.06
658.068	126.06
658.272	138.06
658.476	128.06
658.68	125.06
658.883	119.06
659.087	126.06
659.291	116.06
659.494	120.06
659.698	97.06
659.901	102.06
660.105	106.06
660.309	105.06
660.512	95.06
660.716	112.06
660.919	92.06
661.123	92.06
661.326	103.06
661.53	100.06
661.733	89.06
661.936	100.06
662.14	81.06
662.343	74.06
662.546	78.06
662.75	80.06
662.953	85.06
663.156	89.06
663.36	81.06
663.563	89.06
663.766	90.06
663.969	85.06
664.173	69.06
664.376	93.06
664.579	88.06
664.782	90.06
664.985	70.06
665.188	71.06
665.391	86.06
665.594	80.06
665.797	78.06
666	80.06
666.203	69.06
666.406	87.06
666.609	80.06
666.812	83.06
667.015	74.06
667.218	83.06
667.421	81.06
667.624	80.06
667.827	85.06
668.03	83.06
668.232	76.06
668.435	85.06
668.638	78.06
668.841	85.06
669.043	73.06
669.246	81.06
669.449	80.06
669.651	82.06
669.854	85.06
670.057	89.06
670.259	80.06
670.462	88.06
670.665	84.06
670.867	82.06
671.07	81.06
671.272	100.06
671.475	77.06
671.677	79.06
671.88	74.06
672.082	75.06
672.284	91.06
672.487	89.06
672.689	82.06
672.892	83.06
