Data from Fe(NO3)3@0.05M.TitratingCurve.Agarose3%dH2O.NegLispCup.LampEnergy10.LIBS07252019_HRD10591_16-45-51-334.txt Node
Date: Thu Jul 25 16:45:51 EDT 2019
User: cochatt
Spectrometer: HR+D1059
Trigger mode: 1
Integration Time (sec): 1.000000E-1
Scans to average: 1
Electric dark correction enabled: true
Nonlinearity correction enabled: false
Boxcar width: 0
XAxis mode: Wavelengths
Number of Pixels in Spectrum: 2048
>>>>>Begin Spectral Data<<<<<
223.165	-13.5
223.4	-13.5
223.635	-13.5
223.869	-3.5
224.104	-12.5
224.338	-21.5
224.573	-24.5
224.808	-15.5
225.042	-16.5
225.277	2.5
225.511	4.5
225.746	10.5
225.98	11.5
226.215	0.5
226.449	2.5
226.683	9.5
226.918	26.5
227.152	39.5
227.387	40.5
227.621	53.5
227.856	44.5
228.09	40.5
228.324	41.5
228.559	64.5
228.793	73.5
229.027	98.5
229.262	113.5
229.496	113.5
229.73	124.5
229.964	121.5
230.199	125.5
230.433	121.5
230.667	125.5
230.901	151.5
231.136	133.5
231.37	149.5
231.604	139.5
231.838	146.5
232.072	160.5
232.306	159.5
232.541	151.5
232.775	148.5
233.009	161.5
233.243	161.5
233.477	164.5
233.711	179.5
233.945	175.5
234.179	173.5
234.413	185.5
234.647	167.5
234.881	201.5
235.115	184.5
235.349	172.5
235.583	187.5
235.817	181.5
236.051	180.5
236.285	172.5
236.519	188.5
236.753	182.5
236.987	172.5
237.221	179.5
237.455	193.5
237.689	204.5
237.922	193.5
238.156	185.5
238.39	211.5
238.624	239.5
238.858	223.5
239.091	195.5
239.325	209.5
239.559	199.5
239.793	201.5
240.027	237.5
240.26	252.5
240.494	216.5
240.728	222.5
240.961	226.5
241.195	233.5
241.429	235.5
241.662	224.5
241.896	232.5
242.13	227.5
242.363	216.5
242.597	224.5
242.83	221.5
243.064	234.5
243.298	237.5
243.531	227.5
243.765	232.5
243.998	234.5
244.232	234.5
244.465	231.5
244.699	255.5
244.932	241.5
245.166	243.5
245.399	241.5
245.633	236.5
245.866	234.5
246.099	252.5
246.333	271.5
246.566	274.5
246.8	287.5
247.033	271.5
247.266	247.5
247.5	259.5
247.733	272.5
247.966	260.5
248.2	260.5
248.433	275.5
248.666	291.5
248.899	284.5
249.133	283.5
249.366	325.5
249.599	324.5
249.832	322.5
250.066	288.5
250.299	313.5
250.532	301.5
250.765	279.5
250.998	292.5
251.231	290.5
251.465	292.5
251.698	303.5
251.931	303.5
252.164	312.5
252.397	309.5
252.63	327.5
252.863	337.5
253.096	339.5
253.329	333.5
253.562	325.5
253.795	339.5
254.028	372.5
254.261	367.5
254.494	337.5
254.727	329.5
254.96	332.5
255.193	351.5
255.426	343.5
255.659	329.5
255.892	332.5
256.124	348.5
256.357	351.5
256.59	355.5
256.823	361.5
257.056	327.5
257.289	324.5
257.521	332.5
257.754	360.5
257.987	342.5
258.22	336.5
258.452	351.5
258.685	365.5
258.918	381.5
259.151	360.5
259.383	366.5
259.616	364.5
259.849	397.5
260.081	460.5
260.314	494.5
260.547	402.5
260.779	380.5
261.012	422.5
261.244	417.5
261.477	439.5
261.71	432.5
261.942	390.5
262.175	395.5
262.407	402.5
262.64	387.5
262.872	409.5
263.105	437.5
263.337	451.5
263.57	434.5
263.802	400.5
264.035	383.5
264.267	375.5
264.499	379.5
264.732	382.5
264.964	389.5
265.197	394.5
265.429	383.5
265.661	395.5
265.894	375.5
266.126	399.5
266.358	404.5
266.591	398.5
266.823	417.5
267.055	408.5
267.287	390.5
267.52	395.5
267.752	406.5
267.984	395.5
268.216	412.5
268.448	402.5
268.681	425.5
268.913	404.5
269.145	427.5
269.377	435.5
269.609	427.5
269.841	393.5
270.073	405.5
270.306	413.5
270.538	420.5
270.77	415.5
271.002	435.5
271.234	443.5
271.466	432.5
271.698	457.5
271.93	458.5
272.162	450.5
272.394	449.5
272.626	449.5
272.858	481.5
273.09	479.5
273.322	480.5
273.553	485.5
273.785	477.5
274.017	551.5
274.249	572.5
274.481	549.5
274.713	573.5
274.945	629.5
275.176	661.5
275.408	612.5
275.64	573.5
275.872	581.5
276.104	525.5
276.335	487.5
276.567	483.5
276.799	496.5
277.031	507.5
277.262	503.5
277.494	477.5
277.726	482.5
277.957	473.5
278.189	476.5
278.421	480.5
278.652	487.5
278.884	508.5
279.115	486.5
279.347	515.5
279.579	487.5
279.81	468.5
280.042	470.5
280.273	486.5
280.505	481.5
280.736	499.5
280.968	503.5
281.199	530.5
281.431	528.5
281.662	500.5
281.894	523.5
282.125	500.5
282.356	521.5
282.588	490.5
282.819	518.5
283.051	519.5
283.282	502.5
283.513	524.5
283.745	535.5
283.976	519.5
284.207	531.5
284.439	547.5
284.67	522.5
284.901	537.5
285.132	517.5
285.364	551.5
285.595	531.5
285.826	555.5
286.057	557.5
286.288	560.5
286.52	561.5
286.751	555.5
286.982	547.5
287.213	543.5
287.444	550.5
287.675	554.5
287.906	546.5
288.138	553.5
288.369	557.5
288.6	568.5
288.831	551.5
289.062	545.5
289.293	549.5
289.524	548.5
289.755	580.5
289.986	553.5
290.217	561.5
290.448	544.5
290.679	543.5
290.91	565.5
291.141	553.5
291.371	566.5
291.602	570.5
291.833	554.5
292.064	569.5
292.295	571.5
292.526	568.5
292.757	574.5
292.987	576.5
293.218	555.5
293.449	549.5
293.68	589.5
293.91	585.5
294.141	570.5
294.372	554.5
294.603	596.5
294.833	602.5
295.064	570.5
295.295	588.5
295.525	584.5
295.756	579.5
295.987	575.5
296.217	581.5
296.448	576.5
296.679	592.5
296.909	587.5
297.14	617.5
297.37	631.5
297.601	595.5
297.831	592.5
298.062	601.5
298.292	613.5
298.523	627.5
298.753	631.5
298.984	618.5
299.214	605.5
299.445	615.5
299.675	625.5
299.905	629.5
300.136	595.5
300.366	612.5
300.597	599.5
300.827	605.5
301.057	639.5
301.288	615.5
301.518	631.5
301.748	626.5
301.979	635.5
302.209	662.5
302.439	643.5
302.669	635.5
302.9	653.5
303.13	645.5
303.36	646.5
303.59	635.5
303.82	606.5
304.051	666.5
304.281	635.5
304.511	635.5
304.741	638.5
304.971	639.5
305.201	638.5
305.431	646.5
305.661	647.5
305.891	661.5
306.121	661.5
306.352	652.5
306.582	653.5
306.812	663.5
307.042	652.5
307.272	653.5
307.502	641.5
307.731	667.5
307.961	663.5
308.191	642.5
308.421	621.5
308.651	667.5
308.881	643.5
309.111	662.5
309.341	633.5
309.571	659.5
309.8	692.5
310.03	658.5
310.26	675.5
310.49	666.5
310.72	640.5
310.949	635.5
311.179	659.5
311.409	672.5
311.639	668.5
311.868	655.5
312.098	661.5
312.328	677.5
312.557	661.5
312.787	682.5
313.017	677.5
313.246	694.5
313.476	659.5
313.706	673.5
313.935	690.5
314.165	691.5
314.394	673.5
314.624	685.5
314.853	674.5
315.083	701.5
315.312	727.5
315.542	697.5
315.771	697.5
316.001	679.5
316.23	695.5
316.46	708.5
316.689	707.5
316.919	697.5
317.148	716.5
317.377	700.5
317.607	687.5
317.836	709.5
318.065	692.5
318.295	708.5
318.524	708.5
318.753	700.5
318.983	704.5
319.212	711.5
319.441	682.5
319.67	691.5
319.9	727.5
320.129	704.5
320.358	706.5
320.587	703.5
320.816	729.5
321.046	697.5
321.275	730.5
321.504	715.5
321.733	745.5
321.962	737.5
322.191	717.5
322.42	736.5
322.649	725.5
322.878	741.5
323.108	727.5
323.337	715.5
323.566	716.5
323.795	743.5
324.024	746.5
324.253	734.5
324.482	723.5
324.71	725.5
324.939	744.5
325.168	759.5
325.397	721.5
325.626	739.5
325.855	752.5
326.084	765.5
326.313	737.5
326.542	765.5
326.77	796.5
326.999	775.5
327.228	751.5
327.457	760.5
327.686	775.5
327.914	794.5
328.143	779.5
328.372	781.5
328.6	771.5
328.829	794.5
329.058	759.5
329.287	737.5
329.515	787.5
329.744	758.5
329.972	785.5
330.201	811.5
330.43	787.5
330.658	757.5
330.887	816.5
331.115	781.5
331.344	775.5
331.572	788.5
331.801	856.5
332.03	803.5
332.258	789.5
332.486	833.5
332.715	842.5
332.943	821.5
333.172	823.5
333.4	822.5
333.629	867.5
333.857	897.5
334.085	882.5
334.314	876.5
334.542	889.5
334.771	891.5
334.999	895.5
335.227	908.5
335.455	893.5
335.684	928.5
335.912	896.5
336.14	895.5
336.369	885.5
336.597	892.5
336.825	872.5
337.053	875.5
337.281	865.5
337.51	877.5
337.738	876.5
337.966	845.5
338.194	846.5
338.422	844.5
338.65	849.5
338.878	860.5
339.106	811.5
339.334	868.5
339.562	822.5
339.79	807.5
340.018	825.5
340.246	831.5
340.474	845.5
340.702	859.5
340.93	823.5
341.158	826.5
341.386	837.5
341.614	848.5
341.842	831.5
342.07	847.5
342.298	823.5
342.526	837.5
342.754	837.5
342.981	840.5
343.209	835.5
343.437	831.5
343.665	833.5
343.893	867.5
344.12	910.5
344.348	889.5
344.576	892.5
344.804	870.5
345.031	851.5
345.259	844.5
345.487	823.5
345.714	805.5
345.942	787.5
346.17	837.5
346.397	810.5
346.625	818.5
346.853	817.5
347.08	796.5
347.308	799.5
347.535	796.5
347.763	823.5
347.99	783.5
348.218	770.5
348.445	795.5
348.673	765.5
348.9	776.5
349.128	767.5
349.355	808.5
349.583	780.5
349.81	795.5
350.037	775.5
350.265	774.5
350.492	769.5
350.72	761.5
350.947	745.5
351.174	796.5
351.402	803.5
351.629	742.5
351.856	760.5
352.083	797.5
352.311	783.5
352.538	788.5
352.765	792.5
352.992	770.5
353.22	760.5
353.447	764.5
353.674	795.5
353.901	783.5
354.128	779.5
354.355	775.5
354.583	769.5
354.81	771.5
355.037	791.5
355.264	778.5
355.491	760.5
355.718	805.5
355.945	803.5
356.172	793.5
356.399	819.5
356.626	802.5
356.853	811.5
357.08	779.5
357.307	804.5
357.534	773.5
357.761	808.5
357.988	796.5
358.215	817.5
358.441	872.5
358.668	824.5
358.895	789.5
359.122	771.5
359.349	769.5
359.576	785.5
359.802	796.5
360.029	805.5
360.256	771.5
360.483	786.5
360.709	804.5
360.936	820.5
361.163	833.5
361.39	800.5
361.616	832.5
361.843	822.5
362.07	800.5
362.296	806.5
362.523	775.5
362.749	792.5
362.976	801.5
363.203	805.5
363.429	837.5
363.656	821.5
363.882	784.5
364.109	803.5
364.335	784.5
364.562	803.5
364.788	818.5
365.015	845.5
365.241	797.5
365.468	791.5
365.694	804.5
365.92	832.5
366.147	839.5
366.373	808.5
366.599	804.5
366.826	805.5
367.052	802.5
367.278	796.5
367.505	835.5
367.731	819.5
367.957	801.5
368.184	856.5
368.41	843.5
368.636	819.5
368.862	844.5
369.089	843.5
369.315	813.5
369.541	808.5
369.767	832.5
369.993	848.5
370.219	844.5
370.445	864.5
370.672	891.5
370.898	855.5
371.124	869.5
371.35	869.5
371.576	840.5
371.802	868.5
372.028	918.5
372.254	887.5
372.48	929.5
372.706	890.5
372.932	901.5
373.158	908.5
373.384	931.5
373.61	945.5
373.835	983.5
374.061	916.5
374.287	895.5
374.513	899.5
374.739	946.5
374.965	961.5
375.191	959.5
375.416	933.5
375.642	922.5
375.868	907.5
376.094	948.5
376.319	919.5
376.545	919.5
376.771	913.5
376.997	870.5
377.222	847.5
377.448	878.5
377.674	849.5
377.899	886.5
378.125	877.5
378.35	893.5
378.576	873.5
378.802	877.5
379.027	862.5
379.253	875.5
379.478	849.5
379.704	881.5
379.929	879.5
380.155	884.5
380.38	865.5
380.606	899.5
380.831	878.5
381.057	903.5
381.282	868.5
381.507	891.5
381.733	895.5
381.958	935.5
382.184	956.5
382.409	975.5
382.634	935.5
382.86	969.5
383.085	926.5
383.31	902.5
383.535	943.5
383.761	954.5
383.986	968.5
384.211	965.5
384.436	992.5
384.662	959.5
384.887	974.5
385.112	989.5
385.337	1010.5
385.562	1015.5
385.787	993.5
386.013	1010.5
386.238	1007.5
386.463	1031.5
386.688	1006.5
386.913	995.5
387.138	1014.5
387.363	1011.5
387.588	1024.5
387.813	1023.5
388.038	1036.5
388.263	1029.5
388.488	1032.5
388.713	1047.5
388.938	1027.5
389.163	1042.5
389.387	1041.5
389.612	1026.5
389.837	1010.5
390.062	1048.5
390.287	1048.5
390.512	1044.5
390.736	1010.5
390.961	1065.5
391.186	1052.5
391.411	1066.5
391.636	1049.5
391.86	1079.5
392.085	1089.5
392.31	1075.5
392.534	1079.5
392.759	1085.5
392.984	1082.5
393.208	1111.5
393.433	1066.5
393.658	1057.5
393.882	1071.5
394.107	1028.5
394.331	1053.5
394.556	1079.5
394.78	1077.5
395.005	1074.5
395.229	1074.5
395.454	1110.5
395.678	1114.5
395.903	1104.5
396.127	1121.5
396.352	1119.5
396.576	1109.5
396.801	1084.5
397.025	1153.5
397.249	1147.5
397.474	1153.5
397.698	1120.5
397.922	1157.5
398.147	1133.5
398.371	1158.5
398.595	1205.5
398.82	1238.5
399.044	1243.5
399.268	1317.5
399.492	1362.5
399.717	1379.5
399.941	1385.5
400.165	1337.5
400.389	1405.5
400.613	1325.5
400.837	1288.5
401.062	1268.5
401.286	1275.5
401.51	1244.5
401.734	1215.5
401.958	1245.5
402.182	1251.5
402.406	1227.5
402.63	1212.5
402.854	1255.5
403.078	1226.5
403.302	1204.5
403.526	1250.5
403.75	1216.5
403.974	1233.5
404.198	1229.5
404.422	1265.5
404.645	1250.5
404.869	1264.5
405.093	1240.5
405.317	1253.5
405.541	1284.5
405.765	1244.5
405.988	1273.5
406.212	1317.5
406.436	1336.5
406.66	1352.5
406.883	1323.5
407.107	1337.5
407.331	1433.5
407.555	1414.5
407.778	1428.5
408.002	1376.5
408.226	1404.5
408.449	1408.5
408.673	1379.5
408.896	1360.5
409.12	1331.5
409.344	1356.5
409.567	1346.5
409.791	1321.5
410.014	1353.5
410.238	1335.5
410.461	1318.5
410.685	1313.5
410.908	1335.5
411.132	1287.5
411.355	1249.5
411.578	1278.5
411.802	1293.5
412.025	1253.5
412.249	1298.5
412.472	1335.5
412.695	1291.5
412.919	1265.5
413.142	1275.5
413.365	1292.5
413.589	1273.5
413.812	1223.5
414.035	1222.5
414.258	1257.5
414.482	1237.5
414.705	1251.5
414.928	1258.5
415.151	1260.5
415.374	1238.5
415.597	1243.5
415.821	1230.5
416.044	1198.5
416.267	1229.5
416.49	1228.5
416.713	1206.5
416.936	1203.5
417.159	1223.5
417.382	1215.5
417.605	1216.5
417.828	1174.5
418.051	1244.5
418.274	1204.5
418.497	1177.5
418.72	1193.5
418.943	1197.5
419.166	1238.5
419.389	1330.5
419.611	1308.5
419.834	1267.5
420.057	1267.5
420.28	1235.5
420.503	1165.5
420.726	1193.5
420.948	1147.5
421.171	1199.5
421.394	1156.5
421.617	1179.5
421.839	1190.5
422.062	1155.5
422.285	1178.5
422.507	1170.5
422.73	1171.5
422.953	1183.5
423.175	1192.5
423.398	1165.5
423.621	1147.5
423.843	1201.5
424.066	1187.5
424.288	1168.5
424.511	1201.5
424.733	1179.5
424.956	1172.5
425.178	1166.5
425.401	1157.5
425.623	1212.5
425.846	1158.5
426.068	1153.5
426.291	1163.5
426.513	1153.5
426.735	1138.5
426.958	1154.5
427.18	1163.5
427.402	1178.5
427.625	1159.5
427.847	1155.5
428.069	1162.5
428.292	1172.5
428.514	1172.5
428.736	1146.5
428.958	1165.5
429.181	1125.5
429.403	1145.5
429.625	1114.5
429.847	1130.5
430.069	1158.5
430.292	1141.5
430.514	1133.5
430.736	1122.5
430.958	1145.5
431.18	1167.5
431.402	1123.5
431.624	1123.5
431.846	1119.5
432.068	1151.5
432.29	1145.5
432.512	1130.5
432.734	1203.5
432.956	1171.5
433.178	1180.5
433.4	1195.5
433.622	1155.5
433.844	1190.5
434.066	1152.5
434.287	1159.5
434.509	1169.5
434.731	1167.5
434.953	1196.5
435.175	1192.5
435.397	1189.5
435.618	1209.5
435.84	1157.5
436.062	1146.5
436.284	1133.5
436.505	1127.5
436.727	1173.5
436.949	1141.5
437.17	1111.5
437.392	1125.5
437.614	1137.5
437.835	1109.5
438.057	1138.5
438.278	1135.5
438.5	1144.5
438.721	1129.5
438.943	1119.5
439.165	1117.5
439.386	1138.5
439.608	1130.5
439.829	1120.5
440.05	1163.5
440.272	1127.5
440.493	1130.5
440.715	1187.5
440.936	1147.5
441.158	1138.5
441.379	1187.5
441.6	1208.5
441.822	1154.5
442.043	1185.5
442.264	1187.5
442.486	1155.5
442.707	1192.5
442.928	1169.5
443.149	1176.5
443.371	1161.5
443.592	1158.5
443.813	1160.5
444.034	1216.5
444.255	1180.5
444.476	1218.5
444.698	1224.5
444.919	1228.5
445.14	1340.5
445.361	1253.5
445.582	1213.5
445.803	1187.5
446.024	1196.5
446.245	1160.5
446.466	1186.5
446.687	1177.5
446.908	1149.5
447.129	1138.5
447.35	1138.5
447.571	1103.5
447.792	1084.5
448.013	1125.5
448.234	1048.5
448.455	1074.5
448.675	1043.5
448.896	1075.5
449.117	1056.5
449.338	1079.5
449.559	1075.5
449.779	1053.5
450	1047.5
450.221	1043.5
450.442	1037.5
450.662	1047.5
450.883	1045.5
451.104	1037.5
451.324	1048.5
451.545	1013.5
451.766	1047.5
451.986	1045.5
452.207	1038.5
452.428	1050.5
452.648	1059.5
452.869	1016.5
453.089	1030.5
453.31	1024.5
453.53	998.5
453.751	996.5
453.971	994.5
454.192	1028.5
454.412	979.5
454.633	1010.5
454.853	1007.5
455.073	990.5
455.294	1034.5
455.514	994.5
455.734	986.5
455.955	972.5
456.175	989.5
456.395	984.5
456.616	948.5
456.836	995.5
457.056	1028.5
457.276	1018.5
457.497	1012.5
457.717	1029.5
457.937	1024.5
458.157	1036.5
458.377	1033.5
458.598	1079.5
458.818	1060.5
459.038	1068.5
459.258	1085.5
459.478	1146.5
459.698	1124.5
459.918	1109.5
460.138	1183.5
460.358	1149.5
460.578	1210.5
460.798	1199.5
461.018	1218.5
461.238	1226.5
461.458	1192.5
461.678	1199.5
461.898	1228.5
462.118	1271.5
462.338	1308.5
462.558	1339.5
462.777	1314.5
462.997	1339.5
463.217	1347.5
463.437	1402.5
463.657	1365.5
463.876	1353.5
464.096	1331.5
464.316	1327.5
464.536	1294.5
464.755	1301.5
464.975	1309.5
465.195	1251.5
465.414	1219.5
465.634	1207.5
465.854	1181.5
466.073	1169.5
466.293	1168.5
466.512	1146.5
466.732	1161.5
466.951	1116.5
467.171	1083.5
467.391	1118.5
467.61	1107.5
467.829	1109.5
468.049	1110.5
468.268	1093.5
468.488	1085.5
468.707	1114.5
468.927	1111.5
469.146	1107.5
469.365	1126.5
469.585	1111.5
469.804	1120.5
470.023	1156.5
470.243	1086.5
470.462	1117.5
470.681	1114.5
470.901	1107.5
471.12	1133.5
471.339	1125.5
471.558	1128.5
471.777	1104.5
471.997	1111.5
472.216	1139.5
472.435	1122.5
472.654	1063.5
472.873	1097.5
473.092	1133.5
473.311	1119.5
473.53	1095.5
473.749	1085.5
473.968	1103.5
474.187	1083.5
474.406	1095.5
474.625	1124.5
474.844	1114.5
475.063	1129.5
475.282	1116.5
475.501	1111.5
475.72	1137.5
475.939	1144.5
476.158	1133.5
476.377	1168.5
476.596	1215.5
476.814	1229.5
477.033	1183.5
477.252	1211.5
477.471	1187.5
477.69	1207.5
477.908	1235.5
478.127	1239.5
478.346	1262.5
478.564	1279.5
478.783	1277.5
479.002	1285.5
479.22	1307.5
479.439	1359.5
479.658	1338.5
479.876	1325.5
480.095	1307.5
480.313	1338.5
480.532	1319.5
480.751	1337.5
480.969	1333.5
481.188	1321.5
481.406	1384.5
481.624	1344.5
481.843	1268.5
482.061	1274.5
482.28	1333.5
482.498	1326.5
482.717	1299.5
482.935	1353.5
483.153	1315.5
483.372	1312.5
483.59	1320.5
483.808	1315.5
484.027	1316.5
484.245	1291.5
484.463	1318.5
484.681	1337.5
484.9	1373.5
485.118	1349.5
485.336	1345.5
485.554	1317.5
485.772	1341.5
485.99	1350.5
486.209	1330.5
486.427	1331.5
486.645	1332.5
486.863	1363.5
487.081	1344.5
487.299	1349.5
487.517	1344.5
487.735	1351.5
487.953	1357.5
488.171	1370.5
488.389	1367.5
488.607	1331.5
488.825	1361.5
489.043	1333.5
489.261	1327.5
489.479	1353.5
489.696	1306.5
489.914	1343.5
490.132	1345.5
490.35	1351.5
490.568	1356.5
490.786	1345.5
491.003	1339.5
491.221	1379.5
491.439	1370.5
491.657	1364.5
491.874	1369.5
492.092	1402.5
492.31	1437.5
492.527	1378.5
492.745	1397.5
492.963	1382.5
493.18	1413.5
493.398	1405.5
493.615	1380.5
493.833	1393.5
494.05	1395.5
494.268	1383.5
494.485	1423.5
494.703	1371.5
494.92	1433.5
495.138	1434.5
495.355	1406.5
495.573	1422.5
495.79	1459.5
496.008	1468.5
496.225	1447.5
496.442	1453.5
496.66	1495.5
496.877	1498.5
497.094	1519.5
497.312	1517.5
497.529	1533.5
497.746	1562.5
497.963	1623.5
498.181	1659.5
498.398	1689.5
498.615	1721.5
498.832	1791.5
499.049	1857.5
499.267	1885.5
499.484	1970.5
499.701	2060.5
499.918	2117.5
500.135	2241.5
500.352	2293.5
500.569	2398.5
500.786	2328.5
501.003	2335.5
501.22	2279.5
501.437	2147.5
501.654	2027.5
501.871	1976.5
502.088	1882.5
502.305	1795.5
502.522	1750.5
502.739	1727.5
502.956	1643.5
503.172	1622.5
503.389	1564.5
503.606	1542.5
503.823	1532.5
504.04	1548.5
504.256	1520.5
504.473	1456.5
504.69	1482.5
504.907	1469.5
505.123	1419.5
505.34	1413.5
505.557	1386.5
505.773	1395.5
505.99	1369.5
506.207	1317.5
506.423	1290.5
506.64	1299.5
506.856	1274.5
507.073	1278.5
507.289	1246.5
507.506	1252.5
507.722	1227.5
507.939	1256.5
508.155	1244.5
508.372	1219.5
508.588	1207.5
508.805	1184.5
509.021	1178.5
509.238	1155.5
509.454	1153.5
509.67	1135.5
509.887	1119.5
510.103	1146.5
510.319	1159.5
510.536	1121.5
510.752	1109.5
510.968	1114.5
511.184	1074.5
511.401	1125.5
511.617	1123.5
511.833	1112.5
512.049	1112.5
512.265	1114.5
512.481	1096.5
512.698	1079.5
512.914	1127.5
513.13	1132.5
513.346	1120.5
513.562	1112.5
513.778	1096.5
513.994	1110.5
514.21	1085.5
514.426	1097.5
514.642	1100.5
514.858	1105.5
515.074	1130.5
515.29	1119.5
515.506	1154.5
515.721	1130.5
515.937	1171.5
516.153	1144.5
516.369	1133.5
516.585	1167.5
516.801	1205.5
517.016	1202.5
517.232	1205.5
517.448	1253.5
517.664	1227.5
517.879	1200.5
518.095	1277.5
518.311	1214.5
518.527	1201.5
518.742	1209.5
518.958	1204.5
519.173	1171.5
519.389	1161.5
519.605	1142.5
519.82	1165.5
520.036	1189.5
520.251	1180.5
520.467	1126.5
520.682	1084.5
520.898	1095.5
521.113	1075.5
521.329	1081.5
521.544	1077.5
521.76	1080.5
521.975	1051.5
522.19	1037.5
522.406	1040.5
522.621	1032.5
522.836	1065.5
523.052	1052.5
523.267	1024.5
523.482	1011.5
523.698	1031.5
523.913	1056.5
524.128	1025.5
524.343	1014.5
524.559	1002.5
524.774	975.5
524.989	994.5
525.204	982.5
525.419	1004.5
525.634	955.5
525.849	971.5
526.064	997.5
526.28	1003.5
526.495	1030.5
526.71	1022.5
526.925	978.5
527.14	980.5
527.355	970.5
527.57	953.5
527.785	965.5
527.999	959.5
528.214	971.5
528.429	945.5
528.644	959.5
528.859	978.5
529.074	954.5
529.289	990.5
529.503	958.5
529.718	966.5
529.933	974.5
530.148	936.5
530.363	923.5
530.577	959.5
530.792	962.5
531.007	935.5
531.221	943.5
531.436	932.5
531.651	932.5
531.865	922.5
532.08	931.5
532.295	956.5
532.509	939.5
532.724	953.5
532.938	948.5
533.153	951.5
533.367	920.5
533.582	950.5
533.796	938.5
534.011	935.5
534.225	921.5
534.44	923.5
534.654	922.5
534.868	905.5
535.083	921.5
535.297	920.5
535.511	923.5
535.726	887.5
535.94	905.5
536.154	872.5
536.369	895.5
536.583	887.5
536.797	891.5
537.011	900.5
537.225	847.5
537.44	895.5
537.654	893.5
537.868	855.5
538.082	878.5
538.296	872.5
538.51	871.5
538.724	879.5
538.938	854.5
539.153	850.5
539.367	850.5
539.581	872.5
539.795	849.5
540.009	857.5
540.222	853.5
540.436	841.5
540.65	869.5
540.864	875.5
541.078	869.5
541.292	876.5
541.506	885.5
541.72	864.5
541.934	852.5
542.147	880.5
542.361	879.5
542.575	856.5
542.789	852.5
543.002	837.5
543.216	820.5
543.43	848.5
543.644	819.5
543.857	833.5
544.071	869.5
544.285	850.5
544.498	836.5
544.712	819.5
544.925	844.5
545.139	865.5
545.352	846.5
545.566	849.5
545.779	845.5
545.993	872.5
546.206	852.5
546.42	851.5
546.633	869.5
546.847	866.5
547.06	875.5
547.274	867.5
547.487	839.5
547.7	849.5
547.914	857.5
548.127	875.5
548.34	848.5
548.554	825.5
548.767	853.5
548.98	868.5
549.193	851.5
549.407	859.5
549.62	904.5
549.833	909.5
550.046	893.5
550.259	876.5
550.473	831.5
550.686	857.5
550.899	835.5
551.112	872.5
551.325	842.5
551.538	883.5
551.751	873.5
551.964	852.5
552.177	838.5
552.39	839.5
552.603	855.5
552.816	859.5
553.029	863.5
553.242	859.5
553.455	852.5
553.667	858.5
553.88	834.5
554.093	826.5
554.306	849.5
554.519	834.5
554.732	839.5
554.944	831.5
555.157	778.5
555.37	793.5
555.583	765.5
555.795	772.5
556.008	792.5
556.221	783.5
556.433	762.5
556.646	792.5
556.859	742.5
557.071	742.5
557.284	764.5
557.496	760.5
557.709	758.5
557.921	759.5
558.134	731.5
558.346	728.5
558.559	757.5
558.771	722.5
558.984	739.5
559.196	733.5
559.409	725.5
559.621	711.5
559.833	687.5
560.046	715.5
560.258	726.5
560.47	713.5
560.683	735.5
560.895	744.5
561.107	696.5
561.32	709.5
561.532	709.5
561.744	720.5
561.956	743.5
562.168	723.5
562.381	706.5
562.593	725.5
562.805	714.5
563.017	697.5
563.229	737.5
563.441	703.5
563.653	738.5
563.865	715.5
564.077	738.5
564.289	733.5
564.501	759.5
564.713	758.5
564.925	744.5
565.137	754.5
565.349	771.5
565.561	775.5
565.773	813.5
565.985	817.5
566.197	828.5
566.408	870.5
566.62	879.5
566.832	887.5
567.044	901.5
567.255	890.5
567.467	897.5
567.679	903.5
567.891	925.5
568.102	915.5
568.314	885.5
568.526	844.5
568.737	833.5
568.949	811.5
569.161	782.5
569.372	778.5
569.584	729.5
569.795	753.5
570.007	725.5
570.218	696.5
570.43	704.5
570.641	694.5
570.853	683.5
571.064	666.5
571.276	659.5
571.487	677.5
571.698	662.5
571.91	643.5
572.121	657.5
572.333	647.5
572.544	628.5
572.755	611.5
572.966	630.5
573.178	589.5
573.389	597.5
573.6	586.5
573.811	598.5
574.023	602.5
574.234	620.5
574.445	595.5
574.656	583.5
574.867	581.5
575.078	555.5
575.289	588.5
575.501	559.5
575.712	563.5
575.923	554.5
576.134	557.5
576.345	552.5
576.556	544.5
576.767	535.5
576.978	580.5
577.188	562.5
577.399	547.5
577.61	543.5
577.821	526.5
578.032	544.5
578.243	538.5
578.454	533.5
578.665	553.5
578.875	527.5
579.086	501.5
579.297	525.5
579.508	524.5
579.718	520.5
579.929	492.5
580.14	534.5
580.35	524.5
580.561	504.5
580.772	518.5
580.982	497.5
581.193	505.5
581.403	512.5
581.614	489.5
581.825	497.5
582.035	480.5
582.246	490.5
582.456	503.5
582.667	490.5
582.877	501.5
583.087	487.5
583.298	494.5
583.508	479.5
583.719	470.5
583.929	488.5
584.139	471.5
584.35	507.5
584.56	480.5
584.77	489.5
584.981	465.5
585.191	472.5
585.401	471.5
585.611	474.5
585.821	453.5
586.032	443.5
586.242	478.5
586.452	485.5
586.662	461.5
586.872	465.5
587.082	475.5
587.292	471.5
587.502	461.5
587.713	465.5
587.923	459.5
588.133	481.5
588.343	463.5
588.553	469.5
588.762	459.5
588.972	469.5
589.182	504.5
589.392	511.5
589.602	486.5
589.812	502.5
590.022	491.5
590.232	466.5
590.441	465.5
590.651	481.5
590.861	437.5
591.071	473.5
591.281	472.5
591.49	479.5
591.7	481.5
591.91	483.5
592.119	459.5
592.329	458.5
592.539	468.5
592.748	480.5
592.958	501.5
593.167	513.5
593.377	489.5
593.587	493.5
593.796	483.5
594.006	511.5
594.215	482.5
594.424	481.5
594.634	496.5
594.843	469.5
595.053	458.5
595.262	453.5
595.472	462.5
595.681	450.5
595.89	449.5
596.1	441.5
596.309	444.5
596.518	455.5
596.727	439.5
596.937	426.5
597.146	419.5
597.355	429.5
597.564	415.5
597.774	428.5
597.983	387.5
598.192	428.5
598.401	416.5
598.61	425.5
598.819	410.5
599.028	410.5
599.237	377.5
599.446	395.5
599.655	395.5
599.864	398.5
600.073	393.5
600.282	406.5
600.491	383.5
600.7	375.5
600.909	385.5
601.118	406.5
601.327	385.5
601.536	387.5
601.745	378.5
601.953	381.5
602.162	379.5
602.371	373.5
602.58	402.5
602.789	385.5
602.997	388.5
603.206	367.5
603.415	375.5
603.623	361.5
603.832	368.5
604.041	368.5
604.249	376.5
604.458	354.5
604.666	364.5
604.875	362.5
605.084	355.5
605.292	353.5
605.501	382.5
605.709	381.5
605.918	374.5
606.126	345.5
606.334	343.5
606.543	356.5
606.751	354.5
606.96	341.5
607.168	368.5
607.376	362.5
607.585	344.5
607.793	331.5
608.001	351.5
608.21	338.5
608.418	361.5
608.626	340.5
608.834	349.5
609.043	357.5
609.251	344.5
609.459	352.5
609.667	348.5
609.875	337.5
610.083	350.5
610.291	346.5
610.499	356.5
610.707	352.5
610.916	354.5
611.124	367.5
611.332	344.5
611.54	343.5
611.748	346.5
611.955	321.5
612.163	336.5
612.371	329.5
612.579	347.5
612.787	351.5
612.995	340.5
613.203	333.5
613.411	339.5
613.618	338.5
613.826	319.5
614.034	328.5
614.242	359.5
614.449	333.5
614.657	336.5
614.865	332.5
615.072	334.5
615.28	327.5
615.488	320.5
615.695	333.5
615.903	308.5
616.111	320.5
616.318	344.5
616.526	323.5
616.733	323.5
616.941	323.5
617.148	331.5
617.356	346.5
617.563	323.5
617.771	325.5
617.978	327.5
618.185	313.5
618.393	312.5
618.6	327.5
618.807	314.5
619.015	335.5
619.222	323.5
619.429	311.5
619.637	325.5
619.844	326.5
620.051	324.5
620.258	315.5
620.466	316.5
620.673	309.5
620.88	305.5
621.087	296.5
621.294	296.5
621.501	314.5
621.708	305.5
621.915	291.5
622.122	288.5
622.329	292.5
622.536	305.5
622.743	307.5
622.95	296.5
623.157	301.5
623.364	308.5
623.571	291.5
623.778	289.5
623.985	307.5
624.192	295.5
624.399	316.5
624.606	309.5
624.812	293.5
625.019	296.5
625.226	308.5
625.433	303.5
625.639	284.5
625.846	277.5
626.053	291.5
626.259	280.5
626.466	295.5
626.673	266.5
626.879	261.5
627.086	287.5
627.293	313.5
627.499	281.5
627.706	291.5
627.912	276.5
628.119	276.5
628.325	292.5
628.532	275.5
628.738	273.5
628.945	277.5
629.151	270.5
629.357	276.5
629.564	280.5
629.77	268.5
629.976	260.5
630.183	255.5
630.389	272.5
630.595	278.5
630.802	256.5
631.008	275.5
631.214	263.5
631.42	278.5
631.627	273.5
631.833	269.5
632.039	271.5
632.245	253.5
632.451	264.5
632.657	263.5
632.863	246.5
633.069	254.5
633.275	280.5
633.481	263.5
633.688	261.5
633.893	245.5
634.099	263.5
634.305	256.5
634.511	236.5
634.717	255.5
634.923	261.5
635.129	254.5
635.335	258.5
635.541	271.5
635.747	259.5
635.952	252.5
636.158	229.5
636.364	244.5
636.57	234.5
636.775	259.5
636.981	242.5
637.187	259.5
637.392	248.5
637.598	244.5
637.804	248.5
638.009	257.5
638.215	247.5
638.421	246.5
638.626	244.5
638.832	246.5
639.037	249.5
639.243	229.5
639.448	251.5
639.654	251.5
639.859	239.5
640.065	231.5
640.27	243.5
640.475	237.5
640.681	226.5
640.886	216.5
641.091	236.5
641.297	245.5
641.502	237.5
641.707	227.5
641.913	237.5
642.118	251.5
642.323	248.5
642.528	234.5
642.733	234.5
642.939	240.5
643.144	228.5
643.349	248.5
643.554	249.5
643.759	254.5
643.964	253.5
644.169	224.5
644.374	231.5
644.579	225.5
644.784	232.5
644.989	233.5
645.194	249.5
645.399	241.5
645.604	237.5
645.809	225.5
646.014	228.5
646.219	229.5
646.423	233.5
646.628	228.5
646.833	260.5
647.038	267.5
647.243	244.5
647.447	249.5
647.652	248.5
647.857	242.5
648.062	230.5
648.266	234.5
648.471	245.5
648.676	259.5
648.88	256.5
649.085	255.5
649.289	237.5
649.494	250.5
649.698	241.5
649.903	229.5
650.107	227.5
650.312	243.5
650.516	228.5
650.721	219.5
650.925	255.5
651.13	232.5
651.334	242.5
651.539	231.5
651.743	221.5
651.947	218.5
652.152	233.5
652.356	211.5
652.56	218.5
652.764	231.5
652.969	234.5
653.173	227.5
653.377	217.5
653.581	214.5
653.785	228.5
653.99	224.5
654.194	218.5
654.398	224.5
654.602	232.5
654.806	224.5
655.01	211.5
655.214	216.5
655.418	228.5
655.622	231.5
655.826	218.5
656.03	218.5
656.234	222.5
656.438	215.5
656.642	237.5
656.846	214.5
657.049	201.5
657.253	202.5
657.457	211.5
657.661	182.5
657.865	181.5
658.068	147.5
658.272	156.5
658.476	163.5
658.68	149.5
658.883	142.5
659.087	124.5
659.291	137.5
659.494	133.5
659.698	121.5
659.901	113.5
660.105	112.5
660.309	117.5
660.512	113.5
660.716	115.5
660.919	106.5
661.123	106.5
661.326	113.5
661.53	87.5
661.733	96.5
661.936	95.5
662.14	93.5
662.343	86.5
662.546	93.5
662.75	95.5
662.953	97.5
663.156	99.5
663.36	94.5
663.563	81.5
663.766	85.5
663.969	96.5
664.173	88.5
664.376	71.5
664.579	77.5
664.782	67.5
664.985	83.5
665.188	86.5
665.391	75.5
665.594	82.5
665.797	82.5
666	82.5
666.203	87.5
666.406	103.5
666.609	71.5
666.812	89.5
667.015	88.5
667.218	71.5
667.421	88.5
667.624	88.5
667.827	85.5
668.03	72.5
668.232	87.5
668.435	76.5
668.638	75.5
668.841	87.5
669.043	74.5
669.246	96.5
669.449	99.5
669.651	102.5
669.854	83.5
670.057	76.5
670.259	82.5
670.462	75.5
670.665	85.5
670.867	94.5
671.07	88.5
671.272	90.5
671.475	84.5
671.677	84.5
671.88	87.5
672.082	87.5
672.284	85.5
672.487	86.5
672.689	90.5
672.892	77.5
