Data from Fe(NO3)3@0.0125M.TitratingCurve.Agarose3%dH2O.NegLispCup.LampEnergy10.LIBS07252019_HRD10591_16-59-19-336.txt Node
Date: Thu Jul 25 16:59:19 EDT 2019
User: cochatt
Spectrometer: HR+D1059
Trigger mode: 1
Integration Time (sec): 1.000000E-1
Scans to average: 1
Electric dark correction enabled: true
Nonlinearity correction enabled: false
Boxcar width: 0
XAxis mode: Wavelengths
Number of Pixels in Spectrum: 2048
>>>>>Begin Spectral Data<<<<<
223.165	-18.12
223.4	-18.12
223.635	-18.12
223.869	-18.12
224.104	-19.12
224.338	-13.12
224.573	-16.12
224.808	-23.12
225.042	1.88
225.277	-0.12
225.511	1.88
225.746	2.88
225.98	5.88
226.215	15.88
226.449	10.88
226.683	13.88
226.918	27.88
227.152	26.88
227.387	38.88
227.621	35.88
227.856	38.88
228.09	29.88
228.324	44.88
228.559	51.88
228.793	66.88
229.027	78.88
229.262	76.88
229.496	84.88
229.73	86.88
229.964	90.88
230.199	96.88
230.433	102.88
230.667	95.88
230.901	101.88
231.136	81.88
231.37	99.88
231.604	121.88
231.838	113.88
232.072	111.88
232.306	118.88
232.541	122.88
232.775	117.88
233.009	109.88
233.243	94.88
233.477	111.88
233.711	119.88
233.945	112.88
234.179	115.88
234.413	122.88
234.647	114.88
234.881	107.88
235.115	109.88
235.349	100.88
235.583	115.88
235.817	118.88
236.051	118.88
236.285	113.88
236.519	120.88
236.753	104.88
236.987	129.88
237.221	132.88
237.455	128.88
237.689	111.88
237.922	123.88
238.156	127.88
238.39	125.88
238.624	128.88
238.858	129.88
239.091	132.88
239.325	136.88
239.559	115.88
239.793	133.88
240.027	130.88
240.26	123.88
240.494	125.88
240.728	138.88
240.961	117.88
241.195	110.88
241.429	134.88
241.662	119.88
241.896	123.88
242.13	123.88
242.363	127.88
242.597	133.88
242.83	131.88
243.064	129.88
243.298	122.88
243.531	145.88
243.765	150.88
243.998	145.88
244.232	145.88
244.465	159.88
244.699	149.88
244.932	149.88
245.166	130.88
245.399	129.88
245.633	160.88
245.866	153.88
246.099	152.88
246.333	138.88
246.566	158.88
246.8	153.88
247.033	153.88
247.266	146.88
247.5	139.88
247.733	152.88
247.966	126.88
248.2	149.88
248.433	159.88
248.666	152.88
248.899	146.88
249.133	160.88
249.366	149.88
249.599	153.88
249.832	157.88
250.066	157.88
250.299	158.88
250.532	155.88
250.765	168.88
250.998	159.88
251.231	167.88
251.465	158.88
251.698	152.88
251.931	145.88
252.164	171.88
252.397	176.88
252.63	181.88
252.863	166.88
253.096	170.88
253.329	190.88
253.562	170.88
253.795	182.88
254.028	204.88
254.261	183.88
254.494	169.88
254.727	183.88
254.96	194.88
255.193	187.88
255.426	190.88
255.659	177.88
255.892	209.88
256.124	186.88
256.357	183.88
256.59	188.88
256.823	191.88
257.056	194.88
257.289	187.88
257.521	187.88
257.754	202.88
257.987	190.88
258.22	184.88
258.452	196.88
258.685	209.88
258.918	212.88
259.151	214.88
259.383	189.88
259.616	197.88
259.849	206.88
260.081	206.88
260.314	207.88
260.547	199.88
260.779	205.88
261.012	214.88
261.244	215.88
261.477	209.88
261.71	226.88
261.942	213.88
262.175	214.88
262.407	223.88
262.64	208.88
262.872	231.88
263.105	219.88
263.337	218.88
263.57	225.88
263.802	206.88
264.035	203.88
264.267	213.88
264.499	221.88
264.732	216.88
264.964	217.88
265.197	220.88
265.429	233.88
265.661	233.88
265.894	215.88
266.126	219.88
266.358	219.88
266.591	234.88
266.823	239.88
267.055	227.88
267.287	240.88
267.52	228.88
267.752	209.88
267.984	242.88
268.216	235.88
268.448	241.88
268.681	231.88
268.913	245.88
269.145	246.88
269.377	245.88
269.609	254.88
269.841	240.88
270.073	238.88
270.306	257.88
270.538	253.88
270.77	247.88
271.002	261.88
271.234	262.88
271.466	271.88
271.698	247.88
271.93	246.88
272.162	242.88
272.394	259.88
272.626	259.88
272.858	267.88
273.09	260.88
273.322	265.88
273.553	262.88
273.785	283.88
274.017	286.88
274.249	288.88
274.481	284.88
274.713	291.88
274.945	305.88
275.176	303.88
275.408	290.88
275.64	289.88
275.872	295.88
276.104	269.88
276.335	273.88
276.567	298.88
276.799	298.88
277.031	296.88
277.262	293.88
277.494	299.88
277.726	289.88
277.957	295.88
278.189	282.88
278.421	283.88
278.652	291.88
278.884	298.88
279.115	304.88
279.347	284.88
279.579	293.88
279.81	299.88
280.042	303.88
280.273	314.88
280.505	301.88
280.736	307.88
280.968	302.88
281.199	310.88
281.431	318.88
281.662	314.88
281.894	306.88
282.125	315.88
282.356	321.88
282.588	331.88
282.819	329.88
283.051	303.88
283.282	321.88
283.513	332.88
283.745	335.88
283.976	321.88
284.207	322.88
284.439	326.88
284.67	315.88
284.901	341.88
285.132	321.88
285.364	344.88
285.595	329.88
285.826	331.88
286.057	344.88
286.288	340.88
286.52	362.88
286.751	362.88
286.982	343.88
287.213	357.88
287.444	338.88
287.675	372.88
287.906	353.88
288.138	339.88
288.369	357.88
288.6	351.88
288.831	360.88
289.062	367.88
289.293	349.88
289.524	349.88
289.755	349.88
289.986	351.88
290.217	356.88
290.448	344.88
290.679	365.88
290.91	360.88
291.141	367.88
291.371	387.88
291.602	377.88
291.833	372.88
292.064	359.88
292.295	349.88
292.526	362.88
292.757	367.88
292.987	355.88
293.218	358.88
293.449	384.88
293.68	374.88
293.91	391.88
294.141	356.88
294.372	383.88
294.603	363.88
294.833	377.88
295.064	391.88
295.295	371.88
295.525	367.88
295.756	376.88
295.987	387.88
296.217	393.88
296.448	388.88
296.679	385.88
296.909	371.88
297.14	378.88
297.37	373.88
297.601	391.88
297.831	381.88
298.062	376.88
298.292	407.88
298.523	402.88
298.753	387.88
298.984	427.88
299.214	414.88
299.445	390.88
299.675	416.88
299.905	401.88
300.136	408.88
300.366	405.88
300.597	419.88
300.827	413.88
301.057	403.88
301.288	398.88
301.518	404.88
301.748	408.88
301.979	415.88
302.209	435.88
302.439	398.88
302.669	425.88
302.9	425.88
303.13	424.88
303.36	439.88
303.59	441.88
303.82	439.88
304.051	435.88
304.281	462.88
304.511	430.88
304.741	437.88
304.971	443.88
305.201	435.88
305.431	406.88
305.661	446.88
305.891	426.88
306.121	441.88
306.352	446.88
306.582	445.88
306.812	426.88
307.042	450.88
307.272	443.88
307.502	454.88
307.731	435.88
307.961	460.88
308.191	460.88
308.421	459.88
308.651	448.88
308.881	478.88
309.111	452.88
309.341	450.88
309.571	448.88
309.8	462.88
310.03	457.88
310.26	456.88
310.49	459.88
310.72	466.88
310.949	435.88
311.179	477.88
311.409	450.88
311.639	477.88
311.868	475.88
312.098	468.88
312.328	487.88
312.557	469.88
312.787	452.88
313.017	465.88
313.246	475.88
313.476	459.88
313.706	490.88
313.935	474.88
314.165	506.88
314.394	479.88
314.624	513.88
314.853	495.88
315.083	487.88
315.312	489.88
315.542	494.88
315.771	507.88
316.001	505.88
316.23	493.88
316.46	501.88
316.689	516.88
316.919	498.88
317.148	494.88
317.377	502.88
317.607	505.88
317.836	479.88
318.065	526.88
318.295	519.88
318.524	527.88
318.753	518.88
318.983	522.88
319.212	522.88
319.441	497.88
319.67	506.88
319.9	498.88
320.129	519.88
320.358	535.88
320.587	524.88
320.816	541.88
321.046	531.88
321.275	527.88
321.504	550.88
321.733	516.88
321.962	539.88
322.191	529.88
322.42	536.88
322.649	507.88
322.878	540.88
323.108	534.88
323.337	535.88
323.566	546.88
323.795	541.88
324.024	537.88
324.253	560.88
324.482	536.88
324.71	544.88
324.939	571.88
325.168	547.88
325.397	538.88
325.626	551.88
325.855	545.88
326.084	559.88
326.313	553.88
326.542	555.88
326.77	582.88
326.999	541.88
327.228	541.88
327.457	548.88
327.686	553.88
327.914	578.88
328.143	569.88
328.372	566.88
328.6	551.88
328.829	557.88
329.058	555.88
329.287	566.88
329.515	587.88
329.744	574.88
329.972	562.88
330.201	576.88
330.43	594.88
330.658	577.88
330.887	572.88
331.115	563.88
331.344	591.88
331.572	569.88
331.801	596.88
332.03	596.88
332.258	573.88
332.486	590.88
332.715	568.88
332.943	555.88
333.172	598.88
333.4	561.88
333.629	586.88
333.857	584.88
334.085	599.88
334.314	592.88
334.542	617.88
334.771	600.88
334.999	605.88
335.227	615.88
335.455	606.88
335.684	606.88
335.912	618.88
336.14	618.88
336.369	652.88
336.597	608.88
336.825	622.88
337.053	605.88
337.281	610.88
337.51	606.88
337.738	627.88
337.966	624.88
338.194	609.88
338.422	625.88
338.65	628.88
338.878	630.88
339.106	606.88
339.334	618.88
339.562	606.88
339.79	608.88
340.018	599.88
340.246	583.88
340.474	590.88
340.702	611.88
340.93	596.88
341.158	602.88
341.386	611.88
341.614	598.88
341.842	626.88
342.07	596.88
342.298	581.88
342.526	610.88
342.754	606.88
342.981	615.88
343.209	617.88
343.437	607.88
343.665	608.88
343.893	602.88
344.12	625.88
344.348	600.88
344.576	605.88
344.804	638.88
345.031	609.88
345.259	633.88
345.487	611.88
345.714	608.88
345.942	597.88
346.17	616.88
346.397	617.88
346.625	595.88
346.853	611.88
347.08	615.88
347.308	592.88
347.535	613.88
347.763	606.88
347.99	618.88
348.218	618.88
348.445	586.88
348.673	601.88
348.9	624.88
349.128	607.88
349.355	592.88
349.583	577.88
349.81	593.88
350.037	613.88
350.265	595.88
350.492	607.88
350.72	608.88
350.947	600.88
351.174	626.88
351.402	600.88
351.629	597.88
351.856	610.88
352.083	581.88
352.311	616.88
352.538	599.88
352.765	591.88
352.992	590.88
353.22	582.88
353.447	570.88
353.674	608.88
353.901	612.88
354.128	606.88
354.355	580.88
354.583	587.88
354.81	607.88
355.037	603.88
355.264	605.88
355.491	599.88
355.718	600.88
355.945	587.88
356.172	583.88
356.399	600.88
356.626	607.88
356.853	595.88
357.08	584.88
357.307	633.88
357.534	619.88
357.761	607.88
357.988	607.88
358.215	608.88
358.441	619.88
358.668	622.88
358.895	618.88
359.122	596.88
359.349	606.88
359.576	611.88
359.802	609.88
360.029	598.88
360.256	605.88
360.483	595.88
360.709	626.88
360.936	609.88
361.163	626.88
361.39	593.88
361.616	607.88
361.843	602.88
362.07	597.88
362.296	611.88
362.523	628.88
362.749	635.88
362.976	623.88
363.203	646.88
363.429	626.88
363.656	628.88
363.882	631.88
364.109	646.88
364.335	638.88
364.562	631.88
364.788	630.88
365.015	612.88
365.241	625.88
365.468	607.88
365.694	612.88
365.92	595.88
366.147	631.88
366.373	611.88
366.599	647.88
366.826	610.88
367.052	643.88
367.278	622.88
367.505	641.88
367.731	639.88
367.957	625.88
368.184	641.88
368.41	650.88
368.636	641.88
368.862	646.88
369.089	634.88
369.315	660.88
369.541	649.88
369.767	638.88
369.993	647.88
370.219	666.88
370.445	645.88
370.672	649.88
370.898	651.88
371.124	650.88
371.35	639.88
371.576	665.88
371.802	646.88
372.028	656.88
372.254	659.88
372.48	650.88
372.706	676.88
372.932	659.88
373.158	633.88
373.384	650.88
373.61	655.88
373.835	650.88
374.061	657.88
374.287	669.88
374.513	681.88
374.739	660.88
374.965	652.88
375.191	687.88
375.416	685.88
375.642	638.88
375.868	657.88
376.094	658.88
376.319	671.88
376.545	685.88
376.771	658.88
376.997	657.88
377.222	645.88
377.448	663.88
377.674	663.88
377.899	657.88
378.125	659.88
378.35	669.88
378.576	629.88
378.802	646.88
379.027	644.88
379.253	665.88
379.478	657.88
379.704	670.88
379.929	685.88
380.155	658.88
380.38	664.88
380.606	658.88
380.831	653.88
381.057	669.88
381.282	654.88
381.507	672.88
381.733	662.88
381.958	651.88
382.184	681.88
382.409	685.88
382.634	686.88
382.86	661.88
383.085	664.88
383.31	662.88
383.535	635.88
383.761	669.88
383.986	664.88
384.211	714.88
384.436	677.88
384.662	681.88
384.887	686.88
385.112	674.88
385.337	682.88
385.562	699.88
385.787	692.88
386.013	686.88
386.238	687.88
386.463	691.88
386.688	706.88
386.913	700.88
387.138	686.88
387.363	706.88
387.588	697.88
387.813	724.88
388.038	690.88
388.263	701.88
388.488	713.88
388.713	690.88
388.938	692.88
389.163	686.88
389.387	698.88
389.612	694.88
389.837	696.88
390.062	695.88
390.287	717.88
390.512	707.88
390.736	677.88
390.961	673.88
391.186	686.88
391.411	732.88
391.636	743.88
391.86	715.88
392.085	708.88
392.31	727.88
392.534	706.88
392.759	713.88
392.984	727.88
393.208	695.88
393.433	728.88
393.658	716.88
393.882	704.88
394.107	710.88
394.331	725.88
394.556	714.88
394.78	709.88
395.005	721.88
395.229	702.88
395.454	724.88
395.678	693.88
395.903	723.88
396.127	725.88
396.352	693.88
396.576	722.88
396.801	725.88
397.025	726.88
397.249	734.88
397.474	730.88
397.698	744.88
397.922	724.88
398.147	762.88
398.371	731.88
398.595	769.88
398.82	750.88
399.044	761.88
399.268	760.88
399.492	790.88
399.717	792.88
399.941	794.88
400.165	775.88
400.389	829.88
400.613	815.88
400.837	766.88
401.062	787.88
401.286	745.88
401.51	769.88
401.734	773.88
401.958	793.88
402.182	759.88
402.406	768.88
402.63	757.88
402.854	765.88
403.078	774.88
403.302	751.88
403.526	758.88
403.75	765.88
403.974	757.88
404.198	769.88
404.422	771.88
404.645	778.88
404.869	755.88
405.093	753.88
405.317	777.88
405.541	784.88
405.765	780.88
405.988	783.88
406.212	759.88
406.436	784.88
406.66	795.88
406.883	749.88
407.107	767.88
407.331	801.88
407.555	807.88
407.778	811.88
408.002	804.88
408.226	793.88
408.449	821.88
408.673	796.88
408.896	818.88
409.12	785.88
409.344	804.88
409.567	797.88
409.791	778.88
410.014	776.88
410.238	785.88
410.461	764.88
410.685	796.88
410.908	763.88
411.132	812.88
411.355	765.88
411.578	785.88
411.802	765.88
412.025	749.88
412.249	777.88
412.472	798.88
412.695	766.88
412.919	765.88
413.142	766.88
413.365	780.88
413.589	766.88
413.812	783.88
414.035	752.88
414.258	775.88
414.482	744.88
414.705	759.88
414.928	745.88
415.151	742.88
415.374	759.88
415.597	750.88
415.821	760.88
416.044	734.88
416.267	746.88
416.49	744.88
416.713	756.88
416.936	747.88
417.159	725.88
417.382	714.88
417.605	709.88
417.828	727.88
418.051	738.88
418.274	724.88
418.497	741.88
418.72	733.88
418.943	743.88
419.166	767.88
419.389	773.88
419.611	787.88
419.834	749.88
420.057	726.88
420.28	710.88
420.503	716.88
420.726	709.88
420.948	725.88
421.171	726.88
421.394	725.88
421.617	716.88
421.839	722.88
422.062	746.88
422.285	697.88
422.507	720.88
422.73	737.88
422.953	725.88
423.175	720.88
423.398	706.88
423.621	717.88
423.843	742.88
424.066	726.88
424.288	716.88
424.511	729.88
424.733	734.88
424.956	728.88
425.178	728.88
425.401	721.88
425.623	728.88
425.846	719.88
426.068	732.88
426.291	723.88
426.513	723.88
426.735	735.88
426.958	713.88
427.18	713.88
427.402	737.88
427.625	740.88
427.847	719.88
428.069	707.88
428.292	746.88
428.514	743.88
428.736	721.88
428.958	723.88
429.181	687.88
429.403	696.88
429.625	695.88
429.847	719.88
430.069	730.88
430.292	685.88
430.514	706.88
430.736	742.88
430.958	717.88
431.18	710.88
431.402	724.88
431.624	719.88
431.846	703.88
432.068	726.88
432.29	695.88
432.512	709.88
432.734	723.88
432.956	707.88
433.178	718.88
433.4	725.88
433.622	721.88
433.844	750.88
434.066	693.88
434.287	711.88
434.509	720.88
434.731	706.88
434.953	699.88
435.175	721.88
435.397	725.88
435.618	725.88
435.84	727.88
436.062	707.88
436.284	698.88
436.505	705.88
436.727	700.88
436.949	712.88
437.17	703.88
437.392	691.88
437.614	731.88
437.835	718.88
438.057	691.88
438.278	680.88
438.5	714.88
438.721	699.88
438.943	688.88
439.165	689.88
439.386	702.88
439.608	692.88
439.829	702.88
440.05	697.88
440.272	694.88
440.493	671.88
440.715	667.88
440.936	702.88
441.158	699.88
441.379	722.88
441.6	696.88
441.822	714.88
442.043	704.88
442.264	711.88
442.486	674.88
442.707	694.88
442.928	741.88
443.149	713.88
443.371	725.88
443.592	687.88
443.813	715.88
444.034	719.88
444.255	702.88
444.476	699.88
444.698	695.88
444.919	698.88
445.14	823.88
445.361	738.88
445.582	713.88
445.803	706.88
446.024	679.88
446.245	710.88
446.466	720.88
446.687	705.88
446.908	685.88
447.129	671.88
447.35	674.88
447.571	709.88
447.792	673.88
448.013	663.88
448.234	678.88
448.455	678.88
448.675	690.88
448.896	672.88
449.117	657.88
449.338	682.88
449.559	662.88
449.779	652.88
450	648.88
450.221	656.88
450.442	656.88
450.662	659.88
450.883	665.88
451.104	643.88
451.324	649.88
451.545	659.88
451.766	673.88
451.986	661.88
452.207	683.88
452.428	692.88
452.648	679.88
452.869	650.88
453.089	657.88
453.31	625.88
453.53	652.88
453.751	655.88
453.971	655.88
454.192	646.88
454.412	651.88
454.633	663.88
454.853	645.88
455.073	647.88
455.294	661.88
455.514	663.88
455.734	677.88
455.955	643.88
456.175	640.88
456.395	635.88
456.616	624.88
456.836	644.88
457.056	655.88
457.276	655.88
457.497	654.88
457.717	651.88
457.937	666.88
458.157	671.88
458.377	639.88
458.598	655.88
458.818	651.88
459.038	673.88
459.258	660.88
459.478	701.88
459.698	669.88
459.918	682.88
460.138	670.88
460.358	676.88
460.578	706.88
460.798	677.88
461.018	709.88
461.238	706.88
461.458	719.88
461.678	709.88
461.898	714.88
462.118	718.88
462.338	731.88
462.558	707.88
462.777	706.88
462.997	713.88
463.217	736.88
463.437	737.88
463.657	737.88
463.876	735.88
464.096	738.88
464.316	726.88
464.536	732.88
464.755	720.88
464.975	725.88
465.195	739.88
465.414	711.88
465.634	685.88
465.854	721.88
466.073	724.88
466.293	712.88
466.512	715.88
466.732	694.88
466.951	705.88
467.171	720.88
467.391	714.88
467.61	682.88
467.829	681.88
468.049	706.88
468.268	703.88
468.488	686.88
468.707	726.88
468.927	695.88
469.146	701.88
469.365	705.88
469.585	720.88
469.804	679.88
470.023	722.88
470.243	707.88
470.462	694.88
470.681	696.88
470.901	707.88
471.12	685.88
471.339	707.88
471.558	726.88
471.777	705.88
471.997	723.88
472.216	725.88
472.435	711.88
472.654	728.88
472.873	727.88
473.092	769.88
473.311	766.88
473.53	726.88
473.749	725.88
473.968	727.88
474.187	731.88
474.406	738.88
474.625	738.88
474.844	752.88
475.063	754.88
475.282	774.88
475.501	750.88
475.72	763.88
475.939	790.88
476.158	776.88
476.377	779.88
476.596	797.88
476.814	794.88
477.033	804.88
477.252	774.88
477.471	786.88
477.69	781.88
477.908	818.88
478.127	834.88
478.346	824.88
478.564	819.88
478.783	799.88
479.002	852.88
479.22	846.88
479.439	846.88
479.658	837.88
479.876	833.88
480.095	813.88
480.313	849.88
480.532	853.88
480.751	843.88
480.969	889.88
481.188	849.88
481.406	844.88
481.624	854.88
481.843	869.88
482.061	881.88
482.28	903.88
482.498	911.88
482.717	889.88
482.935	887.88
483.153	877.88
483.372	891.88
483.59	890.88
483.808	898.88
484.027	875.88
484.245	884.88
484.463	925.88
484.681	897.88
484.9	911.88
485.118	919.88
485.336	877.88
485.554	884.88
485.772	903.88
485.99	918.88
486.209	912.88
486.427	922.88
486.645	914.88
486.863	942.88
487.081	891.88
487.299	916.88
487.517	938.88
487.735	935.88
487.953	923.88
488.171	906.88
488.389	918.88
488.607	922.88
488.825	917.88
489.043	922.88
489.261	929.88
489.479	931.88
489.696	933.88
489.914	936.88
490.132	917.88
490.35	938.88
490.568	930.88
490.786	906.88
491.003	945.88
491.221	937.88
491.439	932.88
491.657	937.88
491.874	950.88
492.092	951.88
492.31	928.88
492.527	953.88
492.745	939.88
492.963	911.88
493.18	956.88
493.398	918.88
493.615	918.88
493.833	937.88
494.05	971.88
494.268	974.88
494.485	953.88
494.703	943.88
494.92	934.88
495.138	945.88
495.355	943.88
495.573	943.88
495.79	940.88
496.008	933.88
496.225	933.88
496.442	957.88
496.66	982.88
496.877	943.88
497.094	969.88
497.312	982.88
497.529	994.88
497.746	1000.88
497.963	995.88
498.181	994.88
498.398	1011.88
498.615	1007.88
498.832	1037.88
499.049	1017.88
499.267	1033.88
499.484	1018.88
499.701	1070.88
499.918	1105.88
500.135	1071.88
500.352	1077.88
500.569	1059.88
500.786	1105.88
501.003	1098.88
501.22	1065.88
501.437	1061.88
501.654	1043.88
501.871	1055.88
502.088	1041.88
502.305	1016.88
502.522	1013.88
502.739	993.88
502.956	1007.88
503.172	950.88
503.389	986.88
503.606	942.88
503.823	943.88
504.04	947.88
504.256	967.88
504.473	927.88
504.69	925.88
504.907	948.88
505.123	943.88
505.34	907.88
505.557	925.88
505.773	924.88
505.99	886.88
506.207	885.88
506.423	903.88
506.64	856.88
506.856	859.88
507.073	880.88
507.289	882.88
507.506	873.88
507.722	855.88
507.939	850.88
508.155	841.88
508.372	854.88
508.588	843.88
508.805	821.88
509.021	847.88
509.238	840.88
509.454	819.88
509.67	830.88
509.887	831.88
510.103	822.88
510.319	820.88
510.536	838.88
510.752	793.88
510.968	813.88
511.184	802.88
511.401	804.88
511.617	818.88
511.833	815.88
512.049	816.88
512.265	806.88
512.481	809.88
512.698	822.88
512.914	829.88
513.13	803.88
513.346	821.88
513.562	811.88
513.778	822.88
513.994	802.88
514.21	798.88
514.426	774.88
514.642	783.88
514.858	837.88
515.074	821.88
515.29	824.88
515.506	809.88
515.721	803.88
515.937	807.88
516.153	826.88
516.369	821.88
516.585	816.88
516.801	808.88
517.016	823.88
517.232	795.88
517.448	811.88
517.664	825.88
517.879	806.88
518.095	795.88
518.311	810.88
518.527	793.88
518.742	800.88
518.958	807.88
519.173	814.88
519.389	815.88
519.605	810.88
519.82	786.88
520.036	804.88
520.251	807.88
520.467	774.88
520.682	754.88
520.898	773.88
521.113	758.88
521.329	769.88
521.544	789.88
521.76	765.88
521.975	800.88
522.19	782.88
522.406	764.88
522.621	760.88
522.836	799.88
523.052	783.88
523.267	778.88
523.482	769.88
523.698	722.88
523.913	763.88
524.128	767.88
524.343	746.88
524.559	767.88
524.774	771.88
524.989	774.88
525.204	752.88
525.419	770.88
525.634	736.88
525.849	736.88
526.064	744.88
526.28	742.88
526.495	771.88
526.71	721.88
526.925	711.88
527.14	728.88
527.355	719.88
527.57	741.88
527.785	711.88
527.999	732.88
528.214	769.88
528.429	714.88
528.644	734.88
528.859	735.88
529.074	732.88
529.289	734.88
529.503	727.88
529.718	713.88
529.933	730.88
530.148	718.88
530.363	742.88
530.577	720.88
530.792	739.88
531.007	718.88
531.221	719.88
531.436	707.88
531.651	719.88
531.865	696.88
532.08	724.88
532.295	702.88
532.509	706.88
532.724	669.88
532.938	723.88
533.153	742.88
533.367	725.88
533.582	728.88
533.796	718.88
534.011	719.88
534.225	694.88
534.44	699.88
534.654	690.88
534.868	689.88
535.083	716.88
535.297	674.88
535.511	712.88
535.726	705.88
535.94	699.88
536.154	721.88
536.369	706.88
536.583	698.88
536.797	702.88
537.011	693.88
537.225	718.88
537.44	688.88
537.654	672.88
537.868	706.88
538.082	707.88
538.296	698.88
538.51	666.88
538.724	671.88
538.938	699.88
539.153	663.88
539.367	664.88
539.581	680.88
539.795	646.88
540.009	658.88
540.222	637.88
540.436	693.88
540.65	662.88
540.864	690.88
541.078	700.88
541.292	677.88
541.506	677.88
541.72	680.88
541.934	654.88
542.147	689.88
542.361	669.88
542.575	658.88
542.789	657.88
543.002	665.88
543.216	648.88
543.43	657.88
543.644	665.88
543.857	639.88
544.071	690.88
544.285	670.88
544.498	660.88
544.712	657.88
544.925	657.88
545.139	660.88
545.352	659.88
545.566	658.88
545.779	646.88
545.993	652.88
546.206	661.88
546.42	642.88
546.633	673.88
546.847	642.88
547.06	639.88
547.274	640.88
547.487	648.88
547.7	669.88
547.914	663.88
548.127	641.88
548.34	657.88
548.554	651.88
548.767	652.88
548.98	645.88
549.193	639.88
549.407	631.88
549.62	648.88
549.833	661.88
550.046	646.88
550.259	634.88
550.473	645.88
550.686	633.88
550.899	644.88
551.112	639.88
551.325	624.88
551.538	638.88
551.751	623.88
551.964	635.88
552.177	625.88
552.39	602.88
552.603	623.88
552.816	643.88
553.029	606.88
553.242	618.88
553.455	628.88
553.667	627.88
553.88	623.88
554.093	618.88
554.306	626.88
554.519	609.88
554.732	619.88
554.944	601.88
555.157	614.88
555.37	606.88
555.583	610.88
555.795	619.88
556.008	562.88
556.221	597.88
556.433	571.88
556.646	574.88
556.859	551.88
557.071	601.88
557.284	576.88
557.496	580.88
557.709	564.88
557.921	571.88
558.134	570.88
558.346	574.88
558.559	567.88
558.771	578.88
558.984	581.88
559.196	568.88
559.409	568.88
559.621	555.88
559.833	545.88
560.046	565.88
560.258	551.88
560.47	560.88
560.683	559.88
560.895	567.88
561.107	581.88
561.32	539.88
561.532	555.88
561.744	553.88
561.956	565.88
562.168	569.88
562.381	565.88
562.593	552.88
562.805	561.88
563.017	541.88
563.229	524.88
563.441	569.88
563.653	535.88
563.865	564.88
564.077	552.88
564.289	599.88
564.501	559.88
564.713	577.88
564.925	546.88
565.137	565.88
565.349	571.88
565.561	558.88
565.773	565.88
565.985	561.88
566.197	542.88
566.408	553.88
566.62	558.88
566.832	541.88
567.044	557.88
567.255	571.88
567.467	583.88
567.679	579.88
567.891	544.88
568.102	557.88
568.314	569.88
568.526	568.88
568.737	539.88
568.949	528.88
569.161	538.88
569.372	520.88
569.584	515.88
569.795	511.88
570.007	510.88
570.218	490.88
570.43	542.88
570.641	496.88
570.853	488.88
571.064	508.88
571.276	500.88
571.487	469.88
571.698	484.88
571.91	500.88
572.121	487.88
572.333	499.88
572.544	485.88
572.755	478.88
572.966	470.88
573.178	478.88
573.389	485.88
573.6	474.88
573.811	455.88
574.023	478.88
574.234	477.88
574.445	459.88
574.656	447.88
574.867	443.88
575.078	439.88
575.289	431.88
575.501	441.88
575.712	453.88
575.923	436.88
576.134	460.88
576.345	454.88
576.556	449.88
576.767	431.88
576.978	462.88
577.188	453.88
577.399	431.88
577.61	435.88
577.821	413.88
578.032	429.88
578.243	417.88
578.454	425.88
578.665	419.88
578.875	431.88
579.086	430.88
579.297	448.88
579.508	423.88
579.718	413.88
579.929	437.88
580.14	415.88
580.35	421.88
580.561	414.88
580.772	411.88
580.982	424.88
581.193	419.88
581.403	416.88
581.614	416.88
581.825	407.88
582.035	395.88
582.246	383.88
582.456	399.88
582.667	408.88
582.877	410.88
583.087	396.88
583.298	409.88
583.508	402.88
583.719	387.88
583.929	416.88
584.139	395.88
584.35	383.88
584.56	386.88
584.77	388.88
584.981	401.88
585.191	399.88
585.401	395.88
585.611	418.88
585.821	400.88
586.032	373.88
586.242	375.88
586.452	390.88
586.662	404.88
586.872	382.88
587.082	381.88
587.292	382.88
587.502	356.88
587.713	368.88
587.923	377.88
588.133	385.88
588.343	377.88
588.553	381.88
588.762	389.88
588.972	380.88
589.182	385.88
589.392	382.88
589.602	376.88
589.812	396.88
590.022	374.88
590.232	375.88
590.441	371.88
590.651	363.88
590.861	369.88
591.071	373.88
591.281	360.88
591.49	369.88
591.7	351.88
591.91	358.88
592.119	355.88
592.329	358.88
592.539	357.88
592.748	366.88
592.958	374.88
593.167	345.88
593.377	351.88
593.587	346.88
593.796	357.88
594.006	381.88
594.215	373.88
594.424	345.88
594.634	367.88
594.843	371.88
595.053	348.88
595.262	333.88
595.472	354.88
595.681	347.88
595.89	341.88
596.1	349.88
596.309	354.88
596.518	346.88
596.727	352.88
596.937	341.88
597.146	361.88
597.355	342.88
597.564	334.88
597.774	345.88
597.983	330.88
598.192	314.88
598.401	331.88
598.61	331.88
598.819	331.88
599.028	327.88
599.237	321.88
599.446	328.88
599.655	324.88
599.864	320.88
600.073	303.88
600.282	330.88
600.491	325.88
600.7	321.88
600.909	312.88
601.118	331.88
601.327	340.88
601.536	337.88
601.745	308.88
601.953	317.88
602.162	315.88
602.371	315.88
602.58	319.88
602.789	295.88
602.997	311.88
603.206	306.88
603.415	338.88
603.623	302.88
603.832	311.88
604.041	306.88
604.249	309.88
604.458	293.88
604.666	298.88
604.875	299.88
605.084	308.88
605.292	305.88
605.501	304.88
605.709	316.88
605.918	309.88
606.126	307.88
606.334	276.88
606.543	311.88
606.751	313.88
606.96	311.88
607.168	304.88
607.376	311.88
607.585	313.88
607.793	310.88
608.001	285.88
608.21	289.88
608.418	295.88
608.626	309.88
608.834	282.88
609.043	313.88
609.251	310.88
609.459	289.88
609.667	291.88
609.875	288.88
610.083	301.88
610.291	311.88
610.499	291.88
610.707	306.88
610.916	292.88
611.124	310.88
611.332	263.88
611.54	285.88
611.748	303.88
611.955	287.88
612.163	277.88
612.371	295.88
612.579	287.88
612.787	295.88
612.995	296.88
613.203	273.88
613.411	280.88
613.618	282.88
613.826	265.88
614.034	265.88
614.242	286.88
614.449	271.88
614.657	273.88
614.865	285.88
615.072	294.88
615.28	305.88
615.488	282.88
615.695	293.88
615.903	272.88
616.111	282.88
616.318	276.88
616.526	284.88
616.733	288.88
616.941	278.88
617.148	279.88
617.356	265.88
617.563	269.88
617.771	263.88
617.978	269.88
618.185	257.88
618.393	273.88
618.6	273.88
618.807	262.88
619.015	282.88
619.222	257.88
619.429	271.88
619.637	266.88
619.844	255.88
620.051	286.88
620.258	271.88
620.466	276.88
620.673	260.88
620.88	258.88
621.087	249.88
621.294	259.88
621.501	270.88
621.708	246.88
621.915	256.88
622.122	248.88
622.329	266.88
622.536	271.88
622.743	262.88
622.95	256.88
623.157	250.88
623.364	273.88
623.571	253.88
623.778	237.88
623.985	275.88
624.192	258.88
624.399	259.88
624.606	263.88
624.812	254.88
625.019	237.88
625.226	240.88
625.433	244.88
625.639	234.88
625.846	251.88
626.053	245.88
626.259	255.88
626.466	240.88
626.673	233.88
626.879	233.88
627.086	240.88
627.293	245.88
627.499	225.88
627.706	249.88
627.912	239.88
628.119	247.88
628.325	253.88
628.532	225.88
628.738	238.88
628.945	238.88
629.151	242.88
629.357	233.88
629.564	238.88
629.77	239.88
629.976	238.88
630.183	232.88
630.389	216.88
630.595	226.88
630.802	248.88
631.008	221.88
631.214	237.88
631.42	237.88
631.627	231.88
631.833	213.88
632.039	217.88
632.245	245.88
632.451	236.88
632.657	231.88
632.863	227.88
633.069	219.88
633.275	231.88
633.481	232.88
633.688	218.88
633.893	218.88
634.099	228.88
634.305	222.88
634.511	222.88
634.717	215.88
634.923	221.88
635.129	232.88
635.335	218.88
635.541	212.88
635.747	211.88
635.952	223.88
636.158	211.88
636.364	240.88
636.57	219.88
636.775	208.88
636.981	224.88
637.187	220.88
637.392	221.88
637.598	212.88
637.804	221.88
638.009	210.88
638.215	218.88
638.421	205.88
638.626	207.88
638.832	201.88
639.037	209.88
639.243	216.88
639.448	219.88
639.654	219.88
639.859	203.88
640.065	210.88
640.27	219.88
640.475	214.88
640.681	195.88
640.886	205.88
641.091	211.88
641.297	212.88
641.502	194.88
641.707	207.88
641.913	205.88
642.118	206.88
642.323	203.88
642.528	202.88
642.733	197.88
642.939	198.88
643.144	215.88
643.349	220.88
643.554	206.88
643.759	214.88
643.964	207.88
644.169	212.88
644.374	218.88
644.579	205.88
644.784	208.88
644.989	203.88
645.194	207.88
645.399	215.88
645.604	203.88
645.809	200.88
646.014	201.88
646.219	206.88
646.423	216.88
646.628	212.88
646.833	209.88
647.038	209.88
647.243	213.88
647.447	226.88
647.652	208.88
647.857	201.88
648.062	204.88
648.266	205.88
648.471	206.88
648.676	204.88
648.88	195.88
649.085	200.88
649.289	215.88
649.494	203.88
649.698	200.88
649.903	194.88
650.107	192.88
650.312	218.88
650.516	189.88
650.721	183.88
650.925	207.88
651.13	186.88
651.334	200.88
651.539	206.88
651.743	209.88
651.947	193.88
652.152	185.88
652.356	210.88
652.56	194.88
652.764	177.88
652.969	183.88
653.173	179.88
653.377	195.88
653.581	191.88
653.785	174.88
653.99	191.88
654.194	188.88
654.398	176.88
654.602	183.88
654.806	176.88
655.01	193.88
655.214	190.88
655.418	179.88
655.622	167.88
655.826	185.88
656.03	179.88
656.234	168.88
656.438	193.88
656.642	179.88
656.846	178.88
657.049	180.88
657.253	160.88
657.457	162.88
657.661	169.88
657.865	143.88
658.068	140.88
658.272	135.88
658.476	154.88
658.68	133.88
658.883	137.88
659.087	127.88
659.291	120.88
659.494	119.88
659.698	116.88
659.901	112.88
660.105	112.88
660.309	89.88
660.512	102.88
660.716	98.88
660.919	82.88
661.123	91.88
661.326	91.88
661.53	78.88
661.733	90.88
661.936	97.88
662.14	114.88
662.343	87.88
662.546	84.88
662.75	86.88
662.953	86.88
663.156	84.88
663.36	75.88
663.563	80.88
663.766	84.88
663.969	83.88
664.173	84.88
664.376	78.88
664.579	94.88
664.782	75.88
664.985	83.88
665.188	95.88
665.391	75.88
665.594	77.88
665.797	88.88
666	90.88
666.203	69.88
666.406	78.88
666.609	73.88
666.812	79.88
667.015	84.88
667.218	67.88
667.421	75.88
667.624	88.88
667.827	74.88
668.03	80.88
668.232	79.88
668.435	68.88
668.638	63.88
668.841	90.88
669.043	73.88
669.246	67.88
669.449	78.88
669.651	78.88
669.854	76.88
670.057	80.88
670.259	71.88
670.462	73.88
670.665	75.88
670.867	85.88
671.07	88.88
671.272	91.88
671.475	76.88
671.677	81.88
671.88	82.88
672.082	75.88
672.284	101.88
672.487	85.88
672.689	76.88
672.892	94.88
