Data from Fe(NO3)3@0.025M.TitratingCurve.Agarose3%dH2O.NegLispCup.LampEnergy10.LIBS07252019_HRD10591_16-54-57-335.txt Node
Date: Thu Jul 25 16:54:57 EDT 2019
User: cochatt
Spectrometer: HR+D1059
Trigger mode: 1
Integration Time (sec): 1.000000E-1
Scans to average: 1
Electric dark correction enabled: true
Nonlinearity correction enabled: false
Boxcar width: 0
XAxis mode: Wavelengths
Number of Pixels in Spectrum: 2048
>>>>>Begin Spectral Data<<<<<
223.165	-8.12
223.4	-8.12
223.635	-8.12
223.869	-11.12
224.104	-15.12
224.338	-19.12
224.573	-14.12
224.808	-11.12
225.042	-2.12
225.277	-10.12
225.511	-3.12
225.746	4.88
225.98	0.88
226.215	2.88
226.449	11.88
226.683	24.88
226.918	31.88
227.152	16.88
227.387	41.88
227.621	37.88
227.856	47.88
228.09	55.88
228.324	40.88
228.559	40.88
228.793	51.88
229.027	80.88
229.262	73.88
229.496	77.88
229.73	94.88
229.964	86.88
230.199	80.88
230.433	95.88
230.667	91.88
230.901	94.88
231.136	90.88
231.37	97.88
231.604	96.88
231.838	101.88
232.072	106.88
232.306	98.88
232.541	103.88
232.775	94.88
233.009	118.88
233.243	95.88
233.477	109.88
233.711	111.88
233.945	136.88
234.179	113.88
234.413	115.88
234.647	83.88
234.881	105.88
235.115	116.88
235.349	118.88
235.583	98.88
235.817	106.88
236.051	112.88
236.285	113.88
236.519	110.88
236.753	121.88
236.987	120.88
237.221	109.88
237.455	105.88
237.689	112.88
237.922	117.88
238.156	122.88
238.39	108.88
238.624	122.88
238.858	130.88
239.091	111.88
239.325	114.88
239.559	106.88
239.793	102.88
240.027	120.88
240.26	131.88
240.494	117.88
240.728	109.88
240.961	132.88
241.195	116.88
241.429	116.88
241.662	120.88
241.896	118.88
242.13	116.88
242.363	113.88
242.597	113.88
242.83	127.88
243.064	122.88
243.298	114.88
243.531	118.88
243.765	116.88
243.998	126.88
244.232	123.88
244.465	121.88
244.699	111.88
244.932	122.88
245.166	133.88
245.399	123.88
245.633	134.88
245.866	124.88
246.099	124.88
246.333	139.88
246.566	135.88
246.8	135.88
247.033	132.88
247.266	139.88
247.5	138.88
247.733	120.88
247.966	136.88
248.2	136.88
248.433	143.88
248.666	152.88
248.899	128.88
249.133	135.88
249.366	141.88
249.599	141.88
249.832	132.88
250.066	143.88
250.299	148.88
250.532	134.88
250.765	139.88
250.998	149.88
251.231	155.88
251.465	132.88
251.698	151.88
251.931	150.88
252.164	152.88
252.397	156.88
252.63	138.88
252.863	144.88
253.096	168.88
253.329	143.88
253.562	158.88
253.795	156.88
254.028	154.88
254.261	149.88
254.494	154.88
254.727	141.88
254.96	154.88
255.193	150.88
255.426	171.88
255.659	146.88
255.892	146.88
256.124	154.88
256.357	152.88
256.59	148.88
256.823	158.88
257.056	154.88
257.289	160.88
257.521	169.88
257.754	154.88
257.987	158.88
258.22	154.88
258.452	156.88
258.685	161.88
258.918	150.88
259.151	150.88
259.383	171.88
259.616	165.88
259.849	161.88
260.081	169.88
260.314	168.88
260.547	159.88
260.779	162.88
261.012	167.88
261.244	173.88
261.477	184.88
261.71	168.88
261.942	153.88
262.175	172.88
262.407	158.88
262.64	186.88
262.872	174.88
263.105	182.88
263.337	171.88
263.57	180.88
263.802	175.88
264.035	163.88
264.267	163.88
264.499	166.88
264.732	183.88
264.964	185.88
265.197	173.88
265.429	176.88
265.661	174.88
265.894	162.88
266.126	187.88
266.358	195.88
266.591	183.88
266.823	180.88
267.055	203.88
267.287	180.88
267.52	190.88
267.752	183.88
267.984	188.88
268.216	193.88
268.448	189.88
268.681	176.88
268.913	185.88
269.145	204.88
269.377	204.88
269.609	175.88
269.841	194.88
270.073	198.88
270.306	202.88
270.538	199.88
270.77	186.88
271.002	183.88
271.234	186.88
271.466	196.88
271.698	185.88
271.93	191.88
272.162	195.88
272.394	202.88
272.626	204.88
272.858	198.88
273.09	192.88
273.322	199.88
273.553	214.88
273.785	198.88
274.017	198.88
274.249	209.88
274.481	194.88
274.713	213.88
274.945	234.88
275.176	211.88
275.408	220.88
275.64	219.88
275.872	228.88
276.104	230.88
276.335	200.88
276.567	205.88
276.799	214.88
277.031	216.88
277.262	224.88
277.494	210.88
277.726	220.88
277.957	214.88
278.189	229.88
278.421	217.88
278.652	204.88
278.884	209.88
279.115	219.88
279.347	216.88
279.579	221.88
279.81	216.88
280.042	225.88
280.273	228.88
280.505	219.88
280.736	211.88
280.968	220.88
281.199	231.88
281.431	230.88
281.662	235.88
281.894	247.88
282.125	230.88
282.356	246.88
282.588	240.88
282.819	225.88
283.051	235.88
283.282	234.88
283.513	224.88
283.745	235.88
283.976	245.88
284.207	230.88
284.439	235.88
284.67	232.88
284.901	251.88
285.132	238.88
285.364	225.88
285.595	241.88
285.826	254.88
286.057	268.88
286.288	235.88
286.52	258.88
286.751	239.88
286.982	235.88
287.213	241.88
287.444	265.88
287.675	241.88
287.906	258.88
288.138	263.88
288.369	229.88
288.6	236.88
288.831	241.88
289.062	257.88
289.293	254.88
289.524	265.88
289.755	260.88
289.986	255.88
290.217	255.88
290.448	261.88
290.679	273.88
290.91	278.88
291.141	263.88
291.371	266.88
291.602	268.88
291.833	273.88
292.064	265.88
292.295	250.88
292.526	258.88
292.757	280.88
292.987	256.88
293.218	254.88
293.449	261.88
293.68	266.88
293.91	281.88
294.141	273.88
294.372	261.88
294.603	272.88
294.833	262.88
295.064	264.88
295.295	271.88
295.525	272.88
295.756	265.88
295.987	274.88
296.217	261.88
296.448	249.88
296.679	279.88
296.909	271.88
297.14	275.88
297.37	281.88
297.601	265.88
297.831	274.88
298.062	272.88
298.292	280.88
298.523	294.88
298.753	274.88
298.984	282.88
299.214	277.88
299.445	273.88
299.675	281.88
299.905	278.88
300.136	287.88
300.366	298.88
300.597	289.88
300.827	282.88
301.057	299.88
301.288	287.88
301.518	292.88
301.748	312.88
301.979	288.88
302.209	298.88
302.439	302.88
302.669	284.88
302.9	292.88
303.13	290.88
303.36	299.88
303.59	293.88
303.82	267.88
304.051	314.88
304.281	307.88
304.511	310.88
304.741	276.88
304.971	292.88
305.201	295.88
305.431	272.88
305.661	286.88
305.891	300.88
306.121	289.88
306.352	290.88
306.582	278.88
306.812	297.88
307.042	296.88
307.272	295.88
307.502	283.88
307.731	299.88
307.961	314.88
308.191	291.88
308.421	310.88
308.651	308.88
308.881	288.88
309.111	288.88
309.341	296.88
309.571	300.88
309.8	291.88
310.03	308.88
310.26	300.88
310.49	298.88
310.72	287.88
310.949	299.88
311.179	306.88
311.409	311.88
311.639	306.88
311.868	318.88
312.098	311.88
312.328	309.88
312.557	288.88
312.787	321.88
313.017	313.88
313.246	307.88
313.476	307.88
313.706	319.88
313.935	324.88
314.165	314.88
314.394	310.88
314.624	333.88
314.853	319.88
315.083	325.88
315.312	313.88
315.542	329.88
315.771	330.88
316.001	315.88
316.23	331.88
316.46	308.88
316.689	315.88
316.919	312.88
317.148	312.88
317.377	328.88
317.607	296.88
317.836	313.88
318.065	306.88
318.295	315.88
318.524	316.88
318.753	297.88
318.983	298.88
319.212	304.88
319.441	324.88
319.67	323.88
319.9	312.88
320.129	306.88
320.358	315.88
320.587	324.88
320.816	310.88
321.046	316.88
321.275	328.88
321.504	310.88
321.733	324.88
321.962	310.88
322.191	329.88
322.42	325.88
322.649	323.88
322.878	322.88
323.108	318.88
323.337	307.88
323.566	346.88
323.795	319.88
324.024	330.88
324.253	341.88
324.482	340.88
324.71	338.88
324.939	344.88
325.168	315.88
325.397	333.88
325.626	311.88
325.855	335.88
326.084	360.88
326.313	343.88
326.542	342.88
326.77	350.88
326.999	336.88
327.228	347.88
327.457	338.88
327.686	336.88
327.914	359.88
328.143	339.88
328.372	341.88
328.6	362.88
328.829	362.88
329.058	343.88
329.287	344.88
329.515	350.88
329.744	369.88
329.972	370.88
330.201	360.88
330.43	350.88
330.658	358.88
330.887	359.88
331.115	376.88
331.344	371.88
331.572	370.88
331.801	362.88
332.03	382.88
332.258	386.88
332.486	384.88
332.715	402.88
332.943	410.88
333.172	443.88
333.4	427.88
333.629	444.88
333.857	444.88
334.085	442.88
334.314	443.88
334.542	426.88
334.771	422.88
334.999	423.88
335.227	426.88
335.455	418.88
335.684	420.88
335.912	407.88
336.14	418.88
336.369	422.88
336.597	400.88
336.825	413.88
337.053	396.88
337.281	387.88
337.51	399.88
337.738	406.88
337.966	384.88
338.194	378.88
338.422	378.88
338.65	371.88
338.878	370.88
339.106	382.88
339.334	388.88
339.562	377.88
339.79	368.88
340.018	381.88
340.246	361.88
340.474	359.88
340.702	378.88
340.93	370.88
341.158	377.88
341.386	353.88
341.614	362.88
341.842	349.88
342.07	356.88
342.298	362.88
342.526	370.88
342.754	378.88
342.981	372.88
343.209	394.88
343.437	380.88
343.665	433.88
343.893	439.88
344.12	432.88
344.348	435.88
344.576	412.88
344.804	391.88
345.031	371.88
345.259	376.88
345.487	371.88
345.714	384.88
345.942	352.88
346.17	365.88
346.397	370.88
346.625	363.88
346.853	368.88
347.08	347.88
347.308	346.88
347.535	347.88
347.763	366.88
347.99	362.88
348.218	376.88
348.445	353.88
348.673	338.88
348.9	336.88
349.128	344.88
349.355	352.88
349.583	344.88
349.81	340.88
350.037	322.88
350.265	362.88
350.492	363.88
350.72	358.88
350.947	337.88
351.174	362.88
351.402	344.88
351.629	350.88
351.856	338.88
352.083	344.88
352.311	345.88
352.538	351.88
352.765	356.88
352.992	360.88
353.22	359.88
353.447	339.88
353.674	352.88
353.901	363.88
354.128	367.88
354.355	344.88
354.583	350.88
354.81	346.88
355.037	347.88
355.264	342.88
355.491	361.88
355.718	335.88
355.945	362.88
356.172	338.88
356.399	359.88
356.626	353.88
356.853	358.88
357.08	345.88
357.307	352.88
357.534	369.88
357.761	354.88
357.988	362.88
358.215	361.88
358.441	371.88
358.668	374.88
358.895	339.88
359.122	370.88
359.349	373.88
359.576	350.88
359.802	348.88
360.029	347.88
360.256	372.88
360.483	347.88
360.709	370.88
360.936	362.88
361.163	338.88
361.39	348.88
361.616	356.88
361.843	347.88
362.07	353.88
362.296	354.88
362.523	372.88
362.749	374.88
362.976	373.88
363.203	360.88
363.429	366.88
363.656	354.88
363.882	361.88
364.109	349.88
364.335	352.88
364.562	368.88
364.788	359.88
365.015	361.88
365.241	352.88
365.468	364.88
365.694	343.88
365.92	361.88
366.147	358.88
366.373	363.88
366.599	356.88
366.826	353.88
367.052	362.88
367.278	363.88
367.505	372.88
367.731	353.88
367.957	368.88
368.184	369.88
368.41	353.88
368.636	370.88
368.862	352.88
369.089	352.88
369.315	366.88
369.541	362.88
369.767	358.88
369.993	370.88
370.219	376.88
370.445	382.88
370.672	375.88
370.898	387.88
371.124	387.88
371.35	382.88
371.576	393.88
371.802	396.88
372.028	384.88
372.254	384.88
372.48	393.88
372.706	398.88
372.932	401.88
373.158	383.88
373.384	393.88
373.61	388.88
373.835	384.88
374.061	374.88
374.287	389.88
374.513	392.88
374.739	405.88
374.965	404.88
375.191	419.88
375.416	425.88
375.642	399.88
375.868	437.88
376.094	408.88
376.319	395.88
376.545	392.88
376.771	422.88
376.997	392.88
377.222	373.88
377.448	383.88
377.674	379.88
377.899	376.88
378.125	388.88
378.35	393.88
378.576	383.88
378.802	394.88
379.027	392.88
379.253	378.88
379.478	390.88
379.704	384.88
379.929	363.88
380.155	387.88
380.38	369.88
380.606	378.88
380.831	371.88
381.057	395.88
381.282	362.88
381.507	386.88
381.733	376.88
381.958	395.88
382.184	408.88
382.409	405.88
382.634	388.88
382.86	400.88
383.085	403.88
383.31	437.88
383.535	410.88
383.761	426.88
383.986	423.88
384.211	436.88
384.436	420.88
384.662	437.88
384.887	461.88
385.112	429.88
385.337	465.88
385.562	454.88
385.787	462.88
386.013	469.88
386.238	454.88
386.463	435.88
386.688	472.88
386.913	464.88
387.138	439.88
387.363	456.88
387.588	450.88
387.813	447.88
388.038	452.88
388.263	472.88
388.488	460.88
388.713	451.88
388.938	438.88
389.163	454.88
389.387	438.88
389.612	432.88
389.837	437.88
390.062	458.88
390.287	442.88
390.512	466.88
390.736	436.88
390.961	489.88
391.186	462.88
391.411	479.88
391.636	504.88
391.86	499.88
392.085	510.88
392.31	490.88
392.534	490.88
392.759	488.88
392.984	463.88
393.208	481.88
393.433	475.88
393.658	479.88
393.882	486.88
394.107	480.88
394.331	490.88
394.556	483.88
394.78	486.88
395.005	488.88
395.229	490.88
395.454	500.88
395.678	518.88
395.903	516.88
396.127	498.88
396.352	498.88
396.576	494.88
396.801	501.88
397.025	479.88
397.249	524.88
397.474	497.88
397.698	512.88
397.922	509.88
398.147	510.88
398.371	537.88
398.595	549.88
398.82	568.88
399.044	608.88
399.268	664.88
399.492	709.88
399.717	746.88
399.941	764.88
400.165	677.88
400.389	648.88
400.613	624.88
400.837	585.88
401.062	588.88
401.286	558.88
401.51	561.88
401.734	560.88
401.958	554.88
402.182	539.88
402.406	575.88
402.63	576.88
402.854	592.88
403.078	579.88
403.302	593.88
403.526	620.88
403.75	613.88
403.974	637.88
404.198	600.88
404.422	607.88
404.645	606.88
404.869	594.88
405.093	607.88
405.317	563.88
405.541	601.88
405.765	603.88
405.988	602.88
406.212	607.88
406.436	616.88
406.66	617.88
406.883	611.88
407.107	650.88
407.331	673.88
407.555	702.88
407.778	682.88
408.002	666.88
408.226	628.88
408.449	650.88
408.673	633.88
408.896	624.88
409.12	610.88
409.344	628.88
409.567	599.88
409.791	599.88
410.014	627.88
410.238	594.88
410.461	584.88
410.685	575.88
410.908	592.88
411.132	578.88
411.355	598.88
411.578	583.88
411.802	578.88
412.025	563.88
412.249	552.88
412.472	582.88
412.695	578.88
412.919	562.88
413.142	543.88
413.365	558.88
413.589	584.88
413.812	553.88
414.035	547.88
414.258	532.88
414.482	560.88
414.705	567.88
414.928	583.88
415.151	558.88
415.374	543.88
415.597	570.88
415.821	562.88
416.044	541.88
416.267	534.88
416.49	533.88
416.713	546.88
416.936	543.88
417.159	550.88
417.382	527.88
417.605	560.88
417.828	553.88
418.051	534.88
418.274	571.88
418.497	561.88
418.72	552.88
418.943	569.88
419.166	564.88
419.389	619.88
419.611	590.88
419.834	594.88
420.057	576.88
420.28	554.88
420.503	538.88
420.726	521.88
420.948	530.88
421.171	531.88
421.394	544.88
421.617	524.88
421.839	548.88
422.062	544.88
422.285	561.88
422.507	567.88
422.73	555.88
422.953	563.88
423.175	552.88
423.398	544.88
423.621	545.88
423.843	574.88
424.066	564.88
424.288	569.88
424.511	586.88
424.733	563.88
424.956	530.88
425.178	540.88
425.401	530.88
425.623	545.88
425.846	536.88
426.068	523.88
426.291	510.88
426.513	512.88
426.735	520.88
426.958	514.88
427.18	502.88
427.402	529.88
427.625	501.88
427.847	494.88
428.069	488.88
428.292	486.88
428.514	472.88
428.736	471.88
428.958	514.88
429.181	491.88
429.403	495.88
429.625	488.88
429.847	480.88
430.069	480.88
430.292	481.88
430.514	471.88
430.736	486.88
430.958	475.88
431.18	466.88
431.402	485.88
431.624	487.88
431.846	494.88
432.068	486.88
432.29	517.88
432.512	483.88
432.734	490.88
432.956	507.88
433.178	486.88
433.4	492.88
433.622	521.88
433.844	503.88
434.066	481.88
434.287	502.88
434.509	506.88
434.731	524.88
434.953	539.88
435.175	538.88
435.397	488.88
435.618	514.88
435.84	500.88
436.062	495.88
436.284	496.88
436.505	482.88
436.727	471.88
436.949	496.88
437.17	487.88
437.392	495.88
437.614	456.88
437.835	482.88
438.057	465.88
438.278	449.88
438.5	473.88
438.721	468.88
438.943	470.88
439.165	474.88
439.386	476.88
439.608	473.88
439.829	483.88
440.05	488.88
440.272	488.88
440.493	474.88
440.715	480.88
440.936	510.88
441.158	517.88
441.379	531.88
441.6	523.88
441.822	507.88
442.043	520.88
442.264	528.88
442.486	538.88
442.707	515.88
442.928	542.88
443.149	525.88
443.371	517.88
443.592	521.88
443.813	543.88
444.034	541.88
444.255	555.88
444.476	576.88
444.698	597.88
444.919	599.88
445.14	670.88
445.361	598.88
445.582	543.88
445.803	522.88
446.024	511.88
446.245	526.88
446.466	507.88
446.687	474.88
446.908	474.88
447.129	466.88
447.35	486.88
447.571	489.88
447.792	444.88
448.013	439.88
448.234	443.88
448.455	442.88
448.675	431.88
448.896	442.88
449.117	442.88
449.338	446.88
449.559	441.88
449.779	455.88
450	443.88
450.221	455.88
450.442	450.88
450.662	446.88
450.883	437.88
451.104	449.88
451.324	461.88
451.545	437.88
451.766	448.88
451.986	460.88
452.207	453.88
452.428	447.88
452.648	436.88
452.869	450.88
453.089	438.88
453.31	446.88
453.53	439.88
453.751	434.88
453.971	438.88
454.192	439.88
454.412	427.88
454.633	415.88
454.853	428.88
455.073	444.88
455.294	419.88
455.514	434.88
455.734	423.88
455.955	415.88
456.175	411.88
456.395	435.88
456.616	443.88
456.836	410.88
457.056	417.88
457.276	408.88
457.497	417.88
457.717	430.88
457.937	435.88
458.157	427.88
458.377	454.88
458.598	452.88
458.818	466.88
459.038	459.88
459.258	467.88
459.478	472.88
459.698	488.88
459.918	486.88
460.138	508.88
460.358	565.88
460.578	542.88
460.798	553.88
461.018	597.88
461.238	547.88
461.458	567.88
461.678	574.88
461.898	580.88
462.118	576.88
462.338	577.88
462.558	615.88
462.777	622.88
462.997	686.88
463.217	716.88
463.437	708.88
463.657	665.88
463.876	621.88
464.096	640.88
464.316	637.88
464.536	622.88
464.755	641.88
464.975	603.88
465.195	574.88
465.414	560.88
465.634	523.88
465.854	484.88
466.073	482.88
466.293	515.88
466.512	512.88
466.732	472.88
466.951	466.88
467.171	460.88
467.391	470.88
467.61	467.88
467.829	463.88
468.049	465.88
468.268	469.88
468.488	450.88
468.707	467.88
468.927	466.88
469.146	448.88
469.365	459.88
469.585	457.88
469.804	478.88
470.023	474.88
470.243	464.88
470.462	461.88
470.681	453.88
470.901	468.88
471.12	488.88
471.339	471.88
471.558	468.88
471.777	467.88
471.997	448.88
472.216	478.88
472.435	465.88
472.654	471.88
472.873	443.88
473.092	443.88
473.311	451.88
473.53	428.88
473.749	440.88
473.968	460.88
474.187	442.88
474.406	452.88
474.625	467.88
474.844	450.88
475.063	433.88
475.282	436.88
475.501	447.88
475.72	467.88
475.939	461.88
476.158	451.88
476.377	466.88
476.596	466.88
476.814	465.88
477.033	481.88
477.252	485.88
477.471	481.88
477.69	502.88
477.908	502.88
478.127	536.88
478.346	520.88
478.564	525.88
478.783	532.88
479.002	545.88
479.22	566.88
479.439	550.88
479.658	553.88
479.876	541.88
480.095	551.88
480.313	587.88
480.532	575.88
480.751	590.88
480.969	534.88
481.188	551.88
481.406	503.88
481.624	522.88
481.843	528.88
482.061	521.88
482.28	510.88
482.498	522.88
482.717	518.88
482.935	503.88
483.153	487.88
483.372	512.88
483.59	505.88
483.808	492.88
484.027	489.88
484.245	514.88
484.463	543.88
484.681	518.88
484.9	541.88
485.118	509.88
485.336	528.88
485.554	529.88
485.772	514.88
485.99	515.88
486.209	539.88
486.427	515.88
486.645	519.88
486.863	551.88
487.081	504.88
487.299	525.88
487.517	532.88
487.735	551.88
487.953	536.88
488.171	526.88
488.389	533.88
488.607	504.88
488.825	540.88
489.043	523.88
489.261	518.88
489.479	510.88
489.696	530.88
489.914	530.88
490.132	551.88
490.35	539.88
490.568	531.88
490.786	527.88
491.003	515.88
491.221	552.88
491.439	554.88
491.657	555.88
491.874	504.88
492.092	539.88
492.31	539.88
492.527	547.88
492.745	536.88
492.963	550.88
493.18	553.88
493.398	572.88
493.615	554.88
493.833	542.88
494.05	547.88
494.268	548.88
494.485	546.88
494.703	576.88
494.92	559.88
495.138	548.88
495.355	583.88
495.573	560.88
495.79	583.88
496.008	588.88
496.225	549.88
496.442	586.88
496.66	613.88
496.877	608.88
497.094	591.88
497.312	613.88
497.529	643.88
497.746	649.88
497.963	693.88
498.181	688.88
498.398	728.88
498.615	759.88
498.832	807.88
499.049	839.88
499.267	879.88
499.484	946.88
499.701	1044.88
499.918	1113.88
500.135	1278.88
500.352	1399.88
500.569	1402.88
500.786	1396.88
501.003	1290.88
501.22	1173.88
501.437	1080.88
501.654	1028.88
501.871	917.88
502.088	856.88
502.305	803.88
502.522	779.88
502.739	759.88
502.956	733.88
503.172	702.88
503.389	678.88
503.606	643.88
503.823	632.88
504.04	648.88
504.256	652.88
504.473	669.88
504.69	659.88
504.907	643.88
505.123	598.88
505.34	575.88
505.557	569.88
505.773	574.88
505.99	571.88
506.207	546.88
506.423	520.88
506.64	537.88
506.856	536.88
507.073	508.88
507.289	506.88
507.506	516.88
507.722	520.88
507.939	517.88
508.155	512.88
508.372	485.88
508.588	493.88
508.805	490.88
509.021	480.88
509.238	482.88
509.454	471.88
509.67	492.88
509.887	492.88
510.103	460.88
510.319	472.88
510.536	477.88
510.752	460.88
510.968	467.88
511.184	464.88
511.401	470.88
511.617	475.88
511.833	468.88
512.049	472.88
512.265	474.88
512.481	478.88
512.698	463.88
512.914	458.88
513.13	462.88
513.346	460.88
513.562	468.88
513.778	477.88
513.994	468.88
514.21	484.88
514.426	457.88
514.642	470.88
514.858	484.88
515.074	494.88
515.29	489.88
515.506	502.88
515.721	500.88
515.937	502.88
516.153	523.88
516.369	515.88
516.585	532.88
516.801	546.88
517.016	545.88
517.232	564.88
517.448	606.88
517.664	592.88
517.879	590.88
518.095	617.88
518.311	601.88
518.527	585.88
518.742	565.88
518.958	551.88
519.173	526.88
519.389	535.88
519.605	525.88
519.82	510.88
520.036	479.88
520.251	480.88
520.467	469.88
520.682	470.88
520.898	470.88
521.113	474.88
521.329	480.88
521.544	464.88
521.76	452.88
521.975	441.88
522.19	440.88
522.406	443.88
522.621	463.88
522.836	442.88
523.052	438.88
523.267	441.88
523.482	424.88
523.698	437.88
523.913	420.88
524.128	416.88
524.343	423.88
524.559	462.88
524.774	428.88
524.989	423.88
525.204	433.88
525.419	428.88
525.634	434.88
525.849	436.88
526.064	423.88
526.28	422.88
526.495	431.88
526.71	434.88
526.925	447.88
527.14	428.88
527.355	425.88
527.57	426.88
527.785	413.88
527.999	408.88
528.214	432.88
528.429	426.88
528.644	427.88
528.859	427.88
529.074	444.88
529.289	430.88
529.503	428.88
529.718	411.88
529.933	416.88
530.148	410.88
530.363	426.88
530.577	419.88
530.792	407.88
531.007	437.88
531.221	448.88
531.436	430.88
531.651	424.88
531.865	415.88
532.08	420.88
532.295	434.88
532.509	425.88
532.724	435.88
532.938	429.88
533.153	405.88
533.367	415.88
533.582	438.88
533.796	418.88
534.011	418.88
534.225	420.88
534.44	399.88
534.654	414.88
534.868	427.88
535.083	417.88
535.297	411.88
535.511	431.88
535.726	428.88
535.94	406.88
536.154	399.88
536.369	425.88
536.583	408.88
536.797	391.88
537.011	386.88
537.225	398.88
537.44	406.88
537.654	409.88
537.868	391.88
538.082	381.88
538.296	379.88
538.51	397.88
538.724	390.88
538.938	378.88
539.153	399.88
539.367	401.88
539.581	383.88
539.795	392.88
540.009	391.88
540.222	405.88
540.436	404.88
540.65	380.88
540.864	384.88
541.078	392.88
541.292	385.88
541.506	375.88
541.72	414.88
541.934	373.88
542.147	390.88
542.361	393.88
542.575	394.88
542.789	397.88
543.002	388.88
543.216	386.88
543.43	379.88
543.644	366.88
543.857	376.88
544.071	395.88
544.285	400.88
544.498	410.88
544.712	374.88
544.925	390.88
545.139	394.88
545.352	386.88
545.566	409.88
545.779	421.88
545.993	384.88
546.206	396.88
546.42	398.88
546.633	382.88
546.847	411.88
547.06	394.88
547.274	399.88
547.487	402.88
547.7	396.88
547.914	414.88
548.127	380.88
548.34	410.88
548.554	411.88
548.767	406.88
548.98	408.88
549.193	394.88
549.407	396.88
549.62	419.88
549.833	404.88
550.046	406.88
550.259	402.88
550.473	388.88
550.686	392.88
550.899	385.88
551.112	398.88
551.325	392.88
551.538	403.88
551.751	376.88
551.964	400.88
552.177	399.88
552.39	416.88
552.603	404.88
552.816	400.88
553.029	415.88
553.242	440.88
553.455	431.88
553.667	430.88
553.88	415.88
554.093	419.88
554.306	397.88
554.519	401.88
554.732	391.88
554.944	382.88
555.157	366.88
555.37	386.88
555.583	402.88
555.795	372.88
556.008	370.88
556.221	347.88
556.433	349.88
556.646	371.88
556.859	354.88
557.071	346.88
557.284	344.88
557.496	350.88
557.709	359.88
557.921	349.88
558.134	346.88
558.346	356.88
558.559	339.88
558.771	337.88
558.984	368.88
559.196	330.88
559.409	334.88
559.621	323.88
559.833	350.88
560.046	314.88
560.258	344.88
560.47	348.88
560.683	358.88
560.895	337.88
561.107	334.88
561.32	335.88
561.532	334.88
561.744	322.88
561.956	343.88
562.168	337.88
562.381	326.88
562.593	347.88
562.805	352.88
563.017	348.88
563.229	327.88
563.441	340.88
563.653	350.88
563.865	344.88
564.077	337.88
564.289	354.88
564.501	355.88
564.713	366.88
564.925	366.88
565.137	377.88
565.349	389.88
565.561	391.88
565.773	389.88
565.985	417.88
566.197	423.88
566.408	454.88
566.62	474.88
566.832	507.88
567.044	510.88
567.255	518.88
567.467	534.88
567.679	533.88
567.891	566.88
568.102	550.88
568.314	574.88
568.526	504.88
568.737	456.88
568.949	441.88
569.161	401.88
569.372	389.88
569.584	383.88
569.795	369.88
570.007	367.88
570.218	345.88
570.43	330.88
570.641	349.88
570.853	340.88
571.064	341.88
571.276	346.88
571.487	305.88
571.698	344.88
571.91	336.88
572.121	328.88
572.333	307.88
572.544	291.88
572.755	306.88
572.966	318.88
573.178	296.88
573.389	304.88
573.6	287.88
573.811	298.88
574.023	302.88
574.234	304.88
574.445	296.88
574.656	286.88
574.867	294.88
575.078	276.88
575.289	284.88
575.501	279.88
575.712	255.88
575.923	281.88
576.134	276.88
576.345	289.88
576.556	276.88
576.767	275.88
576.978	274.88
577.188	286.88
577.399	290.88
577.61	287.88
577.821	264.88
578.032	266.88
578.243	266.88
578.454	261.88
578.665	265.88
578.875	273.88
579.086	260.88
579.297	268.88
579.508	268.88
579.718	267.88
579.929	266.88
580.14	255.88
580.35	247.88
580.561	260.88
580.772	259.88
580.982	243.88
581.193	262.88
581.403	250.88
581.614	243.88
581.825	254.88
582.035	247.88
582.246	253.88
582.456	254.88
582.667	251.88
582.877	256.88
583.087	262.88
583.298	246.88
583.508	238.88
583.719	233.88
583.929	257.88
584.139	276.88
584.35	236.88
584.56	246.88
584.77	246.88
584.981	245.88
585.191	265.88
585.401	252.88
585.611	231.88
585.821	226.88
586.032	246.88
586.242	248.88
586.452	243.88
586.662	239.88
586.872	247.88
587.082	226.88
587.292	233.88
587.502	235.88
587.713	246.88
587.923	260.88
588.133	247.88
588.343	252.88
588.553	254.88
588.762	252.88
588.972	262.88
589.182	238.88
589.392	242.88
589.602	218.88
589.812	244.88
590.022	251.88
590.232	256.88
590.441	260.88
590.651	248.88
590.861	241.88
591.071	249.88
591.281	263.88
591.49	242.88
591.7	253.88
591.91	256.88
592.119	253.88
592.329	261.88
592.539	268.88
592.748	268.88
592.958	275.88
593.167	267.88
593.377	273.88
593.587	278.88
593.796	296.88
594.006	297.88
594.215	303.88
594.424	279.88
594.634	291.88
594.843	274.88
595.053	260.88
595.262	264.88
595.472	251.88
595.681	250.88
595.89	263.88
596.1	248.88
596.309	242.88
596.518	231.88
596.727	232.88
596.937	240.88
597.146	227.88
597.355	228.88
597.564	235.88
597.774	218.88
597.983	229.88
598.192	232.88
598.401	203.88
598.61	214.88
598.819	230.88
599.028	219.88
599.237	223.88
599.446	223.88
599.655	213.88
599.864	218.88
600.073	214.88
600.282	215.88
600.491	188.88
600.7	210.88
600.909	208.88
601.118	211.88
601.327	191.88
601.536	201.88
601.745	208.88
601.953	203.88
602.162	211.88
602.371	205.88
602.58	196.88
602.789	218.88
602.997	206.88
603.206	224.88
603.415	212.88
603.623	202.88
603.832	218.88
604.041	181.88
604.249	203.88
604.458	206.88
604.666	209.88
604.875	197.88
605.084	205.88
605.292	199.88
605.501	199.88
605.709	192.88
605.918	188.88
606.126	202.88
606.334	184.88
606.543	200.88
606.751	193.88
606.96	198.88
607.168	201.88
607.376	191.88
607.585	192.88
607.793	223.88
608.001	197.88
608.21	202.88
608.418	196.88
608.626	190.88
608.834	206.88
609.043	196.88
609.251	192.88
609.459	194.88
609.667	205.88
609.875	165.88
610.083	198.88
610.291	188.88
610.499	217.88
610.707	200.88
610.916	194.88
611.124	188.88
611.332	191.88
611.54	193.88
611.748	212.88
611.955	179.88
612.163	195.88
612.371	186.88
612.579	201.88
612.787	204.88
612.995	208.88
613.203	203.88
613.411	195.88
613.618	167.88
613.826	191.88
614.034	201.88
614.242	192.88
614.449	193.88
614.657	187.88
614.865	171.88
615.072	161.88
615.28	195.88
615.488	193.88
615.695	183.88
615.903	181.88
616.111	186.88
616.318	191.88
616.526	182.88
616.733	180.88
616.941	192.88
617.148	191.88
617.356	188.88
617.563	193.88
617.771	197.88
617.978	183.88
618.185	195.88
618.393	185.88
618.6	183.88
618.807	189.88
619.015	187.88
619.222	180.88
619.429	193.88
619.637	210.88
619.844	202.88
620.051	176.88
620.258	184.88
620.466	179.88
620.673	165.88
620.88	185.88
621.087	165.88
621.294	168.88
621.501	184.88
621.708	179.88
621.915	184.88
622.122	199.88
622.329	192.88
622.536	172.88
622.743	188.88
622.95	183.88
623.157	180.88
623.364	171.88
623.571	182.88
623.778	184.88
623.985	176.88
624.192	182.88
624.399	184.88
624.606	165.88
624.812	180.88
625.019	161.88
625.226	167.88
625.433	171.88
625.639	183.88
625.846	156.88
626.053	162.88
626.259	171.88
626.466	172.88
626.673	183.88
626.879	179.88
627.086	187.88
627.293	177.88
627.499	168.88
627.706	159.88
627.912	171.88
628.119	174.88
628.325	166.88
628.532	159.88
628.738	175.88
628.945	177.88
629.151	179.88
629.357	172.88
629.564	165.88
629.77	186.88
629.976	167.88
630.183	158.88
630.389	155.88
630.595	160.88
630.802	180.88
631.008	149.88
631.214	164.88
631.42	163.88
631.627	170.88
631.833	138.88
632.039	151.88
632.245	171.88
632.451	148.88
632.657	174.88
632.863	174.88
633.069	142.88
633.275	156.88
633.481	152.88
633.688	160.88
633.893	148.88
634.099	152.88
634.305	167.88
634.511	160.88
634.717	164.88
634.923	147.88
635.129	151.88
635.335	152.88
635.541	135.88
635.747	147.88
635.952	147.88
636.158	150.88
636.364	171.88
636.57	164.88
636.775	149.88
636.981	138.88
637.187	143.88
637.392	153.88
637.598	154.88
637.804	137.88
638.009	148.88
638.215	164.88
638.421	158.88
638.626	153.88
638.832	159.88
639.037	147.88
639.243	152.88
639.448	158.88
639.654	165.88
639.859	142.88
640.065	148.88
640.27	128.88
640.475	141.88
640.681	143.88
640.886	150.88
641.091	155.88
641.297	153.88
641.502	155.88
641.707	141.88
641.913	158.88
642.118	136.88
642.323	153.88
642.528	161.88
642.733	137.88
642.939	140.88
643.144	132.88
643.349	143.88
643.554	153.88
643.759	154.88
643.964	150.88
644.169	147.88
644.374	148.88
644.579	145.88
644.784	153.88
644.989	156.88
645.194	141.88
645.399	147.88
645.604	152.88
645.809	145.88
646.014	140.88
646.219	155.88
646.423	152.88
646.628	138.88
646.833	159.88
647.038	149.88
647.243	146.88
647.447	154.88
647.652	143.88
647.857	150.88
648.062	163.88
648.266	150.88
648.471	162.88
648.676	153.88
648.88	148.88
649.085	167.88
649.289	152.88
649.494	171.88
649.698	148.88
649.903	141.88
650.107	147.88
650.312	126.88
650.516	140.88
650.721	134.88
650.925	131.88
651.13	146.88
651.334	140.88
651.539	143.88
651.743	139.88
651.947	139.88
652.152	152.88
652.356	151.88
652.56	138.88
652.764	144.88
652.969	146.88
653.173	139.88
653.377	153.88
653.581	127.88
653.785	138.88
653.99	120.88
654.194	137.88
654.398	127.88
654.602	147.88
654.806	114.88
655.01	123.88
655.214	137.88
655.418	128.88
655.622	128.88
655.826	131.88
656.03	152.88
656.234	132.88
656.438	121.88
656.642	114.88
656.846	123.88
657.049	113.88
657.253	113.88
657.457	116.88
657.661	113.88
657.865	119.88
658.068	116.88
658.272	117.88
658.476	106.88
658.68	111.88
658.883	112.88
659.087	105.88
659.291	118.88
659.494	114.88
659.698	105.88
659.901	90.88
660.105	89.88
660.309	100.88
660.512	78.88
660.716	89.88
660.919	76.88
661.123	101.88
661.326	88.88
661.53	94.88
661.733	88.88
661.936	94.88
662.14	86.88
662.343	89.88
662.546	95.88
662.75	86.88
662.953	89.88
663.156	89.88
663.36	88.88
663.563	91.88
663.766	76.88
663.969	79.88
664.173	83.88
664.376	82.88
664.579	93.88
664.782	72.88
664.985	74.88
665.188	81.88
665.391	79.88
665.594	94.88
665.797	90.88
666	83.88
666.203	83.88
666.406	81.88
666.609	76.88
666.812	81.88
667.015	76.88
667.218	83.88
667.421	77.88
667.624	80.88
667.827	83.88
668.03	89.88
668.232	81.88
668.435	72.88
668.638	74.88
668.841	87.88
669.043	74.88
669.246	99.88
669.449	85.88
669.651	79.88
669.854	97.88
670.057	90.88
670.259	87.88
670.462	81.88
670.665	80.88
670.867	75.88
671.07	86.88
671.272	98.88
671.475	94.88
671.677	71.88
671.88	71.88
672.082	81.88
672.284	75.88
672.487	79.88
672.689	84.88
672.892	97.88
