Data from Fe(NO3)3@0.025M.TitratingCurve.Agarose3%dH2O.NegLispCup.LampEnergy10.LIBS07252019_HRD10591_16-55-29-335.txt Node
Date: Thu Jul 25 16:55:29 EDT 2019
User: cochatt
Spectrometer: HR+D1059
Trigger mode: 1
Integration Time (sec): 1.000000E-1
Scans to average: 1
Electric dark correction enabled: true
Nonlinearity correction enabled: false
Boxcar width: 0
XAxis mode: Wavelengths
Number of Pixels in Spectrum: 2048
>>>>>Begin Spectral Data<<<<<
223.165	-17.94
223.4	-17.94
223.635	-17.94
223.869	-2.94
224.104	-23.94
224.338	-8.94
224.573	-25.94
224.808	-12.94
225.042	-28.94
225.277	-6.94
225.511	-8.94
225.746	8.06
225.98	14.06
226.215	15.06
226.449	22.06
226.683	29.06
226.918	22.06
227.152	27.06
227.387	34.06
227.621	29.06
227.856	45.06
228.09	52.06
228.324	49.06
228.559	55.06
228.793	52.06
229.027	74.06
229.262	84.06
229.496	62.06
229.73	77.06
229.964	73.06
230.199	79.06
230.433	92.06
230.667	73.06
230.901	85.06
231.136	93.06
231.37	90.06
231.604	104.06
231.838	87.06
232.072	81.06
232.306	93.06
232.541	98.06
232.775	94.06
233.009	95.06
233.243	83.06
233.477	79.06
233.711	89.06
233.945	103.06
234.179	94.06
234.413	99.06
234.647	93.06
234.881	88.06
235.115	100.06
235.349	82.06
235.583	88.06
235.817	92.06
236.051	90.06
236.285	84.06
236.519	83.06
236.753	95.06
236.987	93.06
237.221	87.06
237.455	84.06
237.689	93.06
237.922	88.06
238.156	93.06
238.39	88.06
238.624	94.06
238.858	92.06
239.091	91.06
239.325	84.06
239.559	92.06
239.793	89.06
240.027	96.06
240.26	103.06
240.494	90.06
240.728	91.06
240.961	95.06
241.195	87.06
241.429	105.06
241.662	97.06
241.896	95.06
242.13	90.06
242.363	106.06
242.597	104.06
242.83	94.06
243.064	94.06
243.298	112.06
243.531	106.06
243.765	78.06
243.998	110.06
244.232	99.06
244.465	106.06
244.699	80.06
244.932	86.06
245.166	94.06
245.399	100.06
245.633	85.06
245.866	91.06
246.099	93.06
246.333	98.06
246.566	99.06
246.8	107.06
247.033	101.06
247.266	97.06
247.5	109.06
247.733	108.06
247.966	95.06
248.2	97.06
248.433	103.06
248.666	92.06
248.899	102.06
249.133	96.06
249.366	106.06
249.599	100.06
249.832	100.06
250.066	116.06
250.299	110.06
250.532	107.06
250.765	109.06
250.998	106.06
251.231	106.06
251.465	123.06
251.698	116.06
251.931	104.06
252.164	115.06
252.397	113.06
252.63	102.06
252.863	119.06
253.096	108.06
253.329	133.06
253.562	113.06
253.795	110.06
254.028	111.06
254.261	125.06
254.494	114.06
254.727	109.06
254.96	113.06
255.193	108.06
255.426	109.06
255.659	110.06
255.892	113.06
256.124	120.06
256.357	107.06
256.59	115.06
256.823	110.06
257.056	141.06
257.289	119.06
257.521	107.06
257.754	97.06
257.987	115.06
258.22	109.06
258.452	122.06
258.685	105.06
258.918	106.06
259.151	99.06
259.383	134.06
259.616	116.06
259.849	118.06
260.081	122.06
260.314	109.06
260.547	115.06
260.779	121.06
261.012	129.06
261.244	123.06
261.477	133.06
261.71	109.06
261.942	118.06
262.175	120.06
262.407	133.06
262.64	125.06
262.872	125.06
263.105	128.06
263.337	128.06
263.57	121.06
263.802	114.06
264.035	120.06
264.267	134.06
264.499	135.06
264.732	134.06
264.964	133.06
265.197	117.06
265.429	110.06
265.661	113.06
265.894	135.06
266.126	130.06
266.358	125.06
266.591	119.06
266.823	129.06
267.055	134.06
267.287	149.06
267.52	137.06
267.752	118.06
267.984	133.06
268.216	122.06
268.448	124.06
268.681	128.06
268.913	131.06
269.145	129.06
269.377	134.06
269.609	133.06
269.841	129.06
270.073	124.06
270.306	148.06
270.538	143.06
270.77	124.06
271.002	129.06
271.234	134.06
271.466	146.06
271.698	146.06
271.93	146.06
272.162	145.06
272.394	130.06
272.626	117.06
272.858	129.06
273.09	155.06
273.322	137.06
273.553	133.06
273.785	152.06
274.017	143.06
274.249	141.06
274.481	138.06
274.713	140.06
274.945	132.06
275.176	142.06
275.408	134.06
275.64	129.06
275.872	144.06
276.104	134.06
276.335	133.06
276.567	136.06
276.799	143.06
277.031	159.06
277.262	123.06
277.494	143.06
277.726	143.06
277.957	147.06
278.189	145.06
278.421	131.06
278.652	142.06
278.884	132.06
279.115	144.06
279.347	128.06
279.579	152.06
279.81	155.06
280.042	152.06
280.273	146.06
280.505	138.06
280.736	135.06
280.968	144.06
281.199	135.06
281.431	145.06
281.662	145.06
281.894	137.06
282.125	154.06
282.356	139.06
282.588	163.06
282.819	164.06
283.051	150.06
283.282	156.06
283.513	150.06
283.745	149.06
283.976	156.06
284.207	146.06
284.439	149.06
284.67	133.06
284.901	131.06
285.132	150.06
285.364	166.06
285.595	156.06
285.826	156.06
286.057	158.06
286.288	143.06
286.52	153.06
286.751	172.06
286.982	157.06
287.213	157.06
287.444	156.06
287.675	148.06
287.906	155.06
288.138	153.06
288.369	164.06
288.6	165.06
288.831	159.06
289.062	152.06
289.293	153.06
289.524	161.06
289.755	169.06
289.986	159.06
290.217	172.06
290.448	172.06
290.679	161.06
290.91	167.06
291.141	171.06
291.371	170.06
291.602	155.06
291.833	168.06
292.064	161.06
292.295	160.06
292.526	152.06
292.757	171.06
292.987	144.06
293.218	167.06
293.449	167.06
293.68	165.06
293.91	169.06
294.141	158.06
294.372	172.06
294.603	169.06
294.833	157.06
295.064	153.06
295.295	174.06
295.525	146.06
295.756	156.06
295.987	173.06
296.217	159.06
296.448	172.06
296.679	170.06
296.909	177.06
297.14	166.06
297.37	179.06
297.601	152.06
297.831	166.06
298.062	182.06
298.292	162.06
298.523	188.06
298.753	181.06
298.984	154.06
299.214	183.06
299.445	170.06
299.675	179.06
299.905	175.06
300.136	163.06
300.366	174.06
300.597	169.06
300.827	169.06
301.057	170.06
301.288	187.06
301.518	177.06
301.748	174.06
301.979	169.06
302.209	168.06
302.439	178.06
302.669	181.06
302.9	160.06
303.13	177.06
303.36	193.06
303.59	166.06
303.82	176.06
304.051	163.06
304.281	208.06
304.511	199.06
304.741	176.06
304.971	183.06
305.201	181.06
305.431	189.06
305.661	182.06
305.891	167.06
306.121	189.06
306.352	188.06
306.582	185.06
306.812	183.06
307.042	189.06
307.272	196.06
307.502	155.06
307.731	188.06
307.961	187.06
308.191	185.06
308.421	200.06
308.651	185.06
308.881	194.06
309.111	182.06
309.341	207.06
309.571	198.06
309.8	174.06
310.03	194.06
310.26	170.06
310.49	161.06
310.72	189.06
310.949	181.06
311.179	179.06
311.409	193.06
311.639	195.06
311.868	205.06
312.098	185.06
312.328	187.06
312.557	191.06
312.787	195.06
313.017	179.06
313.246	200.06
313.476	188.06
313.706	186.06
313.935	203.06
314.165	188.06
314.394	197.06
314.624	187.06
314.853	209.06
315.083	193.06
315.312	193.06
315.542	199.06
315.771	193.06
316.001	192.06
316.23	200.06
316.46	186.06
316.689	195.06
316.919	185.06
317.148	193.06
317.377	200.06
317.607	187.06
317.836	193.06
318.065	186.06
318.295	191.06
318.524	189.06
318.753	197.06
318.983	205.06
319.212	191.06
319.441	191.06
319.67	206.06
319.9	189.06
320.129	210.06
320.358	191.06
320.587	197.06
320.816	187.06
321.046	185.06
321.275	217.06
321.504	195.06
321.733	186.06
321.962	205.06
322.191	205.06
322.42	206.06
322.649	199.06
322.878	191.06
323.108	201.06
323.337	199.06
323.566	206.06
323.795	203.06
324.024	194.06
324.253	200.06
324.482	193.06
324.71	204.06
324.939	218.06
325.168	204.06
325.397	201.06
325.626	197.06
325.855	202.06
326.084	214.06
326.313	211.06
326.542	223.06
326.77	227.06
326.999	223.06
327.228	212.06
327.457	203.06
327.686	203.06
327.914	213.06
328.143	192.06
328.372	223.06
328.6	191.06
328.829	216.06
329.058	205.06
329.287	218.06
329.515	203.06
329.744	223.06
329.972	211.06
330.201	215.06
330.43	225.06
330.658	217.06
330.887	208.06
331.115	226.06
331.344	212.06
331.572	216.06
331.801	228.06
332.03	206.06
332.258	213.06
332.486	244.06
332.715	221.06
332.943	241.06
333.172	247.06
333.4	250.06
333.629	265.06
333.857	231.06
334.085	265.06
334.314	253.06
334.542	230.06
334.771	253.06
334.999	259.06
335.227	255.06
335.455	263.06
335.684	249.06
335.912	231.06
336.14	239.06
336.369	246.06
336.597	246.06
336.825	246.06
337.053	243.06
337.281	238.06
337.51	249.06
337.738	235.06
337.966	213.06
338.194	228.06
338.422	230.06
338.65	229.06
338.878	227.06
339.106	213.06
339.334	220.06
339.562	220.06
339.79	221.06
340.018	214.06
340.246	207.06
340.474	225.06
340.702	221.06
340.93	238.06
341.158	222.06
341.386	222.06
341.614	229.06
341.842	213.06
342.07	226.06
342.298	234.06
342.526	200.06
342.754	207.06
342.981	213.06
343.209	224.06
343.437	250.06
343.665	241.06
343.893	254.06
344.12	256.06
344.348	242.06
344.576	243.06
344.804	237.06
345.031	226.06
345.259	227.06
345.487	226.06
345.714	235.06
345.942	222.06
346.17	200.06
346.397	229.06
346.625	210.06
346.853	198.06
347.08	207.06
347.308	225.06
347.535	211.06
347.763	210.06
347.99	220.06
348.218	206.06
348.445	194.06
348.673	210.06
348.9	218.06
349.128	220.06
349.355	218.06
349.583	219.06
349.81	206.06
350.037	214.06
350.265	204.06
350.492	196.06
350.72	202.06
350.947	219.06
351.174	216.06
351.402	216.06
351.629	217.06
351.856	214.06
352.083	211.06
352.311	222.06
352.538	205.06
352.765	221.06
352.992	198.06
353.22	209.06
353.447	228.06
353.674	207.06
353.901	218.06
354.128	210.06
354.355	211.06
354.583	206.06
354.81	231.06
355.037	213.06
355.264	211.06
355.491	208.06
355.718	215.06
355.945	195.06
356.172	227.06
356.399	214.06
356.626	211.06
356.853	222.06
357.08	211.06
357.307	216.06
357.534	223.06
357.761	206.06
357.988	215.06
358.215	210.06
358.441	206.06
358.668	219.06
358.895	220.06
359.122	214.06
359.349	212.06
359.576	221.06
359.802	214.06
360.029	216.06
360.256	201.06
360.483	220.06
360.709	208.06
360.936	215.06
361.163	195.06
361.39	212.06
361.616	217.06
361.843	202.06
362.07	217.06
362.296	236.06
362.523	209.06
362.749	211.06
362.976	212.06
363.203	227.06
363.429	223.06
363.656	214.06
363.882	219.06
364.109	219.06
364.335	231.06
364.562	213.06
364.788	210.06
365.015	241.06
365.241	197.06
365.468	220.06
365.694	203.06
365.92	214.06
366.147	229.06
366.373	199.06
366.599	207.06
366.826	216.06
367.052	223.06
367.278	221.06
367.505	219.06
367.731	214.06
367.957	212.06
368.184	202.06
368.41	223.06
368.636	225.06
368.862	230.06
369.089	222.06
369.315	219.06
369.541	225.06
369.767	228.06
369.993	227.06
370.219	213.06
370.445	213.06
370.672	241.06
370.898	225.06
371.124	232.06
371.35	232.06
371.576	233.06
371.802	239.06
372.028	241.06
372.254	248.06
372.48	238.06
372.706	228.06
372.932	230.06
373.158	232.06
373.384	244.06
373.61	236.06
373.835	239.06
374.061	251.06
374.287	252.06
374.513	232.06
374.739	236.06
374.965	237.06
375.191	253.06
375.416	242.06
375.642	229.06
375.868	261.06
376.094	225.06
376.319	259.06
376.545	227.06
376.771	255.06
376.997	249.06
377.222	261.06
377.448	226.06
377.674	223.06
377.899	233.06
378.125	232.06
378.35	242.06
378.576	222.06
378.802	226.06
379.027	241.06
379.253	238.06
379.478	219.06
379.704	225.06
379.929	236.06
380.155	257.06
380.38	234.06
380.606	246.06
380.831	231.06
381.057	258.06
381.282	235.06
381.507	245.06
381.733	229.06
381.958	235.06
382.184	244.06
382.409	242.06
382.634	257.06
382.86	258.06
383.085	250.06
383.31	234.06
383.535	270.06
383.761	242.06
383.986	257.06
384.211	249.06
384.436	244.06
384.662	248.06
384.887	270.06
385.112	272.06
385.337	279.06
385.562	264.06
385.787	261.06
386.013	274.06
386.238	253.06
386.463	260.06
386.688	291.06
386.913	258.06
387.138	270.06
387.363	279.06
387.588	275.06
387.813	266.06
388.038	280.06
388.263	265.06
388.488	274.06
388.713	291.06
388.938	273.06
389.163	277.06
389.387	264.06
389.612	270.06
389.837	272.06
390.062	265.06
390.287	282.06
390.512	272.06
390.736	279.06
390.961	257.06
391.186	266.06
391.411	280.06
391.636	292.06
391.86	301.06
392.085	286.06
392.31	294.06
392.534	274.06
392.759	290.06
392.984	294.06
393.208	297.06
393.433	290.06
393.658	296.06
393.882	277.06
394.107	300.06
394.331	274.06
394.556	302.06
394.78	287.06
395.005	287.06
395.229	286.06
395.454	298.06
395.678	306.06
395.903	299.06
396.127	305.06
396.352	305.06
396.576	287.06
396.801	276.06
397.025	307.06
397.249	316.06
397.474	296.06
397.698	293.06
397.922	297.06
398.147	333.06
398.371	323.06
398.595	323.06
398.82	322.06
399.044	361.06
399.268	379.06
399.492	404.06
399.717	449.06
399.941	413.06
400.165	414.06
400.389	369.06
400.613	358.06
400.837	326.06
401.062	348.06
401.286	350.06
401.51	315.06
401.734	328.06
401.958	329.06
402.182	324.06
402.406	349.06
402.63	340.06
402.854	355.06
403.078	367.06
403.302	348.06
403.526	336.06
403.75	333.06
403.974	355.06
404.198	346.06
404.422	348.06
404.645	348.06
404.869	357.06
405.093	354.06
405.317	350.06
405.541	355.06
405.765	350.06
405.988	362.06
406.212	339.06
406.436	361.06
406.66	355.06
406.883	371.06
407.107	385.06
407.331	383.06
407.555	379.06
407.778	399.06
408.002	406.06
408.226	381.06
408.449	365.06
408.673	361.06
408.896	348.06
409.12	374.06
409.344	363.06
409.567	366.06
409.791	350.06
410.014	366.06
410.238	360.06
410.461	363.06
410.685	365.06
410.908	349.06
411.132	334.06
411.355	329.06
411.578	331.06
411.802	356.06
412.025	348.06
412.249	336.06
412.472	328.06
412.695	339.06
412.919	320.06
413.142	337.06
413.365	318.06
413.589	329.06
413.812	321.06
414.035	323.06
414.258	315.06
414.482	326.06
414.705	325.06
414.928	330.06
415.151	299.06
415.374	331.06
415.597	311.06
415.821	310.06
416.044	311.06
416.267	323.06
416.49	311.06
416.713	297.06
416.936	312.06
417.159	317.06
417.382	332.06
417.605	329.06
417.828	317.06
418.051	313.06
418.274	327.06
418.497	332.06
418.72	323.06
418.943	326.06
419.166	340.06
419.389	358.06
419.611	343.06
419.834	333.06
420.057	333.06
420.28	324.06
420.503	294.06
420.726	323.06
420.948	321.06
421.171	312.06
421.394	322.06
421.617	334.06
421.839	320.06
422.062	338.06
422.285	316.06
422.507	318.06
422.73	334.06
422.953	318.06
423.175	309.06
423.398	338.06
423.621	335.06
423.843	322.06
424.066	324.06
424.288	327.06
424.511	328.06
424.733	327.06
424.956	318.06
425.178	308.06
425.401	311.06
425.623	304.06
425.846	302.06
426.068	316.06
426.291	313.06
426.513	311.06
426.735	297.06
426.958	305.06
427.18	283.06
427.402	292.06
427.625	293.06
427.847	299.06
428.069	294.06
428.292	307.06
428.514	287.06
428.736	302.06
428.958	302.06
429.181	288.06
429.403	295.06
429.625	290.06
429.847	283.06
430.069	307.06
430.292	287.06
430.514	286.06
430.736	294.06
430.958	298.06
431.18	280.06
431.402	279.06
431.624	295.06
431.846	290.06
432.068	296.06
432.29	293.06
432.512	298.06
432.734	292.06
432.956	305.06
433.178	277.06
433.4	276.06
433.622	294.06
433.844	287.06
434.066	291.06
434.287	283.06
434.509	278.06
434.731	314.06
434.953	316.06
435.175	302.06
435.397	321.06
435.618	304.06
435.84	308.06
436.062	298.06
436.284	312.06
436.505	281.06
436.727	299.06
436.949	291.06
437.17	278.06
437.392	291.06
437.614	293.06
437.835	276.06
438.057	297.06
438.278	278.06
438.5	282.06
438.721	277.06
438.943	308.06
439.165	286.06
439.386	291.06
439.608	291.06
439.829	292.06
440.05	284.06
440.272	277.06
440.493	299.06
440.715	282.06
440.936	311.06
441.158	299.06
441.379	318.06
441.6	325.06
441.822	334.06
442.043	310.06
442.264	303.06
442.486	305.06
442.707	305.06
442.928	314.06
443.149	298.06
443.371	307.06
443.592	316.06
443.813	310.06
444.034	331.06
444.255	336.06
444.476	335.06
444.698	357.06
444.919	361.06
445.14	414.06
445.361	370.06
445.582	327.06
445.803	324.06
446.024	305.06
446.245	296.06
446.466	299.06
446.687	306.06
446.908	289.06
447.129	286.06
447.35	285.06
447.571	291.06
447.792	293.06
448.013	272.06
448.234	278.06
448.455	276.06
448.675	261.06
448.896	280.06
449.117	274.06
449.338	272.06
449.559	275.06
449.779	288.06
450	264.06
450.221	263.06
450.442	263.06
450.662	262.06
450.883	261.06
451.104	270.06
451.324	281.06
451.545	281.06
451.766	278.06
451.986	276.06
452.207	271.06
452.428	280.06
452.648	283.06
452.869	289.06
453.089	273.06
453.31	287.06
453.53	271.06
453.751	273.06
453.971	271.06
454.192	273.06
454.412	246.06
454.633	262.06
454.853	262.06
455.073	254.06
455.294	274.06
455.514	261.06
455.734	270.06
455.955	248.06
456.175	262.06
456.395	243.06
456.616	274.06
456.836	264.06
457.056	259.06
457.276	253.06
457.497	277.06
457.717	261.06
457.937	267.06
458.157	275.06
458.377	281.06
458.598	256.06
458.818	285.06
459.038	295.06
459.258	289.06
459.478	298.06
459.698	310.06
459.918	294.06
460.138	301.06
460.358	327.06
460.578	330.06
460.798	333.06
461.018	335.06
461.238	344.06
461.458	331.06
461.678	325.06
461.898	331.06
462.118	357.06
462.338	355.06
462.558	344.06
462.777	371.06
462.997	387.06
463.217	404.06
463.437	393.06
463.657	382.06
463.876	364.06
464.096	357.06
464.316	371.06
464.536	381.06
464.755	356.06
464.975	356.06
465.195	335.06
465.414	318.06
465.634	312.06
465.854	301.06
466.073	287.06
466.293	302.06
466.512	306.06
466.732	310.06
466.951	289.06
467.171	291.06
467.391	274.06
467.61	275.06
467.829	295.06
468.049	269.06
468.268	294.06
468.488	280.06
468.707	286.06
468.927	301.06
469.146	276.06
469.365	279.06
469.585	286.06
469.804	292.06
470.023	279.06
470.243	310.06
470.462	287.06
470.681	286.06
470.901	288.06
471.12	295.06
471.339	295.06
471.558	297.06
471.777	268.06
471.997	262.06
472.216	263.06
472.435	277.06
472.654	267.06
472.873	272.06
473.092	287.06
473.311	274.06
473.53	279.06
473.749	281.06
473.968	285.06
474.187	282.06
474.406	269.06
474.625	279.06
474.844	281.06
475.063	282.06
475.282	267.06
475.501	275.06
475.72	296.06
475.939	275.06
476.158	279.06
476.377	281.06
476.596	269.06
476.814	278.06
477.033	286.06
477.252	313.06
477.471	307.06
477.69	295.06
477.908	334.06
478.127	327.06
478.346	322.06
478.564	333.06
478.783	344.06
479.002	339.06
479.22	339.06
479.439	341.06
479.658	327.06
479.876	312.06
480.095	332.06
480.313	321.06
480.532	345.06
480.751	342.06
480.969	335.06
481.188	316.06
481.406	312.06
481.624	319.06
481.843	309.06
482.061	315.06
482.28	317.06
482.498	321.06
482.717	296.06
482.935	321.06
483.153	322.06
483.372	299.06
483.59	301.06
483.808	334.06
484.027	327.06
484.245	335.06
484.463	296.06
484.681	321.06
484.9	319.06
485.118	318.06
485.336	316.06
485.554	314.06
485.772	321.06
485.99	311.06
486.209	305.06
486.427	324.06
486.645	320.06
486.863	325.06
487.081	322.06
487.299	325.06
487.517	323.06
487.735	321.06
487.953	323.06
488.171	347.06
488.389	325.06
488.607	315.06
488.825	323.06
489.043	307.06
489.261	315.06
489.479	327.06
489.696	311.06
489.914	332.06
490.132	335.06
490.35	335.06
490.568	322.06
490.786	322.06
491.003	335.06
491.221	341.06
491.439	322.06
491.657	316.06
491.874	331.06
492.092	340.06
492.31	329.06
492.527	333.06
492.745	346.06
492.963	326.06
493.18	334.06
493.398	336.06
493.615	333.06
493.833	337.06
494.05	339.06
494.268	352.06
494.485	348.06
494.703	363.06
494.92	338.06
495.138	335.06
495.355	333.06
495.573	342.06
495.79	333.06
496.008	331.06
496.225	357.06
496.442	353.06
496.66	356.06
496.877	362.06
497.094	367.06
497.312	355.06
497.529	377.06
497.746	393.06
497.963	427.06
498.181	400.06
498.398	411.06
498.615	443.06
498.832	453.06
499.049	505.06
499.267	520.06
499.484	555.06
499.701	582.06
499.918	631.06
500.135	709.06
500.352	748.06
500.569	776.06
500.786	746.06
501.003	735.06
501.22	663.06
501.437	622.06
501.654	579.06
501.871	530.06
502.088	511.06
502.305	479.06
502.522	467.06
502.739	441.06
502.956	430.06
503.172	443.06
503.389	403.06
503.606	402.06
503.823	417.06
504.04	403.06
504.256	398.06
504.473	390.06
504.69	397.06
504.907	387.06
505.123	375.06
505.34	357.06
505.557	356.06
505.773	352.06
505.99	325.06
506.207	329.06
506.423	301.06
506.64	319.06
506.856	332.06
507.073	330.06
507.289	306.06
507.506	317.06
507.722	330.06
507.939	326.06
508.155	318.06
508.372	309.06
508.588	294.06
508.805	292.06
509.021	303.06
509.238	308.06
509.454	290.06
509.67	291.06
509.887	292.06
510.103	299.06
510.319	297.06
510.536	294.06
510.752	300.06
510.968	282.06
511.184	300.06
511.401	276.06
511.617	290.06
511.833	296.06
512.049	297.06
512.265	300.06
512.481	295.06
512.698	294.06
512.914	296.06
513.13	293.06
513.346	286.06
513.562	286.06
513.778	274.06
513.994	294.06
514.21	286.06
514.426	310.06
514.642	297.06
514.858	294.06
515.074	294.06
515.29	298.06
515.506	298.06
515.721	311.06
515.937	322.06
516.153	316.06
516.369	301.06
516.585	319.06
516.801	332.06
517.016	336.06
517.232	346.06
517.448	361.06
517.664	371.06
517.879	355.06
518.095	374.06
518.311	339.06
518.527	336.06
518.742	337.06
518.958	326.06
519.173	301.06
519.389	316.06
519.605	315.06
519.82	299.06
520.036	313.06
520.251	275.06
520.467	300.06
520.682	295.06
520.898	289.06
521.113	305.06
521.329	283.06
521.544	297.06
521.76	289.06
521.975	286.06
522.19	269.06
522.406	284.06
522.621	281.06
522.836	262.06
523.052	276.06
523.267	286.06
523.482	266.06
523.698	279.06
523.913	286.06
524.128	275.06
524.343	268.06
524.559	275.06
524.774	280.06
524.989	296.06
525.204	263.06
525.419	277.06
525.634	281.06
525.849	270.06
526.064	281.06
526.28	283.06
526.495	281.06
526.71	279.06
526.925	254.06
527.14	270.06
527.355	280.06
527.57	274.06
527.785	275.06
527.999	285.06
528.214	281.06
528.429	269.06
528.644	271.06
528.859	286.06
529.074	264.06
529.289	289.06
529.503	259.06
529.718	270.06
529.933	277.06
530.148	260.06
530.363	271.06
530.577	273.06
530.792	280.06
531.007	266.06
531.221	265.06
531.436	256.06
531.651	277.06
531.865	280.06
532.08	277.06
532.295	284.06
532.509	271.06
532.724	273.06
532.938	273.06
533.153	276.06
533.367	282.06
533.582	289.06
533.796	280.06
534.011	258.06
534.225	275.06
534.44	266.06
534.654	270.06
534.868	253.06
535.083	276.06
535.297	259.06
535.511	250.06
535.726	269.06
535.94	261.06
536.154	261.06
536.369	249.06
536.583	251.06
536.797	254.06
537.011	268.06
537.225	271.06
537.44	229.06
537.654	237.06
537.868	223.06
538.082	264.06
538.296	261.06
538.51	260.06
538.724	249.06
538.938	241.06
539.153	238.06
539.367	245.06
539.581	253.06
539.795	244.06
540.009	254.06
540.222	255.06
540.436	258.06
540.65	246.06
540.864	245.06
541.078	255.06
541.292	246.06
541.506	255.06
541.72	261.06
541.934	245.06
542.147	250.06
542.361	258.06
542.575	235.06
542.789	246.06
543.002	259.06
543.216	270.06
543.43	263.06
543.644	252.06
543.857	239.06
544.071	265.06
544.285	263.06
544.498	243.06
544.712	242.06
544.925	257.06
545.139	243.06
545.352	262.06
545.566	258.06
545.779	269.06
545.993	249.06
546.206	256.06
546.42	261.06
546.633	288.06
546.847	255.06
547.06	254.06
547.274	262.06
547.487	268.06
547.7	238.06
547.914	283.06
548.127	270.06
548.34	271.06
548.554	264.06
548.767	275.06
548.98	270.06
549.193	275.06
549.407	261.06
549.62	264.06
549.833	292.06
550.046	274.06
550.259	266.06
550.473	246.06
550.686	247.06
550.899	260.06
551.112	265.06
551.325	270.06
551.538	259.06
551.751	238.06
551.964	233.06
552.177	260.06
552.39	257.06
552.603	261.06
552.816	274.06
553.029	276.06
553.242	275.06
553.455	280.06
553.667	277.06
553.88	274.06
554.093	283.06
554.306	270.06
554.519	246.06
554.732	260.06
554.944	257.06
555.157	252.06
555.37	259.06
555.583	257.06
555.795	245.06
556.008	227.06
556.221	231.06
556.433	251.06
556.646	249.06
556.859	235.06
557.071	237.06
557.284	226.06
557.496	233.06
557.709	242.06
557.921	230.06
558.134	241.06
558.346	216.06
558.559	223.06
558.771	229.06
558.984	248.06
559.196	215.06
559.409	213.06
559.621	228.06
559.833	232.06
560.046	235.06
560.258	224.06
560.47	229.06
560.683	231.06
560.895	242.06
561.107	228.06
561.32	224.06
561.532	227.06
561.744	232.06
561.956	221.06
562.168	222.06
562.381	231.06
562.593	243.06
562.805	237.06
563.017	220.06
563.229	219.06
563.441	229.06
563.653	237.06
563.865	233.06
564.077	242.06
564.289	246.06
564.501	261.06
564.713	249.06
564.925	242.06
565.137	253.06
565.349	264.06
565.561	247.06
565.773	267.06
565.985	278.06
566.197	299.06
566.408	303.06
566.62	298.06
566.832	323.06
567.044	310.06
567.255	307.06
567.467	317.06
567.679	325.06
567.891	340.06
568.102	348.06
568.314	321.06
568.526	291.06
568.737	311.06
568.949	279.06
569.161	269.06
569.372	265.06
569.584	244.06
569.795	252.06
570.007	245.06
570.218	242.06
570.43	245.06
570.641	234.06
570.853	228.06
571.064	227.06
571.276	222.06
571.487	226.06
571.698	229.06
571.91	222.06
572.121	198.06
572.333	235.06
572.544	219.06
572.755	214.06
572.966	205.06
573.178	205.06
573.389	209.06
573.6	199.06
573.811	200.06
574.023	200.06
574.234	203.06
574.445	219.06
574.656	199.06
574.867	184.06
575.078	193.06
575.289	202.06
575.501	193.06
575.712	205.06
575.923	195.06
576.134	188.06
576.345	202.06
576.556	207.06
576.767	196.06
576.978	200.06
577.188	207.06
577.399	200.06
577.61	175.06
577.821	185.06
578.032	194.06
578.243	199.06
578.454	193.06
578.665	184.06
578.875	177.06
579.086	190.06
579.297	180.06
579.508	171.06
579.718	179.06
579.929	180.06
580.14	186.06
580.35	155.06
580.561	185.06
580.772	197.06
580.982	183.06
581.193	184.06
581.403	185.06
581.614	178.06
581.825	179.06
582.035	184.06
582.246	175.06
582.456	181.06
582.667	178.06
582.877	200.06
583.087	180.06
583.298	186.06
583.508	179.06
583.719	189.06
583.929	179.06
584.139	178.06
584.35	176.06
584.56	186.06
584.77	172.06
584.981	182.06
585.191	171.06
585.401	184.06
585.611	171.06
585.821	177.06
586.032	180.06
586.242	179.06
586.452	168.06
586.662	184.06
586.872	158.06
587.082	172.06
587.292	165.06
587.502	155.06
587.713	177.06
587.923	163.06
588.133	170.06
588.343	189.06
588.553	163.06
588.762	169.06
588.972	179.06
589.182	197.06
589.392	173.06
589.602	172.06
589.812	193.06
590.022	190.06
590.232	162.06
590.441	181.06
590.651	180.06
590.861	155.06
591.071	190.06
591.281	198.06
591.49	177.06
591.7	195.06
591.91	195.06
592.119	176.06
592.329	178.06
592.539	181.06
592.748	188.06
592.958	194.06
593.167	203.06
593.377	201.06
593.587	220.06
593.796	195.06
594.006	179.06
594.215	201.06
594.424	204.06
594.634	208.06
594.843	189.06
595.053	205.06
595.262	162.06
595.472	188.06
595.681	175.06
595.89	187.06
596.1	186.06
596.309	186.06
596.518	193.06
596.727	181.06
596.937	187.06
597.146	163.06
597.355	169.06
597.564	161.06
597.774	165.06
597.983	151.06
598.192	159.06
598.401	155.06
598.61	148.06
598.819	183.06
599.028	161.06
599.237	172.06
599.446	164.06
599.655	170.06
599.864	150.06
600.073	147.06
600.282	167.06
600.491	148.06
600.7	151.06
600.909	158.06
601.118	154.06
601.327	145.06
601.536	163.06
601.745	149.06
601.953	167.06
602.162	162.06
602.371	161.06
602.58	165.06
602.789	167.06
602.997	151.06
603.206	150.06
603.415	158.06
603.623	161.06
603.832	165.06
604.041	163.06
604.249	143.06
604.458	151.06
604.666	149.06
604.875	158.06
605.084	151.06
605.292	151.06
605.501	159.06
605.709	155.06
605.918	164.06
606.126	161.06
606.334	163.06
606.543	151.06
606.751	136.06
606.96	166.06
607.168	149.06
607.376	143.06
607.585	152.06
607.793	153.06
608.001	150.06
608.21	147.06
608.418	152.06
608.626	148.06
608.834	155.06
609.043	149.06
609.251	157.06
609.459	148.06
609.667	150.06
609.875	143.06
610.083	144.06
610.291	137.06
610.499	147.06
610.707	148.06
610.916	154.06
611.124	151.06
611.332	155.06
611.54	147.06
611.748	143.06
611.955	154.06
612.163	147.06
612.371	158.06
612.579	154.06
612.787	170.06
612.995	151.06
613.203	164.06
613.411	140.06
613.618	156.06
613.826	146.06
614.034	150.06
614.242	156.06
614.449	150.06
614.657	152.06
614.865	155.06
615.072	165.06
615.28	162.06
615.488	157.06
615.695	157.06
615.903	152.06
616.111	163.06
616.318	160.06
616.526	158.06
616.733	146.06
616.941	150.06
617.148	148.06
617.356	157.06
617.563	145.06
617.771	154.06
617.978	139.06
618.185	158.06
618.393	141.06
618.6	145.06
618.807	139.06
619.015	149.06
619.222	151.06
619.429	146.06
619.637	152.06
619.844	147.06
620.051	133.06
620.258	132.06
620.466	150.06
620.673	138.06
620.88	139.06
621.087	130.06
621.294	155.06
621.501	144.06
621.708	153.06
621.915	129.06
622.122	145.06
622.329	144.06
622.536	148.06
622.743	142.06
622.95	143.06
623.157	132.06
623.364	134.06
623.571	151.06
623.778	150.06
623.985	138.06
624.192	147.06
624.399	147.06
624.606	152.06
624.812	138.06
625.019	136.06
625.226	129.06
625.433	126.06
625.639	161.06
625.846	138.06
626.053	142.06
626.259	145.06
626.466	139.06
626.673	131.06
626.879	152.06
627.086	127.06
627.293	148.06
627.499	150.06
627.706	141.06
627.912	140.06
628.119	140.06
628.325	127.06
628.532	142.06
628.738	142.06
628.945	134.06
629.151	129.06
629.357	125.06
629.564	123.06
629.77	132.06
629.976	134.06
630.183	131.06
630.389	137.06
630.595	138.06
630.802	123.06
631.008	146.06
631.214	154.06
631.42	138.06
631.627	137.06
631.833	120.06
632.039	141.06
632.245	142.06
632.451	130.06
632.657	131.06
632.863	137.06
633.069	139.06
633.275	143.06
633.481	125.06
633.688	140.06
633.893	120.06
634.099	131.06
634.305	128.06
634.511	129.06
634.717	128.06
634.923	136.06
635.129	142.06
635.335	137.06
635.541	117.06
635.747	133.06
635.952	139.06
636.158	129.06
636.364	125.06
636.57	140.06
636.775	128.06
636.981	132.06
637.187	135.06
637.392	139.06
637.598	122.06
637.804	114.06
638.009	121.06
638.215	146.06
638.421	153.06
638.626	135.06
638.832	125.06
639.037	134.06
639.243	117.06
639.448	122.06
639.654	130.06
639.859	133.06
640.065	121.06
640.27	137.06
640.475	128.06
640.681	120.06
640.886	127.06
641.091	121.06
641.297	126.06
641.502	133.06
641.707	133.06
641.913	124.06
642.118	133.06
642.323	112.06
642.528	130.06
642.733	130.06
642.939	126.06
643.144	120.06
643.349	129.06
643.554	133.06
643.759	134.06
643.964	130.06
644.169	121.06
644.374	122.06
644.579	133.06
644.784	118.06
644.989	116.06
645.194	118.06
645.399	125.06
645.604	123.06
645.809	122.06
646.014	108.06
646.219	127.06
646.423	126.06
646.628	118.06
646.833	151.06
647.038	123.06
647.243	133.06
647.447	131.06
647.652	126.06
647.857	137.06
648.062	130.06
648.266	133.06
648.471	135.06
648.676	127.06
648.88	126.06
649.085	145.06
649.289	115.06
649.494	124.06
649.698	123.06
649.903	118.06
650.107	127.06
650.312	113.06
650.516	117.06
650.721	129.06
650.925	131.06
651.13	122.06
651.334	118.06
651.539	122.06
651.743	115.06
651.947	123.06
652.152	124.06
652.356	120.06
652.56	119.06
652.764	113.06
652.969	116.06
653.173	113.06
653.377	115.06
653.581	120.06
653.785	117.06
653.99	118.06
654.194	125.06
654.398	118.06
654.602	135.06
654.806	132.06
655.01	114.06
655.214	119.06
655.418	111.06
655.622	120.06
655.826	115.06
656.03	117.06
656.234	106.06
656.438	117.06
656.642	123.06
656.846	121.06
657.049	116.06
657.253	106.06
657.457	110.06
657.661	115.06
657.865	98.06
658.068	103.06
658.272	91.06
658.476	103.06
658.68	104.06
658.883	106.06
659.087	81.06
659.291	97.06
659.494	106.06
659.698	99.06
659.901	102.06
660.105	96.06
660.309	91.06
660.512	88.06
660.716	89.06
660.919	85.06
661.123	103.06
661.326	98.06
661.53	107.06
661.733	96.06
661.936	94.06
662.14	95.06
662.343	90.06
662.546	79.06
662.75	94.06
662.953	82.06
663.156	84.06
663.36	91.06
663.563	78.06
663.766	81.06
663.969	78.06
664.173	70.06
664.376	82.06
664.579	81.06
664.782	85.06
664.985	77.06
665.188	89.06
665.391	95.06
665.594	89.06
665.797	78.06
666	78.06
666.203	75.06
666.406	78.06
666.609	90.06
666.812	70.06
667.015	93.06
667.218	88.06
667.421	98.06
667.624	77.06
667.827	83.06
668.03	99.06
668.232	71.06
668.435	95.06
668.638	89.06
668.841	93.06
669.043	85.06
669.246	78.06
669.449	89.06
669.651	102.06
669.854	81.06
670.057	96.06
670.259	83.06
670.462	86.06
670.665	81.06
670.867	79.06
671.07	100.06
671.272	89.06
671.475	80.06
671.677	72.06
671.88	92.06
672.082	90.06
672.284	86.06
672.487	80.06
672.689	70.06
672.892	85.06
