Data from Fe(NO3)3@0.0125M.TitratingCurve.Agarose3%dH2O.NegLispCup.LampEnergy10.LIBS07252019_HRD10591_16-58-45-336.txt Node
Date: Thu Jul 25 16:58:45 EDT 2019
User: cochatt
Spectrometer: HR+D1059
Trigger mode: 1
Integration Time (sec): 1.000000E-1
Scans to average: 1
Electric dark correction enabled: true
Nonlinearity correction enabled: false
Boxcar width: 0
XAxis mode: Wavelengths
Number of Pixels in Spectrum: 2048
>>>>>Begin Spectral Data<<<<<
223.165	6.81
223.4	6.81
223.635	6.81
223.869	-17.19
224.104	-29.19
224.338	-16.19
224.573	-10.19
224.808	-14.19
225.042	-8.19
225.277	-8.19
225.511	-10.19
225.746	-3.19
225.98	13.81
226.215	8.81
226.449	16.81
226.683	17.81
226.918	26.81
227.152	25.81
227.387	20.81
227.621	25.81
227.856	47.81
228.09	42.81
228.324	52.81
228.559	54.81
228.793	68.81
229.027	102.81
229.262	114.81
229.496	133.81
229.73	125.81
229.964	140.81
230.199	122.81
230.433	123.81
230.667	141.81
230.901	131.81
231.136	151.81
231.37	143.81
231.604	127.81
231.838	143.81
232.072	158.81
232.306	137.81
232.541	141.81
232.775	154.81
233.009	153.81
233.243	152.81
233.477	152.81
233.711	138.81
233.945	149.81
234.179	171.81
234.413	157.81
234.647	158.81
234.881	154.81
235.115	148.81
235.349	158.81
235.583	161.81
235.817	165.81
236.051	164.81
236.285	148.81
236.519	167.81
236.753	180.81
236.987	163.81
237.221	166.81
237.455	161.81
237.689	165.81
237.922	159.81
238.156	169.81
238.39	179.81
238.624	191.81
238.858	195.81
239.091	183.81
239.325	167.81
239.559	185.81
239.793	170.81
240.027	190.81
240.26	188.81
240.494	196.81
240.728	213.81
240.961	197.81
241.195	206.81
241.429	189.81
241.662	205.81
241.896	196.81
242.13	204.81
242.363	197.81
242.597	211.81
242.83	217.81
243.064	207.81
243.298	211.81
243.531	209.81
243.765	204.81
243.998	213.81
244.232	214.81
244.465	217.81
244.699	210.81
244.932	224.81
245.166	223.81
245.399	225.81
245.633	229.81
245.866	238.81
246.099	230.81
246.333	218.81
246.566	239.81
246.8	225.81
247.033	246.81
247.266	247.81
247.5	221.81
247.733	231.81
247.966	222.81
248.2	247.81
248.433	254.81
248.666	235.81
248.899	234.81
249.133	250.81
249.366	252.81
249.599	250.81
249.832	267.81
250.066	261.81
250.299	258.81
250.532	264.81
250.765	261.81
250.998	272.81
251.231	267.81
251.465	257.81
251.698	294.81
251.931	282.81
252.164	289.81
252.397	303.81
252.63	288.81
252.863	287.81
253.096	284.81
253.329	273.81
253.562	281.81
253.795	311.81
254.028	322.81
254.261	296.81
254.494	287.81
254.727	289.81
254.96	291.81
255.193	300.81
255.426	295.81
255.659	302.81
255.892	288.81
256.124	289.81
256.357	321.81
256.59	306.81
256.823	323.81
257.056	303.81
257.289	303.81
257.521	296.81
257.754	316.81
257.987	317.81
258.22	301.81
258.452	323.81
258.685	317.81
258.918	339.81
259.151	329.81
259.383	346.81
259.616	319.81
259.849	350.81
260.081	367.81
260.314	373.81
260.547	342.81
260.779	340.81
261.012	340.81
261.244	360.81
261.477	376.81
261.71	371.81
261.942	348.81
262.175	353.81
262.407	364.81
262.64	351.81
262.872	369.81
263.105	358.81
263.337	373.81
263.57	385.81
263.802	371.81
264.035	361.81
264.267	348.81
264.499	351.81
264.732	363.81
264.964	372.81
265.197	373.81
265.429	376.81
265.661	371.81
265.894	366.81
266.126	377.81
266.358	379.81
266.591	374.81
266.823	372.81
267.055	355.81
267.287	362.81
267.52	374.81
267.752	392.81
267.984	394.81
268.216	389.81
268.448	392.81
268.681	398.81
268.913	393.81
269.145	385.81
269.377	413.81
269.609	401.81
269.841	394.81
270.073	395.81
270.306	397.81
270.538	409.81
270.77	405.81
271.002	437.81
271.234	393.81
271.466	403.81
271.698	423.81
271.93	429.81
272.162	433.81
272.394	437.81
272.626	414.81
272.858	435.81
273.09	432.81
273.322	425.81
273.553	465.81
273.785	435.81
274.017	468.81
274.249	474.81
274.481	486.81
274.713	456.81
274.945	491.81
275.176	505.81
275.408	482.81
275.64	488.81
275.872	483.81
276.104	472.81
276.335	443.81
276.567	458.81
276.799	463.81
277.031	459.81
277.262	491.81
277.494	479.81
277.726	486.81
277.957	477.81
278.189	481.81
278.421	489.81
278.652	500.81
278.884	474.81
279.115	482.81
279.347	462.81
279.579	497.81
279.81	510.81
280.042	487.81
280.273	485.81
280.505	500.81
280.736	503.81
280.968	513.81
281.199	516.81
281.431	520.81
281.662	536.81
281.894	506.81
282.125	522.81
282.356	510.81
282.588	526.81
282.819	518.81
283.051	538.81
283.282	528.81
283.513	528.81
283.745	533.81
283.976	522.81
284.207	527.81
284.439	531.81
284.67	536.81
284.901	553.81
285.132	541.81
285.364	550.81
285.595	537.81
285.826	551.81
286.057	540.81
286.288	535.81
286.52	581.81
286.751	555.81
286.982	547.81
287.213	528.81
287.444	574.81
287.675	565.81
287.906	575.81
288.138	585.81
288.369	576.81
288.6	574.81
288.831	574.81
289.062	564.81
289.293	555.81
289.524	553.81
289.755	554.81
289.986	560.81
290.217	586.81
290.448	567.81
290.679	586.81
290.91	573.81
291.141	587.81
291.371	586.81
291.602	588.81
291.833	574.81
292.064	607.81
292.295	573.81
292.526	590.81
292.757	594.81
292.987	599.81
293.218	593.81
293.449	629.81
293.68	593.81
293.91	607.81
294.141	600.81
294.372	592.81
294.603	608.81
294.833	601.81
295.064	605.81
295.295	629.81
295.525	594.81
295.756	610.81
295.987	612.81
296.217	612.81
296.448	629.81
296.679	619.81
296.909	613.81
297.14	621.81
297.37	631.81
297.601	639.81
297.831	636.81
298.062	637.81
298.292	637.81
298.523	644.81
298.753	661.81
298.984	637.81
299.214	648.81
299.445	669.81
299.675	655.81
299.905	670.81
300.136	670.81
300.366	664.81
300.597	651.81
300.827	619.81
301.057	636.81
301.288	649.81
301.518	669.81
301.748	646.81
301.979	653.81
302.209	683.81
302.439	692.81
302.669	667.81
302.9	671.81
303.13	681.81
303.36	689.81
303.59	682.81
303.82	669.81
304.051	695.81
304.281	705.81
304.511	673.81
304.741	696.81
304.971	709.81
305.201	706.81
305.431	685.81
305.661	683.81
305.891	702.81
306.121	695.81
306.352	694.81
306.582	689.81
306.812	668.81
307.042	725.81
307.272	716.81
307.502	700.81
307.731	691.81
307.961	691.81
308.191	675.81
308.421	713.81
308.651	710.81
308.881	703.81
309.111	716.81
309.341	705.81
309.571	700.81
309.8	691.81
310.03	703.81
310.26	713.81
310.49	729.81
310.72	719.81
310.949	728.81
311.179	700.81
311.409	717.81
311.639	743.81
311.868	750.81
312.098	743.81
312.328	738.81
312.557	745.81
312.787	729.81
313.017	735.81
313.246	738.81
313.476	757.81
313.706	755.81
313.935	773.81
314.165	764.81
314.394	753.81
314.624	773.81
314.853	775.81
315.083	750.81
315.312	769.81
315.542	789.81
315.771	761.81
316.001	750.81
316.23	773.81
316.46	786.81
316.689	780.81
316.919	780.81
317.148	798.81
317.377	820.81
317.607	810.81
317.836	801.81
318.065	773.81
318.295	802.81
318.524	771.81
318.753	799.81
318.983	764.81
319.212	802.81
319.441	801.81
319.67	807.81
319.9	798.81
320.129	789.81
320.358	785.81
320.587	806.81
320.816	784.81
321.046	838.81
321.275	808.81
321.504	799.81
321.733	817.81
321.962	824.81
322.191	821.81
322.42	818.81
322.649	842.81
322.878	826.81
323.108	813.81
323.337	819.81
323.566	825.81
323.795	835.81
324.024	843.81
324.253	837.81
324.482	842.81
324.71	861.81
324.939	864.81
325.168	853.81
325.397	830.81
325.626	853.81
325.855	858.81
326.084	842.81
326.313	862.81
326.542	863.81
326.77	873.81
326.999	851.81
327.228	853.81
327.457	842.81
327.686	846.81
327.914	860.81
328.143	848.81
328.372	839.81
328.6	866.81
328.829	878.81
329.058	865.81
329.287	861.81
329.515	863.81
329.744	869.81
329.972	870.81
330.201	853.81
330.43	885.81
330.658	882.81
330.887	901.81
331.115	876.81
331.344	883.81
331.572	892.81
331.801	888.81
332.03	904.81
332.258	917.81
332.486	896.81
332.715	877.81
332.943	918.81
333.172	887.81
333.4	922.81
333.629	941.81
333.857	926.81
334.085	946.81
334.314	925.81
334.542	925.81
334.771	934.81
334.999	931.81
335.227	934.81
335.455	935.81
335.684	925.81
335.912	949.81
336.14	946.81
336.369	935.81
336.597	953.81
336.825	939.81
337.053	940.81
337.281	920.81
337.51	963.81
337.738	941.81
337.966	958.81
338.194	923.81
338.422	926.81
338.65	943.81
338.878	945.81
339.106	947.81
339.334	963.81
339.562	923.81
339.79	909.81
340.018	939.81
340.246	896.81
340.474	924.81
340.702	957.81
340.93	911.81
341.158	915.81
341.386	915.81
341.614	945.81
341.842	943.81
342.07	934.81
342.298	914.81
342.526	946.81
342.754	926.81
342.981	903.81
343.209	927.81
343.437	905.81
343.665	934.81
343.893	955.81
344.12	961.81
344.348	956.81
344.576	950.81
344.804	951.81
345.031	933.81
345.259	918.81
345.487	911.81
345.714	927.81
345.942	925.81
346.17	918.81
346.397	917.81
346.625	917.81
346.853	891.81
347.08	910.81
347.308	900.81
347.535	898.81
347.763	906.81
347.99	915.81
348.218	905.81
348.445	925.81
348.673	905.81
348.9	926.81
349.128	899.81
349.355	880.81
349.583	903.81
349.81	891.81
350.037	895.81
350.265	883.81
350.492	894.81
350.72	893.81
350.947	875.81
351.174	868.81
351.402	892.81
351.629	917.81
351.856	896.81
352.083	898.81
352.311	888.81
352.538	890.81
352.765	888.81
352.992	879.81
353.22	881.81
353.447	909.81
353.674	870.81
353.901	889.81
354.128	901.81
354.355	889.81
354.583	904.81
354.81	911.81
355.037	894.81
355.264	893.81
355.491	874.81
355.718	899.81
355.945	903.81
356.172	886.81
356.399	884.81
356.626	882.81
356.853	885.81
357.08	891.81
357.307	895.81
357.534	893.81
357.761	902.81
357.988	897.81
358.215	915.81
358.441	912.81
358.668	896.81
358.895	876.81
359.122	893.81
359.349	909.81
359.576	901.81
359.802	902.81
360.029	864.81
360.256	877.81
360.483	884.81
360.709	897.81
360.936	892.81
361.163	909.81
361.39	907.81
361.616	900.81
361.843	905.81
362.07	906.81
362.296	914.81
362.523	915.81
362.749	900.81
362.976	901.81
363.203	895.81
363.429	893.81
363.656	916.81
363.882	911.81
364.109	902.81
364.335	897.81
364.562	898.81
364.788	915.81
365.015	931.81
365.241	916.81
365.468	907.81
365.694	912.81
365.92	922.81
366.147	916.81
366.373	933.81
366.599	917.81
366.826	907.81
367.052	911.81
367.278	936.81
367.505	905.81
367.731	897.81
367.957	914.81
368.184	935.81
368.41	932.81
368.636	948.81
368.862	941.81
369.089	935.81
369.315	933.81
369.541	941.81
369.767	949.81
369.993	926.81
370.219	933.81
370.445	947.81
370.672	958.81
370.898	973.81
371.124	951.81
371.35	969.81
371.576	979.81
371.802	975.81
372.028	961.81
372.254	958.81
372.48	955.81
372.706	959.81
372.932	998.81
373.158	953.81
373.384	957.81
373.61	984.81
373.835	965.81
374.061	955.81
374.287	985.81
374.513	976.81
374.739	981.81
374.965	995.81
375.191	979.81
375.416	983.81
375.642	967.81
375.868	972.81
376.094	984.81
376.319	953.81
376.545	962.81
376.771	947.81
376.997	940.81
377.222	962.81
377.448	957.81
377.674	951.81
377.899	939.81
378.125	940.81
378.35	915.81
378.576	955.81
378.802	953.81
379.027	953.81
379.253	965.81
379.478	939.81
379.704	903.81
379.929	950.81
380.155	956.81
380.38	954.81
380.606	966.81
380.831	947.81
381.057	973.81
381.282	971.81
381.507	962.81
381.733	968.81
381.958	957.81
382.184	978.81
382.409	984.81
382.634	979.81
382.86	969.81
383.085	983.81
383.31	989.81
383.535	964.81
383.761	989.81
383.986	991.81
384.211	989.81
384.436	995.81
384.662	999.81
384.887	1003.81
385.112	977.81
385.337	999.81
385.562	1021.81
385.787	1024.81
386.013	1037.81
386.238	1068.81
386.463	1023.81
386.688	1057.81
386.913	994.81
387.138	1045.81
387.363	1050.81
387.588	1035.81
387.813	1027.81
388.038	1051.81
388.263	1030.81
388.488	1038.81
388.713	1035.81
388.938	1075.81
389.163	1046.81
389.387	1058.81
389.612	1042.81
389.837	1053.81
390.062	1051.81
390.287	1061.81
390.512	1049.81
390.736	1019.81
390.961	1057.81
391.186	1065.81
391.411	1030.81
391.636	1079.81
391.86	1070.81
392.085	1051.81
392.31	1055.81
392.534	1062.81
392.759	1067.81
392.984	1054.81
393.208	1082.81
393.433	1098.81
393.658	1095.81
393.882	1066.81
394.107	1110.81
394.331	1080.81
394.556	1049.81
394.78	1046.81
395.005	1055.81
395.229	1083.81
395.454	1085.81
395.678	1115.81
395.903	1072.81
396.127	1066.81
396.352	1055.81
396.576	1121.81
396.801	1098.81
397.025	1107.81
397.249	1110.81
397.474	1109.81
397.698	1127.81
397.922	1145.81
398.147	1119.81
398.371	1113.81
398.595	1140.81
398.82	1132.81
399.044	1150.81
399.268	1177.81
399.492	1203.81
399.717	1211.81
399.941	1245.81
400.165	1224.81
400.389	1233.81
400.613	1229.81
400.837	1189.81
401.062	1190.81
401.286	1194.81
401.51	1159.81
401.734	1161.81
401.958	1159.81
402.182	1177.81
402.406	1153.81
402.63	1150.81
402.854	1134.81
403.078	1130.81
403.302	1171.81
403.526	1150.81
403.75	1132.81
403.974	1123.81
404.198	1177.81
404.422	1151.81
404.645	1167.81
404.869	1171.81
405.093	1174.81
405.317	1149.81
405.541	1165.81
405.765	1152.81
405.988	1194.81
406.212	1219.81
406.436	1191.81
406.66	1231.81
406.883	1236.81
407.107	1225.81
407.331	1219.81
407.555	1247.81
407.778	1256.81
408.002	1196.81
408.226	1255.81
408.449	1235.81
408.673	1213.81
408.896	1198.81
409.12	1213.81
409.344	1235.81
409.567	1215.81
409.791	1203.81
410.014	1196.81
410.238	1193.81
410.461	1209.81
410.685	1213.81
410.908	1193.81
411.132	1169.81
411.355	1176.81
411.578	1160.81
411.802	1175.81
412.025	1153.81
412.249	1179.81
412.472	1187.81
412.695	1151.81
412.919	1191.81
413.142	1159.81
413.365	1174.81
413.589	1143.81
413.812	1182.81
414.035	1170.81
414.258	1128.81
414.482	1162.81
414.705	1157.81
414.928	1169.81
415.151	1146.81
415.374	1147.81
415.597	1113.81
415.821	1109.81
416.044	1127.81
416.267	1135.81
416.49	1114.81
416.713	1106.81
416.936	1122.81
417.159	1127.81
417.382	1094.81
417.605	1088.81
417.828	1084.81
418.051	1094.81
418.274	1105.81
418.497	1098.81
418.72	1062.81
418.943	1045.81
419.166	1114.81
419.389	1157.81
419.611	1179.81
419.834	1152.81
420.057	1121.81
420.28	1125.81
420.503	1052.81
420.726	1083.81
420.948	1073.81
421.171	1057.81
421.394	1065.81
421.617	1048.81
421.839	1076.81
422.062	1086.81
422.285	1062.81
422.507	1091.81
422.73	1084.81
422.953	1085.81
423.175	1081.81
423.398	1087.81
423.621	1059.81
423.843	1083.81
424.066	1077.81
424.288	1071.81
424.511	1070.81
424.733	1093.81
424.956	1066.81
425.178	1086.81
425.401	1092.81
425.623	1080.81
425.846	1069.81
426.068	1048.81
426.291	1077.81
426.513	1049.81
426.735	1033.81
426.958	1074.81
427.18	1082.81
427.402	1065.81
427.625	1068.81
427.847	1038.81
428.069	1047.81
428.292	1037.81
428.514	1059.81
428.736	1073.81
428.958	1053.81
429.181	1046.81
429.403	1023.81
429.625	1048.81
429.847	1033.81
430.069	1051.81
430.292	1080.81
430.514	1035.81
430.736	1059.81
430.958	1042.81
431.18	1012.81
431.402	1021.81
431.624	1029.81
431.846	1047.81
432.068	1045.81
432.29	1058.81
432.512	1038.81
432.734	1043.81
432.956	1045.81
433.178	1026.81
433.4	1038.81
433.622	1079.81
433.844	1091.81
434.066	1034.81
434.287	1043.81
434.509	1057.81
434.731	1066.81
434.953	1074.81
435.175	1058.81
435.397	1053.81
435.618	1060.81
435.84	1063.81
436.062	1039.81
436.284	1049.81
436.505	1029.81
436.727	1029.81
436.949	1018.81
437.17	1048.81
437.392	1028.81
437.614	1046.81
437.835	1028.81
438.057	1017.81
438.278	1011.81
438.5	1031.81
438.721	1013.81
438.943	1027.81
439.165	1030.81
439.386	1031.81
439.608	1035.81
439.829	1005.81
440.05	995.81
440.272	1024.81
440.493	986.81
440.715	1030.81
440.936	1032.81
441.158	1009.81
441.379	1042.81
441.6	1042.81
441.822	1055.81
442.043	1028.81
442.264	1023.81
442.486	1037.81
442.707	1027.81
442.928	1031.81
443.149	1047.81
443.371	1013.81
443.592	1057.81
443.813	1026.81
444.034	1023.81
444.255	1037.81
444.476	1049.81
444.698	1057.81
444.919	1019.81
445.14	1164.81
445.361	1101.81
445.582	1073.81
445.803	1026.81
446.024	1004.81
446.245	1029.81
446.466	998.81
446.687	998.81
446.908	1018.81
447.129	1001.81
447.35	989.81
447.571	1003.81
447.792	972.81
448.013	979.81
448.234	977.81
448.455	990.81
448.675	955.81
448.896	970.81
449.117	948.81
449.338	945.81
449.559	979.81
449.779	953.81
450	935.81
450.221	942.81
450.442	966.81
450.662	956.81
450.883	956.81
451.104	966.81
451.324	935.81
451.545	945.81
451.766	949.81
451.986	940.81
452.207	953.81
452.428	961.81
452.648	906.81
452.869	921.81
453.089	933.81
453.31	945.81
453.53	930.81
453.751	935.81
453.971	932.81
454.192	921.81
454.412	914.81
454.633	928.81
454.853	950.81
455.073	921.81
455.294	933.81
455.514	926.81
455.734	918.81
455.955	909.81
456.175	920.81
456.395	921.81
456.616	930.81
456.836	931.81
457.056	929.81
457.276	944.81
457.497	927.81
457.717	910.81
457.937	941.81
458.157	920.81
458.377	921.81
458.598	950.81
458.818	955.81
459.038	957.81
459.258	948.81
459.478	990.81
459.698	1009.81
459.918	968.81
460.138	1022.81
460.358	1002.81
460.578	1034.81
460.798	1029.81
461.018	1061.81
461.238	1023.81
461.458	1045.81
461.678	1057.81
461.898	1059.81
462.118	1077.81
462.338	1069.81
462.558	1077.81
462.777	1061.81
462.997	1115.81
463.217	1091.81
463.437	1133.81
463.657	1090.81
463.876	1082.81
464.096	1106.81
464.316	1086.81
464.536	1089.81
464.755	1047.81
464.975	1089.81
465.195	1065.81
465.414	1039.81
465.634	1011.81
465.854	1020.81
466.073	1029.81
466.293	1056.81
466.512	978.81
466.732	1027.81
466.951	1021.81
467.171	969.81
467.391	999.81
467.61	977.81
467.829	953.81
468.049	1005.81
468.268	990.81
468.488	979.81
468.707	981.81
468.927	997.81
469.146	1000.81
469.365	989.81
469.585	975.81
469.804	974.81
470.023	974.81
470.243	989.81
470.462	967.81
470.681	1005.81
470.901	971.81
471.12	1016.81
471.339	1012.81
471.558	1010.81
471.777	988.81
471.997	1000.81
472.216	1029.81
472.435	1062.81
472.654	977.81
472.873	1012.81
473.092	1023.81
473.311	1045.81
473.53	1019.81
473.749	1019.81
473.968	1034.81
474.187	1012.81
474.406	1029.81
474.625	1041.81
474.844	1046.81
475.063	1023.81
475.282	1027.81
475.501	1049.81
475.72	1060.81
475.939	1068.81
476.158	1080.81
476.377	1095.81
476.596	1087.81
476.814	1125.81
477.033	1123.81
477.252	1093.81
477.471	1130.81
477.69	1136.81
477.908	1108.81
478.127	1122.81
478.346	1123.81
478.564	1129.81
478.783	1153.81
479.002	1167.81
479.22	1158.81
479.439	1171.81
479.658	1186.81
479.876	1182.81
480.095	1165.81
480.313	1191.81
480.532	1193.81
480.751	1200.81
480.969	1202.81
481.188	1212.81
481.406	1213.81
481.624	1200.81
481.843	1203.81
482.061	1186.81
482.28	1203.81
482.498	1210.81
482.717	1227.81
482.935	1228.81
483.153	1231.81
483.372	1225.81
483.59	1215.81
483.808	1222.81
484.027	1220.81
484.245	1215.81
484.463	1220.81
484.681	1269.81
484.9	1226.81
485.118	1245.81
485.336	1246.81
485.554	1245.81
485.772	1257.81
485.99	1245.81
486.209	1280.81
486.427	1224.81
486.645	1248.81
486.863	1251.81
487.081	1288.81
487.299	1262.81
487.517	1240.81
487.735	1241.81
487.953	1261.81
488.171	1294.81
488.389	1248.81
488.607	1236.81
488.825	1260.81
489.043	1228.81
489.261	1263.81
489.479	1274.81
489.696	1234.81
489.914	1235.81
490.132	1275.81
490.35	1260.81
490.568	1260.81
490.786	1244.81
491.003	1256.81
491.221	1271.81
491.439	1271.81
491.657	1256.81
491.874	1281.81
492.092	1299.81
492.31	1293.81
492.527	1267.81
492.745	1279.81
492.963	1293.81
493.18	1269.81
493.398	1303.81
493.615	1287.81
493.833	1318.81
494.05	1285.81
494.268	1242.81
494.485	1285.81
494.703	1305.81
494.92	1322.81
495.138	1309.81
495.355	1316.81
495.573	1345.81
495.79	1309.81
496.008	1322.81
496.225	1310.81
496.442	1319.81
496.66	1351.81
496.877	1317.81
497.094	1318.81
497.312	1367.81
497.529	1402.81
497.746	1394.81
497.963	1383.81
498.181	1454.81
498.398	1478.81
498.615	1495.81
498.832	1518.81
499.049	1552.81
499.267	1537.81
499.484	1606.81
499.701	1619.81
499.918	1681.81
500.135	1696.81
500.352	1713.81
500.569	1715.81
500.786	1715.81
501.003	1708.81
501.22	1718.81
501.437	1680.81
501.654	1575.81
501.871	1594.81
502.088	1541.81
502.305	1526.81
502.522	1487.81
502.739	1466.81
502.956	1449.81
503.172	1423.81
503.389	1395.81
503.606	1406.81
503.823	1352.81
504.04	1373.81
504.256	1324.81
504.473	1324.81
504.69	1306.81
504.907	1323.81
505.123	1320.81
505.34	1248.81
505.557	1286.81
505.773	1243.81
505.99	1247.81
506.207	1189.81
506.423	1246.81
506.64	1182.81
506.856	1198.81
507.073	1187.81
507.289	1216.81
507.506	1180.81
507.722	1174.81
507.939	1151.81
508.155	1148.81
508.372	1141.81
508.588	1149.81
508.805	1122.81
509.021	1134.81
509.238	1115.81
509.454	1118.81
509.67	1111.81
509.887	1130.81
510.103	1092.81
510.319	1091.81
510.536	1085.81
510.752	1061.81
510.968	1088.81
511.184	1082.81
511.401	1106.81
511.617	1087.81
511.833	1065.81
512.049	1063.81
512.265	1075.81
512.481	1096.81
512.698	1078.81
512.914	1080.81
513.13	1102.81
513.346	1061.81
513.562	1081.81
513.778	1087.81
513.994	1096.81
514.21	1095.81
514.426	1083.81
514.642	1078.81
514.858	1098.81
515.074	1108.81
515.29	1093.81
515.506	1076.81
515.721	1079.81
515.937	1110.81
516.153	1066.81
516.369	1092.81
516.585	1118.81
516.801	1109.81
517.016	1120.81
517.232	1124.81
517.448	1102.81
517.664	1148.81
517.879	1093.81
518.095	1124.81
518.311	1111.81
518.527	1126.81
518.742	1110.81
518.958	1103.81
519.173	1099.81
519.389	1074.81
519.605	1097.81
519.82	1086.81
520.036	1077.81
520.251	1082.81
520.467	1055.81
520.682	1077.81
520.898	1060.81
521.113	1043.81
521.329	1001.81
521.544	1024.81
521.76	1023.81
521.975	1009.81
522.19	1034.81
522.406	1022.81
522.621	1028.81
522.836	1011.81
523.052	1045.81
523.267	1018.81
523.482	987.81
523.698	1002.81
523.913	983.81
524.128	976.81
524.343	999.81
524.559	999.81
524.774	1007.81
524.989	980.81
525.204	1004.81
525.419	979.81
525.634	979.81
525.849	967.81
526.064	959.81
526.28	966.81
526.495	935.81
526.71	931.81
526.925	961.81
527.14	967.81
527.355	950.81
527.57	981.81
527.785	971.81
527.999	949.81
528.214	986.81
528.429	955.81
528.644	977.81
528.859	939.81
529.074	959.81
529.289	935.81
529.503	951.81
529.718	935.81
529.933	930.81
530.148	949.81
530.363	946.81
530.577	957.81
530.792	967.81
531.007	941.81
531.221	925.81
531.436	925.81
531.651	941.81
531.865	925.81
532.08	927.81
532.295	943.81
532.509	941.81
532.724	901.81
532.938	935.81
533.153	935.81
533.367	926.81
533.582	929.81
533.796	941.81
534.011	922.81
534.225	902.81
534.44	899.81
534.654	925.81
534.868	908.81
535.083	907.81
535.297	918.81
535.511	916.81
535.726	904.81
535.94	905.81
536.154	887.81
536.369	914.81
536.583	875.81
536.797	893.81
537.011	871.81
537.225	877.81
537.44	890.81
537.654	905.81
537.868	877.81
538.082	866.81
538.296	862.81
538.51	905.81
538.724	878.81
538.938	865.81
539.153	858.81
539.367	862.81
539.581	877.81
539.795	843.81
540.009	869.81
540.222	883.81
540.436	871.81
540.65	857.81
540.864	871.81
541.078	853.81
541.292	875.81
541.506	862.81
541.72	838.81
541.934	844.81
542.147	873.81
542.361	875.81
542.575	831.81
542.789	855.81
543.002	861.81
543.216	856.81
543.43	844.81
543.644	821.81
543.857	851.81
544.071	849.81
544.285	828.81
544.498	843.81
544.712	837.81
544.925	843.81
545.139	834.81
545.352	840.81
545.566	832.81
545.779	846.81
545.993	849.81
546.206	825.81
546.42	824.81
546.633	854.81
546.847	851.81
547.06	843.81
547.274	807.81
547.487	838.81
547.7	828.81
547.914	820.81
548.127	830.81
548.34	832.81
548.554	829.81
548.767	827.81
548.98	836.81
549.193	828.81
549.407	812.81
549.62	826.81
549.833	823.81
550.046	841.81
550.259	835.81
550.473	841.81
550.686	812.81
550.899	823.81
551.112	787.81
551.325	803.81
551.538	808.81
551.751	808.81
551.964	810.81
552.177	798.81
552.39	801.81
552.603	826.81
552.816	803.81
553.029	812.81
553.242	795.81
553.455	807.81
553.667	806.81
553.88	782.81
554.093	805.81
554.306	802.81
554.519	780.81
554.732	787.81
554.944	793.81
555.157	763.81
555.37	738.81
555.583	789.81
555.795	753.81
556.008	759.81
556.221	732.81
556.433	755.81
556.646	743.81
556.859	712.81
557.071	716.81
557.284	722.81
557.496	744.81
557.709	737.81
557.921	728.81
558.134	733.81
558.346	726.81
558.559	726.81
558.771	737.81
558.984	734.81
559.196	748.81
559.409	721.81
559.621	708.81
559.833	712.81
560.046	721.81
560.258	730.81
560.47	718.81
560.683	706.81
560.895	678.81
561.107	719.81
561.32	700.81
561.532	700.81
561.744	690.81
561.956	706.81
562.168	696.81
562.381	705.81
562.593	699.81
562.805	703.81
563.017	698.81
563.229	713.81
563.441	710.81
563.653	712.81
563.865	719.81
564.077	716.81
564.289	684.81
564.501	704.81
564.713	721.81
564.925	718.81
565.137	736.81
565.349	725.81
565.561	710.81
565.773	729.81
565.985	739.81
566.197	757.81
566.408	786.81
566.62	760.81
566.832	758.81
567.044	763.81
567.255	755.81
567.467	760.81
567.679	751.81
567.891	764.81
568.102	723.81
568.314	740.81
568.526	742.81
568.737	708.81
568.949	697.81
569.161	693.81
569.372	702.81
569.584	697.81
569.795	682.81
570.007	663.81
570.218	641.81
570.43	645.81
570.641	635.81
570.853	642.81
571.064	641.81
571.276	628.81
571.487	631.81
571.698	612.81
571.91	637.81
572.121	617.81
572.333	617.81
572.544	606.81
572.755	599.81
572.966	598.81
573.178	580.81
573.389	593.81
573.6	586.81
573.811	583.81
574.023	585.81
574.234	565.81
574.445	570.81
574.656	565.81
574.867	553.81
575.078	558.81
575.289	572.81
575.501	552.81
575.712	556.81
575.923	575.81
576.134	543.81
576.345	551.81
576.556	533.81
576.767	539.81
576.978	537.81
577.188	551.81
577.399	536.81
577.61	523.81
577.821	523.81
578.032	533.81
578.243	540.81
578.454	514.81
578.665	545.81
578.875	535.81
579.086	535.81
579.297	512.81
579.508	515.81
579.718	502.81
579.929	540.81
580.14	494.81
580.35	488.81
580.561	509.81
580.772	497.81
580.982	498.81
581.193	502.81
581.403	499.81
581.614	477.81
581.825	491.81
582.035	475.81
582.246	495.81
582.456	519.81
582.667	520.81
582.877	509.81
583.087	492.81
583.298	469.81
583.508	466.81
583.719	457.81
583.929	485.81
584.139	493.81
584.35	481.81
584.56	491.81
584.77	484.81
584.981	486.81
585.191	493.81
585.401	470.81
585.611	497.81
585.821	458.81
586.032	472.81
586.242	468.81
586.452	478.81
586.662	465.81
586.872	474.81
587.082	447.81
587.292	465.81
587.502	459.81
587.713	479.81
587.923	458.81
588.133	464.81
588.343	461.81
588.553	468.81
588.762	454.81
588.972	463.81
589.182	515.81
589.392	496.81
589.602	465.81
589.812	502.81
590.022	463.81
590.232	433.81
590.441	454.81
590.651	456.81
590.861	445.81
591.071	455.81
591.281	459.81
591.49	445.81
591.7	453.81
591.91	470.81
592.119	456.81
592.329	449.81
592.539	477.81
592.748	451.81
592.958	444.81
593.167	440.81
593.377	454.81
593.587	449.81
593.796	469.81
594.006	450.81
594.215	470.81
594.424	458.81
594.634	444.81
594.843	431.81
595.053	430.81
595.262	422.81
595.472	441.81
595.681	441.81
595.89	419.81
596.1	419.81
596.309	405.81
596.518	418.81
596.727	421.81
596.937	396.81
597.146	403.81
597.355	421.81
597.564	418.81
597.774	418.81
597.983	399.81
598.192	395.81
598.401	403.81
598.61	403.81
598.819	407.81
599.028	403.81
599.237	397.81
599.446	417.81
599.655	388.81
599.864	360.81
600.073	389.81
600.282	385.81
600.491	390.81
600.7	407.81
600.909	361.81
601.118	381.81
601.327	400.81
601.536	360.81
601.745	398.81
601.953	361.81
602.162	376.81
602.371	369.81
602.58	355.81
602.789	358.81
602.997	374.81
603.206	389.81
603.415	369.81
603.623	360.81
603.832	361.81
604.041	380.81
604.249	365.81
604.458	377.81
604.666	358.81
604.875	350.81
605.084	363.81
605.292	368.81
605.501	360.81
605.709	361.81
605.918	339.81
606.126	365.81
606.334	365.81
606.543	363.81
606.751	370.81
606.96	363.81
607.168	353.81
607.376	343.81
607.585	367.81
607.793	359.81
608.001	358.81
608.21	367.81
608.418	349.81
608.626	350.81
608.834	348.81
609.043	348.81
609.251	348.81
609.459	355.81
609.667	373.81
609.875	344.81
610.083	328.81
610.291	342.81
610.499	329.81
610.707	330.81
610.916	341.81
611.124	351.81
611.332	345.81
611.54	339.81
611.748	334.81
611.955	346.81
612.163	336.81
612.371	325.81
612.579	331.81
612.787	345.81
612.995	349.81
613.203	336.81
613.411	337.81
613.618	334.81
613.826	316.81
614.034	336.81
614.242	343.81
614.449	327.81
614.657	322.81
614.865	325.81
615.072	332.81
615.28	346.81
615.488	331.81
615.695	335.81
615.903	332.81
616.111	333.81
616.318	323.81
616.526	342.81
616.733	339.81
616.941	327.81
617.148	325.81
617.356	316.81
617.563	313.81
617.771	324.81
617.978	321.81
618.185	324.81
618.393	322.81
618.6	316.81
618.807	339.81
619.015	319.81
619.222	330.81
619.429	306.81
619.637	313.81
619.844	313.81
620.051	316.81
620.258	310.81
620.466	289.81
620.673	294.81
620.88	305.81
621.087	303.81
621.294	309.81
621.501	305.81
621.708	308.81
621.915	298.81
622.122	302.81
622.329	292.81
622.536	308.81
622.743	318.81
622.95	287.81
623.157	309.81
623.364	287.81
623.571	300.81
623.778	270.81
623.985	285.81
624.192	294.81
624.399	291.81
624.606	292.81
624.812	277.81
625.019	277.81
625.226	300.81
625.433	293.81
625.639	284.81
625.846	295.81
626.053	281.81
626.259	283.81
626.466	280.81
626.673	263.81
626.879	286.81
627.086	279.81
627.293	284.81
627.499	277.81
627.706	279.81
627.912	301.81
628.119	280.81
628.325	263.81
628.532	275.81
628.738	283.81
628.945	258.81
629.151	278.81
629.357	266.81
629.564	259.81
629.77	278.81
629.976	260.81
630.183	269.81
630.389	285.81
630.595	276.81
630.802	271.81
631.008	260.81
631.214	279.81
631.42	261.81
631.627	254.81
631.833	249.81
632.039	255.81
632.245	262.81
632.451	242.81
632.657	260.81
632.863	261.81
633.069	253.81
633.275	252.81
633.481	252.81
633.688	258.81
633.893	259.81
634.099	250.81
634.305	246.81
634.511	247.81
634.717	262.81
634.923	243.81
635.129	257.81
635.335	249.81
635.541	246.81
635.747	261.81
635.952	247.81
636.158	261.81
636.364	242.81
636.57	245.81
636.775	252.81
636.981	271.81
637.187	244.81
637.392	246.81
637.598	243.81
637.804	248.81
638.009	249.81
638.215	245.81
638.421	258.81
638.626	225.81
638.832	247.81
639.037	243.81
639.243	233.81
639.448	246.81
639.654	229.81
639.859	229.81
640.065	249.81
640.27	247.81
640.475	234.81
640.681	249.81
640.886	246.81
641.091	232.81
641.297	240.81
641.502	244.81
641.707	238.81
641.913	219.81
642.118	243.81
642.323	227.81
642.528	241.81
642.733	233.81
642.939	226.81
643.144	218.81
643.349	225.81
643.554	234.81
643.759	232.81
643.964	256.81
644.169	233.81
644.374	229.81
644.579	233.81
644.784	242.81
644.989	226.81
645.194	246.81
645.399	236.81
645.604	226.81
645.809	244.81
646.014	239.81
646.219	222.81
646.423	219.81
646.628	228.81
646.833	219.81
647.038	228.81
647.243	235.81
647.447	231.81
647.652	252.81
647.857	231.81
648.062	224.81
648.266	220.81
648.471	244.81
648.676	214.81
648.88	234.81
649.085	221.81
649.289	224.81
649.494	220.81
649.698	228.81
649.903	219.81
650.107	231.81
650.312	246.81
650.516	216.81
650.721	223.81
650.925	231.81
651.13	225.81
651.334	223.81
651.539	205.81
651.743	221.81
651.947	213.81
652.152	223.81
652.356	218.81
652.56	227.81
652.764	224.81
652.969	208.81
653.173	213.81
653.377	225.81
653.581	194.81
653.785	191.81
653.99	216.81
654.194	213.81
654.398	207.81
654.602	209.81
654.806	183.81
655.01	199.81
655.214	196.81
655.418	205.81
655.622	204.81
655.826	203.81
656.03	208.81
656.234	197.81
656.438	205.81
656.642	211.81
656.846	205.81
657.049	183.81
657.253	181.81
657.457	178.81
657.661	170.81
657.865	183.81
658.068	157.81
658.272	154.81
658.476	172.81
658.68	155.81
658.883	137.81
659.087	136.81
659.291	132.81
659.494	130.81
659.698	131.81
659.901	125.81
660.105	127.81
660.309	125.81
660.512	118.81
660.716	108.81
660.919	96.81
661.123	103.81
661.326	114.81
661.53	111.81
661.733	102.81
661.936	108.81
662.14	100.81
662.343	99.81
662.546	96.81
662.75	82.81
662.953	106.81
663.156	90.81
663.36	87.81
663.563	91.81
663.766	95.81
663.969	80.81
664.173	86.81
664.376	89.81
664.579	83.81
664.782	90.81
664.985	97.81
665.188	90.81
665.391	89.81
665.594	91.81
665.797	89.81
666	65.81
666.203	95.81
666.406	85.81
666.609	89.81
666.812	76.81
667.015	83.81
667.218	90.81
667.421	92.81
667.624	83.81
667.827	82.81
668.03	98.81
668.232	85.81
668.435	92.81
668.638	87.81
668.841	80.81
669.043	82.81
669.246	80.81
669.449	88.81
669.651	85.81
669.854	85.81
670.057	85.81
670.259	92.81
670.462	89.81
670.665	90.81
670.867	85.81
671.07	85.81
671.272	86.81
671.475	86.81
671.677	74.81
671.88	86.81
672.082	88.81
672.284	82.81
672.487	84.81
672.689	88.81
672.892	82.81
