Data from Fe(NO3)3@0.0125M.TitratingCurve.Agarose3%dH2O.NegLispCup.LampEnergy10.LIBS07252019_HRD10591_17-01-04-336.txt Node
Date: Thu Jul 25 17:01:04 EDT 2019
User: cochatt
Spectrometer: HR+D1059
Trigger mode: 1
Integration Time (sec): 1.000000E-1
Scans to average: 1
Electric dark correction enabled: true
Nonlinearity correction enabled: false
Boxcar width: 0
XAxis mode: Wavelengths
Number of Pixels in Spectrum: 2048
>>>>>Begin Spectral Data<<<<<
223.165	-10.94
223.4	-10.94
223.635	-10.94
223.869	-11.94
224.104	-21.94
224.338	-26.94
224.573	-21.94
224.808	-12.94
225.042	-6.94
225.277	3.06
225.511	1.06
225.746	6.06
225.98	0.06
226.215	0.06
226.449	5.06
226.683	16.06
226.918	35.06
227.152	47.06
227.387	38.06
227.621	27.06
227.856	53.06
228.09	42.06
228.324	46.06
228.559	43.06
228.793	60.06
229.027	82.06
229.262	87.06
229.496	78.06
229.73	98.06
229.964	100.06
230.199	98.06
230.433	92.06
230.667	95.06
230.901	100.06
231.136	109.06
231.37	107.06
231.604	99.06
231.838	102.06
232.072	109.06
232.306	102.06
232.541	108.06
232.775	96.06
233.009	113.06
233.243	115.06
233.477	107.06
233.711	106.06
233.945	113.06
234.179	103.06
234.413	96.06
234.647	100.06
234.881	114.06
235.115	115.06
235.349	96.06
235.583	123.06
235.817	87.06
236.051	120.06
236.285	125.06
236.519	107.06
236.753	107.06
236.987	115.06
237.221	117.06
237.455	118.06
237.689	113.06
237.922	116.06
238.156	141.06
238.39	120.06
238.624	113.06
238.858	127.06
239.091	116.06
239.325	120.06
239.559	116.06
239.793	121.06
240.027	145.06
240.26	118.06
240.494	122.06
240.728	138.06
240.961	124.06
241.195	129.06
241.429	131.06
241.662	135.06
241.896	131.06
242.13	128.06
242.363	129.06
242.597	120.06
242.83	131.06
243.064	133.06
243.298	126.06
243.531	123.06
243.765	129.06
243.998	145.06
244.232	134.06
244.465	128.06
244.699	133.06
244.932	140.06
245.166	139.06
245.399	131.06
245.633	149.06
245.866	145.06
246.099	137.06
246.333	141.06
246.566	141.06
246.8	150.06
247.033	150.06
247.266	150.06
247.5	142.06
247.733	134.06
247.966	145.06
248.2	162.06
248.433	147.06
248.666	146.06
248.899	159.06
249.133	149.06
249.366	147.06
249.599	164.06
249.832	150.06
250.066	148.06
250.299	147.06
250.532	135.06
250.765	145.06
250.998	146.06
251.231	149.06
251.465	160.06
251.698	146.06
251.931	154.06
252.164	155.06
252.397	160.06
252.63	166.06
252.863	164.06
253.096	171.06
253.329	164.06
253.562	177.06
253.795	187.06
254.028	177.06
254.261	166.06
254.494	166.06
254.727	172.06
254.96	170.06
255.193	170.06
255.426	179.06
255.659	167.06
255.892	175.06
256.124	168.06
256.357	183.06
256.59	182.06
256.823	164.06
257.056	171.06
257.289	155.06
257.521	164.06
257.754	194.06
257.987	160.06
258.22	188.06
258.452	181.06
258.685	176.06
258.918	184.06
259.151	169.06
259.383	168.06
259.616	177.06
259.849	198.06
260.081	201.06
260.314	209.06
260.547	202.06
260.779	180.06
261.012	186.06
261.244	178.06
261.477	212.06
261.71	197.06
261.942	188.06
262.175	191.06
262.407	185.06
262.64	199.06
262.872	204.06
263.105	179.06
263.337	211.06
263.57	208.06
263.802	183.06
264.035	189.06
264.267	176.06
264.499	192.06
264.732	196.06
264.964	196.06
265.197	177.06
265.429	201.06
265.661	189.06
265.894	177.06
266.126	189.06
266.358	194.06
266.591	194.06
266.823	205.06
267.055	199.06
267.287	193.06
267.52	198.06
267.752	192.06
267.984	200.06
268.216	190.06
268.448	213.06
268.681	218.06
268.913	213.06
269.145	210.06
269.377	196.06
269.609	195.06
269.841	211.06
270.073	209.06
270.306	215.06
270.538	205.06
270.77	226.06
271.002	209.06
271.234	221.06
271.466	213.06
271.698	223.06
271.93	218.06
272.162	208.06
272.394	223.06
272.626	226.06
272.858	231.06
273.09	227.06
273.322	216.06
273.553	239.06
273.785	217.06
274.017	236.06
274.249	244.06
274.481	255.06
274.713	248.06
274.945	253.06
275.176	273.06
275.408	242.06
275.64	274.06
275.872	237.06
276.104	241.06
276.335	236.06
276.567	227.06
276.799	242.06
277.031	225.06
277.262	233.06
277.494	271.06
277.726	246.06
277.957	229.06
278.189	223.06
278.421	263.06
278.652	238.06
278.884	265.06
279.115	272.06
279.347	265.06
279.579	234.06
279.81	245.06
280.042	239.06
280.273	244.06
280.505	250.06
280.736	233.06
280.968	250.06
281.199	243.06
281.431	248.06
281.662	278.06
281.894	265.06
282.125	255.06
282.356	259.06
282.588	272.06
282.819	248.06
283.051	260.06
283.282	253.06
283.513	264.06
283.745	261.06
283.976	278.06
284.207	265.06
284.439	279.06
284.67	267.06
284.901	271.06
285.132	266.06
285.364	248.06
285.595	269.06
285.826	249.06
286.057	277.06
286.288	275.06
286.52	269.06
286.751	272.06
286.982	271.06
287.213	275.06
287.444	270.06
287.675	268.06
287.906	281.06
288.138	282.06
288.369	283.06
288.6	276.06
288.831	284.06
289.062	280.06
289.293	276.06
289.524	273.06
289.755	276.06
289.986	261.06
290.217	282.06
290.448	281.06
290.679	277.06
290.91	292.06
291.141	282.06
291.371	269.06
291.602	279.06
291.833	276.06
292.064	281.06
292.295	269.06
292.526	303.06
292.757	295.06
292.987	281.06
293.218	288.06
293.449	282.06
293.68	315.06
293.91	275.06
294.141	276.06
294.372	278.06
294.603	276.06
294.833	278.06
295.064	298.06
295.295	279.06
295.525	298.06
295.756	281.06
295.987	298.06
296.217	305.06
296.448	279.06
296.679	300.06
296.909	294.06
297.14	308.06
297.37	293.06
297.601	301.06
297.831	298.06
298.062	297.06
298.292	293.06
298.523	309.06
298.753	328.06
298.984	301.06
299.214	306.06
299.445	302.06
299.675	311.06
299.905	333.06
300.136	319.06
300.366	303.06
300.597	313.06
300.827	305.06
301.057	321.06
301.288	309.06
301.518	329.06
301.748	305.06
301.979	324.06
302.209	333.06
302.439	317.06
302.669	320.06
302.9	338.06
303.13	324.06
303.36	333.06
303.59	332.06
303.82	338.06
304.051	321.06
304.281	327.06
304.511	330.06
304.741	322.06
304.971	324.06
305.201	308.06
305.431	333.06
305.661	331.06
305.891	336.06
306.121	311.06
306.352	315.06
306.582	313.06
306.812	328.06
307.042	326.06
307.272	347.06
307.502	319.06
307.731	369.06
307.961	349.06
308.191	333.06
308.421	327.06
308.651	341.06
308.881	344.06
309.111	325.06
309.341	340.06
309.571	343.06
309.8	337.06
310.03	327.06
310.26	341.06
310.49	352.06
310.72	346.06
310.949	329.06
311.179	338.06
311.409	330.06
311.639	340.06
311.868	360.06
312.098	333.06
312.328	365.06
312.557	351.06
312.787	357.06
313.017	348.06
313.246	363.06
313.476	369.06
313.706	355.06
313.935	356.06
314.165	353.06
314.394	357.06
314.624	360.06
314.853	384.06
315.083	373.06
315.312	364.06
315.542	374.06
315.771	351.06
316.001	375.06
316.23	359.06
316.46	346.06
316.689	364.06
316.919	380.06
317.148	363.06
317.377	342.06
317.607	347.06
317.836	363.06
318.065	373.06
318.295	371.06
318.524	361.06
318.753	367.06
318.983	373.06
319.212	356.06
319.441	373.06
319.67	379.06
319.9	358.06
320.129	367.06
320.358	369.06
320.587	377.06
320.816	367.06
321.046	381.06
321.275	377.06
321.504	386.06
321.733	383.06
321.962	377.06
322.191	391.06
322.42	396.06
322.649	389.06
322.878	387.06
323.108	364.06
323.337	393.06
323.566	374.06
323.795	386.06
324.024	393.06
324.253	383.06
324.482	392.06
324.71	390.06
324.939	388.06
325.168	393.06
325.397	387.06
325.626	407.06
325.855	397.06
326.084	396.06
326.313	422.06
326.542	393.06
326.77	404.06
326.999	389.06
327.228	397.06
327.457	417.06
327.686	414.06
327.914	394.06
328.143	408.06
328.372	404.06
328.6	395.06
328.829	412.06
329.058	389.06
329.287	411.06
329.515	409.06
329.744	408.06
329.972	407.06
330.201	418.06
330.43	409.06
330.658	410.06
330.887	396.06
331.115	419.06
331.344	398.06
331.572	407.06
331.801	422.06
332.03	418.06
332.258	428.06
332.486	438.06
332.715	435.06
332.943	433.06
333.172	451.06
333.4	441.06
333.629	448.06
333.857	456.06
334.085	468.06
334.314	455.06
334.542	449.06
334.771	456.06
334.999	461.06
335.227	465.06
335.455	468.06
335.684	468.06
335.912	445.06
336.14	452.06
336.369	464.06
336.597	444.06
336.825	441.06
337.053	444.06
337.281	428.06
337.51	449.06
337.738	445.06
337.966	426.06
338.194	443.06
338.422	455.06
338.65	453.06
338.878	429.06
339.106	453.06
339.334	443.06
339.562	438.06
339.79	449.06
340.018	435.06
340.246	434.06
340.474	443.06
340.702	426.06
340.93	429.06
341.158	426.06
341.386	450.06
341.614	431.06
341.842	420.06
342.07	434.06
342.298	436.06
342.526	421.06
342.754	417.06
342.981	438.06
343.209	448.06
343.437	463.06
343.665	450.06
343.893	451.06
344.12	461.06
344.348	437.06
344.576	452.06
344.804	443.06
345.031	423.06
345.259	418.06
345.487	439.06
345.714	456.06
345.942	435.06
346.17	421.06
346.397	442.06
346.625	442.06
346.853	424.06
347.08	429.06
347.308	432.06
347.535	417.06
347.763	420.06
347.99	424.06
348.218	415.06
348.445	414.06
348.673	415.06
348.9	421.06
349.128	439.06
349.355	422.06
349.583	434.06
349.81	400.06
350.037	405.06
350.265	420.06
350.492	415.06
350.72	429.06
350.947	424.06
351.174	416.06
351.402	419.06
351.629	401.06
351.856	413.06
352.083	427.06
352.311	420.06
352.538	419.06
352.765	423.06
352.992	431.06
353.22	421.06
353.447	419.06
353.674	416.06
353.901	428.06
354.128	424.06
354.355	426.06
354.583	406.06
354.81	423.06
355.037	399.06
355.264	420.06
355.491	425.06
355.718	437.06
355.945	431.06
356.172	424.06
356.399	433.06
356.626	427.06
356.853	431.06
357.08	422.06
357.307	413.06
357.534	436.06
357.761	425.06
357.988	418.06
358.215	420.06
358.441	429.06
358.668	428.06
358.895	422.06
359.122	440.06
359.349	448.06
359.576	420.06
359.802	410.06
360.029	419.06
360.256	419.06
360.483	424.06
360.709	410.06
360.936	434.06
361.163	434.06
361.39	401.06
361.616	426.06
361.843	428.06
362.07	449.06
362.296	444.06
362.523	417.06
362.749	428.06
362.976	407.06
363.203	425.06
363.429	422.06
363.656	438.06
363.882	432.06
364.109	419.06
364.335	456.06
364.562	424.06
364.788	448.06
365.015	441.06
365.241	429.06
365.468	438.06
365.694	426.06
365.92	428.06
366.147	422.06
366.373	428.06
366.599	438.06
366.826	438.06
367.052	436.06
367.278	444.06
367.505	444.06
367.731	440.06
367.957	433.06
368.184	428.06
368.41	449.06
368.636	458.06
368.862	442.06
369.089	439.06
369.315	452.06
369.541	431.06
369.767	449.06
369.993	427.06
370.219	455.06
370.445	462.06
370.672	450.06
370.898	455.06
371.124	476.06
371.35	445.06
371.576	455.06
371.802	457.06
372.028	459.06
372.254	491.06
372.48	458.06
372.706	460.06
372.932	466.06
373.158	452.06
373.384	488.06
373.61	469.06
373.835	489.06
374.061	469.06
374.287	441.06
374.513	481.06
374.739	485.06
374.965	467.06
375.191	496.06
375.416	478.06
375.642	456.06
375.868	484.06
376.094	480.06
376.319	460.06
376.545	479.06
376.771	467.06
376.997	459.06
377.222	479.06
377.448	467.06
377.674	440.06
377.899	469.06
378.125	453.06
378.35	453.06
378.576	463.06
378.802	446.06
379.027	482.06
379.253	455.06
379.478	477.06
379.704	457.06
379.929	474.06
380.155	453.06
380.38	471.06
380.606	466.06
380.831	464.06
381.057	475.06
381.282	476.06
381.507	470.06
381.733	484.06
381.958	481.06
382.184	485.06
382.409	492.06
382.634	488.06
382.86	455.06
383.085	492.06
383.31	487.06
383.535	511.06
383.761	490.06
383.986	492.06
384.211	488.06
384.436	485.06
384.662	476.06
384.887	500.06
385.112	504.06
385.337	510.06
385.562	499.06
385.787	518.06
386.013	520.06
386.238	521.06
386.463	512.06
386.688	522.06
386.913	508.06
387.138	539.06
387.363	521.06
387.588	511.06
387.813	531.06
388.038	537.06
388.263	527.06
388.488	525.06
388.713	509.06
388.938	514.06
389.163	495.06
389.387	552.06
389.612	534.06
389.837	530.06
390.062	535.06
390.287	522.06
390.512	535.06
390.736	532.06
390.961	535.06
391.186	539.06
391.411	537.06
391.636	535.06
391.86	544.06
392.085	536.06
392.31	525.06
392.534	559.06
392.759	532.06
392.984	543.06
393.208	575.06
393.433	575.06
393.658	547.06
393.882	535.06
394.107	524.06
394.331	531.06
394.556	527.06
394.78	541.06
395.005	555.06
395.229	539.06
395.454	559.06
395.678	565.06
395.903	560.06
396.127	559.06
396.352	580.06
396.576	576.06
396.801	547.06
397.025	565.06
397.249	551.06
397.474	579.06
397.698	569.06
397.922	579.06
398.147	586.06
398.371	600.06
398.595	609.06
398.82	590.06
399.044	634.06
399.268	647.06
399.492	663.06
399.717	651.06
399.941	673.06
400.165	689.06
400.389	660.06
400.613	643.06
400.837	626.06
401.062	615.06
401.286	615.06
401.51	603.06
401.734	608.06
401.958	599.06
402.182	620.06
402.406	600.06
402.63	589.06
402.854	617.06
403.078	605.06
403.302	605.06
403.526	609.06
403.75	597.06
403.974	617.06
404.198	623.06
404.422	644.06
404.645	645.06
404.869	617.06
405.093	599.06
405.317	623.06
405.541	632.06
405.765	642.06
405.988	601.06
406.212	633.06
406.436	655.06
406.66	647.06
406.883	632.06
407.107	689.06
407.331	685.06
407.555	680.06
407.778	677.06
408.002	671.06
408.226	669.06
408.449	684.06
408.673	668.06
408.896	663.06
409.12	667.06
409.344	687.06
409.567	666.06
409.791	663.06
410.014	632.06
410.238	650.06
410.461	645.06
410.685	618.06
410.908	629.06
411.132	661.06
411.355	636.06
411.578	639.06
411.802	625.06
412.025	632.06
412.249	671.06
412.472	640.06
412.695	619.06
412.919	602.06
413.142	626.06
413.365	623.06
413.589	613.06
413.812	596.06
414.035	604.06
414.258	605.06
414.482	607.06
414.705	604.06
414.928	622.06
415.151	601.06
415.374	601.06
415.597	601.06
415.821	592.06
416.044	585.06
416.267	581.06
416.49	592.06
416.713	628.06
416.936	583.06
417.159	588.06
417.382	570.06
417.605	578.06
417.828	601.06
418.051	563.06
418.274	592.06
418.497	578.06
418.72	576.06
418.943	571.06
419.166	601.06
419.389	620.06
419.611	620.06
419.834	596.06
420.057	622.06
420.28	588.06
420.503	589.06
420.726	575.06
420.948	575.06
421.171	571.06
421.394	572.06
421.617	572.06
421.839	560.06
422.062	578.06
422.285	573.06
422.507	570.06
422.73	581.06
422.953	583.06
423.175	588.06
423.398	578.06
423.621	579.06
423.843	585.06
424.066	598.06
424.288	584.06
424.511	589.06
424.733	564.06
424.956	568.06
425.178	561.06
425.401	588.06
425.623	553.06
425.846	577.06
426.068	565.06
426.291	571.06
426.513	565.06
426.735	564.06
426.958	577.06
427.18	568.06
427.402	572.06
427.625	567.06
427.847	536.06
428.069	557.06
428.292	566.06
428.514	552.06
428.736	555.06
428.958	568.06
429.181	559.06
429.403	547.06
429.625	542.06
429.847	549.06
430.069	549.06
430.292	566.06
430.514	549.06
430.736	561.06
430.958	580.06
431.18	547.06
431.402	556.06
431.624	566.06
431.846	537.06
432.068	544.06
432.29	575.06
432.512	556.06
432.734	553.06
432.956	567.06
433.178	563.06
433.4	555.06
433.622	578.06
433.844	589.06
434.066	551.06
434.287	567.06
434.509	581.06
434.731	588.06
434.953	575.06
435.175	591.06
435.397	568.06
435.618	583.06
435.84	543.06
436.062	559.06
436.284	538.06
436.505	561.06
436.727	549.06
436.949	572.06
437.17	564.06
437.392	548.06
437.614	547.06
437.835	553.06
438.057	539.06
438.278	524.06
438.5	548.06
438.721	544.06
438.943	553.06
439.165	553.06
439.386	544.06
439.608	537.06
439.829	533.06
440.05	529.06
440.272	559.06
440.493	549.06
440.715	554.06
440.936	544.06
441.158	557.06
441.379	554.06
441.6	549.06
441.822	555.06
442.043	572.06
442.264	575.06
442.486	565.06
442.707	555.06
442.928	575.06
443.149	569.06
443.371	564.06
443.592	569.06
443.813	555.06
444.034	571.06
444.255	593.06
444.476	569.06
444.698	576.06
444.919	588.06
445.14	662.06
445.361	624.06
445.582	590.06
445.803	566.06
446.024	551.06
446.245	549.06
446.466	570.06
446.687	552.06
446.908	558.06
447.129	554.06
447.35	537.06
447.571	544.06
447.792	545.06
448.013	514.06
448.234	521.06
448.455	513.06
448.675	520.06
448.896	538.06
449.117	525.06
449.338	503.06
449.559	504.06
449.779	504.06
450	505.06
450.221	520.06
450.442	495.06
450.662	515.06
450.883	491.06
451.104	485.06
451.324	506.06
451.545	503.06
451.766	511.06
451.986	490.06
452.207	492.06
452.428	506.06
452.648	519.06
452.869	499.06
453.089	506.06
453.31	495.06
453.53	507.06
453.751	495.06
453.971	477.06
454.192	489.06
454.412	466.06
454.633	468.06
454.853	490.06
455.073	497.06
455.294	472.06
455.514	466.06
455.734	468.06
455.955	470.06
456.175	514.06
456.395	487.06
456.616	497.06
456.836	495.06
457.056	494.06
457.276	451.06
457.497	485.06
457.717	492.06
457.937	495.06
458.157	505.06
458.377	496.06
458.598	509.06
458.818	516.06
459.038	540.06
459.258	529.06
459.478	536.06
459.698	528.06
459.918	561.06
460.138	567.06
460.358	571.06
460.578	565.06
460.798	557.06
461.018	580.06
461.238	562.06
461.458	585.06
461.678	589.06
461.898	616.06
462.118	608.06
462.338	620.06
462.558	644.06
462.777	633.06
462.997	619.06
463.217	639.06
463.437	631.06
463.657	650.06
463.876	626.06
464.096	633.06
464.316	638.06
464.536	602.06
464.755	624.06
464.975	617.06
465.195	606.06
465.414	578.06
465.634	578.06
465.854	573.06
466.073	559.06
466.293	549.06
466.512	555.06
466.732	540.06
466.951	551.06
467.171	535.06
467.391	547.06
467.61	545.06
467.829	525.06
468.049	540.06
468.268	537.06
468.488	519.06
468.707	543.06
468.927	523.06
469.146	529.06
469.365	511.06
469.585	528.06
469.804	532.06
470.023	527.06
470.243	539.06
470.462	541.06
470.681	529.06
470.901	561.06
471.12	533.06
471.339	545.06
471.558	535.06
471.777	540.06
471.997	541.06
472.216	554.06
472.435	539.06
472.654	534.06
472.873	534.06
473.092	527.06
473.311	520.06
473.53	550.06
473.749	548.06
473.968	554.06
474.187	525.06
474.406	539.06
474.625	549.06
474.844	531.06
475.063	563.06
475.282	561.06
475.501	547.06
475.72	566.06
475.939	573.06
476.158	585.06
476.377	587.06
476.596	564.06
476.814	586.06
477.033	569.06
477.252	580.06
477.471	596.06
477.69	574.06
477.908	632.06
478.127	623.06
478.346	633.06
478.564	613.06
478.783	614.06
479.002	635.06
479.22	640.06
479.439	638.06
479.658	643.06
479.876	637.06
480.095	645.06
480.313	659.06
480.532	647.06
480.751	662.06
480.969	646.06
481.188	654.06
481.406	638.06
481.624	672.06
481.843	642.06
482.061	657.06
482.28	653.06
482.498	665.06
482.717	653.06
482.935	654.06
483.153	645.06
483.372	654.06
483.59	661.06
483.808	644.06
484.027	648.06
484.245	672.06
484.463	681.06
484.681	672.06
484.9	705.06
485.118	671.06
485.336	681.06
485.554	674.06
485.772	680.06
485.99	664.06
486.209	657.06
486.427	648.06
486.645	664.06
486.863	682.06
487.081	671.06
487.299	682.06
487.517	700.06
487.735	665.06
487.953	683.06
488.171	689.06
488.389	675.06
488.607	677.06
488.825	645.06
489.043	652.06
489.261	691.06
489.479	678.06
489.696	669.06
489.914	661.06
490.132	691.06
490.35	671.06
490.568	642.06
490.786	705.06
491.003	658.06
491.221	693.06
491.439	666.06
491.657	684.06
491.874	681.06
492.092	683.06
492.31	683.06
492.527	670.06
492.745	680.06
492.963	703.06
493.18	689.06
493.398	677.06
493.615	716.06
493.833	681.06
494.05	676.06
494.268	708.06
494.485	697.06
494.703	699.06
494.92	692.06
495.138	689.06
495.355	677.06
495.573	710.06
495.79	711.06
496.008	729.06
496.225	732.06
496.442	723.06
496.66	732.06
496.877	728.06
497.094	739.06
497.312	754.06
497.529	739.06
497.746	776.06
497.963	783.06
498.181	781.06
498.398	827.06
498.615	825.06
498.832	853.06
499.049	864.06
499.267	901.06
499.484	934.06
499.701	970.06
499.918	1018.06
500.135	999.06
500.352	1074.06
500.569	1068.06
500.786	1073.06
501.003	1035.06
501.22	1056.06
501.437	973.06
501.654	951.06
501.871	929.06
502.088	908.06
502.305	868.06
502.522	835.06
502.739	828.06
502.956	777.06
503.172	776.06
503.389	772.06
503.606	747.06
503.823	740.06
504.04	745.06
504.256	760.06
504.473	731.06
504.69	708.06
504.907	736.06
505.123	717.06
505.34	703.06
505.557	696.06
505.773	677.06
505.99	656.06
506.207	651.06
506.423	641.06
506.64	655.06
506.856	627.06
507.073	616.06
507.289	627.06
507.506	619.06
507.722	627.06
507.939	607.06
508.155	607.06
508.372	588.06
508.588	605.06
508.805	607.06
509.021	619.06
509.238	628.06
509.454	597.06
509.67	566.06
509.887	559.06
510.103	580.06
510.319	583.06
510.536	571.06
510.752	570.06
510.968	564.06
511.184	565.06
511.401	555.06
511.617	555.06
511.833	562.06
512.049	562.06
512.265	577.06
512.481	568.06
512.698	566.06
512.914	555.06
513.13	544.06
513.346	603.06
513.562	567.06
513.778	541.06
513.994	567.06
514.21	573.06
514.426	577.06
514.642	565.06
514.858	568.06
515.074	599.06
515.29	585.06
515.506	555.06
515.721	561.06
515.937	605.06
516.153	592.06
516.369	607.06
516.585	592.06
516.801	620.06
517.016	608.06
517.232	609.06
517.448	610.06
517.664	637.06
517.879	631.06
518.095	615.06
518.311	593.06
518.527	602.06
518.742	585.06
518.958	615.06
519.173	584.06
519.389	608.06
519.605	582.06
519.82	585.06
520.036	582.06
520.251	582.06
520.467	564.06
520.682	572.06
520.898	539.06
521.113	553.06
521.329	543.06
521.544	539.06
521.76	531.06
521.975	537.06
522.19	537.06
522.406	537.06
522.621	546.06
522.836	551.06
523.052	554.06
523.267	519.06
523.482	519.06
523.698	529.06
523.913	538.06
524.128	517.06
524.343	514.06
524.559	524.06
524.774	499.06
524.989	540.06
525.204	523.06
525.419	519.06
525.634	513.06
525.849	521.06
526.064	529.06
526.28	507.06
526.495	529.06
526.71	520.06
526.925	524.06
527.14	488.06
527.355	517.06
527.57	505.06
527.785	517.06
527.999	513.06
528.214	507.06
528.429	528.06
528.644	509.06
528.859	511.06
529.074	505.06
529.289	521.06
529.503	513.06
529.718	506.06
529.933	475.06
530.148	522.06
530.363	497.06
530.577	500.06
530.792	502.06
531.007	525.06
531.221	502.06
531.436	508.06
531.651	497.06
531.865	498.06
532.08	514.06
532.295	488.06
532.509	478.06
532.724	497.06
532.938	490.06
533.153	486.06
533.367	497.06
533.582	501.06
533.796	482.06
534.011	488.06
534.225	472.06
534.44	485.06
534.654	487.06
534.868	505.06
535.083	480.06
535.297	500.06
535.511	498.06
535.726	497.06
535.94	477.06
536.154	472.06
536.369	468.06
536.583	469.06
536.797	466.06
537.011	485.06
537.225	472.06
537.44	467.06
537.654	463.06
537.868	477.06
538.082	483.06
538.296	483.06
538.51	479.06
538.724	468.06
538.938	462.06
539.153	471.06
539.367	460.06
539.581	474.06
539.795	455.06
540.009	467.06
540.222	467.06
540.436	462.06
540.65	465.06
540.864	440.06
541.078	458.06
541.292	447.06
541.506	482.06
541.72	476.06
541.934	473.06
542.147	487.06
542.361	477.06
542.575	470.06
542.789	464.06
543.002	466.06
543.216	464.06
543.43	460.06
543.644	463.06
543.857	449.06
544.071	455.06
544.285	461.06
544.498	460.06
544.712	465.06
544.925	476.06
545.139	452.06
545.352	455.06
545.566	461.06
545.779	465.06
545.993	469.06
546.206	457.06
546.42	451.06
546.633	455.06
546.847	463.06
547.06	458.06
547.274	459.06
547.487	471.06
547.7	467.06
547.914	459.06
548.127	480.06
548.34	475.06
548.554	460.06
548.767	473.06
548.98	454.06
549.193	460.06
549.407	460.06
549.62	467.06
549.833	474.06
550.046	467.06
550.259	470.06
550.473	465.06
550.686	471.06
550.899	465.06
551.112	459.06
551.325	455.06
551.538	463.06
551.751	461.06
551.964	452.06
552.177	449.06
552.39	476.06
552.603	465.06
552.816	462.06
553.029	471.06
553.242	458.06
553.455	459.06
553.667	484.06
553.88	468.06
554.093	457.06
554.306	471.06
554.519	453.06
554.732	455.06
554.944	442.06
555.157	434.06
555.37	456.06
555.583	443.06
555.795	428.06
556.008	427.06
556.221	433.06
556.433	439.06
556.646	411.06
556.859	413.06
557.071	430.06
557.284	416.06
557.496	436.06
557.709	408.06
557.921	403.06
558.134	431.06
558.346	416.06
558.559	405.06
558.771	401.06
558.984	406.06
559.196	400.06
559.409	405.06
559.621	416.06
559.833	404.06
560.046	400.06
560.258	404.06
560.47	417.06
560.683	379.06
560.895	410.06
561.107	404.06
561.32	388.06
561.532	397.06
561.744	408.06
561.956	396.06
562.168	391.06
562.381	387.06
562.593	406.06
562.805	389.06
563.017	426.06
563.229	415.06
563.441	408.06
563.653	412.06
563.865	413.06
564.077	412.06
564.289	401.06
564.501	426.06
564.713	420.06
564.925	440.06
565.137	424.06
565.349	428.06
565.561	415.06
565.773	413.06
565.985	443.06
566.197	453.06
566.408	466.06
566.62	489.06
566.832	460.06
567.044	487.06
567.255	496.06
567.467	487.06
567.679	465.06
567.891	479.06
568.102	466.06
568.314	459.06
568.526	460.06
568.737	448.06
568.949	440.06
569.161	407.06
569.372	419.06
569.584	423.06
569.795	393.06
570.007	395.06
570.218	386.06
570.43	384.06
570.641	395.06
570.853	382.06
571.064	385.06
571.276	375.06
571.487	353.06
571.698	375.06
571.91	355.06
572.121	364.06
572.333	352.06
572.544	356.06
572.755	354.06
572.966	348.06
573.178	342.06
573.389	337.06
573.6	329.06
573.811	328.06
574.023	344.06
574.234	332.06
574.445	332.06
574.656	325.06
574.867	323.06
575.078	347.06
575.289	326.06
575.501	312.06
575.712	325.06
575.923	319.06
576.134	338.06
576.345	311.06
576.556	308.06
576.767	301.06
576.978	325.06
577.188	339.06
577.399	312.06
577.61	297.06
577.821	308.06
578.032	315.06
578.243	306.06
578.454	300.06
578.665	316.06
578.875	319.06
579.086	283.06
579.297	298.06
579.508	297.06
579.718	301.06
579.929	306.06
580.14	304.06
580.35	298.06
580.561	316.06
580.772	271.06
580.982	298.06
581.193	282.06
581.403	285.06
581.614	302.06
581.825	300.06
582.035	287.06
582.246	290.06
582.456	290.06
582.667	288.06
582.877	289.06
583.087	288.06
583.298	282.06
583.508	283.06
583.719	280.06
583.929	294.06
584.139	292.06
584.35	290.06
584.56	301.06
584.77	288.06
584.981	281.06
585.191	274.06
585.401	275.06
585.611	290.06
585.821	297.06
586.032	297.06
586.242	289.06
586.452	281.06
586.662	285.06
586.872	265.06
587.082	277.06
587.292	282.06
587.502	296.06
587.713	283.06
587.923	277.06
588.133	259.06
588.343	275.06
588.553	258.06
588.762	285.06
588.972	294.06
589.182	323.06
589.392	329.06
589.602	288.06
589.812	312.06
590.022	300.06
590.232	299.06
590.441	282.06
590.651	273.06
590.861	265.06
591.071	287.06
591.281	275.06
591.49	289.06
591.7	284.06
591.91	272.06
592.119	275.06
592.329	265.06
592.539	289.06
592.748	301.06
592.958	281.06
593.167	287.06
593.377	298.06
593.587	304.06
593.796	294.06
594.006	283.06
594.215	291.06
594.424	274.06
594.634	289.06
594.843	291.06
595.053	290.06
595.262	263.06
595.472	289.06
595.681	276.06
595.89	272.06
596.1	280.06
596.309	274.06
596.518	259.06
596.727	259.06
596.937	263.06
597.146	247.06
597.355	241.06
597.564	254.06
597.774	262.06
597.983	240.06
598.192	259.06
598.401	257.06
598.61	245.06
598.819	256.06
599.028	248.06
599.237	261.06
599.446	244.06
599.655	232.06
599.864	250.06
600.073	240.06
600.282	236.06
600.491	225.06
600.7	236.06
600.909	251.06
601.118	237.06
601.327	239.06
601.536	222.06
601.745	224.06
601.953	244.06
602.162	243.06
602.371	249.06
602.58	211.06
602.789	252.06
602.997	243.06
603.206	237.06
603.415	222.06
603.623	216.06
603.832	219.06
604.041	218.06
604.249	232.06
604.458	230.06
604.666	222.06
604.875	233.06
605.084	227.06
605.292	230.06
605.501	210.06
605.709	227.06
605.918	234.06
606.126	223.06
606.334	242.06
606.543	235.06
606.751	241.06
606.96	239.06
607.168	231.06
607.376	216.06
607.585	236.06
607.793	216.06
608.001	215.06
608.21	229.06
608.418	245.06
608.626	238.06
608.834	224.06
609.043	226.06
609.251	194.06
609.459	212.06
609.667	221.06
609.875	229.06
610.083	227.06
610.291	225.06
610.499	229.06
610.707	219.06
610.916	210.06
611.124	220.06
611.332	226.06
611.54	211.06
611.748	232.06
611.955	222.06
612.163	231.06
612.371	228.06
612.579	218.06
612.787	219.06
612.995	217.06
613.203	210.06
613.411	206.06
613.618	215.06
613.826	216.06
614.034	216.06
614.242	224.06
614.449	232.06
614.657	226.06
614.865	216.06
615.072	244.06
615.28	211.06
615.488	219.06
615.695	208.06
615.903	211.06
616.111	211.06
616.318	228.06
616.526	235.06
616.733	223.06
616.941	213.06
617.148	204.06
617.356	215.06
617.563	223.06
617.771	226.06
617.978	205.06
618.185	207.06
618.393	204.06
618.6	197.06
618.807	201.06
619.015	210.06
619.222	202.06
619.429	201.06
619.637	203.06
619.844	198.06
620.051	212.06
620.258	219.06
620.466	218.06
620.673	196.06
620.88	200.06
621.087	198.06
621.294	195.06
621.501	190.06
621.708	214.06
621.915	205.06
622.122	211.06
622.329	189.06
622.536	205.06
622.743	212.06
622.95	200.06
623.157	191.06
623.364	205.06
623.571	189.06
623.778	192.06
623.985	206.06
624.192	197.06
624.399	210.06
624.606	207.06
624.812	210.06
625.019	192.06
625.226	203.06
625.433	178.06
625.639	205.06
625.846	200.06
626.053	196.06
626.259	201.06
626.466	191.06
626.673	197.06
626.879	183.06
627.086	203.06
627.293	185.06
627.499	191.06
627.706	179.06
627.912	181.06
628.119	182.06
628.325	194.06
628.532	198.06
628.738	197.06
628.945	188.06
629.151	176.06
629.357	182.06
629.564	184.06
629.77	188.06
629.976	181.06
630.183	183.06
630.389	178.06
630.595	161.06
630.802	171.06
631.008	190.06
631.214	179.06
631.42	190.06
631.627	176.06
631.833	183.06
632.039	177.06
632.245	170.06
632.451	172.06
632.657	172.06
632.863	158.06
633.069	189.06
633.275	162.06
633.481	181.06
633.688	182.06
633.893	188.06
634.099	186.06
634.305	183.06
634.511	171.06
634.717	169.06
634.923	162.06
635.129	185.06
635.335	168.06
635.541	195.06
635.747	175.06
635.952	191.06
636.158	184.06
636.364	185.06
636.57	183.06
636.775	172.06
636.981	179.06
637.187	172.06
637.392	159.06
637.598	166.06
637.804	184.06
638.009	164.06
638.215	168.06
638.421	172.06
638.626	164.06
638.832	175.06
639.037	167.06
639.243	185.06
639.448	174.06
639.654	173.06
639.859	161.06
640.065	151.06
640.27	175.06
640.475	172.06
640.681	157.06
640.886	171.06
641.091	185.06
641.297	171.06
641.502	170.06
641.707	192.06
641.913	162.06
642.118	160.06
642.323	161.06
642.528	168.06
642.733	170.06
642.939	173.06
643.144	161.06
643.349	183.06
643.554	164.06
643.759	164.06
643.964	172.06
644.169	179.06
644.374	182.06
644.579	162.06
644.784	182.06
644.989	175.06
645.194	173.06
645.399	164.06
645.604	158.06
645.809	165.06
646.014	157.06
646.219	168.06
646.423	168.06
646.628	168.06
646.833	169.06
647.038	173.06
647.243	167.06
647.447	186.06
647.652	184.06
647.857	182.06
648.062	180.06
648.266	175.06
648.471	178.06
648.676	176.06
648.88	172.06
649.085	171.06
649.289	187.06
649.494	172.06
649.698	166.06
649.903	168.06
650.107	182.06
650.312	187.06
650.516	173.06
650.721	195.06
650.925	186.06
651.13	171.06
651.334	185.06
651.539	177.06
651.743	175.06
651.947	181.06
652.152	195.06
652.356	172.06
652.56	166.06
652.764	184.06
652.969	164.06
653.173	158.06
653.377	167.06
653.581	169.06
653.785	185.06
653.99	179.06
654.194	160.06
654.398	162.06
654.602	167.06
654.806	162.06
655.01	173.06
655.214	181.06
655.418	173.06
655.622	191.06
655.826	187.06
656.03	191.06
656.234	186.06
656.438	198.06
656.642	175.06
656.846	189.06
657.049	181.06
657.253	172.06
657.457	159.06
657.661	170.06
657.865	139.06
658.068	146.06
658.272	147.06
658.476	130.06
658.68	135.06
658.883	127.06
659.087	136.06
659.291	127.06
659.494	116.06
659.698	120.06
659.901	104.06
660.105	105.06
660.309	99.06
660.512	99.06
660.716	113.06
660.919	111.06
661.123	105.06
661.326	98.06
661.53	96.06
661.733	91.06
661.936	94.06
662.14	95.06
662.343	75.06
662.546	87.06
662.75	89.06
662.953	89.06
663.156	77.06
663.36	83.06
663.563	90.06
663.766	88.06
663.969	80.06
664.173	83.06
664.376	93.06
664.579	81.06
664.782	87.06
664.985	94.06
665.188	86.06
665.391	83.06
665.594	89.06
665.797	80.06
666	90.06
666.203	92.06
666.406	70.06
666.609	88.06
666.812	81.06
667.015	83.06
667.218	86.06
667.421	84.06
667.624	80.06
667.827	81.06
668.03	78.06
668.232	73.06
668.435	72.06
668.638	85.06
668.841	80.06
669.043	81.06
669.246	75.06
669.449	87.06
669.651	70.06
669.854	79.06
670.057	80.06
670.259	66.06
670.462	75.06
670.665	84.06
670.867	92.06
671.07	83.06
671.272	81.06
671.475	86.06
671.677	81.06
671.88	83.06
672.082	91.06
672.284	82.06
672.487	76.06
672.689	80.06
672.892	75.06
