Data from Fe(NO3)3@0.05M.TitratingCurve.Agarose3%dH2O.NegLispCup.LampEnergy10.LIBS07252019_HRD10591_16-47-03-333.txt Node
Date: Thu Jul 25 16:47:03 EDT 2019
User: cochatt
Spectrometer: HR+D1059
Trigger mode: 1
Integration Time (sec): 1.000000E-1
Scans to average: 1
Electric dark correction enabled: true
Nonlinearity correction enabled: false
Boxcar width: 0
XAxis mode: Wavelengths
Number of Pixels in Spectrum: 2048
>>>>>Begin Spectral Data<<<<<
223.165	-28.62
223.4	-28.62
223.635	-28.62
223.869	-9.62
224.104	-25.62
224.338	-25.62
224.573	-19.62
224.808	-8.62
225.042	-9.62
225.277	0.38
225.511	3.38
225.746	6.38
225.98	4.38
226.215	12.38
226.449	8.38
226.683	23.38
226.918	32.38
227.152	36.38
227.387	36.38
227.621	41.38
227.856	58.38
228.09	42.38
228.324	37.38
228.559	54.38
228.793	80.38
229.027	100.38
229.262	107.38
229.496	107.38
229.73	96.38
229.964	126.38
230.199	107.38
230.433	120.38
230.667	124.38
230.901	126.38
231.136	130.38
231.37	130.38
231.604	108.38
231.838	129.38
232.072	137.38
232.306	138.38
232.541	137.38
232.775	139.38
233.009	147.38
233.243	132.38
233.477	142.38
233.711	145.38
233.945	143.38
234.179	146.38
234.413	154.38
234.647	145.38
234.881	148.38
235.115	144.38
235.349	174.38
235.583	153.38
235.817	132.38
236.051	147.38
236.285	130.38
236.519	153.38
236.753	153.38
236.987	158.38
237.221	141.38
237.455	147.38
237.689	161.38
237.922	144.38
238.156	172.38
238.39	181.38
238.624	176.38
238.858	156.38
239.091	164.38
239.325	156.38
239.559	144.38
239.793	177.38
240.027	171.38
240.26	169.38
240.494	195.38
240.728	183.38
240.961	177.38
241.195	183.38
241.429	180.38
241.662	181.38
241.896	174.38
242.13	183.38
242.363	177.38
242.597	170.38
242.83	184.38
243.064	184.38
243.298	197.38
243.531	198.38
243.765	192.38
243.998	179.38
244.232	194.38
244.465	196.38
244.699	178.38
244.932	205.38
245.166	184.38
245.399	181.38
245.633	201.38
245.866	201.38
246.099	204.38
246.333	197.38
246.566	196.38
246.8	204.38
247.033	212.38
247.266	193.38
247.5	185.38
247.733	219.38
247.966	201.38
248.2	210.38
248.433	209.38
248.666	233.38
248.899	207.38
249.133	217.38
249.366	233.38
249.599	232.38
249.832	224.38
250.066	223.38
250.299	226.38
250.532	231.38
250.765	216.38
250.998	237.38
251.231	235.38
251.465	236.38
251.698	222.38
251.931	251.38
252.164	228.38
252.397	224.38
252.63	234.38
252.863	251.38
253.096	248.38
253.329	258.38
253.562	254.38
253.795	265.38
254.028	254.38
254.261	252.38
254.494	268.38
254.727	250.38
254.96	247.38
255.193	261.38
255.426	269.38
255.659	240.38
255.892	245.38
256.124	261.38
256.357	267.38
256.59	270.38
256.823	268.38
257.056	281.38
257.289	282.38
257.521	279.38
257.754	264.38
257.987	253.38
258.22	261.38
258.452	268.38
258.685	272.38
258.918	306.38
259.151	288.38
259.383	285.38
259.616	275.38
259.849	287.38
260.081	308.38
260.314	325.38
260.547	310.38
260.779	287.38
261.012	302.38
261.244	304.38
261.477	312.38
261.71	320.38
261.942	320.38
262.175	298.38
262.407	296.38
262.64	323.38
262.872	308.38
263.105	300.38
263.337	322.38
263.57	313.38
263.802	307.38
264.035	307.38
264.267	309.38
264.499	298.38
264.732	312.38
264.964	304.38
265.197	318.38
265.429	308.38
265.661	311.38
265.894	302.38
266.126	306.38
266.358	307.38
266.591	339.38
266.823	317.38
267.055	319.38
267.287	318.38
267.52	326.38
267.752	324.38
267.984	336.38
268.216	341.38
268.448	324.38
268.681	331.38
268.913	326.38
269.145	332.38
269.377	331.38
269.609	354.38
269.841	325.38
270.073	336.38
270.306	340.38
270.538	362.38
270.77	358.38
271.002	354.38
271.234	356.38
271.466	350.38
271.698	350.38
271.93	352.38
272.162	359.38
272.394	359.38
272.626	347.38
272.858	344.38
273.09	363.38
273.322	346.38
273.553	363.38
273.785	375.38
274.017	366.38
274.249	392.38
274.481	417.38
274.713	392.38
274.945	432.38
275.176	426.38
275.408	429.38
275.64	411.38
275.872	413.38
276.104	404.38
276.335	388.38
276.567	382.38
276.799	383.38
277.031	395.38
277.262	384.38
277.494	374.38
277.726	388.38
277.957	375.38
278.189	382.38
278.421	414.38
278.652	397.38
278.884	392.38
279.115	397.38
279.347	388.38
279.579	418.38
279.81	391.38
280.042	396.38
280.273	394.38
280.505	397.38
280.736	394.38
280.968	392.38
281.199	404.38
281.431	402.38
281.662	410.38
281.894	408.38
282.125	397.38
282.356	421.38
282.588	412.38
282.819	416.38
283.051	403.38
283.282	419.38
283.513	410.38
283.745	411.38
283.976	426.38
284.207	424.38
284.439	432.38
284.67	421.38
284.901	410.38
285.132	434.38
285.364	426.38
285.595	430.38
285.826	441.38
286.057	444.38
286.288	436.38
286.52	415.38
286.751	434.38
286.982	450.38
287.213	444.38
287.444	420.38
287.675	432.38
287.906	457.38
288.138	443.38
288.369	423.38
288.6	476.38
288.831	450.38
289.062	440.38
289.293	443.38
289.524	432.38
289.755	454.38
289.986	454.38
290.217	441.38
290.448	450.38
290.679	447.38
290.91	442.38
291.141	445.38
291.371	447.38
291.602	435.38
291.833	455.38
292.064	444.38
292.295	454.38
292.526	483.38
292.757	460.38
292.987	452.38
293.218	426.38
293.449	453.38
293.68	460.38
293.91	454.38
294.141	447.38
294.372	453.38
294.603	475.38
294.833	476.38
295.064	458.38
295.295	471.38
295.525	472.38
295.756	483.38
295.987	469.38
296.217	463.38
296.448	484.38
296.679	483.38
296.909	474.38
297.14	488.38
297.37	508.38
297.601	478.38
297.831	478.38
298.062	492.38
298.292	484.38
298.523	470.38
298.753	498.38
298.984	508.38
299.214	493.38
299.445	479.38
299.675	469.38
299.905	511.38
300.136	492.38
300.366	487.38
300.597	515.38
300.827	518.38
301.057	516.38
301.288	498.38
301.518	516.38
301.748	533.38
301.979	534.38
302.209	538.38
302.439	531.38
302.669	524.38
302.9	515.38
303.13	532.38
303.36	522.38
303.59	533.38
303.82	513.38
304.051	534.38
304.281	513.38
304.511	521.38
304.741	512.38
304.971	514.38
305.201	533.38
305.431	516.38
305.661	522.38
305.891	518.38
306.121	524.38
306.352	538.38
306.582	523.38
306.812	526.38
307.042	513.38
307.272	515.38
307.502	497.38
307.731	520.38
307.961	524.38
308.191	489.38
308.421	500.38
308.651	529.38
308.881	536.38
309.111	532.38
309.341	511.38
309.571	523.38
309.8	520.38
310.03	525.38
310.26	541.38
310.49	527.38
310.72	524.38
310.949	518.38
311.179	520.38
311.409	541.38
311.639	514.38
311.868	540.38
312.098	541.38
312.328	557.38
312.557	563.38
312.787	556.38
313.017	550.38
313.246	551.38
313.476	562.38
313.706	558.38
313.935	560.38
314.165	551.38
314.394	543.38
314.624	563.38
314.853	554.38
315.083	545.38
315.312	558.38
315.542	554.38
315.771	555.38
316.001	547.38
316.23	547.38
316.46	561.38
316.689	576.38
316.919	573.38
317.148	545.38
317.377	574.38
317.607	578.38
317.836	593.38
318.065	537.38
318.295	535.38
318.524	551.38
318.753	563.38
318.983	568.38
319.212	576.38
319.441	549.38
319.67	556.38
319.9	543.38
320.129	572.38
320.358	595.38
320.587	574.38
320.816	562.38
321.046	563.38
321.275	567.38
321.504	561.38
321.733	577.38
321.962	561.38
322.191	573.38
322.42	563.38
322.649	567.38
322.878	581.38
323.108	576.38
323.337	583.38
323.566	586.38
323.795	607.38
324.024	610.38
324.253	583.38
324.482	609.38
324.71	573.38
324.939	574.38
325.168	585.38
325.397	577.38
325.626	615.38
325.855	607.38
326.084	612.38
326.313	620.38
326.542	608.38
326.77	628.38
326.999	641.38
327.228	612.38
327.457	601.38
327.686	582.38
327.914	609.38
328.143	626.38
328.372	629.38
328.6	631.38
328.829	616.38
329.058	624.38
329.287	624.38
329.515	611.38
329.744	642.38
329.972	636.38
330.201	636.38
330.43	604.38
330.658	623.38
330.887	640.38
331.115	626.38
331.344	651.38
331.572	641.38
331.801	655.38
332.03	667.38
332.258	654.38
332.486	697.38
332.715	692.38
332.943	712.38
333.172	712.38
333.4	753.38
333.629	731.38
333.857	737.38
334.085	760.38
334.314	756.38
334.542	745.38
334.771	768.38
334.999	754.38
335.227	774.38
335.455	753.38
335.684	722.38
335.912	741.38
336.14	729.38
336.369	736.38
336.597	709.38
336.825	722.38
337.053	707.38
337.281	746.38
337.51	698.38
337.738	717.38
337.966	693.38
338.194	718.38
338.422	698.38
338.65	693.38
338.878	679.38
339.106	678.38
339.334	660.38
339.562	683.38
339.79	657.38
340.018	667.38
340.246	647.38
340.474	655.38
340.702	645.38
340.93	680.38
341.158	658.38
341.386	648.38
341.614	625.38
341.842	630.38
342.07	669.38
342.298	658.38
342.526	657.38
342.754	660.38
342.981	672.38
343.209	675.38
343.437	663.38
343.665	690.38
343.893	737.38
344.12	768.38
344.348	728.38
344.576	726.38
344.804	716.38
345.031	679.38
345.259	691.38
345.487	666.38
345.714	658.38
345.942	641.38
346.17	661.38
346.397	677.38
346.625	636.38
346.853	634.38
347.08	647.38
347.308	632.38
347.535	635.38
347.763	650.38
347.99	648.38
348.218	649.38
348.445	633.38
348.673	626.38
348.9	619.38
349.128	639.38
349.355	645.38
349.583	648.38
349.81	624.38
350.037	623.38
350.265	623.38
350.492	631.38
350.72	639.38
350.947	619.38
351.174	621.38
351.402	624.38
351.629	611.38
351.856	618.38
352.083	628.38
352.311	592.38
352.538	613.38
352.765	632.38
352.992	626.38
353.22	627.38
353.447	615.38
353.674	628.38
353.901	622.38
354.128	634.38
354.355	622.38
354.583	613.38
354.81	595.38
355.037	624.38
355.264	639.38
355.491	627.38
355.718	632.38
355.945	639.38
356.172	618.38
356.399	626.38
356.626	622.38
356.853	631.38
357.08	642.38
357.307	641.38
357.534	610.38
357.761	639.38
357.988	653.38
358.215	648.38
358.441	650.38
358.668	633.38
358.895	640.38
359.122	600.38
359.349	581.38
359.576	618.38
359.802	619.38
360.029	627.38
360.256	631.38
360.483	633.38
360.709	646.38
360.936	633.38
361.163	643.38
361.39	639.38
361.616	639.38
361.843	654.38
362.07	628.38
362.296	655.38
362.523	618.38
362.749	624.38
362.976	639.38
363.203	662.38
363.429	626.38
363.656	651.38
363.882	630.38
364.109	639.38
364.335	618.38
364.562	617.38
364.788	638.38
365.015	628.38
365.241	643.38
365.468	638.38
365.694	634.38
365.92	642.38
366.147	640.38
366.373	632.38
366.599	623.38
366.826	632.38
367.052	626.38
367.278	645.38
367.505	655.38
367.731	634.38
367.957	635.38
368.184	637.38
368.41	668.38
368.636	653.38
368.862	644.38
369.089	664.38
369.315	672.38
369.541	669.38
369.767	662.38
369.993	689.38
370.219	684.38
370.445	671.38
370.672	676.38
370.898	684.38
371.124	687.38
371.35	724.38
371.576	684.38
371.802	695.38
372.028	702.38
372.254	709.38
372.48	697.38
372.706	689.38
372.932	707.38
373.158	711.38
373.384	713.38
373.61	726.38
373.835	749.38
374.061	715.38
374.287	707.38
374.513	702.38
374.739	730.38
374.965	756.38
375.191	753.38
375.416	750.38
375.642	739.38
375.868	719.38
376.094	713.38
376.319	739.38
376.545	718.38
376.771	722.38
376.997	712.38
377.222	710.38
377.448	704.38
377.674	702.38
377.899	708.38
378.125	723.38
378.35	710.38
378.576	676.38
378.802	691.38
379.027	698.38
379.253	687.38
379.478	699.38
379.704	681.38
379.929	702.38
380.155	697.38
380.38	705.38
380.606	709.38
380.831	700.38
381.057	713.38
381.282	721.38
381.507	698.38
381.733	709.38
381.958	745.38
382.184	736.38
382.409	733.38
382.634	754.38
382.86	722.38
383.085	756.38
383.31	774.38
383.535	787.38
383.761	754.38
383.986	770.38
384.211	764.38
384.436	785.38
384.662	799.38
384.887	823.38
385.112	790.38
385.337	787.38
385.562	843.38
385.787	815.38
386.013	856.38
386.238	850.38
386.463	825.38
386.688	828.38
386.913	808.38
387.138	819.38
387.363	849.38
387.588	821.38
387.813	810.38
388.038	815.38
388.263	837.38
388.488	828.38
388.713	807.38
388.938	811.38
389.163	816.38
389.387	843.38
389.612	847.38
389.837	819.38
390.062	819.38
390.287	834.38
390.512	830.38
390.736	845.38
390.961	866.38
391.186	864.38
391.411	897.38
391.636	891.38
391.86	899.38
392.085	880.38
392.31	940.38
392.534	883.38
392.759	906.38
392.984	885.38
393.208	885.38
393.433	888.38
393.658	884.38
393.882	880.38
394.107	874.38
394.331	889.38
394.556	896.38
394.78	896.38
395.005	887.38
395.229	884.38
395.454	914.38
395.678	912.38
395.903	948.38
396.127	938.38
396.352	921.38
396.576	898.38
396.801	907.38
397.025	925.38
397.249	918.38
397.474	968.38
397.698	941.38
397.922	957.38
398.147	980.38
398.371	977.38
398.595	1017.38
398.82	1036.38
399.044	1083.38
399.268	1155.38
399.492	1219.38
399.717	1335.38
399.941	1347.38
400.165	1276.38
400.389	1217.38
400.613	1171.38
400.837	1105.38
401.062	1049.38
401.286	1094.38
401.51	1034.38
401.734	1062.38
401.958	1045.38
402.182	1063.38
402.406	1070.38
402.63	1058.38
402.854	1060.38
403.078	1081.38
403.302	1120.38
403.526	1088.38
403.75	1086.38
403.974	1099.38
404.198	1101.38
404.422	1095.38
404.645	1088.38
404.869	1134.38
405.093	1118.38
405.317	1089.38
405.541	1108.38
405.765	1096.38
405.988	1104.38
406.212	1139.38
406.436	1093.38
406.66	1142.38
406.883	1148.38
407.107	1190.38
407.331	1194.38
407.555	1241.38
407.778	1254.38
408.002	1267.38
408.226	1216.38
408.449	1232.38
408.673	1152.38
408.896	1170.38
409.12	1126.38
409.344	1164.38
409.567	1144.38
409.791	1148.38
410.014	1137.38
410.238	1145.38
410.461	1141.38
410.685	1131.38
410.908	1084.38
411.132	1083.38
411.355	1100.38
411.578	1115.38
411.802	1094.38
412.025	1070.38
412.249	1082.38
412.472	1114.38
412.695	1121.38
412.919	1077.38
413.142	1078.38
413.365	1076.38
413.589	1058.38
413.812	1043.38
414.035	1036.38
414.258	1036.38
414.482	1078.38
414.705	1074.38
414.928	1048.38
415.151	1052.38
415.374	1050.38
415.597	1028.38
415.821	1016.38
416.044	1009.38
416.267	1004.38
416.49	1007.38
416.713	1018.38
416.936	1027.38
417.159	1024.38
417.382	1005.38
417.605	992.38
417.828	1004.38
418.051	1011.38
418.274	996.38
418.497	1020.38
418.72	1039.38
418.943	1024.38
419.166	1065.38
419.389	1147.38
419.611	1110.38
419.834	1052.38
420.057	1064.38
420.28	1017.38
420.503	985.38
420.726	981.38
420.948	1002.38
421.171	995.38
421.394	1010.38
421.617	993.38
421.839	993.38
422.062	1013.38
422.285	987.38
422.507	1032.38
422.73	1016.38
422.953	1003.38
423.175	1010.38
423.398	1054.38
423.621	1034.38
423.843	1041.38
424.066	1036.38
424.288	1007.38
424.511	1012.38
424.733	1022.38
424.956	1015.38
425.178	1015.38
425.401	1009.38
425.623	999.38
425.846	975.38
426.068	961.38
426.291	984.38
426.513	1010.38
426.735	981.38
426.958	962.38
427.18	966.38
427.402	976.38
427.625	939.38
427.847	956.38
428.069	952.38
428.292	935.38
428.514	960.38
428.736	908.38
428.958	954.38
429.181	919.38
429.403	947.38
429.625	914.38
429.847	899.38
430.069	917.38
430.292	934.38
430.514	902.38
430.736	889.38
430.958	931.38
431.18	931.38
431.402	947.38
431.624	933.38
431.846	928.38
432.068	928.38
432.29	954.38
432.512	947.38
432.734	961.38
432.956	895.38
433.178	946.38
433.4	929.38
433.622	958.38
433.844	976.38
434.066	955.38
434.287	957.38
434.509	981.38
434.731	986.38
434.953	997.38
435.175	1027.38
435.397	1007.38
435.618	974.38
435.84	967.38
436.062	941.38
436.284	938.38
436.505	942.38
436.727	951.38
436.949	934.38
437.17	947.38
437.392	918.38
437.614	912.38
437.835	905.38
438.057	891.38
438.278	912.38
438.5	916.38
438.721	943.38
438.943	948.38
439.165	944.38
439.386	925.38
439.608	926.38
439.829	947.38
440.05	949.38
440.272	950.38
440.493	938.38
440.715	967.38
440.936	953.38
441.158	1012.38
441.379	982.38
441.6	1008.38
441.822	1007.38
442.043	1007.38
442.264	1001.38
442.486	990.38
442.707	970.38
442.928	1017.38
443.149	989.38
443.371	992.38
443.592	988.38
443.813	1004.38
444.034	1032.38
444.255	1038.38
444.476	1076.38
444.698	1099.38
444.919	1142.38
445.14	1182.38
445.361	1111.38
445.582	1030.38
445.803	1028.38
446.024	1020.38
446.245	969.38
446.466	998.38
446.687	977.38
446.908	931.38
447.129	925.38
447.35	923.38
447.571	934.38
447.792	906.38
448.013	902.38
448.234	867.38
448.455	895.38
448.675	887.38
448.896	895.38
449.117	853.38
449.338	875.38
449.559	871.38
449.779	862.38
450	858.38
450.221	876.38
450.442	874.38
450.662	867.38
450.883	877.38
451.104	874.38
451.324	869.38
451.545	866.38
451.766	874.38
451.986	866.38
452.207	864.38
452.428	835.38
452.648	858.38
452.869	854.38
453.089	826.38
453.31	843.38
453.53	843.38
453.751	841.38
453.971	836.38
454.192	810.38
454.412	816.38
454.633	836.38
454.853	835.38
455.073	827.38
455.294	815.38
455.514	832.38
455.734	830.38
455.955	819.38
456.175	831.38
456.395	856.38
456.616	803.38
456.836	827.38
457.056	825.38
457.276	841.38
457.497	842.38
457.717	812.38
457.937	830.38
458.157	842.38
458.377	859.38
458.598	840.38
458.818	899.38
459.038	876.38
459.258	924.38
459.478	935.38
459.698	951.38
459.918	974.38
460.138	1012.38
460.358	1015.38
460.578	1059.38
460.798	1061.38
461.018	1041.38
461.238	1064.38
461.458	1074.38
461.678	1048.38
461.898	1078.38
462.118	1100.38
462.338	1136.38
462.558	1156.38
462.777	1152.38
462.997	1239.38
463.217	1268.38
463.437	1317.38
463.657	1232.38
463.876	1190.38
464.096	1225.38
464.316	1205.38
464.536	1187.38
464.755	1162.38
464.975	1132.38
465.195	1108.38
465.414	1052.38
465.634	979.38
465.854	970.38
466.073	981.38
466.293	962.38
466.512	942.38
466.732	927.38
466.951	910.38
467.171	916.38
467.391	920.38
467.61	891.38
467.829	926.38
468.049	903.38
468.268	899.38
468.488	858.38
468.707	878.38
468.927	898.38
469.146	884.38
469.365	879.38
469.585	905.38
469.804	912.38
470.023	948.38
470.243	904.38
470.462	906.38
470.681	946.38
470.901	916.38
471.12	917.38
471.339	948.38
471.558	894.38
471.777	898.38
471.997	920.38
472.216	922.38
472.435	869.38
472.654	866.38
472.873	876.38
473.092	880.38
473.311	880.38
473.53	889.38
473.749	866.38
473.968	884.38
474.187	862.38
474.406	875.38
474.625	882.38
474.844	890.38
475.063	879.38
475.282	877.38
475.501	881.38
475.72	894.38
475.939	883.38
476.158	916.38
476.377	920.38
476.596	939.38
476.814	969.38
477.033	943.38
477.252	963.38
477.471	961.38
477.69	969.38
477.908	982.38
478.127	999.38
478.346	1028.38
478.564	1036.38
478.783	1034.38
479.002	1026.38
479.22	1075.38
479.439	1056.38
479.658	1074.38
479.876	1064.38
480.095	1096.38
480.313	1111.38
480.532	1085.38
480.751	1114.38
480.969	1050.38
481.188	1040.38
481.406	1028.38
481.624	1042.38
481.843	999.38
482.061	1018.38
482.28	1045.38
482.498	1048.38
482.717	992.38
482.935	1032.38
483.153	992.38
483.372	1008.38
483.59	1028.38
483.808	1017.38
484.027	1035.38
484.245	1024.38
484.463	1003.38
484.681	1040.38
484.9	1032.38
485.118	1034.38
485.336	1020.38
485.554	1007.38
485.772	1024.38
485.99	1016.38
486.209	1040.38
486.427	1027.38
486.645	1047.38
486.863	1051.38
487.081	1027.38
487.299	1048.38
487.517	1067.38
487.735	1066.38
487.953	1071.38
488.171	1070.38
488.389	1061.38
488.607	1036.38
488.825	1017.38
489.043	1034.38
489.261	1041.38
489.479	1043.38
489.696	1032.38
489.914	1059.38
490.132	1048.38
490.35	1037.38
490.568	1013.38
490.786	1050.38
491.003	1050.38
491.221	1061.38
491.439	1041.38
491.657	1078.38
491.874	1090.38
492.092	1089.38
492.31	1070.38
492.527	1124.38
492.745	1081.38
492.963	1091.38
493.18	1083.38
493.398	1082.38
493.615	1077.38
493.833	1108.38
494.05	1130.38
494.268	1100.38
494.485	1111.38
494.703	1095.38
494.92	1144.38
495.138	1113.38
495.355	1120.38
495.573	1132.38
495.79	1138.38
496.008	1140.38
496.225	1145.38
496.442	1157.38
496.66	1190.38
496.877	1189.38
497.094	1213.38
497.312	1236.38
497.529	1221.38
497.746	1216.38
497.963	1311.38
498.181	1348.38
498.398	1385.38
498.615	1447.38
498.832	1537.38
499.049	1613.38
499.267	1686.38
499.484	1843.38
499.701	1926.38
499.918	2043.38
500.135	2241.38
500.352	2402.38
500.569	2453.38
500.786	2449.38
501.003	2345.38
501.22	2201.38
501.437	2034.38
501.654	1884.38
501.871	1751.38
502.088	1660.38
502.305	1570.38
502.522	1534.38
502.739	1455.38
502.956	1385.38
503.172	1342.38
503.389	1307.38
503.606	1251.38
503.823	1236.38
504.04	1231.38
504.256	1278.38
504.473	1251.38
504.69	1230.38
504.907	1212.38
505.123	1178.38
505.34	1160.38
505.557	1143.38
505.773	1086.38
505.99	1065.38
506.207	1055.38
506.423	1059.38
506.64	1030.38
506.856	989.38
507.073	1001.38
507.289	983.38
507.506	990.38
507.722	946.38
507.939	967.38
508.155	983.38
508.372	955.38
508.588	964.38
508.805	938.38
509.021	912.38
509.238	937.38
509.454	905.38
509.67	927.38
509.887	919.38
510.103	910.38
510.319	919.38
510.536	927.38
510.752	898.38
510.968	894.38
511.184	892.38
511.401	882.38
511.617	894.38
511.833	901.38
512.049	905.38
512.265	898.38
512.481	886.38
512.698	862.38
512.914	871.38
513.13	886.38
513.346	869.38
513.562	902.38
513.778	914.38
513.994	897.38
514.21	926.38
514.426	898.38
514.642	890.38
514.858	905.38
515.074	898.38
515.29	930.38
515.506	929.38
515.721	931.38
515.937	956.38
516.153	940.38
516.369	940.38
516.585	994.38
516.801	1006.38
517.016	1036.38
517.232	1057.38
517.448	1072.38
517.664	1071.38
517.879	1081.38
518.095	1091.38
518.311	1094.38
518.527	1079.38
518.742	1040.38
518.958	1011.38
519.173	992.38
519.389	965.38
519.605	936.38
519.82	935.38
520.036	950.38
520.251	939.38
520.467	920.38
520.682	924.38
520.898	898.38
521.113	880.38
521.329	882.38
521.544	860.38
521.76	860.38
521.975	865.38
522.19	842.38
522.406	844.38
522.621	864.38
522.836	869.38
523.052	859.38
523.267	832.38
523.482	848.38
523.698	829.38
523.913	818.38
524.128	817.38
524.343	820.38
524.559	838.38
524.774	825.38
524.989	822.38
525.204	825.38
525.419	799.38
525.634	812.38
525.849	813.38
526.064	792.38
526.28	826.38
526.495	825.38
526.71	807.38
526.925	786.38
527.14	802.38
527.355	799.38
527.57	805.38
527.785	773.38
527.999	781.38
528.214	784.38
528.429	799.38
528.644	799.38
528.859	786.38
529.074	830.38
529.289	763.38
529.503	806.38
529.718	826.38
529.933	806.38
530.148	790.38
530.363	780.38
530.577	786.38
530.792	781.38
531.007	753.38
531.221	799.38
531.436	759.38
531.651	780.38
531.865	784.38
532.08	766.38
532.295	784.38
532.509	795.38
532.724	793.38
532.938	787.38
533.153	770.38
533.367	786.38
533.582	793.38
533.796	774.38
534.011	750.38
534.225	786.38
534.44	771.38
534.654	784.38
534.868	766.38
535.083	760.38
535.297	757.38
535.511	755.38
535.726	746.38
535.94	739.38
536.154	724.38
536.369	755.38
536.583	712.38
536.797	710.38
537.011	709.38
537.225	727.38
537.44	733.38
537.654	717.38
537.868	701.38
538.082	737.38
538.296	718.38
538.51	753.38
538.724	734.38
538.938	733.38
539.153	704.38
539.367	717.38
539.581	724.38
539.795	737.38
540.009	702.38
540.222	710.38
540.436	691.38
540.65	712.38
540.864	712.38
541.078	711.38
541.292	724.38
541.506	726.38
541.72	708.38
541.934	709.38
542.147	716.38
542.361	708.38
542.575	717.38
542.789	719.38
543.002	712.38
543.216	725.38
543.43	696.38
543.644	675.38
543.857	706.38
544.071	714.38
544.285	706.38
544.498	715.38
544.712	716.38
544.925	730.38
545.139	707.38
545.352	721.38
545.566	719.38
545.779	721.38
545.993	725.38
546.206	726.38
546.42	730.38
546.633	738.38
546.847	711.38
547.06	706.38
547.274	717.38
547.487	736.38
547.7	725.38
547.914	739.38
548.127	729.38
548.34	738.38
548.554	723.38
548.767	716.38
548.98	745.38
549.193	723.38
549.407	739.38
549.62	726.38
549.833	755.38
550.046	717.38
550.259	724.38
550.473	730.38
550.686	715.38
550.899	709.38
551.112	681.38
551.325	712.38
551.538	709.38
551.751	701.38
551.964	710.38
552.177	711.38
552.39	711.38
552.603	712.38
552.816	737.38
553.029	745.38
553.242	753.38
553.455	726.38
553.667	758.38
553.88	762.38
554.093	726.38
554.306	719.38
554.519	690.38
554.732	696.38
554.944	688.38
555.157	671.38
555.37	696.38
555.583	633.38
555.795	667.38
556.008	648.38
556.221	653.38
556.433	639.38
556.646	636.38
556.859	638.38
557.071	634.38
557.284	620.38
557.496	640.38
557.709	640.38
557.921	640.38
558.134	618.38
558.346	632.38
558.559	628.38
558.771	612.38
558.984	622.38
559.196	608.38
559.409	617.38
559.621	597.38
559.833	617.38
560.046	606.38
560.258	595.38
560.47	602.38
560.683	607.38
560.895	608.38
561.107	602.38
561.32	601.38
561.532	601.38
561.744	618.38
561.956	593.38
562.168	611.38
562.381	595.38
562.593	615.38
562.805	628.38
563.017	620.38
563.229	609.38
563.441	616.38
563.653	628.38
563.865	624.38
564.077	622.38
564.289	639.38
564.501	653.38
564.713	632.38
564.925	630.38
565.137	651.38
565.349	677.38
565.561	672.38
565.773	703.38
565.985	729.38
566.197	720.38
566.408	746.38
566.62	781.38
566.832	813.38
567.044	857.38
567.255	862.38
567.467	844.38
567.679	907.38
567.891	914.38
568.102	909.38
568.314	907.38
568.526	835.38
568.737	747.38
568.949	747.38
569.161	713.38
569.372	671.38
569.584	685.38
569.795	634.38
570.007	630.38
570.218	614.38
570.43	608.38
570.641	589.38
570.853	606.38
571.064	596.38
571.276	584.38
571.487	596.38
571.698	548.38
571.91	569.38
572.121	552.38
572.333	536.38
572.544	506.38
572.755	514.38
572.966	530.38
573.178	524.38
573.389	505.38
573.6	507.38
573.811	491.38
574.023	478.38
574.234	489.38
574.445	478.38
574.656	507.38
574.867	504.38
575.078	487.38
575.289	508.38
575.501	514.38
575.712	464.38
575.923	455.38
576.134	485.38
576.345	470.38
576.556	465.38
576.767	464.38
576.978	474.38
577.188	444.38
577.399	463.38
577.61	436.38
577.821	456.38
578.032	446.38
578.243	435.38
578.454	436.38
578.665	444.38
578.875	456.38
579.086	454.38
579.297	460.38
579.508	419.38
579.718	417.38
579.929	439.38
580.14	438.38
580.35	425.38
580.561	432.38
580.772	427.38
580.982	434.38
581.193	432.38
581.403	433.38
581.614	432.38
581.825	416.38
582.035	434.38
582.246	436.38
582.456	415.38
582.667	412.38
582.877	414.38
583.087	414.38
583.298	406.38
583.508	426.38
583.719	434.38
583.929	419.38
584.139	400.38
584.35	413.38
584.56	408.38
584.77	392.38
584.981	409.38
585.191	403.38
585.401	396.38
585.611	386.38
585.821	410.38
586.032	422.38
586.242	403.38
586.452	419.38
586.662	396.38
586.872	392.38
587.082	426.38
587.292	406.38
587.502	417.38
587.713	404.38
587.923	387.38
588.133	411.38
588.343	396.38
588.553	404.38
588.762	406.38
588.972	390.38
589.182	416.38
589.392	410.38
589.602	405.38
589.812	405.38
590.022	412.38
590.232	400.38
590.441	414.38
590.651	382.38
590.861	399.38
591.071	411.38
591.281	419.38
591.49	416.38
591.7	430.38
591.91	424.38
592.119	454.38
592.329	412.38
592.539	436.38
592.748	426.38
592.958	438.38
593.167	430.38
593.377	447.38
593.587	451.38
593.796	445.38
594.006	476.38
594.215	456.38
594.424	471.38
594.634	447.38
594.843	442.38
595.053	431.38
595.262	416.38
595.472	422.38
595.681	406.38
595.89	396.38
596.1	386.38
596.309	398.38
596.518	384.38
596.727	368.38
596.937	373.38
597.146	379.38
597.355	355.38
597.564	349.38
597.774	343.38
597.983	358.38
598.192	380.38
598.401	347.38
598.61	341.38
598.819	362.38
599.028	343.38
599.237	358.38
599.446	349.38
599.655	337.38
599.864	324.38
600.073	339.38
600.282	339.38
600.491	330.38
600.7	327.38
600.909	340.38
601.118	331.38
601.327	330.38
601.536	339.38
601.745	324.38
601.953	353.38
602.162	350.38
602.371	345.38
602.58	336.38
602.789	342.38
602.997	327.38
603.206	339.38
603.415	334.38
603.623	328.38
603.832	323.38
604.041	299.38
604.249	315.38
604.458	326.38
604.666	300.38
604.875	306.38
605.084	315.38
605.292	303.38
605.501	308.38
605.709	296.38
605.918	320.38
606.126	311.38
606.334	342.38
606.543	318.38
606.751	314.38
606.96	306.38
607.168	314.38
607.376	308.38
607.585	300.38
607.793	321.38
608.001	310.38
608.21	309.38
608.418	315.38
608.626	304.38
608.834	304.38
609.043	312.38
609.251	300.38
609.459	310.38
609.667	299.38
609.875	292.38
610.083	299.38
610.291	287.38
610.499	279.38
610.707	288.38
610.916	292.38
611.124	299.38
611.332	285.38
611.54	310.38
611.748	308.38
611.955	299.38
612.163	304.38
612.371	280.38
612.579	289.38
612.787	314.38
612.995	288.38
613.203	288.38
613.411	276.38
613.618	299.38
613.826	310.38
614.034	293.38
614.242	298.38
614.449	288.38
614.657	285.38
614.865	302.38
615.072	288.38
615.28	290.38
615.488	292.38
615.695	275.38
615.903	272.38
616.111	277.38
616.318	290.38
616.526	293.38
616.733	306.38
616.941	282.38
617.148	281.38
617.356	279.38
617.563	282.38
617.771	289.38
617.978	274.38
618.185	287.38
618.393	303.38
618.6	289.38
618.807	280.38
619.015	288.38
619.222	278.38
619.429	273.38
619.637	286.38
619.844	278.38
620.051	278.38
620.258	275.38
620.466	269.38
620.673	284.38
620.88	267.38
621.087	268.38
621.294	271.38
621.501	261.38
621.708	278.38
621.915	267.38
622.122	273.38
622.329	267.38
622.536	274.38
622.743	260.38
622.95	276.38
623.157	265.38
623.364	286.38
623.571	254.38
623.778	256.38
623.985	271.38
624.192	258.38
624.399	259.38
624.606	283.38
624.812	268.38
625.019	260.38
625.226	272.38
625.433	251.38
625.639	262.38
625.846	266.38
626.053	230.38
626.259	242.38
626.466	246.38
626.673	262.38
626.879	233.38
627.086	257.38
627.293	239.38
627.499	253.38
627.706	234.38
627.912	233.38
628.119	236.38
628.325	242.38
628.532	236.38
628.738	236.38
628.945	250.38
629.151	241.38
629.357	250.38
629.564	241.38
629.77	235.38
629.976	218.38
630.183	238.38
630.389	238.38
630.595	215.38
630.802	252.38
631.008	242.38
631.214	228.38
631.42	231.38
631.627	240.38
631.833	243.38
632.039	232.38
632.245	223.38
632.451	216.38
632.657	217.38
632.863	223.38
633.069	216.38
633.275	229.38
633.481	228.38
633.688	221.38
633.893	228.38
634.099	230.38
634.305	216.38
634.511	214.38
634.717	217.38
634.923	211.38
635.129	218.38
635.335	214.38
635.541	210.38
635.747	215.38
635.952	216.38
636.158	227.38
636.364	220.38
636.57	222.38
636.775	218.38
636.981	228.38
637.187	224.38
637.392	208.38
637.598	219.38
637.804	203.38
638.009	220.38
638.215	202.38
638.421	203.38
638.626	242.38
638.832	214.38
639.037	221.38
639.243	200.38
639.448	190.38
639.654	215.38
639.859	212.38
640.065	195.38
640.27	197.38
640.475	194.38
640.681	186.38
640.886	207.38
641.091	220.38
641.297	216.38
641.502	184.38
641.707	205.38
641.913	214.38
642.118	204.38
642.323	216.38
642.528	208.38
642.733	194.38
642.939	193.38
643.144	199.38
643.349	199.38
643.554	211.38
643.759	208.38
643.964	181.38
644.169	204.38
644.374	207.38
644.579	194.38
644.784	200.38
644.989	187.38
645.194	198.38
645.399	201.38
645.604	196.38
645.809	168.38
646.014	196.38
646.219	207.38
646.423	202.38
646.628	192.38
646.833	194.38
647.038	215.38
647.243	204.38
647.447	207.38
647.652	198.38
647.857	203.38
648.062	203.38
648.266	206.38
648.471	202.38
648.676	208.38
648.88	198.38
649.085	199.38
649.289	187.38
649.494	187.38
649.698	187.38
649.903	196.38
650.107	180.38
650.312	193.38
650.516	200.38
650.721	196.38
650.925	183.38
651.13	189.38
651.334	176.38
651.539	198.38
651.743	162.38
651.947	188.38
652.152	186.38
652.356	167.38
652.56	166.38
652.764	171.38
652.969	187.38
653.173	172.38
653.377	162.38
653.581	167.38
653.785	178.38
653.99	180.38
654.194	171.38
654.398	170.38
654.602	165.38
654.806	160.38
655.01	167.38
655.214	131.38
655.418	138.38
655.622	154.38
655.826	158.38
656.03	158.38
656.234	146.38
656.438	157.38
656.642	147.38
656.846	140.38
657.049	154.38
657.253	136.38
657.457	143.38
657.661	128.38
657.865	139.38
658.068	134.38
658.272	129.38
658.476	133.38
658.68	119.38
658.883	128.38
659.087	91.38
659.291	116.38
659.494	128.38
659.698	106.38
659.901	104.38
660.105	97.38
660.309	100.38
660.512	98.38
660.716	82.38
660.919	102.38
661.123	92.38
661.326	112.38
661.53	91.38
661.733	94.38
661.936	91.38
662.14	95.38
662.343	88.38
662.546	68.38
662.75	81.38
662.953	91.38
663.156	70.38
663.36	86.38
663.563	83.38
663.766	89.38
663.969	86.38
664.173	70.38
664.376	87.38
664.579	76.38
664.782	84.38
664.985	74.38
665.188	85.38
665.391	94.38
665.594	91.38
665.797	82.38
666	74.38
666.203	95.38
666.406	75.38
666.609	80.38
666.812	79.38
667.015	89.38
667.218	88.38
667.421	84.38
667.624	75.38
667.827	83.38
668.03	86.38
668.232	83.38
668.435	88.38
668.638	81.38
668.841	79.38
669.043	74.38
669.246	74.38
669.449	76.38
669.651	79.38
669.854	90.38
670.057	65.38
670.259	84.38
670.462	81.38
670.665	86.38
670.867	90.38
671.07	76.38
671.272	81.38
671.475	78.38
671.677	86.38
671.88	90.38
672.082	80.38
672.284	85.38
672.487	85.38
672.689	80.38
672.892	87.38
