Data from Fe(NO3)3@0.05M.TitratingCurve.Agarose3%dH2O.NegLispCup.LampEnergy10.LIBS07252019_HRD10591_16-45-56-334.txt Node
Date: Thu Jul 25 16:45:56 EDT 2019
User: cochatt
Spectrometer: HR+D1059
Trigger mode: 1
Integration Time (sec): 1.000000E-1
Scans to average: 1
Electric dark correction enabled: true
Nonlinearity correction enabled: false
Boxcar width: 0
XAxis mode: Wavelengths
Number of Pixels in Spectrum: 2048
>>>>>Begin Spectral Data<<<<<
223.165	-6.25
223.4	-6.25
223.635	-6.25
223.869	-6.25
224.104	-26.25
224.338	-29.25
224.573	-15.25
224.808	-20.25
225.042	-9.25
225.277	0.75
225.511	-4.25
225.746	-3.25
225.98	5.75
226.215	20.75
226.449	29.75
226.683	23.75
226.918	24.75
227.152	14.75
227.387	33.75
227.621	52.75
227.856	37.75
228.09	32.75
228.324	46.75
228.559	49.75
228.793	71.75
229.027	110.75
229.262	117.75
229.496	113.75
229.73	126.75
229.964	119.75
230.199	134.75
230.433	118.75
230.667	130.75
230.901	137.75
231.136	127.75
231.37	130.75
231.604	137.75
231.838	161.75
232.072	126.75
232.306	150.75
232.541	152.75
232.775	134.75
233.009	151.75
233.243	166.75
233.477	166.75
233.711	166.75
233.945	147.75
234.179	168.75
234.413	173.75
234.647	175.75
234.881	190.75
235.115	179.75
235.349	162.75
235.583	161.75
235.817	167.75
236.051	162.75
236.285	180.75
236.519	178.75
236.753	171.75
236.987	183.75
237.221	157.75
237.455	188.75
237.689	170.75
237.922	189.75
238.156	189.75
238.39	210.75
238.624	224.75
238.858	205.75
239.091	191.75
239.325	185.75
239.559	201.75
239.793	213.75
240.027	232.75
240.26	217.75
240.494	214.75
240.728	217.75
240.961	213.75
241.195	218.75
241.429	228.75
241.662	217.75
241.896	214.75
242.13	193.75
242.363	200.75
242.597	213.75
242.83	211.75
243.064	206.75
243.298	212.75
243.531	229.75
243.765	231.75
243.998	215.75
244.232	225.75
244.465	224.75
244.699	237.75
244.932	224.75
245.166	236.75
245.399	235.75
245.633	208.75
245.866	231.75
246.099	227.75
246.333	247.75
246.566	231.75
246.8	243.75
247.033	245.75
247.266	234.75
247.5	240.75
247.733	247.75
247.966	255.75
248.2	249.75
248.433	276.75
248.666	256.75
248.899	271.75
249.133	276.75
249.366	271.75
249.599	285.75
249.832	294.75
250.066	274.75
250.299	285.75
250.532	288.75
250.765	277.75
250.998	276.75
251.231	291.75
251.465	299.75
251.698	274.75
251.931	269.75
252.164	296.75
252.397	304.75
252.63	303.75
252.863	319.75
253.096	322.75
253.329	325.75
253.562	323.75
253.795	325.75
254.028	326.75
254.261	335.75
254.494	342.75
254.727	318.75
254.96	324.75
255.193	320.75
255.426	326.75
255.659	297.75
255.892	303.75
256.124	309.75
256.357	339.75
256.59	337.75
256.823	341.75
257.056	320.75
257.289	308.75
257.521	321.75
257.754	329.75
257.987	335.75
258.22	347.75
258.452	347.75
258.685	339.75
258.918	371.75
259.151	348.75
259.383	354.75
259.616	366.75
259.849	358.75
260.081	439.75
260.314	494.75
260.547	400.75
260.779	365.75
261.012	372.75
261.244	403.75
261.477	403.75
261.71	391.75
261.942	367.75
262.175	356.75
262.407	365.75
262.64	377.75
262.872	381.75
263.105	423.75
263.337	417.75
263.57	409.75
263.802	395.75
264.035	370.75
264.267	360.75
264.499	365.75
264.732	367.75
264.964	358.75
265.197	367.75
265.429	372.75
265.661	360.75
265.894	369.75
266.126	369.75
266.358	374.75
266.591	388.75
266.823	394.75
267.055	405.75
267.287	383.75
267.52	385.75
267.752	381.75
267.984	391.75
268.216	385.75
268.448	407.75
268.681	413.75
268.913	400.75
269.145	396.75
269.377	410.75
269.609	400.75
269.841	375.75
270.073	407.75
270.306	393.75
270.538	403.75
270.77	403.75
271.002	412.75
271.234	420.75
271.466	436.75
271.698	444.75
271.93	419.75
272.162	448.75
272.394	448.75
272.626	457.75
272.858	451.75
273.09	448.75
273.322	454.75
273.553	454.75
273.785	467.75
274.017	519.75
274.249	547.75
274.481	550.75
274.713	558.75
274.945	605.75
275.176	628.75
275.408	564.75
275.64	550.75
275.872	543.75
276.104	498.75
276.335	483.75
276.567	473.75
276.799	477.75
277.031	478.75
277.262	499.75
277.494	484.75
277.726	466.75
277.957	466.75
278.189	489.75
278.421	482.75
278.652	473.75
278.884	480.75
279.115	472.75
279.347	483.75
279.579	489.75
279.81	471.75
280.042	476.75
280.273	483.75
280.505	488.75
280.736	490.75
280.968	474.75
281.199	502.75
281.431	511.75
281.662	479.75
281.894	490.75
282.125	477.75
282.356	499.75
282.588	481.75
282.819	509.75
283.051	493.75
283.282	502.75
283.513	509.75
283.745	537.75
283.976	511.75
284.207	486.75
284.439	491.75
284.67	515.75
284.901	502.75
285.132	511.75
285.364	504.75
285.595	489.75
285.826	503.75
286.057	517.75
286.288	533.75
286.52	529.75
286.751	521.75
286.982	543.75
287.213	536.75
287.444	519.75
287.675	546.75
287.906	539.75
288.138	544.75
288.369	550.75
288.6	558.75
288.831	542.75
289.062	534.75
289.293	529.75
289.524	550.75
289.755	552.75
289.986	530.75
290.217	547.75
290.448	537.75
290.679	541.75
290.91	565.75
291.141	531.75
291.371	554.75
291.602	566.75
291.833	533.75
292.064	542.75
292.295	539.75
292.526	536.75
292.757	533.75
292.987	534.75
293.218	544.75
293.449	553.75
293.68	547.75
293.91	548.75
294.141	559.75
294.372	549.75
294.603	565.75
294.833	575.75
295.064	577.75
295.295	559.75
295.525	553.75
295.756	551.75
295.987	557.75
296.217	554.75
296.448	567.75
296.679	577.75
296.909	579.75
297.14	589.75
297.37	583.75
297.601	573.75
297.831	579.75
298.062	571.75
298.292	591.75
298.523	621.75
298.753	612.75
298.984	586.75
299.214	583.75
299.445	595.75
299.675	573.75
299.905	597.75
300.136	602.75
300.366	598.75
300.597	606.75
300.827	607.75
301.057	617.75
301.288	601.75
301.518	612.75
301.748	615.75
301.979	632.75
302.209	657.75
302.439	657.75
302.669	622.75
302.9	622.75
303.13	622.75
303.36	631.75
303.59	615.75
303.82	626.75
304.051	623.75
304.281	615.75
304.511	643.75
304.741	630.75
304.971	639.75
305.201	661.75
305.431	624.75
305.661	621.75
305.891	640.75
306.121	653.75
306.352	645.75
306.582	623.75
306.812	625.75
307.042	608.75
307.272	638.75
307.502	631.75
307.731	632.75
307.961	641.75
308.191	634.75
308.421	615.75
308.651	634.75
308.881	606.75
309.111	642.75
309.341	627.75
309.571	634.75
309.8	650.75
310.03	642.75
310.26	643.75
310.49	637.75
310.72	646.75
310.949	628.75
311.179	644.75
311.409	639.75
311.639	632.75
311.868	641.75
312.098	660.75
312.328	664.75
312.557	650.75
312.787	666.75
313.017	659.75
313.246	657.75
313.476	649.75
313.706	657.75
313.935	642.75
314.165	670.75
314.394	690.75
314.624	676.75
314.853	675.75
315.083	695.75
315.312	663.75
315.542	682.75
315.771	669.75
316.001	669.75
316.23	682.75
316.46	680.75
316.689	691.75
316.919	712.75
317.148	693.75
317.377	698.75
317.607	677.75
317.836	674.75
318.065	654.75
318.295	706.75
318.524	687.75
318.753	693.75
318.983	702.75
319.212	694.75
319.441	687.75
319.67	685.75
319.9	690.75
320.129	705.75
320.358	709.75
320.587	712.75
320.816	695.75
321.046	681.75
321.275	706.75
321.504	706.75
321.733	722.75
321.962	676.75
322.191	715.75
322.42	701.75
322.649	706.75
322.878	729.75
323.108	720.75
323.337	720.75
323.566	714.75
323.795	717.75
324.024	711.75
324.253	730.75
324.482	745.75
324.71	739.75
324.939	749.75
325.168	753.75
325.397	729.75
325.626	736.75
325.855	751.75
326.084	725.75
326.313	745.75
326.542	735.75
326.77	766.75
326.999	765.75
327.228	737.75
327.457	764.75
327.686	722.75
327.914	779.75
328.143	759.75
328.372	786.75
328.6	733.75
328.829	736.75
329.058	749.75
329.287	754.75
329.515	743.75
329.744	753.75
329.972	746.75
330.201	780.75
330.43	799.75
330.658	795.75
330.887	791.75
331.115	793.75
331.344	787.75
331.572	785.75
331.801	803.75
332.03	786.75
332.258	785.75
332.486	794.75
332.715	809.75
332.943	797.75
333.172	823.75
333.4	813.75
333.629	831.75
333.857	839.75
334.085	867.75
334.314	847.75
334.542	875.75
334.771	838.75
334.999	849.75
335.227	866.75
335.455	903.75
335.684	873.75
335.912	889.75
336.14	882.75
336.369	872.75
336.597	861.75
336.825	857.75
337.053	874.75
337.281	869.75
337.51	860.75
337.738	832.75
337.966	847.75
338.194	834.75
338.422	821.75
338.65	829.75
338.878	831.75
339.106	810.75
339.334	835.75
339.562	839.75
339.79	819.75
340.018	833.75
340.246	822.75
340.474	823.75
340.702	803.75
340.93	833.75
341.158	807.75
341.386	804.75
341.614	802.75
341.842	820.75
342.07	833.75
342.298	798.75
342.526	836.75
342.754	810.75
342.981	798.75
343.209	816.75
343.437	793.75
343.665	842.75
343.893	845.75
344.12	873.75
344.348	905.75
344.576	846.75
344.804	840.75
345.031	847.75
345.259	831.75
345.487	821.75
345.714	835.75
345.942	826.75
346.17	817.75
346.397	794.75
346.625	813.75
346.853	802.75
347.08	785.75
347.308	779.75
347.535	793.75
347.763	787.75
347.99	769.75
348.218	818.75
348.445	802.75
348.673	784.75
348.9	778.75
349.128	819.75
349.355	790.75
349.583	761.75
349.81	806.75
350.037	792.75
350.265	768.75
350.492	771.75
350.72	744.75
350.947	756.75
351.174	778.75
351.402	788.75
351.629	778.75
351.856	755.75
352.083	805.75
352.311	785.75
352.538	750.75
352.765	777.75
352.992	771.75
353.22	765.75
353.447	774.75
353.674	760.75
353.901	787.75
354.128	785.75
354.355	754.75
354.583	774.75
354.81	771.75
355.037	789.75
355.264	774.75
355.491	779.75
355.718	775.75
355.945	785.75
356.172	759.75
356.399	788.75
356.626	771.75
356.853	789.75
357.08	793.75
357.307	814.75
357.534	789.75
357.761	787.75
357.988	803.75
358.215	809.75
358.441	826.75
358.668	825.75
358.895	799.75
359.122	792.75
359.349	779.75
359.576	763.75
359.802	742.75
360.029	768.75
360.256	783.75
360.483	783.75
360.709	819.75
360.936	811.75
361.163	825.75
361.39	757.75
361.616	767.75
361.843	824.75
362.07	806.75
362.296	808.75
362.523	788.75
362.749	804.75
362.976	779.75
363.203	803.75
363.429	829.75
363.656	795.75
363.882	797.75
364.109	786.75
364.335	787.75
364.562	801.75
364.788	804.75
365.015	832.75
365.241	807.75
365.468	774.75
365.694	822.75
365.92	807.75
366.147	793.75
366.373	815.75
366.599	819.75
366.826	800.75
367.052	808.75
367.278	789.75
367.505	791.75
367.731	795.75
367.957	845.75
368.184	830.75
368.41	838.75
368.636	857.75
368.862	845.75
369.089	827.75
369.315	829.75
369.541	853.75
369.767	842.75
369.993	832.75
370.219	813.75
370.445	832.75
370.672	891.75
370.898	847.75
371.124	868.75
371.35	846.75
371.576	875.75
371.802	887.75
372.028	865.75
372.254	903.75
372.48	875.75
372.706	863.75
372.932	881.75
373.158	878.75
373.384	918.75
373.61	954.75
373.835	994.75
374.061	917.75
374.287	902.75
374.513	897.75
374.739	923.75
374.965	970.75
375.191	928.75
375.416	919.75
375.642	922.75
375.868	934.75
376.094	912.75
376.319	895.75
376.545	906.75
376.771	897.75
376.997	864.75
377.222	849.75
377.448	855.75
377.674	847.75
377.899	836.75
378.125	861.75
378.35	877.75
378.576	831.75
378.802	872.75
379.027	913.75
379.253	889.75
379.478	881.75
379.704	884.75
379.929	879.75
380.155	888.75
380.38	842.75
380.606	890.75
380.831	886.75
381.057	882.75
381.282	872.75
381.507	903.75
381.733	943.75
381.958	925.75
382.184	959.75
382.409	937.75
382.634	959.75
382.86	960.75
383.085	943.75
383.31	941.75
383.535	965.75
383.761	963.75
383.986	950.75
384.211	945.75
384.436	975.75
384.662	953.75
384.887	968.75
385.112	968.75
385.337	995.75
385.562	958.75
385.787	979.75
386.013	994.75
386.238	1045.75
386.463	1033.75
386.688	1020.75
386.913	1000.75
387.138	986.75
387.363	1038.75
387.588	1029.75
387.813	1040.75
388.038	1007.75
388.263	1032.75
388.488	1044.75
388.713	1064.75
388.938	1063.75
389.163	1031.75
389.387	1006.75
389.612	1031.75
389.837	1027.75
390.062	1023.75
390.287	1035.75
390.512	1014.75
390.736	1024.75
390.961	1044.75
391.186	1044.75
391.411	1052.75
391.636	1069.75
391.86	1066.75
392.085	1069.75
392.31	1096.75
392.534	1094.75
392.759	1082.75
392.984	1075.75
393.208	1083.75
393.433	1089.75
393.658	1086.75
393.882	1070.75
394.107	1065.75
394.331	1039.75
394.556	1041.75
394.78	1087.75
395.005	1070.75
395.229	1083.75
395.454	1116.75
395.678	1087.75
395.903	1089.75
396.127	1090.75
396.352	1117.75
396.576	1081.75
396.801	1098.75
397.025	1133.75
397.249	1146.75
397.474	1130.75
397.698	1143.75
397.922	1139.75
398.147	1141.75
398.371	1165.75
398.595	1189.75
398.82	1188.75
399.044	1259.75
399.268	1285.75
399.492	1285.75
399.717	1338.75
399.941	1376.75
400.165	1339.75
400.389	1331.75
400.613	1302.75
400.837	1284.75
401.062	1273.75
401.286	1219.75
401.51	1229.75
401.734	1255.75
401.958	1228.75
402.182	1230.75
402.406	1204.75
402.63	1222.75
402.854	1239.75
403.078	1227.75
403.302	1205.75
403.526	1203.75
403.75	1247.75
403.974	1223.75
404.198	1212.75
404.422	1235.75
404.645	1252.75
404.869	1249.75
405.093	1266.75
405.317	1250.75
405.541	1296.75
405.765	1236.75
405.988	1263.75
406.212	1306.75
406.436	1317.75
406.66	1345.75
406.883	1300.75
407.107	1345.75
407.331	1370.75
407.555	1410.75
407.778	1370.75
408.002	1385.75
408.226	1425.75
408.449	1414.75
408.673	1389.75
408.896	1352.75
409.12	1361.75
409.344	1341.75
409.567	1347.75
409.791	1342.75
410.014	1336.75
410.238	1320.75
410.461	1329.75
410.685	1332.75
410.908	1303.75
411.132	1315.75
411.355	1297.75
411.578	1315.75
411.802	1322.75
412.025	1306.75
412.249	1282.75
412.472	1280.75
412.695	1281.75
412.919	1249.75
413.142	1263.75
413.365	1291.75
413.589	1268.75
413.812	1263.75
414.035	1253.75
414.258	1253.75
414.482	1257.75
414.705	1264.75
414.928	1270.75
415.151	1269.75
415.374	1239.75
415.597	1235.75
415.821	1231.75
416.044	1227.75
416.267	1213.75
416.49	1231.75
416.713	1194.75
416.936	1203.75
417.159	1190.75
417.382	1201.75
417.605	1177.75
417.828	1165.75
418.051	1209.75
418.274	1202.75
418.497	1177.75
418.72	1188.75
418.943	1160.75
419.166	1233.75
419.389	1337.75
419.611	1306.75
419.834	1245.75
420.057	1232.75
420.28	1202.75
420.503	1177.75
420.726	1176.75
420.948	1178.75
421.171	1179.75
421.394	1191.75
421.617	1166.75
421.839	1169.75
422.062	1210.75
422.285	1149.75
422.507	1190.75
422.73	1202.75
422.953	1174.75
423.175	1200.75
423.398	1183.75
423.621	1154.75
423.843	1174.75
424.066	1168.75
424.288	1183.75
424.511	1200.75
424.733	1172.75
424.956	1171.75
425.178	1158.75
425.401	1151.75
425.623	1184.75
425.846	1175.75
426.068	1165.75
426.291	1169.75
426.513	1164.75
426.735	1152.75
426.958	1167.75
427.18	1169.75
427.402	1175.75
427.625	1166.75
427.847	1149.75
428.069	1134.75
428.292	1141.75
428.514	1147.75
428.736	1159.75
428.958	1169.75
429.181	1131.75
429.403	1129.75
429.625	1142.75
429.847	1140.75
430.069	1123.75
430.292	1153.75
430.514	1125.75
430.736	1178.75
430.958	1203.75
431.18	1171.75
431.402	1170.75
431.624	1164.75
431.846	1140.75
432.068	1142.75
432.29	1157.75
432.512	1136.75
432.734	1159.75
432.956	1184.75
433.178	1193.75
433.4	1175.75
433.622	1179.75
433.844	1156.75
434.066	1153.75
434.287	1153.75
434.509	1173.75
434.731	1219.75
434.953	1211.75
435.175	1198.75
435.397	1229.75
435.618	1230.75
435.84	1168.75
436.062	1169.75
436.284	1185.75
436.505	1161.75
436.727	1166.75
436.949	1164.75
437.17	1135.75
437.392	1147.75
437.614	1119.75
437.835	1101.75
438.057	1137.75
438.278	1123.75
438.5	1160.75
438.721	1159.75
438.943	1137.75
439.165	1100.75
439.386	1140.75
439.608	1139.75
439.829	1143.75
440.05	1133.75
440.272	1134.75
440.493	1165.75
440.715	1165.75
440.936	1174.75
441.158	1147.75
441.379	1157.75
441.6	1197.75
441.822	1195.75
442.043	1195.75
442.264	1167.75
442.486	1177.75
442.707	1164.75
442.928	1182.75
443.149	1219.75
443.371	1147.75
443.592	1173.75
443.813	1192.75
444.034	1230.75
444.255	1214.75
444.476	1207.75
444.698	1218.75
444.919	1257.75
445.14	1352.75
445.361	1248.75
445.582	1238.75
445.803	1175.75
446.024	1187.75
446.245	1184.75
446.466	1164.75
446.687	1160.75
446.908	1190.75
447.129	1147.75
447.35	1126.75
447.571	1157.75
447.792	1147.75
448.013	1113.75
448.234	1101.75
448.455	1094.75
448.675	1065.75
448.896	1096.75
449.117	1074.75
449.338	1066.75
449.559	1085.75
449.779	1073.75
450	1047.75
450.221	1067.75
450.442	1098.75
450.662	1057.75
450.883	1058.75
451.104	1076.75
451.324	1053.75
451.545	1070.75
451.766	1069.75
451.986	1070.75
452.207	1053.75
452.428	1041.75
452.648	1059.75
452.869	1033.75
453.089	1025.75
453.31	1017.75
453.53	1035.75
453.751	1010.75
453.971	1030.75
454.192	1011.75
454.412	1021.75
454.633	998.75
454.853	1044.75
455.073	1008.75
455.294	1010.75
455.514	993.75
455.734	1028.75
455.955	1001.75
456.175	989.75
456.395	995.75
456.616	1000.75
456.836	1024.75
457.056	1035.75
457.276	1001.75
457.497	1059.75
457.717	1038.75
457.937	1067.75
458.157	1062.75
458.377	1072.75
458.598	1069.75
458.818	1065.75
459.038	1079.75
459.258	1083.75
459.478	1140.75
459.698	1141.75
459.918	1165.75
460.138	1164.75
460.358	1183.75
460.578	1192.75
460.798	1185.75
461.018	1207.75
461.238	1229.75
461.458	1250.75
461.678	1229.75
461.898	1245.75
462.118	1235.75
462.338	1287.75
462.558	1294.75
462.777	1296.75
462.997	1354.75
463.217	1320.75
463.437	1361.75
463.657	1360.75
463.876	1339.75
464.096	1341.75
464.316	1336.75
464.536	1315.75
464.755	1281.75
464.975	1289.75
465.195	1247.75
465.414	1257.75
465.634	1197.75
465.854	1218.75
466.073	1210.75
466.293	1150.75
466.512	1161.75
466.732	1131.75
466.951	1128.75
467.171	1105.75
467.391	1133.75
467.61	1103.75
467.829	1105.75
468.049	1133.75
468.268	1135.75
468.488	1103.75
468.707	1129.75
468.927	1153.75
469.146	1135.75
469.365	1143.75
469.585	1088.75
469.804	1122.75
470.023	1154.75
470.243	1136.75
470.462	1122.75
470.681	1152.75
470.901	1119.75
471.12	1137.75
471.339	1142.75
471.558	1136.75
471.777	1099.75
471.997	1114.75
472.216	1155.75
472.435	1109.75
472.654	1110.75
472.873	1091.75
473.092	1111.75
473.311	1109.75
473.53	1127.75
473.749	1085.75
473.968	1149.75
474.187	1114.75
474.406	1112.75
474.625	1129.75
474.844	1142.75
475.063	1134.75
475.282	1153.75
475.501	1146.75
475.72	1149.75
475.939	1152.75
476.158	1173.75
476.377	1225.75
476.596	1207.75
476.814	1257.75
477.033	1203.75
477.252	1217.75
477.471	1217.75
477.69	1216.75
477.908	1256.75
478.127	1287.75
478.346	1269.75
478.564	1281.75
478.783	1274.75
479.002	1284.75
479.22	1355.75
479.439	1341.75
479.658	1323.75
479.876	1300.75
480.095	1354.75
480.313	1336.75
480.532	1338.75
480.751	1373.75
480.969	1317.75
481.188	1351.75
481.406	1391.75
481.624	1347.75
481.843	1309.75
482.061	1297.75
482.28	1343.75
482.498	1345.75
482.717	1322.75
482.935	1345.75
483.153	1335.75
483.372	1317.75
483.59	1337.75
483.808	1316.75
484.027	1325.75
484.245	1329.75
484.463	1332.75
484.681	1341.75
484.9	1348.75
485.118	1358.75
485.336	1329.75
485.554	1367.75
485.772	1361.75
485.99	1365.75
486.209	1385.75
486.427	1385.75
486.645	1386.75
486.863	1373.75
487.081	1382.75
487.299	1426.75
487.517	1394.75
487.735	1373.75
487.953	1393.75
488.171	1367.75
488.389	1376.75
488.607	1329.75
488.825	1359.75
489.043	1365.75
489.261	1384.75
489.479	1362.75
489.696	1383.75
489.914	1358.75
490.132	1397.75
490.35	1380.75
490.568	1366.75
490.786	1368.75
491.003	1353.75
491.221	1397.75
491.439	1413.75
491.657	1393.75
491.874	1424.75
492.092	1430.75
492.31	1429.75
492.527	1420.75
492.745	1438.75
492.963	1429.75
493.18	1402.75
493.398	1452.75
493.615	1390.75
493.833	1419.75
494.05	1420.75
494.268	1435.75
494.485	1432.75
494.703	1430.75
494.92	1445.75
495.138	1437.75
495.355	1454.75
495.573	1437.75
495.79	1466.75
496.008	1507.75
496.225	1488.75
496.442	1482.75
496.66	1494.75
496.877	1513.75
497.094	1528.75
497.312	1574.75
497.529	1545.75
497.746	1553.75
497.963	1643.75
498.181	1658.75
498.398	1710.75
498.615	1742.75
498.832	1777.75
499.049	1839.75
499.267	1911.75
499.484	1976.75
499.701	2000.75
499.918	2077.75
500.135	2151.75
500.352	2184.75
500.569	2231.75
500.786	2248.75
501.003	2238.75
501.22	2186.75
501.437	2104.75
501.654	2027.75
501.871	1966.75
502.088	1848.75
502.305	1821.75
502.522	1811.75
502.739	1725.75
502.956	1679.75
503.172	1676.75
503.389	1620.75
503.606	1569.75
503.823	1563.75
504.04	1528.75
504.256	1507.75
504.473	1490.75
504.69	1484.75
504.907	1497.75
505.123	1416.75
505.34	1429.75
505.557	1376.75
505.773	1397.75
505.99	1376.75
506.207	1359.75
506.423	1333.75
506.64	1354.75
506.856	1295.75
507.073	1288.75
507.289	1275.75
507.506	1285.75
507.722	1248.75
507.939	1283.75
508.155	1239.75
508.372	1224.75
508.588	1210.75
508.805	1203.75
509.021	1208.75
509.238	1209.75
509.454	1164.75
509.67	1174.75
509.887	1192.75
510.103	1169.75
510.319	1157.75
510.536	1166.75
510.752	1139.75
510.968	1158.75
511.184	1135.75
511.401	1153.75
511.617	1173.75
511.833	1126.75
512.049	1128.75
512.265	1128.75
512.481	1161.75
512.698	1153.75
512.914	1134.75
513.13	1121.75
513.346	1137.75
513.562	1141.75
513.778	1134.75
513.994	1119.75
514.21	1139.75
514.426	1161.75
514.642	1166.75
514.858	1144.75
515.074	1135.75
515.29	1141.75
515.506	1173.75
515.721	1159.75
515.937	1163.75
516.153	1182.75
516.369	1176.75
516.585	1183.75
516.801	1218.75
517.016	1227.75
517.232	1268.75
517.448	1254.75
517.664	1285.75
517.879	1243.75
518.095	1220.75
518.311	1258.75
518.527	1224.75
518.742	1227.75
518.958	1201.75
519.173	1223.75
519.389	1205.75
519.605	1171.75
519.82	1160.75
520.036	1245.75
520.251	1223.75
520.467	1139.75
520.682	1139.75
520.898	1129.75
521.113	1126.75
521.329	1102.75
521.544	1107.75
521.76	1141.75
521.975	1059.75
522.19	1065.75
522.406	1093.75
522.621	1066.75
522.836	1096.75
523.052	1083.75
523.267	1080.75
523.482	1059.75
523.698	1091.75
523.913	1047.75
524.128	1058.75
524.343	1056.75
524.559	1047.75
524.774	1045.75
524.989	1029.75
525.204	1042.75
525.419	1051.75
525.634	1013.75
525.849	1061.75
526.064	1050.75
526.28	1052.75
526.495	1065.75
526.71	1041.75
526.925	1038.75
527.14	1075.75
527.355	1021.75
527.57	1007.75
527.785	1030.75
527.999	1026.75
528.214	997.75
528.429	982.75
528.644	1010.75
528.859	1039.75
529.074	1006.75
529.289	1036.75
529.503	1020.75
529.718	1005.75
529.933	1026.75
530.148	1000.75
530.363	972.75
530.577	970.75
530.792	997.75
531.007	991.75
531.221	980.75
531.436	979.75
531.651	965.75
531.865	975.75
532.08	976.75
532.295	979.75
532.509	962.75
532.724	1000.75
532.938	991.75
533.153	1001.75
533.367	964.75
533.582	974.75
533.796	1002.75
534.011	959.75
534.225	985.75
534.44	950.75
534.654	967.75
534.868	959.75
535.083	960.75
535.297	965.75
535.511	944.75
535.726	957.75
535.94	948.75
536.154	941.75
536.369	925.75
536.583	949.75
536.797	913.75
537.011	944.75
537.225	901.75
537.44	898.75
537.654	933.75
537.868	901.75
538.082	927.75
538.296	901.75
538.51	943.75
538.724	922.75
538.938	906.75
539.153	880.75
539.367	893.75
539.581	912.75
539.795	916.75
540.009	896.75
540.222	900.75
540.436	894.75
540.65	907.75
540.864	877.75
541.078	912.75
541.292	913.75
541.506	925.75
541.72	887.75
541.934	904.75
542.147	928.75
542.361	893.75
542.575	906.75
542.789	897.75
543.002	906.75
543.216	938.75
543.43	889.75
543.644	865.75
543.857	872.75
544.071	878.75
544.285	891.75
544.498	884.75
544.712	888.75
544.925	897.75
545.139	903.75
545.352	904.75
545.566	891.75
545.779	894.75
545.993	897.75
546.206	908.75
546.42	907.75
546.633	865.75
546.847	887.75
547.06	885.75
547.274	895.75
547.487	893.75
547.7	876.75
547.914	871.75
548.127	905.75
548.34	919.75
548.554	914.75
548.767	890.75
548.98	907.75
549.193	882.75
549.407	897.75
549.62	904.75
549.833	904.75
550.046	890.75
550.259	932.75
550.473	853.75
550.686	880.75
550.899	911.75
551.112	881.75
551.325	902.75
551.538	895.75
551.751	882.75
551.964	864.75
552.177	870.75
552.39	878.75
552.603	879.75
552.816	894.75
553.029	875.75
553.242	889.75
553.455	893.75
553.667	889.75
553.88	866.75
554.093	867.75
554.306	859.75
554.519	862.75
554.732	859.75
554.944	839.75
555.157	845.75
555.37	839.75
555.583	809.75
555.795	842.75
556.008	787.75
556.221	806.75
556.433	799.75
556.646	801.75
556.859	792.75
557.071	779.75
557.284	755.75
557.496	794.75
557.709	796.75
557.921	785.75
558.134	777.75
558.346	777.75
558.559	760.75
558.771	777.75
558.984	768.75
559.196	786.75
559.409	759.75
559.621	735.75
559.833	745.75
560.046	784.75
560.258	763.75
560.47	771.75
560.683	769.75
560.895	755.75
561.107	735.75
561.32	720.75
561.532	746.75
561.744	766.75
561.956	738.75
562.168	761.75
562.381	739.75
562.593	741.75
562.805	757.75
563.017	775.75
563.229	767.75
563.441	745.75
563.653	754.75
563.865	761.75
564.077	784.75
564.289	778.75
564.501	752.75
564.713	784.75
564.925	790.75
565.137	815.75
565.349	842.75
565.561	836.75
565.773	853.75
565.985	837.75
566.197	849.75
566.408	867.75
566.62	882.75
566.832	867.75
567.044	907.75
567.255	903.75
567.467	889.75
567.679	897.75
567.891	901.75
568.102	919.75
568.314	898.75
568.526	874.75
568.737	830.75
568.949	827.75
569.161	801.75
569.372	805.75
569.584	762.75
569.795	751.75
570.007	724.75
570.218	738.75
570.43	723.75
570.641	693.75
570.853	692.75
571.064	737.75
571.276	693.75
571.487	680.75
571.698	689.75
571.91	652.75
572.121	676.75
572.333	679.75
572.544	652.75
572.755	633.75
572.966	625.75
573.178	635.75
573.389	628.75
573.6	637.75
573.811	614.75
574.023	609.75
574.234	629.75
574.445	633.75
574.656	624.75
574.867	597.75
575.078	590.75
575.289	588.75
575.501	594.75
575.712	586.75
575.923	567.75
576.134	580.75
576.345	585.75
576.556	591.75
576.767	595.75
576.978	582.75
577.188	597.75
577.399	564.75
577.61	558.75
577.821	550.75
578.032	555.75
578.243	543.75
578.454	545.75
578.665	563.75
578.875	546.75
579.086	543.75
579.297	551.75
579.508	547.75
579.718	535.75
579.929	530.75
580.14	541.75
580.35	546.75
580.561	543.75
580.772	519.75
580.982	534.75
581.193	522.75
581.403	531.75
581.614	546.75
581.825	538.75
582.035	526.75
582.246	511.75
582.456	517.75
582.667	496.75
582.877	533.75
583.087	511.75
583.298	512.75
583.508	508.75
583.719	504.75
583.929	520.75
584.139	504.75
584.35	512.75
584.56	505.75
584.77	511.75
584.981	522.75
585.191	512.75
585.401	517.75
585.611	493.75
585.821	490.75
586.032	531.75
586.242	502.75
586.452	508.75
586.662	505.75
586.872	477.75
587.082	502.75
587.292	507.75
587.502	481.75
587.713	490.75
587.923	497.75
588.133	493.75
588.343	487.75
588.553	513.75
588.762	509.75
588.972	489.75
589.182	544.75
589.392	519.75
589.602	504.75
589.812	529.75
590.022	520.75
590.232	487.75
590.441	493.75
590.651	489.75
590.861	472.75
591.071	488.75
591.281	503.75
591.49	501.75
591.7	485.75
591.91	489.75
592.119	484.75
592.329	511.75
592.539	508.75
592.748	495.75
592.958	530.75
593.167	490.75
593.377	470.75
593.587	508.75
593.796	495.75
594.006	512.75
594.215	491.75
594.424	486.75
594.634	490.75
594.843	491.75
595.053	524.75
595.262	486.75
595.472	482.75
595.681	450.75
595.89	459.75
596.1	440.75
596.309	473.75
596.518	446.75
596.727	455.75
596.937	444.75
597.146	454.75
597.355	435.75
597.564	449.75
597.774	452.75
597.983	429.75
598.192	429.75
598.401	451.75
598.61	419.75
598.819	409.75
599.028	429.75
599.237	404.75
599.446	419.75
599.655	412.75
599.864	427.75
600.073	405.75
600.282	409.75
600.491	408.75
600.7	408.75
600.909	403.75
601.118	399.75
601.327	405.75
601.536	409.75
601.745	397.75
601.953	424.75
602.162	402.75
602.371	393.75
602.58	382.75
602.789	410.75
602.997	394.75
603.206	413.75
603.415	395.75
603.623	399.75
603.832	375.75
604.041	367.75
604.249	382.75
604.458	403.75
604.666	377.75
604.875	396.75
605.084	403.75
605.292	395.75
605.501	391.75
605.709	401.75
605.918	389.75
606.126	381.75
606.334	367.75
606.543	390.75
606.751	381.75
606.96	366.75
607.168	376.75
607.376	375.75
607.585	357.75
607.793	370.75
608.001	365.75
608.21	387.75
608.418	345.75
608.626	368.75
608.834	355.75
609.043	375.75
609.251	354.75
609.459	363.75
609.667	382.75
609.875	365.75
610.083	376.75
610.291	361.75
610.499	354.75
610.707	378.75
610.916	355.75
611.124	362.75
611.332	353.75
611.54	349.75
611.748	353.75
611.955	352.75
612.163	344.75
612.371	357.75
612.579	354.75
612.787	347.75
612.995	356.75
613.203	370.75
613.411	351.75
613.618	347.75
613.826	353.75
614.034	372.75
614.242	338.75
614.449	345.75
614.657	376.75
614.865	346.75
615.072	347.75
615.28	344.75
615.488	334.75
615.695	331.75
615.903	351.75
616.111	345.75
616.318	354.75
616.526	354.75
616.733	341.75
616.941	345.75
617.148	330.75
617.356	361.75
617.563	331.75
617.771	341.75
617.978	329.75
618.185	349.75
618.393	338.75
618.6	328.75
618.807	318.75
619.015	329.75
619.222	326.75
619.429	328.75
619.637	331.75
619.844	321.75
620.051	326.75
620.258	320.75
620.466	311.75
620.673	321.75
620.88	309.75
621.087	324.75
621.294	314.75
621.501	299.75
621.708	325.75
621.915	311.75
622.122	313.75
622.329	320.75
622.536	326.75
622.743	316.75
622.95	310.75
623.157	312.75
623.364	310.75
623.571	330.75
623.778	323.75
623.985	301.75
624.192	315.75
624.399	330.75
624.606	294.75
624.812	297.75
625.019	314.75
625.226	322.75
625.433	315.75
625.639	281.75
625.846	309.75
626.053	303.75
626.259	269.75
626.466	307.75
626.673	295.75
626.879	307.75
627.086	296.75
627.293	288.75
627.499	303.75
627.706	299.75
627.912	301.75
628.119	287.75
628.325	287.75
628.532	289.75
628.738	274.75
628.945	299.75
629.151	293.75
629.357	281.75
629.564	289.75
629.77	274.75
629.976	276.75
630.183	279.75
630.389	263.75
630.595	259.75
630.802	274.75
631.008	293.75
631.214	287.75
631.42	275.75
631.627	273.75
631.833	282.75
632.039	271.75
632.245	265.75
632.451	265.75
632.657	281.75
632.863	274.75
633.069	255.75
633.275	275.75
633.481	254.75
633.688	263.75
633.893	271.75
634.099	269.75
634.305	265.75
634.511	256.75
634.717	267.75
634.923	255.75
635.129	266.75
635.335	265.75
635.541	252.75
635.747	246.75
635.952	256.75
636.158	231.75
636.364	264.75
636.57	247.75
636.775	244.75
636.981	245.75
637.187	266.75
637.392	258.75
637.598	251.75
637.804	254.75
638.009	254.75
638.215	241.75
638.421	244.75
638.626	252.75
638.832	257.75
639.037	254.75
639.243	257.75
639.448	266.75
639.654	251.75
639.859	256.75
640.065	255.75
640.27	250.75
640.475	238.75
640.681	245.75
640.886	239.75
641.091	230.75
641.297	257.75
641.502	227.75
641.707	261.75
641.913	238.75
642.118	242.75
642.323	242.75
642.528	253.75
642.733	244.75
642.939	233.75
643.144	237.75
643.349	239.75
643.554	255.75
643.759	237.75
643.964	231.75
644.169	247.75
644.374	233.75
644.579	240.75
644.784	231.75
644.989	225.75
645.194	235.75
645.399	235.75
645.604	239.75
645.809	242.75
646.014	247.75
646.219	245.75
646.423	221.75
646.628	240.75
646.833	259.75
647.038	240.75
647.243	239.75
647.447	231.75
647.652	244.75
647.857	248.75
648.062	227.75
648.266	246.75
648.471	241.75
648.676	253.75
648.88	259.75
649.085	250.75
649.289	246.75
649.494	238.75
649.698	227.75
649.903	237.75
650.107	231.75
650.312	234.75
650.516	251.75
650.721	232.75
650.925	243.75
651.13	229.75
651.334	242.75
651.539	231.75
651.743	228.75
651.947	227.75
652.152	233.75
652.356	244.75
652.56	235.75
652.764	217.75
652.969	219.75
653.173	203.75
653.377	214.75
653.581	209.75
653.785	214.75
653.99	221.75
654.194	238.75
654.398	204.75
654.602	231.75
654.806	204.75
655.01	213.75
655.214	207.75
655.418	202.75
655.622	206.75
655.826	219.75
656.03	216.75
656.234	227.75
656.438	215.75
656.642	218.75
656.846	209.75
657.049	200.75
657.253	198.75
657.457	193.75
657.661	178.75
657.865	176.75
658.068	152.75
658.272	149.75
658.476	160.75
658.68	146.75
658.883	123.75
659.087	123.75
659.291	128.75
659.494	137.75
659.698	111.75
659.901	115.75
660.105	121.75
660.309	106.75
660.512	94.75
660.716	109.75
660.919	95.75
661.123	107.75
661.326	95.75
661.53	95.75
661.733	104.75
661.936	90.75
662.14	93.75
662.343	82.75
662.546	73.75
662.75	98.75
662.953	86.75
663.156	90.75
663.36	80.75
663.563	95.75
663.766	84.75
663.969	69.75
664.173	73.75
664.376	92.75
664.579	79.75
664.782	100.75
664.985	90.75
665.188	90.75
665.391	82.75
665.594	86.75
665.797	90.75
666	83.75
666.203	81.75
666.406	80.75
666.609	79.75
666.812	73.75
667.015	77.75
667.218	81.75
667.421	95.75
667.624	82.75
667.827	77.75
668.03	72.75
668.232	88.75
668.435	75.75
668.638	72.75
668.841	75.75
669.043	78.75
669.246	91.75
669.449	84.75
669.651	82.75
669.854	80.75
670.057	81.75
670.259	71.75
670.462	87.75
670.665	70.75
670.867	95.75
671.07	82.75
671.272	66.75
671.475	73.75
671.677	70.75
671.88	69.75
672.082	97.75
672.284	85.75
672.487	82.75
672.689	61.75
672.892	81.75
