Data from Fe(NO3)3@0.1M.TitratingCurve.Agarose3%dH2O.NegLispCup.LampEnergy10.LIBS07252019_HRD10591_16-40-24-332.txt Node
Date: Thu Jul 25 16:40:24 EDT 2019
User: cochatt
Spectrometer: HR+D1059
Trigger mode: 1
Integration Time (sec): 1.000000E-1
Scans to average: 1
Electric dark correction enabled: true
Nonlinearity correction enabled: false
Boxcar width: 0
XAxis mode: Wavelengths
Number of Pixels in Spectrum: 2048
>>>>>Begin Spectral Data<<<<<
223.165	-26.62
223.4	-26.62
223.635	-26.62
223.869	-16.62
224.104	-20.62
224.338	-10.62
224.573	-9.62
224.808	-10.62
225.042	-17.62
225.277	-13.62
225.511	-6.62
225.746	12.38
225.98	14.38
226.215	18.38
226.449	19.38
226.683	13.38
226.918	19.38
227.152	35.38
227.387	39.38
227.621	27.38
227.856	36.38
228.09	33.38
228.324	41.38
228.559	71.38
228.793	49.38
229.027	74.38
229.262	88.38
229.496	85.38
229.73	102.38
229.964	95.38
230.199	100.38
230.433	113.38
230.667	101.38
230.901	109.38
231.136	107.38
231.37	111.38
231.604	111.38
231.838	100.38
232.072	123.38
232.306	109.38
232.541	119.38
232.775	130.38
233.009	121.38
233.243	116.38
233.477	108.38
233.711	112.38
233.945	129.38
234.179	102.38
234.413	109.38
234.647	110.38
234.881	113.38
235.115	103.38
235.349	121.38
235.583	98.38
235.817	121.38
236.051	125.38
236.285	119.38
236.519	112.38
236.753	120.38
236.987	108.38
237.221	120.38
237.455	114.38
237.689	127.38
237.922	123.38
238.156	109.38
238.39	129.38
238.624	128.38
238.858	137.38
239.091	129.38
239.325	140.38
239.559	132.38
239.793	133.38
240.027	124.38
240.26	131.38
240.494	118.38
240.728	122.38
240.961	139.38
241.195	141.38
241.429	122.38
241.662	138.38
241.896	136.38
242.13	134.38
242.363	132.38
242.597	129.38
242.83	134.38
243.064	143.38
243.298	155.38
243.531	143.38
243.765	145.38
243.998	156.38
244.232	148.38
244.465	142.38
244.699	149.38
244.932	159.38
245.166	149.38
245.399	154.38
245.633	159.38
245.866	159.38
246.099	160.38
246.333	165.38
246.566	153.38
246.8	157.38
247.033	172.38
247.266	152.38
247.5	149.38
247.733	158.38
247.966	149.38
248.2	171.38
248.433	153.38
248.666	156.38
248.899	171.38
249.133	162.38
249.366	159.38
249.599	172.38
249.832	169.38
250.066	191.38
250.299	181.38
250.532	156.38
250.765	159.38
250.998	175.38
251.231	180.38
251.465	161.38
251.698	180.38
251.931	175.38
252.164	183.38
252.397	177.38
252.63	184.38
252.863	187.38
253.096	172.38
253.329	183.38
253.562	179.38
253.795	188.38
254.028	207.38
254.261	183.38
254.494	173.38
254.727	185.38
254.96	184.38
255.193	190.38
255.426	186.38
255.659	180.38
255.892	196.38
256.124	193.38
256.357	201.38
256.59	188.38
256.823	194.38
257.056	202.38
257.289	188.38
257.521	203.38
257.754	210.38
257.987	207.38
258.22	186.38
258.452	195.38
258.685	195.38
258.918	199.38
259.151	194.38
259.383	229.38
259.616	191.38
259.849	223.38
260.081	204.38
260.314	201.38
260.547	185.38
260.779	209.38
261.012	211.38
261.244	209.38
261.477	200.38
261.71	196.38
261.942	210.38
262.175	215.38
262.407	212.38
262.64	215.38
262.872	223.38
263.105	211.38
263.337	223.38
263.57	203.38
263.802	227.38
264.035	216.38
264.267	213.38
264.499	231.38
264.732	207.38
264.964	226.38
265.197	230.38
265.429	234.38
265.661	216.38
265.894	227.38
266.126	245.38
266.358	229.38
266.591	227.38
266.823	235.38
267.055	224.38
267.287	243.38
267.52	243.38
267.752	227.38
267.984	233.38
268.216	233.38
268.448	240.38
268.681	233.38
268.913	217.38
269.145	240.38
269.377	227.38
269.609	259.38
269.841	241.38
270.073	240.38
270.306	237.38
270.538	255.38
270.77	244.38
271.002	260.38
271.234	240.38
271.466	241.38
271.698	256.38
271.93	256.38
272.162	270.38
272.394	255.38
272.626	220.38
272.858	244.38
273.09	255.38
273.322	254.38
273.553	243.38
273.785	282.38
274.017	260.38
274.249	253.38
274.481	261.38
274.713	285.38
274.945	281.38
275.176	267.38
275.408	267.38
275.64	277.38
275.872	272.38
276.104	265.38
276.335	277.38
276.567	270.38
276.799	267.38
277.031	281.38
277.262	265.38
277.494	272.38
277.726	283.38
277.957	281.38
278.189	258.38
278.421	276.38
278.652	289.38
278.884	291.38
279.115	274.38
279.347	274.38
279.579	298.38
279.81	267.38
280.042	305.38
280.273	284.38
280.505	288.38
280.736	270.38
280.968	317.38
281.199	264.38
281.431	286.38
281.662	292.38
281.894	298.38
282.125	306.38
282.356	293.38
282.588	296.38
282.819	305.38
283.051	304.38
283.282	286.38
283.513	305.38
283.745	296.38
283.976	297.38
284.207	290.38
284.439	306.38
284.67	300.38
284.901	298.38
285.132	306.38
285.364	295.38
285.595	328.38
285.826	301.38
286.057	309.38
286.288	323.38
286.52	324.38
286.751	308.38
286.982	316.38
287.213	308.38
287.444	329.38
287.675	331.38
287.906	321.38
288.138	316.38
288.369	321.38
288.6	329.38
288.831	309.38
289.062	311.38
289.293	323.38
289.524	312.38
289.755	321.38
289.986	323.38
290.217	304.38
290.448	336.38
290.679	345.38
290.91	330.38
291.141	307.38
291.371	320.38
291.602	344.38
291.833	326.38
292.064	323.38
292.295	347.38
292.526	330.38
292.757	339.38
292.987	332.38
293.218	324.38
293.449	324.38
293.68	319.38
293.91	340.38
294.141	331.38
294.372	313.38
294.603	323.38
294.833	341.38
295.064	327.38
295.295	330.38
295.525	336.38
295.756	316.38
295.987	349.38
296.217	333.38
296.448	327.38
296.679	335.38
296.909	331.38
297.14	359.38
297.37	336.38
297.601	354.38
297.831	356.38
298.062	352.38
298.292	359.38
298.523	352.38
298.753	357.38
298.984	343.38
299.214	345.38
299.445	339.38
299.675	341.38
299.905	354.38
300.136	355.38
300.366	350.38
300.597	356.38
300.827	336.38
301.057	377.38
301.288	362.38
301.518	353.38
301.748	386.38
301.979	374.38
302.209	367.38
302.439	363.38
302.669	371.38
302.9	357.38
303.13	374.38
303.36	372.38
303.59	355.38
303.82	389.38
304.051	368.38
304.281	356.38
304.511	352.38
304.741	369.38
304.971	374.38
305.201	364.38
305.431	381.38
305.661	379.38
305.891	380.38
306.121	353.38
306.352	359.38
306.582	362.38
306.812	364.38
307.042	373.38
307.272	375.38
307.502	349.38
307.731	361.38
307.961	353.38
308.191	360.38
308.421	375.38
308.651	374.38
308.881	346.38
309.111	358.38
309.341	337.38
309.571	358.38
309.8	385.38
310.03	383.38
310.26	374.38
310.49	376.38
310.72	384.38
310.949	381.38
311.179	381.38
311.409	368.38
311.639	359.38
311.868	387.38
312.098	391.38
312.328	374.38
312.557	372.38
312.787	375.38
313.017	384.38
313.246	379.38
313.476	376.38
313.706	390.38
313.935	384.38
314.165	404.38
314.394	397.38
314.624	402.38
314.853	379.38
315.083	395.38
315.312	387.38
315.542	383.38
315.771	398.38
316.001	383.38
316.23	389.38
316.46	385.38
316.689	398.38
316.919	391.38
317.148	403.38
317.377	403.38
317.607	386.38
317.836	380.38
318.065	397.38
318.295	396.38
318.524	400.38
318.753	382.38
318.983	401.38
319.212	391.38
319.441	383.38
319.67	382.38
319.9	384.38
320.129	396.38
320.358	393.38
320.587	407.38
320.816	404.38
321.046	412.38
321.275	414.38
321.504	383.38
321.733	378.38
321.962	395.38
322.191	407.38
322.42	373.38
322.649	399.38
322.878	400.38
323.108	404.38
323.337	397.38
323.566	401.38
323.795	381.38
324.024	397.38
324.253	389.38
324.482	409.38
324.71	421.38
324.939	408.38
325.168	406.38
325.397	390.38
325.626	405.38
325.855	433.38
326.084	425.38
326.313	411.38
326.542	406.38
326.77	424.38
326.999	425.38
327.228	411.38
327.457	423.38
327.686	431.38
327.914	435.38
328.143	417.38
328.372	436.38
328.6	442.38
328.829	437.38
329.058	435.38
329.287	436.38
329.515	419.38
329.744	434.38
329.972	441.38
330.201	442.38
330.43	437.38
330.658	434.38
330.887	431.38
331.115	452.38
331.344	437.38
331.572	471.38
331.801	409.38
332.03	473.38
332.258	471.38
332.486	499.38
332.715	484.38
332.943	510.38
333.172	535.38
333.4	532.38
333.629	540.38
333.857	544.38
334.085	552.38
334.314	521.38
334.542	519.38
334.771	540.38
334.999	527.38
335.227	522.38
335.455	511.38
335.684	511.38
335.912	511.38
336.14	497.38
336.369	522.38
336.597	488.38
336.825	489.38
337.053	512.38
337.281	473.38
337.51	492.38
337.738	496.38
337.966	467.38
338.194	489.38
338.422	471.38
338.65	467.38
338.878	475.38
339.106	483.38
339.334	466.38
339.562	457.38
339.79	450.38
340.018	443.38
340.246	463.38
340.474	454.38
340.702	460.38
340.93	436.38
341.158	433.38
341.386	465.38
341.614	418.38
341.842	445.38
342.07	453.38
342.298	470.38
342.526	449.38
342.754	443.38
342.981	446.38
343.209	470.38
343.437	501.38
343.665	516.38
343.893	484.38
344.12	518.38
344.348	515.38
344.576	483.38
344.804	460.38
345.031	452.38
345.259	448.38
345.487	466.38
345.714	469.38
345.942	471.38
346.17	427.38
346.397	441.38
346.625	457.38
346.853	445.38
347.08	428.38
347.308	430.38
347.535	451.38
347.763	444.38
347.99	427.38
348.218	449.38
348.445	439.38
348.673	439.38
348.9	439.38
349.128	413.38
349.355	434.38
349.583	433.38
349.81	435.38
350.037	436.38
350.265	430.38
350.492	435.38
350.72	425.38
350.947	422.38
351.174	439.38
351.402	415.38
351.629	434.38
351.856	416.38
352.083	434.38
352.311	441.38
352.538	416.38
352.765	424.38
352.992	437.38
353.22	422.38
353.447	422.38
353.674	418.38
353.901	416.38
354.128	434.38
354.355	432.38
354.583	418.38
354.81	447.38
355.037	409.38
355.264	438.38
355.491	425.38
355.718	426.38
355.945	409.38
356.172	423.38
356.399	427.38
356.626	425.38
356.853	412.38
357.08	421.38
357.307	427.38
357.534	421.38
357.761	447.38
357.988	442.38
358.215	431.38
358.441	435.38
358.668	426.38
358.895	451.38
359.122	448.38
359.349	435.38
359.576	444.38
359.802	438.38
360.029	450.38
360.256	416.38
360.483	450.38
360.709	411.38
360.936	414.38
361.163	424.38
361.39	422.38
361.616	434.38
361.843	435.38
362.07	421.38
362.296	443.38
362.523	431.38
362.749	429.38
362.976	422.38
363.203	445.38
363.429	429.38
363.656	450.38
363.882	427.38
364.109	440.38
364.335	423.38
364.562	429.38
364.788	418.38
365.015	412.38
365.241	429.38
365.468	419.38
365.694	445.38
365.92	457.38
366.147	441.38
366.373	431.38
366.599	442.38
366.826	441.38
367.052	426.38
367.278	452.38
367.505	461.38
367.731	443.38
367.957	422.38
368.184	428.38
368.41	431.38
368.636	431.38
368.862	443.38
369.089	441.38
369.315	446.38
369.541	442.38
369.767	439.38
369.993	450.38
370.219	443.38
370.445	448.38
370.672	459.38
370.898	472.38
371.124	459.38
371.35	447.38
371.576	441.38
371.802	459.38
372.028	469.38
372.254	473.38
372.48	479.38
372.706	471.38
372.932	484.38
373.158	475.38
373.384	497.38
373.61	473.38
373.835	468.38
374.061	479.38
374.287	466.38
374.513	476.38
374.739	498.38
374.965	503.38
375.191	512.38
375.416	491.38
375.642	470.38
375.868	473.38
376.094	504.38
376.319	491.38
376.545	471.38
376.771	473.38
376.997	488.38
377.222	488.38
377.448	464.38
377.674	484.38
377.899	450.38
378.125	461.38
378.35	471.38
378.576	476.38
378.802	468.38
379.027	466.38
379.253	476.38
379.478	460.38
379.704	451.38
379.929	458.38
380.155	471.38
380.38	486.38
380.606	498.38
380.831	454.38
381.057	477.38
381.282	468.38
381.507	493.38
381.733	486.38
381.958	480.38
382.184	488.38
382.409	479.38
382.634	497.38
382.86	507.38
383.085	496.38
383.31	496.38
383.535	529.38
383.761	509.38
383.986	525.38
384.211	518.38
384.436	537.38
384.662	523.38
384.887	540.38
385.112	559.38
385.337	546.38
385.562	561.38
385.787	562.38
386.013	560.38
386.238	571.38
386.463	577.38
386.688	553.38
386.913	553.38
387.138	553.38
387.363	567.38
387.588	536.38
387.813	561.38
388.038	561.38
388.263	542.38
388.488	543.38
388.713	553.38
388.938	541.38
389.163	555.38
389.387	568.38
389.612	563.38
389.837	540.38
390.062	551.38
390.287	575.38
390.512	559.38
390.736	538.38
390.961	559.38
391.186	570.38
391.411	598.38
391.636	590.38
391.86	614.38
392.085	595.38
392.31	599.38
392.534	604.38
392.759	579.38
392.984	585.38
393.208	580.38
393.433	589.38
393.658	600.38
393.882	561.38
394.107	603.38
394.331	583.38
394.556	607.38
394.78	611.38
395.005	603.38
395.229	599.38
395.454	607.38
395.678	617.38
395.903	617.38
396.127	596.38
396.352	595.38
396.576	585.38
396.801	592.38
397.025	594.38
397.249	594.38
397.474	624.38
397.698	611.38
397.922	633.38
398.147	641.38
398.371	637.38
398.595	663.38
398.82	695.38
399.044	740.38
399.268	777.38
399.492	850.38
399.717	949.38
399.941	908.38
400.165	874.38
400.389	791.38
400.613	732.38
400.837	714.38
401.062	714.38
401.286	681.38
401.51	683.38
401.734	666.38
401.958	705.38
402.182	694.38
402.406	729.38
402.63	728.38
402.854	730.38
403.078	722.38
403.302	720.38
403.526	733.38
403.75	749.38
403.974	729.38
404.198	724.38
404.422	752.38
404.645	743.38
404.869	737.38
405.093	738.38
405.317	716.38
405.541	713.38
405.765	743.38
405.988	730.38
406.212	743.38
406.436	721.38
406.66	736.38
406.883	774.38
407.107	781.38
407.331	848.38
407.555	844.38
407.778	865.38
408.002	821.38
408.226	815.38
408.449	789.38
408.673	773.38
408.896	791.38
409.12	755.38
409.344	776.38
409.567	773.38
409.791	758.38
410.014	792.38
410.238	745.38
410.461	731.38
410.685	734.38
410.908	716.38
411.132	733.38
411.355	728.38
411.578	709.38
411.802	697.38
412.025	695.38
412.249	701.38
412.472	698.38
412.695	709.38
412.919	680.38
413.142	712.38
413.365	685.38
413.589	674.38
413.812	692.38
414.035	681.38
414.258	685.38
414.482	700.38
414.705	677.38
414.928	709.38
415.151	689.38
415.374	693.38
415.597	696.38
415.821	691.38
416.044	676.38
416.267	685.38
416.49	682.38
416.713	656.38
416.936	659.38
417.159	688.38
417.382	680.38
417.605	654.38
417.828	644.38
418.051	673.38
418.274	659.38
418.497	685.38
418.72	695.38
418.943	671.38
419.166	716.38
419.389	757.38
419.611	714.38
419.834	725.38
420.057	712.38
420.28	678.38
420.503	658.38
420.726	655.38
420.948	682.38
421.171	670.38
421.394	691.38
421.617	674.38
421.839	665.38
422.062	675.38
422.285	689.38
422.507	679.38
422.73	689.38
422.953	690.38
423.175	704.38
423.398	698.38
423.621	698.38
423.843	716.38
424.066	694.38
424.288	706.38
424.511	683.38
424.733	695.38
424.956	699.38
425.178	676.38
425.401	668.38
425.623	679.38
425.846	639.38
426.068	653.38
426.291	638.38
426.513	653.38
426.735	667.38
426.958	653.38
427.18	635.38
427.402	640.38
427.625	622.38
427.847	632.38
428.069	635.38
428.292	634.38
428.514	571.38
428.736	622.38
428.958	595.38
429.181	613.38
429.403	601.38
429.625	594.38
429.847	585.38
430.069	623.38
430.292	617.38
430.514	598.38
430.736	624.38
430.958	637.38
431.18	610.38
431.402	620.38
431.624	633.38
431.846	617.38
432.068	590.38
432.29	628.38
432.512	610.38
432.734	634.38
432.956	600.38
433.178	611.38
433.4	610.38
433.622	616.38
433.844	612.38
434.066	633.38
434.287	626.38
434.509	642.38
434.731	677.38
434.953	661.38
435.175	680.38
435.397	672.38
435.618	630.38
435.84	630.38
436.062	628.38
436.284	623.38
436.505	631.38
436.727	619.38
436.949	638.38
437.17	618.38
437.392	616.38
437.614	584.38
437.835	580.38
438.057	584.38
438.278	589.38
438.5	613.38
438.721	593.38
438.943	598.38
439.165	619.38
439.386	610.38
439.608	618.38
439.829	617.38
440.05	639.38
440.272	612.38
440.493	629.38
440.715	608.38
440.936	641.38
441.158	647.38
441.379	666.38
441.6	662.38
441.822	687.38
442.043	680.38
442.264	663.38
442.486	685.38
442.707	683.38
442.928	667.38
443.149	661.38
443.371	651.38
443.592	671.38
443.813	703.38
444.034	706.38
444.255	724.38
444.476	744.38
444.698	752.38
444.919	756.38
445.14	852.38
445.361	752.38
445.582	699.38
445.803	651.38
446.024	665.38
446.245	637.38
446.466	648.38
446.687	613.38
446.908	643.38
447.129	593.38
447.35	602.38
447.571	614.38
447.792	610.38
448.013	605.38
448.234	599.38
448.455	571.38
448.675	583.38
448.896	595.38
449.117	562.38
449.338	585.38
449.559	563.38
449.779	567.38
450	574.38
450.221	587.38
450.442	581.38
450.662	585.38
450.883	571.38
451.104	601.38
451.324	591.38
451.545	601.38
451.766	564.38
451.986	579.38
452.207	579.38
452.428	586.38
452.648	567.38
452.869	558.38
453.089	548.38
453.31	553.38
453.53	541.38
453.751	550.38
453.971	553.38
454.192	545.38
454.412	521.38
454.633	536.38
454.853	537.38
455.073	555.38
455.294	547.38
455.514	548.38
455.734	567.38
455.955	543.38
456.175	551.38
456.395	533.38
456.616	537.38
456.836	547.38
457.056	544.38
457.276	515.38
457.497	550.38
457.717	536.38
457.937	543.38
458.157	561.38
458.377	573.38
458.598	567.38
458.818	561.38
459.038	598.38
459.258	603.38
459.478	610.38
459.698	620.38
459.918	655.38
460.138	659.38
460.358	696.38
460.578	695.38
460.798	681.38
461.018	711.38
461.238	687.38
461.458	699.38
461.678	705.38
461.898	720.38
462.118	707.38
462.338	749.38
462.558	780.38
462.777	779.38
462.997	839.38
463.217	883.38
463.437	837.38
463.657	826.38
463.876	786.38
464.096	791.38
464.316	793.38
464.536	799.38
464.755	757.38
464.975	752.38
465.195	682.38
465.414	693.38
465.634	671.38
465.854	637.38
466.073	645.38
466.293	609.38
466.512	612.38
466.732	594.38
466.951	611.38
467.171	582.38
467.391	606.38
467.61	605.38
467.829	609.38
468.049	578.38
468.268	577.38
468.488	553.38
468.707	582.38
468.927	587.38
469.146	588.38
469.365	588.38
469.585	596.38
469.804	597.38
470.023	607.38
470.243	611.38
470.462	588.38
470.681	612.38
470.901	597.38
471.12	585.38
471.339	605.38
471.558	582.38
471.777	572.38
471.997	568.38
472.216	581.38
472.435	551.38
472.654	545.38
472.873	543.38
473.092	548.38
473.311	549.38
473.53	561.38
473.749	559.38
473.968	543.38
474.187	561.38
474.406	552.38
474.625	561.38
474.844	563.38
475.063	563.38
475.282	559.38
475.501	566.38
475.72	552.38
475.939	567.38
476.158	565.38
476.377	583.38
476.596	599.38
476.814	583.38
477.033	597.38
477.252	599.38
477.471	612.38
477.69	608.38
477.908	603.38
478.127	664.38
478.346	629.38
478.564	658.38
478.783	664.38
479.002	668.38
479.22	680.38
479.439	670.38
479.658	669.38
479.876	673.38
480.095	667.38
480.313	683.38
480.532	710.38
480.751	734.38
480.969	667.38
481.188	652.38
481.406	667.38
481.624	646.38
481.843	649.38
482.061	628.38
482.28	649.38
482.498	650.38
482.717	644.38
482.935	618.38
483.153	626.38
483.372	621.38
483.59	626.38
483.808	635.38
484.027	635.38
484.245	635.38
484.463	642.38
484.681	663.38
484.9	633.38
485.118	644.38
485.336	630.38
485.554	640.38
485.772	644.38
485.99	629.38
486.209	650.38
486.427	645.38
486.645	640.38
486.863	648.38
487.081	618.38
487.299	634.38
487.517	648.38
487.735	639.38
487.953	643.38
488.171	683.38
488.389	644.38
488.607	668.38
488.825	643.38
489.043	640.38
489.261	643.38
489.479	647.38
489.696	645.38
489.914	651.38
490.132	652.38
490.35	673.38
490.568	651.38
490.786	633.38
491.003	653.38
491.221	683.38
491.439	672.38
491.657	666.38
491.874	660.38
492.092	649.38
492.31	676.38
492.527	676.38
492.745	667.38
492.963	700.38
493.18	669.38
493.398	679.38
493.615	665.38
493.833	691.38
494.05	668.38
494.268	707.38
494.485	681.38
494.703	681.38
494.92	717.38
495.138	717.38
495.355	665.38
495.573	706.38
495.79	703.38
496.008	703.38
496.225	721.38
496.442	705.38
496.66	746.38
496.877	719.38
497.094	751.38
497.312	759.38
497.529	757.38
497.746	799.38
497.963	807.38
498.181	844.38
498.398	871.38
498.615	900.38
498.832	941.38
499.049	988.38
499.267	1080.38
499.484	1163.38
499.701	1247.38
499.918	1357.38
500.135	1497.38
500.352	1653.38
500.569	1737.38
500.786	1679.38
501.003	1564.38
501.22	1442.38
501.437	1260.38
501.654	1186.38
501.871	1116.38
502.088	1083.38
502.305	983.38
502.522	939.38
502.739	914.38
502.956	875.38
503.172	833.38
503.389	820.38
503.606	787.38
503.823	782.38
504.04	772.38
504.256	778.38
504.473	789.38
504.69	792.38
504.907	811.38
505.123	756.38
505.34	699.38
505.557	681.38
505.773	674.38
505.99	652.38
506.207	664.38
506.423	625.38
506.64	625.38
506.856	633.38
507.073	631.38
507.289	627.38
507.506	608.38
507.722	608.38
507.939	613.38
508.155	615.38
508.372	577.38
508.588	592.38
508.805	600.38
509.021	604.38
509.238	575.38
509.454	559.38
509.67	582.38
509.887	555.38
510.103	580.38
510.319	545.38
510.536	564.38
510.752	560.38
510.968	562.38
511.184	559.38
511.401	569.38
511.617	559.38
511.833	561.38
512.049	556.38
512.265	557.38
512.481	549.38
512.698	545.38
512.914	548.38
513.13	568.38
513.346	566.38
513.562	563.38
513.778	580.38
513.994	565.38
514.21	562.38
514.426	576.38
514.642	551.38
514.858	564.38
515.074	568.38
515.29	583.38
515.506	573.38
515.721	594.38
515.937	587.38
516.153	593.38
516.369	604.38
516.585	619.38
516.801	631.38
517.016	668.38
517.232	687.38
517.448	714.38
517.664	720.38
517.879	714.38
518.095	721.38
518.311	698.38
518.527	685.38
518.742	668.38
518.958	643.38
519.173	630.38
519.389	627.38
519.605	617.38
519.82	599.38
520.036	580.38
520.251	575.38
520.467	565.38
520.682	611.38
520.898	565.38
521.113	555.38
521.329	550.38
521.544	551.38
521.76	546.38
521.975	544.38
522.19	544.38
522.406	533.38
522.621	524.38
522.836	539.38
523.052	521.38
523.267	529.38
523.482	541.38
523.698	536.38
523.913	531.38
524.128	517.38
524.343	523.38
524.559	505.38
524.774	499.38
524.989	518.38
525.204	499.38
525.419	503.38
525.634	524.38
525.849	509.38
526.064	517.38
526.28	517.38
526.495	489.38
526.71	521.38
526.925	491.38
527.14	498.38
527.355	501.38
527.57	516.38
527.785	497.38
527.999	499.38
528.214	502.38
528.429	513.38
528.644	503.38
528.859	516.38
529.074	501.38
529.289	513.38
529.503	513.38
529.718	525.38
529.933	496.38
530.148	517.38
530.363	499.38
530.577	503.38
530.792	479.38
531.007	483.38
531.221	514.38
531.436	484.38
531.651	480.38
531.865	509.38
532.08	483.38
532.295	507.38
532.509	497.38
532.724	488.38
532.938	498.38
533.153	499.38
533.367	506.38
533.582	517.38
533.796	501.38
534.011	481.38
534.225	497.38
534.44	507.38
534.654	501.38
534.868	489.38
535.083	488.38
535.297	496.38
535.511	477.38
535.726	515.38
535.94	490.38
536.154	501.38
536.369	474.38
536.583	463.38
536.797	454.38
537.011	471.38
537.225	462.38
537.44	450.38
537.654	475.38
537.868	472.38
538.082	457.38
538.296	459.38
538.51	459.38
538.724	442.38
538.938	464.38
539.153	459.38
539.367	463.38
539.581	455.38
539.795	432.38
540.009	448.38
540.222	464.38
540.436	438.38
540.65	463.38
540.864	458.38
541.078	464.38
541.292	461.38
541.506	451.38
541.72	460.38
541.934	466.38
542.147	463.38
542.361	456.38
542.575	466.38
542.789	451.38
543.002	434.38
543.216	454.38
543.43	451.38
543.644	447.38
543.857	444.38
544.071	453.38
544.285	448.38
544.498	475.38
544.712	456.38
544.925	455.38
545.139	442.38
545.352	445.38
545.566	477.38
545.779	468.38
545.993	461.38
546.206	474.38
546.42	473.38
546.633	464.38
546.847	471.38
547.06	465.38
547.274	467.38
547.487	466.38
547.7	464.38
547.914	458.38
548.127	473.38
548.34	479.38
548.554	475.38
548.767	459.38
548.98	451.38
549.193	467.38
549.407	455.38
549.62	476.38
549.833	454.38
550.046	483.38
550.259	468.38
550.473	448.38
550.686	463.38
550.899	443.38
551.112	434.38
551.325	462.38
551.538	443.38
551.751	438.38
551.964	462.38
552.177	459.38
552.39	469.38
552.603	471.38
552.816	485.38
553.029	484.38
553.242	466.38
553.455	497.38
553.667	505.38
553.88	490.38
554.093	473.38
554.306	460.38
554.519	452.38
554.732	452.38
554.944	463.38
555.157	443.38
555.37	437.38
555.583	455.38
555.795	424.38
556.008	433.38
556.221	393.38
556.433	405.38
556.646	427.38
556.859	425.38
557.071	425.38
557.284	420.38
557.496	385.38
557.709	393.38
557.921	398.38
558.134	390.38
558.346	391.38
558.559	393.38
558.771	388.38
558.984	408.38
559.196	378.38
559.409	392.38
559.621	404.38
559.833	406.38
560.046	403.38
560.258	391.38
560.47	397.38
560.683	409.38
560.895	408.38
561.107	377.38
561.32	403.38
561.532	390.38
561.744	398.38
561.956	384.38
562.168	387.38
562.381	379.38
562.593	376.38
562.805	389.38
563.017	389.38
563.229	398.38
563.441	410.38
563.653	392.38
563.865	396.38
564.077	395.38
564.289	426.38
564.501	422.38
564.713	415.38
564.925	435.38
565.137	409.38
565.349	434.38
565.561	433.38
565.773	444.38
565.985	470.38
566.197	490.38
566.408	491.38
566.62	534.38
566.832	565.38
567.044	577.38
567.255	563.38
567.467	590.38
567.679	603.38
567.891	649.38
568.102	658.38
568.314	634.38
568.526	579.38
568.737	532.38
568.949	512.38
569.161	479.38
569.372	440.38
569.584	437.38
569.795	415.38
570.007	411.38
570.218	389.38
570.43	379.38
570.641	386.38
570.853	391.38
571.064	387.38
571.276	405.38
571.487	389.38
571.698	387.38
571.91	376.38
572.121	368.38
572.333	334.38
572.544	354.38
572.755	333.38
572.966	344.38
573.178	335.38
573.389	330.38
573.6	331.38
573.811	330.38
574.023	332.38
574.234	321.38
574.445	343.38
574.656	314.38
574.867	307.38
575.078	323.38
575.289	330.38
575.501	330.38
575.712	322.38
575.923	321.38
576.134	311.38
576.345	309.38
576.556	291.38
576.767	294.38
576.978	298.38
577.188	331.38
577.399	288.38
577.61	301.38
577.821	288.38
578.032	311.38
578.243	303.38
578.454	286.38
578.665	294.38
578.875	288.38
579.086	294.38
579.297	298.38
579.508	290.38
579.718	311.38
579.929	291.38
580.14	285.38
580.35	275.38
580.561	283.38
580.772	292.38
580.982	299.38
581.193	298.38
581.403	299.38
581.614	301.38
581.825	288.38
582.035	283.38
582.246	280.38
582.456	288.38
582.667	287.38
582.877	278.38
583.087	282.38
583.298	284.38
583.508	271.38
583.719	266.38
583.929	259.38
584.139	266.38
584.35	267.38
584.56	261.38
584.77	275.38
584.981	267.38
585.191	259.38
585.401	278.38
585.611	277.38
585.821	261.38
586.032	269.38
586.242	257.38
586.452	273.38
586.662	274.38
586.872	280.38
587.082	272.38
587.292	280.38
587.502	265.38
587.713	275.38
587.923	269.38
588.133	279.38
588.343	264.38
588.553	254.38
588.762	276.38
588.972	286.38
589.182	263.38
589.392	266.38
589.602	270.38
589.812	262.38
590.022	283.38
590.232	274.38
590.441	281.38
590.651	276.38
590.861	270.38
591.071	273.38
591.281	274.38
591.49	273.38
591.7	283.38
591.91	296.38
592.119	284.38
592.329	300.38
592.539	301.38
592.748	283.38
592.958	290.38
593.167	304.38
593.377	305.38
593.587	320.38
593.796	310.38
594.006	328.38
594.215	319.38
594.424	333.38
594.634	336.38
594.843	292.38
595.053	289.38
595.262	285.38
595.472	288.38
595.681	267.38
595.89	249.38
596.1	251.38
596.309	268.38
596.518	255.38
596.727	252.38
596.937	251.38
597.146	241.38
597.355	256.38
597.564	255.38
597.774	214.38
597.983	242.38
598.192	233.38
598.401	231.38
598.61	242.38
598.819	257.38
599.028	248.38
599.237	232.38
599.446	244.38
599.655	234.38
599.864	221.38
600.073	224.38
600.282	240.38
600.491	222.38
600.7	238.38
600.909	231.38
601.118	227.38
601.327	223.38
601.536	228.38
601.745	231.38
601.953	240.38
602.162	232.38
602.371	223.38
602.58	244.38
602.789	221.38
602.997	222.38
603.206	235.38
603.415	240.38
603.623	221.38
603.832	200.38
604.041	227.38
604.249	218.38
604.458	203.38
604.666	219.38
604.875	225.38
605.084	222.38
605.292	221.38
605.501	234.38
605.709	212.38
605.918	220.38
606.126	209.38
606.334	217.38
606.543	228.38
606.751	219.38
606.96	210.38
607.168	207.38
607.376	207.38
607.585	215.38
607.793	212.38
608.001	195.38
608.21	214.38
608.418	211.38
608.626	214.38
608.834	214.38
609.043	221.38
609.251	239.38
609.459	207.38
609.667	207.38
609.875	212.38
610.083	197.38
610.291	211.38
610.499	211.38
610.707	211.38
610.916	223.38
611.124	212.38
611.332	207.38
611.54	194.38
611.748	187.38
611.955	216.38
612.163	203.38
612.371	210.38
612.579	216.38
612.787	181.38
612.995	208.38
613.203	195.38
613.411	204.38
613.618	197.38
613.826	205.38
614.034	191.38
614.242	203.38
614.449	213.38
614.657	212.38
614.865	195.38
615.072	197.38
615.28	205.38
615.488	200.38
615.695	227.38
615.903	212.38
616.111	184.38
616.318	213.38
616.526	220.38
616.733	207.38
616.941	196.38
617.148	200.38
617.356	198.38
617.563	201.38
617.771	216.38
617.978	202.38
618.185	189.38
618.393	196.38
618.6	204.38
618.807	212.38
619.015	210.38
619.222	219.38
619.429	211.38
619.637	195.38
619.844	213.38
620.051	188.38
620.258	201.38
620.466	179.38
620.673	196.38
620.88	206.38
621.087	179.38
621.294	184.38
621.501	199.38
621.708	179.38
621.915	189.38
622.122	199.38
622.329	189.38
622.536	178.38
622.743	186.38
622.95	193.38
623.157	180.38
623.364	172.38
623.571	195.38
623.778	195.38
623.985	188.38
624.192	201.38
624.399	192.38
624.606	188.38
624.812	183.38
625.019	184.38
625.226	187.38
625.433	198.38
625.639	177.38
625.846	188.38
626.053	173.38
626.259	175.38
626.466	185.38
626.673	179.38
626.879	169.38
627.086	181.38
627.293	186.38
627.499	183.38
627.706	177.38
627.912	179.38
628.119	190.38
628.325	177.38
628.532	172.38
628.738	159.38
628.945	169.38
629.151	168.38
629.357	172.38
629.564	177.38
629.77	169.38
629.976	151.38
630.183	163.38
630.389	163.38
630.595	167.38
630.802	183.38
631.008	172.38
631.214	166.38
631.42	169.38
631.627	158.38
631.833	156.38
632.039	170.38
632.245	158.38
632.451	152.38
632.657	154.38
632.863	165.38
633.069	165.38
633.275	165.38
633.481	160.38
633.688	157.38
633.893	161.38
634.099	162.38
634.305	153.38
634.511	155.38
634.717	159.38
634.923	169.38
635.129	159.38
635.335	161.38
635.541	147.38
635.747	163.38
635.952	162.38
636.158	152.38
636.364	167.38
636.57	164.38
636.775	168.38
636.981	164.38
637.187	165.38
637.392	153.38
637.598	137.38
637.804	142.38
638.009	162.38
638.215	147.38
638.421	162.38
638.626	163.38
638.832	143.38
639.037	158.38
639.243	153.38
639.448	147.38
639.654	150.38
639.859	143.38
640.065	149.38
640.27	142.38
640.475	160.38
640.681	158.38
640.886	157.38
641.091	140.38
641.297	147.38
641.502	143.38
641.707	152.38
641.913	159.38
642.118	157.38
642.323	153.38
642.528	164.38
642.733	145.38
642.939	138.38
643.144	153.38
643.349	143.38
643.554	156.38
643.759	146.38
643.964	152.38
644.169	143.38
644.374	161.38
644.579	140.38
644.784	137.38
644.989	155.38
645.194	147.38
645.399	168.38
645.604	145.38
645.809	140.38
646.014	125.38
646.219	146.38
646.423	149.38
646.628	131.38
646.833	139.38
647.038	152.38
647.243	149.38
647.447	157.38
647.652	154.38
647.857	147.38
648.062	140.38
648.266	154.38
648.471	136.38
648.676	163.38
648.88	160.38
649.085	151.38
649.289	143.38
649.494	141.38
649.698	142.38
649.903	139.38
650.107	158.38
650.312	148.38
650.516	139.38
650.721	151.38
650.925	151.38
651.13	126.38
651.334	140.38
651.539	135.38
651.743	152.38
651.947	130.38
652.152	141.38
652.356	126.38
652.56	137.38
652.764	142.38
652.969	127.38
653.173	123.38
653.377	126.38
653.581	130.38
653.785	125.38
653.99	126.38
654.194	136.38
654.398	130.38
654.602	130.38
654.806	113.38
655.01	122.38
655.214	116.38
655.418	124.38
655.622	122.38
655.826	128.38
656.03	123.38
656.234	115.38
656.438	116.38
656.642	118.38
656.846	116.38
657.049	119.38
657.253	111.38
657.457	103.38
657.661	108.38
657.865	97.38
658.068	106.38
658.272	99.38
658.476	106.38
658.68	108.38
658.883	95.38
659.087	106.38
659.291	99.38
659.494	107.38
659.698	98.38
659.901	93.38
660.105	90.38
660.309	104.38
660.512	81.38
660.716	95.38
660.919	96.38
661.123	100.38
661.326	92.38
661.53	92.38
661.733	83.38
661.936	77.38
662.14	90.38
662.343	92.38
662.546	77.38
662.75	94.38
662.953	85.38
663.156	102.38
663.36	86.38
663.563	87.38
663.766	86.38
663.969	87.38
664.173	73.38
664.376	84.38
664.579	78.38
664.782	104.38
664.985	90.38
665.188	84.38
665.391	59.38
665.594	80.38
665.797	88.38
666	71.38
666.203	86.38
666.406	83.38
666.609	71.38
666.812	70.38
667.015	74.38
667.218	98.38
667.421	88.38
667.624	79.38
667.827	92.38
668.03	85.38
668.232	67.38
668.435	83.38
668.638	89.38
668.841	93.38
669.043	92.38
669.246	91.38
669.449	85.38
669.651	89.38
669.854	89.38
670.057	76.38
670.259	81.38
670.462	83.38
670.665	91.38
670.867	75.38
671.07	93.38
671.272	83.38
671.475	93.38
671.677	97.38
671.88	93.38
672.082	75.38
672.284	87.38
672.487	91.38
672.689	82.38
672.892	77.38
