Data from Fe(NO3)3@0.0125M.TitratingCurve.Agarose3%dH2O.NegLispCup.LampEnergy10.LIBS07252019_HRD10591_16-58-53-337.txt Node
Date: Thu Jul 25 16:58:53 EDT 2019
User: cochatt
Spectrometer: HR+D1059
Trigger mode: 1
Integration Time (sec): 1.000000E-1
Scans to average: 1
Electric dark correction enabled: true
Nonlinearity correction enabled: false
Boxcar width: 0
XAxis mode: Wavelengths
Number of Pixels in Spectrum: 2048
>>>>>Begin Spectral Data<<<<<
223.165	-8.06
223.4	-8.06
223.635	-8.06
223.869	-7.06
224.104	-29.06
224.338	-10.06
224.573	-18.06
224.808	-4.06
225.042	-10.06
225.277	-12.06
225.511	-2.06
225.746	2.94
225.98	12.94
226.215	15.94
226.449	12.94
226.683	15.94
226.918	19.94
227.152	19.94
227.387	37.94
227.621	23.94
227.856	44.94
228.09	55.94
228.324	40.94
228.559	47.94
228.793	59.94
229.027	69.94
229.262	86.94
229.496	107.94
229.73	98.94
229.964	112.94
230.199	124.94
230.433	112.94
230.667	103.94
230.901	97.94
231.136	114.94
231.37	115.94
231.604	127.94
231.838	108.94
232.072	124.94
232.306	128.94
232.541	111.94
232.775	128.94
233.009	128.94
233.243	123.94
233.477	121.94
233.711	135.94
233.945	137.94
234.179	123.94
234.413	123.94
234.647	130.94
234.881	125.94
235.115	132.94
235.349	143.94
235.583	130.94
235.817	129.94
236.051	123.94
236.285	148.94
236.519	116.94
236.753	140.94
236.987	135.94
237.221	139.94
237.455	144.94
237.689	138.94
237.922	134.94
238.156	141.94
238.39	129.94
238.624	155.94
238.858	159.94
239.091	158.94
239.325	152.94
239.559	161.94
239.793	156.94
240.027	167.94
240.26	143.94
240.494	155.94
240.728	166.94
240.961	171.94
241.195	154.94
241.429	172.94
241.662	180.94
241.896	165.94
242.13	168.94
242.363	164.94
242.597	160.94
242.83	161.94
243.064	169.94
243.298	175.94
243.531	178.94
243.765	174.94
243.998	162.94
244.232	176.94
244.465	195.94
244.699	173.94
244.932	185.94
245.166	182.94
245.399	193.94
245.633	179.94
245.866	188.94
246.099	183.94
246.333	189.94
246.566	176.94
246.8	193.94
247.033	200.94
247.266	208.94
247.5	197.94
247.733	183.94
247.966	212.94
248.2	216.94
248.433	195.94
248.666	197.94
248.899	193.94
249.133	206.94
249.366	219.94
249.599	214.94
249.832	207.94
250.066	227.94
250.299	223.94
250.532	212.94
250.765	198.94
250.998	201.94
251.231	213.94
251.465	223.94
251.698	222.94
251.931	224.94
252.164	216.94
252.397	216.94
252.63	238.94
252.863	243.94
253.096	246.94
253.329	235.94
253.562	232.94
253.795	220.94
254.028	273.94
254.261	245.94
254.494	249.94
254.727	221.94
254.96	235.94
255.193	247.94
255.426	254.94
255.659	249.94
255.892	252.94
256.124	237.94
256.357	249.94
256.59	240.94
256.823	263.94
257.056	250.94
257.289	247.94
257.521	259.94
257.754	250.94
257.987	269.94
258.22	273.94
258.452	283.94
258.685	277.94
258.918	279.94
259.151	262.94
259.383	254.94
259.616	268.94
259.849	283.94
260.081	301.94
260.314	299.94
260.547	278.94
260.779	283.94
261.012	284.94
261.244	281.94
261.477	302.94
261.71	309.94
261.942	300.94
262.175	283.94
262.407	303.94
262.64	278.94
262.872	301.94
263.105	299.94
263.337	317.94
263.57	304.94
263.802	302.94
264.035	289.94
264.267	288.94
264.499	289.94
264.732	291.94
264.964	286.94
265.197	293.94
265.429	306.94
265.661	303.94
265.894	311.94
266.126	308.94
266.358	308.94
266.591	314.94
266.823	331.94
267.055	321.94
267.287	322.94
267.52	311.94
267.752	330.94
267.984	312.94
268.216	332.94
268.448	326.94
268.681	313.94
268.913	323.94
269.145	327.94
269.377	313.94
269.609	332.94
269.841	320.94
270.073	321.94
270.306	329.94
270.538	309.94
270.77	344.94
271.002	329.94
271.234	340.94
271.466	317.94
271.698	322.94
271.93	334.94
272.162	363.94
272.394	342.94
272.626	351.94
272.858	349.94
273.09	351.94
273.322	357.94
273.553	367.94
273.785	358.94
274.017	381.94
274.249	389.94
274.481	376.94
274.713	391.94
274.945	376.94
275.176	392.94
275.408	403.94
275.64	369.94
275.872	385.94
276.104	377.94
276.335	381.94
276.567	368.94
276.799	367.94
277.031	371.94
277.262	374.94
277.494	379.94
277.726	394.94
277.957	385.94
278.189	393.94
278.421	408.94
278.652	383.94
278.884	394.94
279.115	405.94
279.347	404.94
279.579	408.94
279.81	388.94
280.042	401.94
280.273	404.94
280.505	432.94
280.736	413.94
280.968	394.94
281.199	397.94
281.431	397.94
281.662	423.94
281.894	391.94
282.125	434.94
282.356	429.94
282.588	426.94
282.819	409.94
283.051	413.94
283.282	420.94
283.513	422.94
283.745	427.94
283.976	431.94
284.207	429.94
284.439	440.94
284.67	415.94
284.901	435.94
285.132	421.94
285.364	421.94
285.595	429.94
285.826	432.94
286.057	428.94
286.288	437.94
286.52	443.94
286.751	444.94
286.982	438.94
287.213	435.94
287.444	425.94
287.675	441.94
287.906	446.94
288.138	468.94
288.369	441.94
288.6	441.94
288.831	472.94
289.062	444.94
289.293	461.94
289.524	460.94
289.755	475.94
289.986	452.94
290.217	458.94
290.448	468.94
290.679	469.94
290.91	469.94
291.141	451.94
291.371	475.94
291.602	467.94
291.833	455.94
292.064	453.94
292.295	475.94
292.526	470.94
292.757	467.94
292.987	471.94
293.218	468.94
293.449	472.94
293.68	477.94
293.91	471.94
294.141	487.94
294.372	494.94
294.603	477.94
294.833	463.94
295.064	467.94
295.295	483.94
295.525	471.94
295.756	487.94
295.987	495.94
296.217	484.94
296.448	484.94
296.679	496.94
296.909	484.94
297.14	509.94
297.37	532.94
297.601	502.94
297.831	502.94
298.062	513.94
298.292	487.94
298.523	532.94
298.753	520.94
298.984	495.94
299.214	527.94
299.445	527.94
299.675	520.94
299.905	524.94
300.136	531.94
300.366	532.94
300.597	510.94
300.827	515.94
301.057	509.94
301.288	529.94
301.518	528.94
301.748	533.94
301.979	538.94
302.209	548.94
302.439	562.94
302.669	529.94
302.9	537.94
303.13	543.94
303.36	527.94
303.59	525.94
303.82	549.94
304.051	576.94
304.281	533.94
304.511	535.94
304.741	574.94
304.971	563.94
305.201	528.94
305.431	525.94
305.661	547.94
305.891	539.94
306.121	561.94
306.352	555.94
306.582	561.94
306.812	548.94
307.042	559.94
307.272	572.94
307.502	571.94
307.731	577.94
307.961	571.94
308.191	561.94
308.421	565.94
308.651	572.94
308.881	567.94
309.111	542.94
309.341	543.94
309.571	561.94
309.8	550.94
310.03	567.94
310.26	583.94
310.49	573.94
310.72	581.94
310.949	602.94
311.179	590.94
311.409	588.94
311.639	590.94
311.868	609.94
312.098	601.94
312.328	598.94
312.557	600.94
312.787	605.94
313.017	598.94
313.246	597.94
313.476	597.94
313.706	604.94
313.935	621.94
314.165	593.94
314.394	614.94
314.624	622.94
314.853	602.94
315.083	614.94
315.312	622.94
315.542	625.94
315.771	629.94
316.001	632.94
316.23	616.94
316.46	621.94
316.689	615.94
316.919	623.94
317.148	633.94
317.377	592.94
317.607	597.94
317.836	611.94
318.065	640.94
318.295	631.94
318.524	621.94
318.753	629.94
318.983	627.94
319.212	626.94
319.441	629.94
319.67	633.94
319.9	639.94
320.129	640.94
320.358	655.94
320.587	650.94
320.816	639.94
321.046	655.94
321.275	655.94
321.504	657.94
321.733	653.94
321.962	645.94
322.191	653.94
322.42	637.94
322.649	683.94
322.878	644.94
323.108	638.94
323.337	671.94
323.566	652.94
323.795	660.94
324.024	656.94
324.253	687.94
324.482	670.94
324.71	670.94
324.939	687.94
325.168	669.94
325.397	671.94
325.626	686.94
325.855	649.94
326.084	688.94
326.313	713.94
326.542	687.94
326.77	699.94
326.999	683.94
327.228	659.94
327.457	686.94
327.686	702.94
327.914	694.94
328.143	664.94
328.372	692.94
328.6	690.94
328.829	694.94
329.058	685.94
329.287	694.94
329.515	720.94
329.744	713.94
329.972	699.94
330.201	688.94
330.43	697.94
330.658	671.94
330.887	689.94
331.115	689.94
331.344	720.94
331.572	684.94
331.801	701.94
332.03	685.94
332.258	712.94
332.486	703.94
332.715	726.94
332.943	728.94
333.172	731.94
333.4	723.94
333.629	706.94
333.857	721.94
334.085	756.94
334.314	743.94
334.542	753.94
334.771	753.94
334.999	796.94
335.227	785.94
335.455	756.94
335.684	745.94
335.912	755.94
336.14	765.94
336.369	761.94
336.597	747.94
336.825	772.94
337.053	759.94
337.281	792.94
337.51	737.94
337.738	752.94
337.966	767.94
338.194	739.94
338.422	731.94
338.65	759.94
338.878	745.94
339.106	771.94
339.334	743.94
339.562	752.94
339.79	728.94
340.018	742.94
340.246	759.94
340.474	725.94
340.702	711.94
340.93	744.94
341.158	737.94
341.386	719.94
341.614	719.94
341.842	744.94
342.07	745.94
342.298	727.94
342.526	721.94
342.754	733.94
342.981	754.94
343.209	737.94
343.437	753.94
343.665	782.94
343.893	754.94
344.12	752.94
344.348	758.94
344.576	751.94
344.804	768.94
345.031	740.94
345.259	732.94
345.487	725.94
345.714	739.94
345.942	739.94
346.17	741.94
346.397	752.94
346.625	748.94
346.853	760.94
347.08	708.94
347.308	726.94
347.535	697.94
347.763	707.94
347.99	713.94
348.218	710.94
348.445	694.94
348.673	666.94
348.9	721.94
349.128	715.94
349.355	704.94
349.583	736.94
349.81	737.94
350.037	732.94
350.265	711.94
350.492	705.94
350.72	716.94
350.947	695.94
351.174	704.94
351.402	720.94
351.629	691.94
351.856	730.94
352.083	735.94
352.311	679.94
352.538	711.94
352.765	702.94
352.992	714.94
353.22	722.94
353.447	713.94
353.674	704.94
353.901	736.94
354.128	719.94
354.355	692.94
354.583	697.94
354.81	724.94
355.037	728.94
355.264	719.94
355.491	710.94
355.718	706.94
355.945	706.94
356.172	718.94
356.399	696.94
356.626	703.94
356.853	703.94
357.08	723.94
357.307	706.94
357.534	740.94
357.761	724.94
357.988	732.94
358.215	707.94
358.441	712.94
358.668	707.94
358.895	723.94
359.122	733.94
359.349	741.94
359.576	708.94
359.802	704.94
360.029	731.94
360.256	693.94
360.483	709.94
360.709	723.94
360.936	744.94
361.163	720.94
361.39	721.94
361.616	715.94
361.843	716.94
362.07	704.94
362.296	708.94
362.523	722.94
362.749	700.94
362.976	757.94
363.203	737.94
363.429	740.94
363.656	740.94
363.882	713.94
364.109	734.94
364.335	717.94
364.562	715.94
364.788	735.94
365.015	728.94
365.241	734.94
365.468	751.94
365.694	738.94
365.92	744.94
366.147	727.94
366.373	728.94
366.599	732.94
366.826	758.94
367.052	744.94
367.278	738.94
367.505	734.94
367.731	728.94
367.957	738.94
368.184	746.94
368.41	749.94
368.636	748.94
368.862	767.94
369.089	752.94
369.315	794.94
369.541	761.94
369.767	769.94
369.993	774.94
370.219	743.94
370.445	773.94
370.672	759.94
370.898	773.94
371.124	755.94
371.35	756.94
371.576	754.94
371.802	743.94
372.028	749.94
372.254	767.94
372.48	787.94
372.706	808.94
372.932	769.94
373.158	759.94
373.384	778.94
373.61	790.94
373.835	788.94
374.061	766.94
374.287	754.94
374.513	751.94
374.739	769.94
374.965	818.94
375.191	787.94
375.416	813.94
375.642	777.94
375.868	783.94
376.094	794.94
376.319	763.94
376.545	751.94
376.771	775.94
376.997	784.94
377.222	763.94
377.448	756.94
377.674	787.94
377.899	789.94
378.125	780.94
378.35	765.94
378.576	765.94
378.802	739.94
379.027	748.94
379.253	761.94
379.478	759.94
379.704	759.94
379.929	786.94
380.155	797.94
380.38	766.94
380.606	780.94
380.831	756.94
381.057	769.94
381.282	794.94
381.507	771.94
381.733	803.94
381.958	778.94
382.184	804.94
382.409	762.94
382.634	773.94
382.86	801.94
383.085	815.94
383.31	775.94
383.535	784.94
383.761	766.94
383.986	819.94
384.211	814.94
384.436	798.94
384.662	812.94
384.887	817.94
385.112	812.94
385.337	807.94
385.562	837.94
385.787	839.94
386.013	841.94
386.238	837.94
386.463	829.94
386.688	857.94
386.913	838.94
387.138	831.94
387.363	842.94
387.588	854.94
387.813	818.94
388.038	821.94
388.263	839.94
388.488	836.94
388.713	831.94
388.938	851.94
389.163	831.94
389.387	815.94
389.612	854.94
389.837	849.94
390.062	831.94
390.287	857.94
390.512	831.94
390.736	846.94
390.961	853.94
391.186	864.94
391.411	856.94
391.636	843.94
391.86	865.94
392.085	867.94
392.31	825.94
392.534	868.94
392.759	848.94
392.984	876.94
393.208	867.94
393.433	877.94
393.658	883.94
393.882	872.94
394.107	865.94
394.331	856.94
394.556	861.94
394.78	897.94
395.005	875.94
395.229	868.94
395.454	876.94
395.678	899.94
395.903	880.94
396.127	853.94
396.352	886.94
396.576	888.94
396.801	895.94
397.025	893.94
397.249	916.94
397.474	911.94
397.698	913.94
397.922	916.94
398.147	923.94
398.371	936.94
398.595	931.94
398.82	944.94
399.044	947.94
399.268	959.94
399.492	989.94
399.717	976.94
399.941	989.94
400.165	997.94
400.389	999.94
400.613	992.94
400.837	960.94
401.062	938.94
401.286	945.94
401.51	939.94
401.734	930.94
401.958	952.94
402.182	930.94
402.406	941.94
402.63	942.94
402.854	936.94
403.078	939.94
403.302	933.94
403.526	929.94
403.75	923.94
403.974	963.94
404.198	931.94
404.422	956.94
404.645	956.94
404.869	969.94
405.093	935.94
405.317	967.94
405.541	988.94
405.765	960.94
405.988	964.94
406.212	996.94
406.436	982.94
406.66	982.94
406.883	944.94
407.107	980.94
407.331	999.94
407.555	1017.94
407.778	1021.94
408.002	987.94
408.226	1022.94
408.449	1019.94
408.673	1005.94
408.896	997.94
409.12	979.94
409.344	1003.94
409.567	981.94
409.791	1009.94
410.014	960.94
410.238	975.94
410.461	1005.94
410.685	969.94
410.908	985.94
411.132	953.94
411.355	950.94
411.578	963.94
411.802	932.94
412.025	941.94
412.249	946.94
412.472	961.94
412.695	952.94
412.919	961.94
413.142	975.94
413.365	927.94
413.589	946.94
413.812	945.94
414.035	962.94
414.258	972.94
414.482	916.94
414.705	941.94
414.928	952.94
415.151	905.94
415.374	902.94
415.597	900.94
415.821	896.94
416.044	902.94
416.267	906.94
416.49	911.94
416.713	905.94
416.936	901.94
417.159	898.94
417.382	897.94
417.605	902.94
417.828	860.94
418.051	899.94
418.274	893.94
418.497	887.94
418.72	887.94
418.943	861.94
419.166	891.94
419.389	963.94
419.611	944.94
419.834	933.94
420.057	913.94
420.28	894.94
420.503	887.94
420.726	897.94
420.948	899.94
421.171	885.94
421.394	871.94
421.617	880.94
421.839	893.94
422.062	887.94
422.285	879.94
422.507	889.94
422.73	863.94
422.953	853.94
423.175	886.94
423.398	883.94
423.621	862.94
423.843	875.94
424.066	868.94
424.288	877.94
424.511	866.94
424.733	877.94
424.956	872.94
425.178	846.94
425.401	876.94
425.623	876.94
425.846	851.94
426.068	857.94
426.291	868.94
426.513	879.94
426.735	886.94
426.958	886.94
427.18	859.94
427.402	863.94
427.625	854.94
427.847	864.94
428.069	854.94
428.292	886.94
428.514	860.94
428.736	835.94
428.958	886.94
429.181	826.94
429.403	864.94
429.625	855.94
429.847	843.94
430.069	813.94
430.292	856.94
430.514	855.94
430.736	839.94
430.958	850.94
431.18	861.94
431.402	875.94
431.624	850.94
431.846	849.94
432.068	839.94
432.29	869.94
432.512	858.94
432.734	865.94
432.956	856.94
433.178	855.94
433.4	846.94
433.622	837.94
433.844	848.94
434.066	864.94
434.287	864.94
434.509	867.94
434.731	865.94
434.953	872.94
435.175	860.94
435.397	875.94
435.618	857.94
435.84	863.94
436.062	858.94
436.284	854.94
436.505	828.94
436.727	818.94
436.949	835.94
437.17	829.94
437.392	828.94
437.614	825.94
437.835	837.94
438.057	809.94
438.278	823.94
438.5	846.94
438.721	816.94
438.943	832.94
439.165	815.94
439.386	832.94
439.608	844.94
439.829	833.94
440.05	827.94
440.272	809.94
440.493	821.94
440.715	829.94
440.936	853.94
441.158	848.94
441.379	846.94
441.6	839.94
441.822	811.94
442.043	863.94
442.264	860.94
442.486	856.94
442.707	832.94
442.928	840.94
443.149	839.94
443.371	840.94
443.592	835.94
443.813	861.94
444.034	849.94
444.255	888.94
444.476	876.94
444.698	862.94
444.919	863.94
445.14	941.94
445.361	895.94
445.582	848.94
445.803	838.94
446.024	843.94
446.245	824.94
446.466	831.94
446.687	806.94
446.908	802.94
447.129	784.94
447.35	814.94
447.571	805.94
447.792	786.94
448.013	780.94
448.234	799.94
448.455	792.94
448.675	817.94
448.896	767.94
449.117	763.94
449.338	762.94
449.559	783.94
449.779	803.94
450	792.94
450.221	763.94
450.442	790.94
450.662	755.94
450.883	784.94
451.104	789.94
451.324	774.94
451.545	749.94
451.766	727.94
451.986	777.94
452.207	775.94
452.428	774.94
452.648	776.94
452.869	763.94
453.089	729.94
453.31	770.94
453.53	763.94
453.751	759.94
453.971	751.94
454.192	775.94
454.412	743.94
454.633	775.94
454.853	757.94
455.073	754.94
455.294	746.94
455.514	756.94
455.734	798.94
455.955	750.94
456.175	763.94
456.395	748.94
456.616	723.94
456.836	736.94
457.056	756.94
457.276	733.94
457.497	767.94
457.717	755.94
457.937	729.94
458.157	767.94
458.377	771.94
458.598	772.94
458.818	775.94
459.038	781.94
459.258	786.94
459.478	804.94
459.698	794.94
459.918	813.94
460.138	837.94
460.358	826.94
460.578	836.94
460.798	869.94
461.018	845.94
461.238	854.94
461.458	833.94
461.678	851.94
461.898	880.94
462.118	877.94
462.338	888.94
462.558	911.94
462.777	904.94
462.997	915.94
463.217	918.94
463.437	924.94
463.657	903.94
463.876	889.94
464.096	908.94
464.316	895.94
464.536	892.94
464.755	893.94
464.975	865.94
465.195	867.94
465.414	837.94
465.634	835.94
465.854	840.94
466.073	820.94
466.293	832.94
466.512	819.94
466.732	827.94
466.951	809.94
467.171	839.94
467.391	831.94
467.61	813.94
467.829	804.94
468.049	806.94
468.268	807.94
468.488	814.94
468.707	789.94
468.927	815.94
469.146	819.94
469.365	794.94
469.585	810.94
469.804	827.94
470.023	820.94
470.243	805.94
470.462	814.94
470.681	821.94
470.901	828.94
471.12	821.94
471.339	814.94
471.558	807.94
471.777	805.94
471.997	823.94
472.216	833.94
472.435	828.94
472.654	800.94
472.873	817.94
473.092	839.94
473.311	860.94
473.53	849.94
473.749	823.94
473.968	835.94
474.187	852.94
474.406	827.94
474.625	849.94
474.844	838.94
475.063	837.94
475.282	849.94
475.501	873.94
475.72	870.94
475.939	902.94
476.158	863.94
476.377	904.94
476.596	885.94
476.814	899.94
477.033	895.94
477.252	870.94
477.471	917.94
477.69	905.94
477.908	920.94
478.127	911.94
478.346	914.94
478.564	943.94
478.783	935.94
479.002	939.94
479.22	977.94
479.439	979.94
479.658	977.94
479.876	969.94
480.095	977.94
480.313	982.94
480.532	983.94
480.751	992.94
480.969	992.94
481.188	1006.94
481.406	1008.94
481.624	974.94
481.843	974.94
482.061	981.94
482.28	1008.94
482.498	994.94
482.717	965.94
482.935	1017.94
483.153	1001.94
483.372	992.94
483.59	982.94
483.808	988.94
484.027	1009.94
484.245	1019.94
484.463	1019.94
484.681	1016.94
484.9	1003.94
485.118	1033.94
485.336	1019.94
485.554	1031.94
485.772	1054.94
485.99	1010.94
486.209	1010.94
486.427	1020.94
486.645	992.94
486.863	1050.94
487.081	1027.94
487.299	1040.94
487.517	1020.94
487.735	1029.94
487.953	1032.94
488.171	1046.94
488.389	1026.94
488.607	1004.94
488.825	1036.94
489.043	1026.94
489.261	1036.94
489.479	1030.94
489.696	1052.94
489.914	1054.94
490.132	1047.94
490.35	1029.94
490.568	1047.94
490.786	1042.94
491.003	1037.94
491.221	1058.94
491.439	1025.94
491.657	1013.94
491.874	1025.94
492.092	1052.94
492.31	1050.94
492.527	1036.94
492.745	1007.94
492.963	1064.94
493.18	1050.94
493.398	1058.94
493.615	1051.94
493.833	1030.94
494.05	1101.94
494.268	1058.94
494.485	1042.94
494.703	1065.94
494.92	1082.94
495.138	1069.94
495.355	1081.94
495.573	1087.94
495.79	1069.94
496.008	1086.94
496.225	1080.94
496.442	1117.94
496.66	1095.94
496.877	1104.94
497.094	1116.94
497.312	1132.94
497.529	1139.94
497.746	1152.94
497.963	1149.94
498.181	1183.94
498.398	1204.94
498.615	1214.94
498.832	1262.94
499.049	1219.94
499.267	1279.94
499.484	1280.94
499.701	1343.94
499.918	1380.94
500.135	1412.94
500.352	1421.94
500.569	1443.94
500.786	1433.94
501.003	1444.94
501.22	1381.94
501.437	1351.94
501.654	1323.94
501.871	1301.94
502.088	1252.94
502.305	1258.94
502.522	1181.94
502.739	1220.94
502.956	1186.94
503.172	1159.94
503.389	1129.94
503.606	1138.94
503.823	1102.94
504.04	1113.94
504.256	1097.94
504.473	1081.94
504.69	1084.94
504.907	1058.94
505.123	1046.94
505.34	1035.94
505.557	1015.94
505.773	1042.94
505.99	1000.94
506.207	1001.94
506.423	1008.94
506.64	971.94
506.856	962.94
507.073	963.94
507.289	971.94
507.506	944.94
507.722	960.94
507.939	956.94
508.155	927.94
508.372	951.94
508.588	931.94
508.805	953.94
509.021	919.94
509.238	890.94
509.454	916.94
509.67	908.94
509.887	876.94
510.103	909.94
510.319	899.94
510.536	913.94
510.752	901.94
510.968	894.94
511.184	887.94
511.401	894.94
511.617	887.94
511.833	889.94
512.049	855.94
512.265	840.94
512.481	881.94
512.698	877.94
512.914	852.94
513.13	867.94
513.346	880.94
513.562	887.94
513.778	862.94
513.994	904.94
514.21	891.94
514.426	898.94
514.642	875.94
514.858	904.94
515.074	875.94
515.29	891.94
515.506	868.94
515.721	929.94
515.937	892.94
516.153	902.94
516.369	877.94
516.585	893.94
516.801	903.94
517.016	916.94
517.232	915.94
517.448	958.94
517.664	922.94
517.879	895.94
518.095	902.94
518.311	927.94
518.527	906.94
518.742	865.94
518.958	887.94
519.173	883.94
519.389	869.94
519.605	884.94
519.82	895.94
520.036	923.94
520.251	879.94
520.467	870.94
520.682	853.94
520.898	832.94
521.113	827.94
521.329	841.94
521.544	842.94
521.76	833.94
521.975	827.94
522.19	826.94
522.406	811.94
522.621	821.94
522.836	828.94
523.052	811.94
523.267	832.94
523.482	802.94
523.698	789.94
523.913	816.94
524.128	809.94
524.343	783.94
524.559	796.94
524.774	791.94
524.989	796.94
525.204	813.94
525.419	820.94
525.634	813.94
525.849	796.94
526.064	788.94
526.28	792.94
526.495	777.94
526.71	787.94
526.925	803.94
527.14	778.94
527.355	780.94
527.57	769.94
527.785	773.94
527.999	795.94
528.214	786.94
528.429	787.94
528.644	769.94
528.859	804.94
529.074	778.94
529.289	790.94
529.503	770.94
529.718	773.94
529.933	782.94
530.148	780.94
530.363	774.94
530.577	774.94
530.792	769.94
531.007	787.94
531.221	771.94
531.436	761.94
531.651	742.94
531.865	767.94
532.08	741.94
532.295	737.94
532.509	736.94
532.724	792.94
532.938	772.94
533.153	767.94
533.367	759.94
533.582	751.94
533.796	774.94
534.011	765.94
534.225	749.94
534.44	735.94
534.654	763.94
534.868	766.94
535.083	733.94
535.297	763.94
535.511	713.94
535.726	742.94
535.94	726.94
536.154	713.94
536.369	710.94
536.583	717.94
536.797	738.94
537.011	711.94
537.225	750.94
537.44	722.94
537.654	726.94
537.868	741.94
538.082	736.94
538.296	711.94
538.51	705.94
538.724	709.94
538.938	708.94
539.153	715.94
539.367	724.94
539.581	700.94
539.795	696.94
540.009	696.94
540.222	713.94
540.436	712.94
540.65	695.94
540.864	727.94
541.078	695.94
541.292	691.94
541.506	701.94
541.72	718.94
541.934	693.94
542.147	700.94
542.361	702.94
542.575	701.94
542.789	675.94
543.002	709.94
543.216	672.94
543.43	693.94
543.644	687.94
543.857	666.94
544.071	694.94
544.285	696.94
544.498	674.94
544.712	674.94
544.925	686.94
545.139	667.94
545.352	649.94
545.566	667.94
545.779	677.94
545.993	679.94
546.206	678.94
546.42	688.94
546.633	687.94
546.847	704.94
547.06	684.94
547.274	693.94
547.487	720.94
547.7	718.94
547.914	683.94
548.127	701.94
548.34	694.94
548.554	667.94
548.767	686.94
548.98	687.94
549.193	688.94
549.407	683.94
549.62	699.94
549.833	708.94
550.046	688.94
550.259	675.94
550.473	687.94
550.686	664.94
550.899	676.94
551.112	641.94
551.325	672.94
551.538	652.94
551.751	653.94
551.964	663.94
552.177	670.94
552.39	665.94
552.603	667.94
552.816	654.94
553.029	656.94
553.242	672.94
553.455	658.94
553.667	664.94
553.88	651.94
554.093	634.94
554.306	638.94
554.519	654.94
554.732	624.94
554.944	643.94
555.157	629.94
555.37	623.94
555.583	612.94
555.795	624.94
556.008	620.94
556.221	607.94
556.433	616.94
556.646	602.94
556.859	596.94
557.071	615.94
557.284	592.94
557.496	587.94
557.709	595.94
557.921	638.94
558.134	589.94
558.346	576.94
558.559	595.94
558.771	622.94
558.984	601.94
559.196	589.94
559.409	590.94
559.621	589.94
559.833	592.94
560.046	580.94
560.258	571.94
560.47	589.94
560.683	575.94
560.895	577.94
561.107	584.94
561.32	580.94
561.532	574.94
561.744	582.94
561.956	575.94
562.168	597.94
562.381	581.94
562.593	573.94
562.805	593.94
563.017	564.94
563.229	571.94
563.441	569.94
563.653	585.94
563.865	575.94
564.077	598.94
564.289	585.94
564.501	571.94
564.713	583.94
564.925	584.94
565.137	626.94
565.349	614.94
565.561	611.94
565.773	619.94
565.985	623.94
566.197	615.94
566.408	624.94
566.62	633.94
566.832	631.94
567.044	626.94
567.255	658.94
567.467	660.94
567.679	641.94
567.891	657.94
568.102	612.94
568.314	641.94
568.526	621.94
568.737	622.94
568.949	593.94
569.161	592.94
569.372	558.94
569.584	589.94
569.795	564.94
570.007	553.94
570.218	560.94
570.43	549.94
570.641	541.94
570.853	530.94
571.064	527.94
571.276	526.94
571.487	541.94
571.698	522.94
571.91	498.94
572.121	518.94
572.333	526.94
572.544	502.94
572.755	511.94
572.966	488.94
573.178	471.94
573.389	477.94
573.6	484.94
573.811	481.94
574.023	493.94
574.234	484.94
574.445	467.94
574.656	488.94
574.867	464.94
575.078	447.94
575.289	473.94
575.501	455.94
575.712	451.94
575.923	449.94
576.134	457.94
576.345	454.94
576.556	459.94
576.767	458.94
576.978	431.94
577.188	441.94
577.399	429.94
577.61	439.94
577.821	444.94
578.032	442.94
578.243	454.94
578.454	450.94
578.665	440.94
578.875	427.94
579.086	431.94
579.297	428.94
579.508	438.94
579.718	433.94
579.929	424.94
580.14	424.94
580.35	402.94
580.561	411.94
580.772	398.94
580.982	423.94
581.193	420.94
581.403	400.94
581.614	419.94
581.825	401.94
582.035	408.94
582.246	435.94
582.456	416.94
582.667	403.94
582.877	397.94
583.087	418.94
583.298	421.94
583.508	400.94
583.719	387.94
583.929	402.94
584.139	397.94
584.35	369.94
584.56	397.94
584.77	409.94
584.981	391.94
585.191	385.94
585.401	402.94
585.611	392.94
585.821	382.94
586.032	393.94
586.242	411.94
586.452	407.94
586.662	397.94
586.872	387.94
587.082	393.94
587.292	392.94
587.502	401.94
587.713	372.94
587.923	369.94
588.133	385.94
588.343	361.94
588.553	379.94
588.762	371.94
588.972	369.94
589.182	385.94
589.392	406.94
589.602	398.94
589.812	382.94
590.022	401.94
590.232	363.94
590.441	394.94
590.651	393.94
590.861	384.94
591.071	382.94
591.281	370.94
591.49	383.94
591.7	372.94
591.91	365.94
592.119	367.94
592.329	391.94
592.539	388.94
592.748	376.94
592.958	400.94
593.167	384.94
593.377	372.94
593.587	365.94
593.796	369.94
594.006	366.94
594.215	383.94
594.424	372.94
594.634	374.94
594.843	367.94
595.053	371.94
595.262	363.94
595.472	385.94
595.681	356.94
595.89	355.94
596.1	353.94
596.309	336.94
596.518	359.94
596.727	352.94
596.937	348.94
597.146	349.94
597.355	329.94
597.564	337.94
597.774	337.94
597.983	348.94
598.192	336.94
598.401	332.94
598.61	338.94
598.819	330.94
599.028	336.94
599.237	328.94
599.446	331.94
599.655	325.94
599.864	340.94
600.073	316.94
600.282	321.94
600.491	312.94
600.7	327.94
600.909	313.94
601.118	355.94
601.327	322.94
601.536	300.94
601.745	307.94
601.953	328.94
602.162	314.94
602.371	307.94
602.58	306.94
602.789	308.94
602.997	318.94
603.206	309.94
603.415	319.94
603.623	310.94
603.832	323.94
604.041	295.94
604.249	308.94
604.458	315.94
604.666	319.94
604.875	309.94
605.084	315.94
605.292	311.94
605.501	291.94
605.709	304.94
605.918	307.94
606.126	295.94
606.334	313.94
606.543	317.94
606.751	311.94
606.96	283.94
607.168	296.94
607.376	283.94
607.585	321.94
607.793	308.94
608.001	301.94
608.21	305.94
608.418	310.94
608.626	286.94
608.834	294.94
609.043	292.94
609.251	285.94
609.459	277.94
609.667	281.94
609.875	283.94
610.083	285.94
610.291	301.94
610.499	279.94
610.707	290.94
610.916	292.94
611.124	286.94
611.332	278.94
611.54	277.94
611.748	283.94
611.955	288.94
612.163	282.94
612.371	289.94
612.579	286.94
612.787	281.94
612.995	292.94
613.203	283.94
613.411	307.94
613.618	282.94
613.826	307.94
614.034	287.94
614.242	282.94
614.449	286.94
614.657	287.94
614.865	292.94
615.072	285.94
615.28	280.94
615.488	294.94
615.695	279.94
615.903	281.94
616.111	279.94
616.318	281.94
616.526	279.94
616.733	281.94
616.941	272.94
617.148	278.94
617.356	267.94
617.563	280.94
617.771	280.94
617.978	272.94
618.185	295.94
618.393	272.94
618.6	268.94
618.807	258.94
619.015	269.94
619.222	275.94
619.429	256.94
619.637	255.94
619.844	253.94
620.051	263.94
620.258	261.94
620.466	251.94
620.673	260.94
620.88	257.94
621.087	253.94
621.294	256.94
621.501	258.94
621.708	251.94
621.915	264.94
622.122	254.94
622.329	269.94
622.536	238.94
622.743	257.94
622.95	262.94
623.157	246.94
623.364	263.94
623.571	255.94
623.778	233.94
623.985	238.94
624.192	249.94
624.399	240.94
624.606	244.94
624.812	253.94
625.019	248.94
625.226	242.94
625.433	227.94
625.639	240.94
625.846	244.94
626.053	244.94
626.259	247.94
626.466	251.94
626.673	209.94
626.879	230.94
627.086	232.94
627.293	240.94
627.499	249.94
627.706	262.94
627.912	229.94
628.119	231.94
628.325	243.94
628.532	244.94
628.738	216.94
628.945	234.94
629.151	223.94
629.357	235.94
629.564	231.94
629.77	214.94
629.976	233.94
630.183	242.94
630.389	245.94
630.595	222.94
630.802	231.94
631.008	231.94
631.214	226.94
631.42	212.94
631.627	239.94
631.833	219.94
632.039	214.94
632.245	216.94
632.451	209.94
632.657	226.94
632.863	202.94
633.069	222.94
633.275	219.94
633.481	220.94
633.688	196.94
633.893	226.94
634.099	213.94
634.305	211.94
634.511	211.94
634.717	224.94
634.923	212.94
635.129	211.94
635.335	220.94
635.541	221.94
635.747	213.94
635.952	213.94
636.158	210.94
636.364	217.94
636.57	219.94
636.775	225.94
636.981	206.94
637.187	208.94
637.392	209.94
637.598	222.94
637.804	208.94
638.009	212.94
638.215	204.94
638.421	198.94
638.626	196.94
638.832	206.94
639.037	205.94
639.243	223.94
639.448	218.94
639.654	205.94
639.859	206.94
640.065	197.94
640.27	211.94
640.475	209.94
640.681	195.94
640.886	192.94
641.091	209.94
641.297	203.94
641.502	205.94
641.707	210.94
641.913	197.94
642.118	213.94
642.323	212.94
642.528	208.94
642.733	198.94
642.939	203.94
643.144	203.94
643.349	197.94
643.554	216.94
643.759	198.94
643.964	198.94
644.169	206.94
644.374	202.94
644.579	197.94
644.784	195.94
644.989	193.94
645.194	192.94
645.399	204.94
645.604	206.94
645.809	204.94
646.014	196.94
646.219	213.94
646.423	219.94
646.628	209.94
646.833	186.94
647.038	197.94
647.243	193.94
647.447	196.94
647.652	202.94
647.857	201.94
648.062	208.94
648.266	208.94
648.471	203.94
648.676	189.94
648.88	214.94
649.085	193.94
649.289	187.94
649.494	202.94
649.698	204.94
649.903	204.94
650.107	183.94
650.312	195.94
650.516	206.94
650.721	196.94
650.925	200.94
651.13	192.94
651.334	191.94
651.539	201.94
651.743	195.94
651.947	194.94
652.152	186.94
652.356	195.94
652.56	176.94
652.764	171.94
652.969	181.94
653.173	191.94
653.377	192.94
653.581	183.94
653.785	183.94
653.99	193.94
654.194	178.94
654.398	176.94
654.602	193.94
654.806	163.94
655.01	200.94
655.214	175.94
655.418	188.94
655.622	195.94
655.826	176.94
656.03	179.94
656.234	187.94
656.438	191.94
656.642	187.94
656.846	190.94
657.049	178.94
657.253	168.94
657.457	169.94
657.661	164.94
657.865	158.94
658.068	136.94
658.272	143.94
658.476	131.94
658.68	120.94
658.883	130.94
659.087	116.94
659.291	123.94
659.494	118.94
659.698	108.94
659.901	111.94
660.105	111.94
660.309	107.94
660.512	105.94
660.716	100.94
660.919	99.94
661.123	108.94
661.326	102.94
661.53	99.94
661.733	97.94
661.936	83.94
662.14	91.94
662.343	85.94
662.546	100.94
662.75	98.94
662.953	88.94
663.156	86.94
663.36	78.94
663.563	73.94
663.766	86.94
663.969	94.94
664.173	77.94
664.376	73.94
664.579	81.94
664.782	92.94
664.985	95.94
665.188	65.94
665.391	80.94
665.594	68.94
665.797	73.94
666	73.94
666.203	82.94
666.406	65.94
666.609	82.94
666.812	90.94
667.015	75.94
667.218	76.94
667.421	79.94
667.624	86.94
667.827	72.94
668.03	83.94
668.232	81.94
668.435	73.94
668.638	76.94
668.841	91.94
669.043	78.94
669.246	79.94
669.449	89.94
669.651	95.94
669.854	69.94
670.057	83.94
670.259	74.94
670.462	78.94
670.665	74.94
670.867	72.94
671.07	90.94
671.272	95.94
671.475	73.94
671.677	89.94
671.88	85.94
672.082	79.94
672.284	75.94
672.487	71.94
672.689	80.94
672.892	79.94
