Data from Fe(NO3)3@0.1M.TitratingCurve.Agarose3%dH2O.NegLispCup.LampEnergy10.LIBS07252019_HRD10591_16-40-13-332.txt Node
Date: Thu Jul 25 16:40:13 EDT 2019
User: cochatt
Spectrometer: HR+D1059
Trigger mode: 1
Integration Time (sec): 1.000000E-1
Scans to average: 1
Electric dark correction enabled: true
Nonlinearity correction enabled: false
Boxcar width: 0
XAxis mode: Wavelengths
Number of Pixels in Spectrum: 2048
>>>>>Begin Spectral Data<<<<<
223.165	-8.31
223.4	-8.31
223.635	-8.31
223.869	-25.31
224.104	-6.31
224.338	-11.31
224.573	-14.31
224.808	-14.31
225.042	-21.31
225.277	-5.31
225.511	2.69
225.746	1.69
225.98	8.69
226.215	6.69
226.449	2.69
226.683	17.69
226.918	24.69
227.152	41.69
227.387	34.69
227.621	50.69
227.856	42.69
228.09	44.69
228.324	38.69
228.559	40.69
228.793	65.69
229.027	70.69
229.262	78.69
229.496	70.69
229.73	90.69
229.964	86.69
230.199	93.69
230.433	93.69
230.667	91.69
230.901	77.69
231.136	83.69
231.37	81.69
231.604	94.69
231.838	81.69
232.072	93.69
232.306	93.69
232.541	86.69
232.775	102.69
233.009	99.69
233.243	107.69
233.477	103.69
233.711	95.69
233.945	97.69
234.179	102.69
234.413	91.69
234.647	96.69
234.881	84.69
235.115	83.69
235.349	92.69
235.583	91.69
235.817	102.69
236.051	98.69
236.285	97.69
236.519	90.69
236.753	86.69
236.987	89.69
237.221	97.69
237.455	113.69
237.689	101.69
237.922	104.69
238.156	88.69
238.39	93.69
238.624	87.69
238.858	100.69
239.091	99.69
239.325	99.69
239.559	99.69
239.793	104.69
240.027	107.69
240.26	91.69
240.494	110.69
240.728	89.69
240.961	97.69
241.195	99.69
241.429	111.69
241.662	120.69
241.896	94.69
242.13	107.69
242.363	105.69
242.597	98.69
242.83	103.69
243.064	107.69
243.298	107.69
243.531	113.69
243.765	104.69
243.998	99.69
244.232	116.69
244.465	96.69
244.699	108.69
244.932	109.69
245.166	112.69
245.399	113.69
245.633	113.69
245.866	118.69
246.099	113.69
246.333	106.69
246.566	116.69
246.8	115.69
247.033	114.69
247.266	120.69
247.5	114.69
247.733	115.69
247.966	114.69
248.2	139.69
248.433	114.69
248.666	109.69
248.899	113.69
249.133	109.69
249.366	113.69
249.599	109.69
249.832	100.69
250.066	116.69
250.299	120.69
250.532	116.69
250.765	118.69
250.998	111.69
251.231	118.69
251.465	135.69
251.698	122.69
251.931	116.69
252.164	110.69
252.397	120.69
252.63	128.69
252.863	118.69
253.096	128.69
253.329	123.69
253.562	102.69
253.795	116.69
254.028	106.69
254.261	130.69
254.494	132.69
254.727	125.69
254.96	120.69
255.193	115.69
255.426	119.69
255.659	142.69
255.892	132.69
256.124	125.69
256.357	126.69
256.59	128.69
256.823	126.69
257.056	126.69
257.289	134.69
257.521	130.69
257.754	122.69
257.987	134.69
258.22	132.69
258.452	123.69
258.685	129.69
258.918	146.69
259.151	143.69
259.383	129.69
259.616	126.69
259.849	128.69
260.081	135.69
260.314	138.69
260.547	142.69
260.779	129.69
261.012	125.69
261.244	133.69
261.477	137.69
261.71	147.69
261.942	137.69
262.175	156.69
262.407	136.69
262.64	138.69
262.872	145.69
263.105	147.69
263.337	136.69
263.57	127.69
263.802	128.69
264.035	138.69
264.267	139.69
264.499	142.69
264.732	138.69
264.964	137.69
265.197	145.69
265.429	138.69
265.661	147.69
265.894	142.69
266.126	151.69
266.358	137.69
266.591	153.69
266.823	156.69
267.055	138.69
267.287	140.69
267.52	146.69
267.752	134.69
267.984	147.69
268.216	137.69
268.448	160.69
268.681	148.69
268.913	142.69
269.145	155.69
269.377	151.69
269.609	145.69
269.841	146.69
270.073	146.69
270.306	141.69
270.538	149.69
270.77	157.69
271.002	154.69
271.234	149.69
271.466	151.69
271.698	150.69
271.93	150.69
272.162	153.69
272.394	158.69
272.626	158.69
272.858	161.69
273.09	140.69
273.322	161.69
273.553	158.69
273.785	159.69
274.017	155.69
274.249	160.69
274.481	142.69
274.713	162.69
274.945	164.69
275.176	166.69
275.408	166.69
275.64	158.69
275.872	166.69
276.104	164.69
276.335	143.69
276.567	172.69
276.799	163.69
277.031	161.69
277.262	165.69
277.494	160.69
277.726	154.69
277.957	165.69
278.189	168.69
278.421	164.69
278.652	185.69
278.884	156.69
279.115	173.69
279.347	154.69
279.579	158.69
279.81	179.69
280.042	160.69
280.273	158.69
280.505	169.69
280.736	166.69
280.968	164.69
281.199	180.69
281.431	184.69
281.662	162.69
281.894	168.69
282.125	181.69
282.356	176.69
282.588	173.69
282.819	186.69
283.051	188.69
283.282	171.69
283.513	174.69
283.745	177.69
283.976	178.69
284.207	172.69
284.439	163.69
284.67	168.69
284.901	172.69
285.132	177.69
285.364	167.69
285.595	185.69
285.826	167.69
286.057	164.69
286.288	166.69
286.52	188.69
286.751	189.69
286.982	203.69
287.213	182.69
287.444	176.69
287.675	183.69
287.906	181.69
288.138	185.69
288.369	193.69
288.6	176.69
288.831	182.69
289.062	198.69
289.293	181.69
289.524	172.69
289.755	178.69
289.986	197.69
290.217	177.69
290.448	165.69
290.679	186.69
290.91	190.69
291.141	174.69
291.371	188.69
291.602	200.69
291.833	188.69
292.064	168.69
292.295	186.69
292.526	184.69
292.757	207.69
292.987	200.69
293.218	193.69
293.449	195.69
293.68	188.69
293.91	173.69
294.141	190.69
294.372	193.69
294.603	194.69
294.833	190.69
295.064	197.69
295.295	203.69
295.525	189.69
295.756	194.69
295.987	186.69
296.217	186.69
296.448	191.69
296.679	196.69
296.909	197.69
297.14	196.69
297.37	183.69
297.601	214.69
297.831	192.69
298.062	198.69
298.292	188.69
298.523	209.69
298.753	199.69
298.984	196.69
299.214	196.69
299.445	197.69
299.675	212.69
299.905	222.69
300.136	199.69
300.366	182.69
300.597	189.69
300.827	192.69
301.057	189.69
301.288	193.69
301.518	199.69
301.748	199.69
301.979	214.69
302.209	192.69
302.439	212.69
302.669	213.69
302.9	213.69
303.13	202.69
303.36	200.69
303.59	212.69
303.82	213.69
304.051	210.69
304.281	212.69
304.511	190.69
304.741	208.69
304.971	214.69
305.201	216.69
305.431	192.69
305.661	219.69
305.891	207.69
306.121	217.69
306.352	202.69
306.582	217.69
306.812	218.69
307.042	230.69
307.272	195.69
307.502	213.69
307.731	214.69
307.961	211.69
308.191	186.69
308.421	209.69
308.651	204.69
308.881	210.69
309.111	212.69
309.341	198.69
309.571	197.69
309.8	199.69
310.03	195.69
310.26	204.69
310.49	206.69
310.72	204.69
310.949	198.69
311.179	219.69
311.409	192.69
311.639	198.69
311.868	212.69
312.098	218.69
312.328	215.69
312.557	213.69
312.787	227.69
313.017	214.69
313.246	227.69
313.476	205.69
313.706	235.69
313.935	215.69
314.165	224.69
314.394	208.69
314.624	220.69
314.853	201.69
315.083	220.69
315.312	220.69
315.542	209.69
315.771	212.69
316.001	222.69
316.23	206.69
316.46	217.69
316.689	208.69
316.919	222.69
317.148	224.69
317.377	218.69
317.607	216.69
317.836	225.69
318.065	221.69
318.295	200.69
318.524	216.69
318.753	225.69
318.983	214.69
319.212	227.69
319.441	228.69
319.67	229.69
319.9	216.69
320.129	204.69
320.358	222.69
320.587	223.69
320.816	202.69
321.046	211.69
321.275	226.69
321.504	220.69
321.733	207.69
321.962	202.69
322.191	214.69
322.42	221.69
322.649	240.69
322.878	212.69
323.108	223.69
323.337	235.69
323.566	232.69
323.795	233.69
324.024	212.69
324.253	219.69
324.482	222.69
324.71	229.69
324.939	246.69
325.168	233.69
325.397	225.69
325.626	225.69
325.855	234.69
326.084	226.69
326.313	222.69
326.542	240.69
326.77	223.69
326.999	236.69
327.228	236.69
327.457	243.69
327.686	245.69
327.914	235.69
328.143	235.69
328.372	231.69
328.6	238.69
328.829	232.69
329.058	245.69
329.287	240.69
329.515	244.69
329.744	249.69
329.972	234.69
330.201	234.69
330.43	228.69
330.658	234.69
330.887	256.69
331.115	245.69
331.344	259.69
331.572	249.69
331.801	238.69
332.03	256.69
332.258	269.69
332.486	276.69
332.715	269.69
332.943	276.69
333.172	291.69
333.4	312.69
333.629	303.69
333.857	302.69
334.085	293.69
334.314	292.69
334.542	282.69
334.771	284.69
334.999	264.69
335.227	290.69
335.455	276.69
335.684	287.69
335.912	291.69
336.14	278.69
336.369	265.69
336.597	265.69
336.825	269.69
337.053	277.69
337.281	281.69
337.51	251.69
337.738	270.69
337.966	262.69
338.194	261.69
338.422	253.69
338.65	247.69
338.878	258.69
339.106	250.69
339.334	242.69
339.562	258.69
339.79	238.69
340.018	263.69
340.246	245.69
340.474	253.69
340.702	256.69
340.93	250.69
341.158	260.69
341.386	256.69
341.614	248.69
341.842	242.69
342.07	255.69
342.298	243.69
342.526	260.69
342.754	258.69
342.981	267.69
343.209	250.69
343.437	270.69
343.665	272.69
343.893	298.69
344.12	297.69
344.348	283.69
344.576	275.69
344.804	259.69
345.031	266.69
345.259	268.69
345.487	244.69
345.714	235.69
345.942	254.69
346.17	261.69
346.397	233.69
346.625	249.69
346.853	258.69
347.08	235.69
347.308	214.69
347.535	246.69
347.763	262.69
347.99	256.69
348.218	246.69
348.445	256.69
348.673	256.69
348.9	248.69
349.128	239.69
349.355	254.69
349.583	240.69
349.81	237.69
350.037	254.69
350.265	246.69
350.492	242.69
350.72	240.69
350.947	232.69
351.174	251.69
351.402	246.69
351.629	224.69
351.856	225.69
352.083	236.69
352.311	229.69
352.538	228.69
352.765	233.69
352.992	232.69
353.22	230.69
353.447	229.69
353.674	258.69
353.901	222.69
354.128	218.69
354.355	260.69
354.583	228.69
354.81	234.69
355.037	237.69
355.264	248.69
355.491	246.69
355.718	255.69
355.945	249.69
356.172	244.69
356.399	246.69
356.626	246.69
356.853	238.69
357.08	228.69
357.307	246.69
357.534	245.69
357.761	241.69
357.988	245.69
358.215	224.69
358.441	238.69
358.668	234.69
358.895	241.69
359.122	248.69
359.349	231.69
359.576	234.69
359.802	235.69
360.029	249.69
360.256	259.69
360.483	243.69
360.709	232.69
360.936	252.69
361.163	234.69
361.39	240.69
361.616	235.69
361.843	244.69
362.07	252.69
362.296	244.69
362.523	241.69
362.749	246.69
362.976	238.69
363.203	237.69
363.429	247.69
363.656	235.69
363.882	232.69
364.109	246.69
364.335	237.69
364.562	240.69
364.788	256.69
365.015	252.69
365.241	229.69
365.468	258.69
365.694	230.69
365.92	250.69
366.147	223.69
366.373	229.69
366.599	254.69
366.826	230.69
367.052	235.69
367.278	240.69
367.505	242.69
367.731	263.69
367.957	231.69
368.184	245.69
368.41	237.69
368.636	258.69
368.862	240.69
369.089	252.69
369.315	232.69
369.541	248.69
369.767	276.69
369.993	256.69
370.219	256.69
370.445	254.69
370.672	264.69
370.898	258.69
371.124	249.69
371.35	269.69
371.576	259.69
371.802	244.69
372.028	260.69
372.254	290.69
372.48	271.69
372.706	258.69
372.932	257.69
373.158	266.69
373.384	287.69
373.61	266.69
373.835	265.69
374.061	269.69
374.287	276.69
374.513	264.69
374.739	282.69
374.965	287.69
375.191	281.69
375.416	283.69
375.642	272.69
375.868	267.69
376.094	275.69
376.319	281.69
376.545	264.69
376.771	258.69
376.997	252.69
377.222	274.69
377.448	265.69
377.674	277.69
377.899	264.69
378.125	246.69
378.35	260.69
378.576	259.69
378.802	258.69
379.027	237.69
379.253	277.69
379.478	276.69
379.704	258.69
379.929	258.69
380.155	259.69
380.38	260.69
380.606	249.69
380.831	280.69
381.057	282.69
381.282	278.69
381.507	261.69
381.733	247.69
381.958	284.69
382.184	271.69
382.409	270.69
382.634	290.69
382.86	278.69
383.085	288.69
383.31	275.69
383.535	286.69
383.761	277.69
383.986	271.69
384.211	282.69
384.436	298.69
384.662	316.69
384.887	306.69
385.112	298.69
385.337	300.69
385.562	306.69
385.787	293.69
386.013	314.69
386.238	312.69
386.463	315.69
386.688	293.69
386.913	297.69
387.138	318.69
387.363	320.69
387.588	286.69
387.813	320.69
388.038	294.69
388.263	301.69
388.488	318.69
388.713	307.69
388.938	320.69
389.163	316.69
389.387	311.69
389.612	310.69
389.837	286.69
390.062	308.69
390.287	298.69
390.512	312.69
390.736	299.69
390.961	295.69
391.186	327.69
391.411	329.69
391.636	338.69
391.86	330.69
392.085	334.69
392.31	312.69
392.534	352.69
392.759	330.69
392.984	333.69
393.208	336.69
393.433	325.69
393.658	338.69
393.882	325.69
394.107	314.69
394.331	330.69
394.556	327.69
394.78	317.69
395.005	331.69
395.229	331.69
395.454	341.69
395.678	340.69
395.903	343.69
396.127	325.69
396.352	319.69
396.576	331.69
396.801	342.69
397.025	331.69
397.249	331.69
397.474	355.69
397.698	326.69
397.922	354.69
398.147	339.69
398.371	342.69
398.595	359.69
398.82	378.69
399.044	404.69
399.268	416.69
399.492	489.69
399.717	520.69
399.941	501.69
400.165	453.69
400.389	440.69
400.613	412.69
400.837	371.69
401.062	389.69
401.286	382.69
401.51	366.69
401.734	376.69
401.958	402.69
402.182	379.69
402.406	391.69
402.63	407.69
402.854	398.69
403.078	402.69
403.302	388.69
403.526	402.69
403.75	437.69
403.974	421.69
404.198	407.69
404.422	399.69
404.645	393.69
404.869	408.69
405.093	412.69
405.317	408.69
405.541	403.69
405.765	403.69
405.988	390.69
406.212	407.69
406.436	381.69
406.66	407.69
406.883	430.69
407.107	439.69
407.331	444.69
407.555	458.69
407.778	454.69
408.002	449.69
408.226	465.69
408.449	427.69
408.673	424.69
408.896	418.69
409.12	427.69
409.344	423.69
409.567	391.69
409.791	410.69
410.014	428.69
410.238	419.69
410.461	413.69
410.685	419.69
410.908	402.69
411.132	396.69
411.355	376.69
411.578	396.69
411.802	397.69
412.025	395.69
412.249	405.69
412.472	396.69
412.695	394.69
412.919	381.69
413.142	396.69
413.365	380.69
413.589	383.69
413.812	373.69
414.035	376.69
414.258	382.69
414.482	378.69
414.705	386.69
414.928	380.69
415.151	381.69
415.374	381.69
415.597	378.69
415.821	373.69
416.044	390.69
416.267	385.69
416.49	373.69
416.713	384.69
416.936	379.69
417.159	393.69
417.382	381.69
417.605	387.69
417.828	382.69
418.051	370.69
418.274	385.69
418.497	380.69
418.72	386.69
418.943	394.69
419.166	405.69
419.389	416.69
419.611	417.69
419.834	382.69
420.057	386.69
420.28	381.69
420.503	374.69
420.726	389.69
420.948	370.69
421.171	386.69
421.394	365.69
421.617	370.69
421.839	384.69
422.062	382.69
422.285	374.69
422.507	397.69
422.73	380.69
422.953	396.69
423.175	392.69
423.398	380.69
423.621	389.69
423.843	402.69
424.066	406.69
424.288	379.69
424.511	397.69
424.733	380.69
424.956	374.69
425.178	390.69
425.401	384.69
425.623	385.69
425.846	363.69
426.068	360.69
426.291	368.69
426.513	371.69
426.735	372.69
426.958	362.69
427.18	353.69
427.402	354.69
427.625	368.69
427.847	374.69
428.069	336.69
428.292	355.69
428.514	351.69
428.736	342.69
428.958	362.69
429.181	347.69
429.403	351.69
429.625	338.69
429.847	332.69
430.069	351.69
430.292	349.69
430.514	344.69
430.736	354.69
430.958	357.69
431.18	347.69
431.402	363.69
431.624	357.69
431.846	346.69
432.068	343.69
432.29	346.69
432.512	357.69
432.734	354.69
432.956	359.69
433.178	359.69
433.4	360.69
433.622	358.69
433.844	349.69
434.066	352.69
434.287	347.69
434.509	365.69
434.731	371.69
434.953	384.69
435.175	387.69
435.397	385.69
435.618	371.69
435.84	374.69
436.062	358.69
436.284	369.69
436.505	361.69
436.727	361.69
436.949	358.69
437.17	368.69
437.392	356.69
437.614	331.69
437.835	339.69
438.057	348.69
438.278	346.69
438.5	344.69
438.721	352.69
438.943	365.69
439.165	360.69
439.386	355.69
439.608	365.69
439.829	370.69
440.05	356.69
440.272	380.69
440.493	386.69
440.715	379.69
440.936	388.69
441.158	395.69
441.379	384.69
441.6	397.69
441.822	419.69
442.043	388.69
442.264	407.69
442.486	397.69
442.707	398.69
442.928	386.69
443.149	394.69
443.371	381.69
443.592	398.69
443.813	390.69
444.034	394.69
444.255	412.69
444.476	422.69
444.698	453.69
444.919	440.69
445.14	526.69
445.361	459.69
445.582	394.69
445.803	404.69
446.024	393.69
446.245	386.69
446.466	375.69
446.687	380.69
446.908	372.69
447.129	353.69
447.35	355.69
447.571	357.69
447.792	361.69
448.013	356.69
448.234	351.69
448.455	354.69
448.675	363.69
448.896	354.69
449.117	330.69
449.338	340.69
449.559	351.69
449.779	343.69
450	333.69
450.221	334.69
450.442	359.69
450.662	338.69
450.883	343.69
451.104	338.69
451.324	325.69
451.545	358.69
451.766	336.69
451.986	344.69
452.207	339.69
452.428	324.69
452.648	340.69
452.869	337.69
453.089	339.69
453.31	331.69
453.53	310.69
453.751	332.69
453.971	313.69
454.192	343.69
454.412	330.69
454.633	313.69
454.853	321.69
455.073	320.69
455.294	319.69
455.514	299.69
455.734	326.69
455.955	300.69
456.175	336.69
456.395	307.69
456.616	334.69
456.836	310.69
457.056	308.69
457.276	305.69
457.497	316.69
457.717	324.69
457.937	312.69
458.157	314.69
458.377	339.69
458.598	326.69
458.818	338.69
459.038	334.69
459.258	347.69
459.478	349.69
459.698	346.69
459.918	370.69
460.138	372.69
460.358	399.69
460.578	414.69
460.798	384.69
461.018	424.69
461.238	397.69
461.458	424.69
461.678	433.69
461.898	413.69
462.118	409.69
462.338	441.69
462.558	451.69
462.777	454.69
462.997	475.69
463.217	510.69
463.437	484.69
463.657	478.69
463.876	453.69
464.096	448.69
464.316	453.69
464.536	447.69
464.755	432.69
464.975	447.69
465.195	417.69
465.414	417.69
465.634	375.69
465.854	379.69
466.073	365.69
466.293	342.69
466.512	343.69
466.732	360.69
466.951	359.69
467.171	359.69
467.391	364.69
467.61	377.69
467.829	354.69
468.049	360.69
468.268	352.69
468.488	351.69
468.707	327.69
468.927	347.69
469.146	350.69
469.365	332.69
469.585	348.69
469.804	356.69
470.023	349.69
470.243	368.69
470.462	373.69
470.681	355.69
470.901	357.69
471.12	353.69
471.339	342.69
471.558	351.69
471.777	342.69
471.997	338.69
472.216	332.69
472.435	339.69
472.654	324.69
472.873	321.69
473.092	312.69
473.311	324.69
473.53	340.69
473.749	340.69
473.968	341.69
474.187	324.69
474.406	324.69
474.625	313.69
474.844	337.69
475.063	341.69
475.282	336.69
475.501	324.69
475.72	336.69
475.939	316.69
476.158	326.69
476.377	349.69
476.596	341.69
476.814	353.69
477.033	336.69
477.252	345.69
477.471	342.69
477.69	368.69
477.908	375.69
478.127	394.69
478.346	368.69
478.564	384.69
478.783	393.69
479.002	418.69
479.22	396.69
479.439	394.69
479.658	383.69
479.876	388.69
480.095	384.69
480.313	404.69
480.532	408.69
480.751	383.69
480.969	384.69
481.188	375.69
481.406	381.69
481.624	380.69
481.843	349.69
482.061	354.69
482.28	368.69
482.498	382.69
482.717	363.69
482.935	368.69
483.153	365.69
483.372	376.69
483.59	372.69
483.808	366.69
484.027	382.69
484.245	365.69
484.463	380.69
484.681	355.69
484.9	383.69
485.118	360.69
485.336	361.69
485.554	404.69
485.772	373.69
485.99	372.69
486.209	380.69
486.427	376.69
486.645	372.69
486.863	392.69
487.081	377.69
487.299	364.69
487.517	360.69
487.735	384.69
487.953	390.69
488.171	380.69
488.389	381.69
488.607	374.69
488.825	372.69
489.043	355.69
489.261	372.69
489.479	362.69
489.696	380.69
489.914	374.69
490.132	377.69
490.35	382.69
490.568	395.69
490.786	365.69
491.003	375.69
491.221	380.69
491.439	392.69
491.657	391.69
491.874	396.69
492.092	411.69
492.31	407.69
492.527	402.69
492.745	402.69
492.963	404.69
493.18	421.69
493.398	401.69
493.615	401.69
493.833	404.69
494.05	408.69
494.268	393.69
494.485	417.69
494.703	395.69
494.92	405.69
495.138	413.69
495.355	389.69
495.573	395.69
495.79	409.69
496.008	413.69
496.225	415.69
496.442	436.69
496.66	394.69
496.877	419.69
497.094	432.69
497.312	425.69
497.529	462.69
497.746	441.69
497.963	455.69
498.181	486.69
498.398	505.69
498.615	534.69
498.832	529.69
499.049	554.69
499.267	590.69
499.484	652.69
499.701	702.69
499.918	744.69
500.135	853.69
500.352	932.69
500.569	941.69
500.786	913.69
501.003	883.69
501.22	822.69
501.437	713.69
501.654	656.69
501.871	634.69
502.088	577.69
502.305	556.69
502.522	521.69
502.739	520.69
502.956	491.69
503.172	484.69
503.389	456.69
503.606	417.69
503.823	440.69
504.04	440.69
504.256	445.69
504.473	426.69
504.69	449.69
504.907	444.69
505.123	422.69
505.34	413.69
505.557	399.69
505.773	376.69
505.99	384.69
506.207	381.69
506.423	372.69
506.64	373.69
506.856	354.69
507.073	368.69
507.289	332.69
507.506	352.69
507.722	345.69
507.939	350.69
508.155	356.69
508.372	325.69
508.588	342.69
508.805	333.69
509.021	342.69
509.238	304.69
509.454	342.69
509.67	330.69
509.887	344.69
510.103	325.69
510.319	323.69
510.536	308.69
510.752	336.69
510.968	326.69
511.184	335.69
511.401	322.69
511.617	321.69
511.833	339.69
512.049	316.69
512.265	334.69
512.481	308.69
512.698	339.69
512.914	325.69
513.13	309.69
513.346	312.69
513.562	323.69
513.778	314.69
513.994	314.69
514.21	328.69
514.426	335.69
514.642	309.69
514.858	332.69
515.074	334.69
515.29	347.69
515.506	349.69
515.721	337.69
515.937	353.69
516.153	347.69
516.369	379.69
516.585	357.69
516.801	363.69
517.016	391.69
517.232	396.69
517.448	422.69
517.664	416.69
517.879	416.69
518.095	418.69
518.311	404.69
518.527	384.69
518.742	399.69
518.958	373.69
519.173	380.69
519.389	357.69
519.605	351.69
519.82	343.69
520.036	325.69
520.251	314.69
520.467	331.69
520.682	331.69
520.898	337.69
521.113	330.69
521.329	323.69
521.544	322.69
521.76	324.69
521.975	317.69
522.19	322.69
522.406	323.69
522.621	323.69
522.836	300.69
523.052	328.69
523.267	312.69
523.482	306.69
523.698	326.69
523.913	306.69
524.128	320.69
524.343	306.69
524.559	307.69
524.774	297.69
524.989	307.69
525.204	300.69
525.419	296.69
525.634	308.69
525.849	302.69
526.064	283.69
526.28	293.69
526.495	290.69
526.71	303.69
526.925	303.69
527.14	295.69
527.355	297.69
527.57	303.69
527.785	300.69
527.999	283.69
528.214	310.69
528.429	301.69
528.644	290.69
528.859	292.69
529.074	296.69
529.289	310.69
529.503	286.69
529.718	310.69
529.933	290.69
530.148	293.69
530.363	308.69
530.577	298.69
530.792	287.69
531.007	296.69
531.221	282.69
531.436	317.69
531.651	300.69
531.865	279.69
532.08	298.69
532.295	302.69
532.509	300.69
532.724	286.69
532.938	305.69
533.153	285.69
533.367	302.69
533.582	298.69
533.796	292.69
534.011	315.69
534.225	302.69
534.44	286.69
534.654	294.69
534.868	290.69
535.083	290.69
535.297	276.69
535.511	280.69
535.726	277.69
535.94	279.69
536.154	288.69
536.369	289.69
536.583	280.69
536.797	262.69
537.011	285.69
537.225	280.69
537.44	272.69
537.654	308.69
537.868	277.69
538.082	284.69
538.296	280.69
538.51	288.69
538.724	283.69
538.938	276.69
539.153	297.69
539.367	290.69
539.581	290.69
539.795	282.69
540.009	270.69
540.222	254.69
540.436	277.69
540.65	287.69
540.864	287.69
541.078	293.69
541.292	267.69
541.506	285.69
541.72	265.69
541.934	284.69
542.147	276.69
542.361	271.69
542.575	265.69
542.789	268.69
543.002	263.69
543.216	263.69
543.43	288.69
543.644	279.69
543.857	262.69
544.071	264.69
544.285	291.69
544.498	290.69
544.712	281.69
544.925	277.69
545.139	267.69
545.352	289.69
545.566	293.69
545.779	284.69
545.993	300.69
546.206	283.69
546.42	279.69
546.633	297.69
546.847	277.69
547.06	275.69
547.274	272.69
547.487	297.69
547.7	297.69
547.914	291.69
548.127	285.69
548.34	276.69
548.554	281.69
548.767	270.69
548.98	293.69
549.193	288.69
549.407	299.69
549.62	304.69
549.833	297.69
550.046	272.69
550.259	290.69
550.473	292.69
550.686	288.69
550.899	279.69
551.112	278.69
551.325	286.69
551.538	264.69
551.751	268.69
551.964	289.69
552.177	282.69
552.39	280.69
552.603	293.69
552.816	284.69
553.029	309.69
553.242	321.69
553.455	304.69
553.667	302.69
553.88	304.69
554.093	285.69
554.306	308.69
554.519	295.69
554.732	276.69
554.944	271.69
555.157	282.69
555.37	268.69
555.583	274.69
555.795	262.69
556.008	264.69
556.221	259.69
556.433	253.69
556.646	256.69
556.859	256.69
557.071	243.69
557.284	258.69
557.496	253.69
557.709	231.69
557.921	241.69
558.134	265.69
558.346	234.69
558.559	263.69
558.771	246.69
558.984	254.69
559.196	258.69
559.409	244.69
559.621	262.69
559.833	255.69
560.046	229.69
560.258	237.69
560.47	246.69
560.683	240.69
560.895	245.69
561.107	242.69
561.32	237.69
561.532	242.69
561.744	248.69
561.956	254.69
562.168	233.69
562.381	220.69
562.593	257.69
562.805	240.69
563.017	245.69
563.229	233.69
563.441	234.69
563.653	250.69
563.865	256.69
564.077	241.69
564.289	251.69
564.501	264.69
564.713	236.69
564.925	253.69
565.137	257.69
565.349	276.69
565.561	274.69
565.773	284.69
565.985	293.69
566.197	294.69
566.408	309.69
566.62	305.69
566.832	329.69
567.044	353.69
567.255	349.69
567.467	357.69
567.679	352.69
567.891	398.69
568.102	382.69
568.314	386.69
568.526	327.69
568.737	320.69
568.949	302.69
569.161	286.69
569.372	269.69
569.584	257.69
569.795	257.69
570.007	237.69
570.218	252.69
570.43	246.69
570.641	254.69
570.853	246.69
571.064	243.69
571.276	244.69
571.487	246.69
571.698	236.69
571.91	224.69
572.121	238.69
572.333	224.69
572.544	219.69
572.755	209.69
572.966	226.69
573.178	222.69
573.389	214.69
573.6	212.69
573.811	228.69
574.023	213.69
574.234	208.69
574.445	213.69
574.656	205.69
574.867	196.69
575.078	217.69
575.289	216.69
575.501	197.69
575.712	208.69
575.923	207.69
576.134	205.69
576.345	201.69
576.556	206.69
576.767	195.69
576.978	202.69
577.188	210.69
577.399	178.69
577.61	201.69
577.821	192.69
578.032	192.69
578.243	191.69
578.454	202.69
578.665	203.69
578.875	198.69
579.086	203.69
579.297	190.69
579.508	186.69
579.718	187.69
579.929	188.69
580.14	188.69
580.35	187.69
580.561	184.69
580.772	177.69
580.982	179.69
581.193	171.69
581.403	172.69
581.614	185.69
581.825	185.69
582.035	189.69
582.246	183.69
582.456	201.69
582.667	200.69
582.877	189.69
583.087	185.69
583.298	182.69
583.508	196.69
583.719	180.69
583.929	180.69
584.139	179.69
584.35	167.69
584.56	180.69
584.77	178.69
584.981	181.69
585.191	195.69
585.401	189.69
585.611	185.69
585.821	182.69
586.032	184.69
586.242	181.69
586.452	188.69
586.662	176.69
586.872	183.69
587.082	179.69
587.292	173.69
587.502	176.69
587.713	177.69
587.923	172.69
588.133	176.69
588.343	178.69
588.553	169.69
588.762	184.69
588.972	187.69
589.182	188.69
589.392	185.69
589.602	172.69
589.812	183.69
590.022	187.69
590.232	192.69
590.441	176.69
590.651	181.69
590.861	176.69
591.071	187.69
591.281	193.69
591.49	183.69
591.7	171.69
591.91	188.69
592.119	183.69
592.329	194.69
592.539	168.69
592.748	206.69
592.958	197.69
593.167	208.69
593.377	205.69
593.587	201.69
593.796	205.69
594.006	210.69
594.215	207.69
594.424	209.69
594.634	202.69
594.843	183.69
595.053	197.69
595.262	190.69
595.472	180.69
595.681	180.69
595.89	174.69
596.1	163.69
596.309	183.69
596.518	163.69
596.727	167.69
596.937	159.69
597.146	165.69
597.355	175.69
597.564	180.69
597.774	180.69
597.983	161.69
598.192	163.69
598.401	163.69
598.61	166.69
598.819	180.69
599.028	154.69
599.237	164.69
599.446	160.69
599.655	154.69
599.864	163.69
600.073	158.69
600.282	152.69
600.491	164.69
600.7	167.69
600.909	172.69
601.118	166.69
601.327	160.69
601.536	164.69
601.745	161.69
601.953	171.69
602.162	170.69
602.371	156.69
602.58	168.69
602.789	171.69
602.997	155.69
603.206	162.69
603.415	154.69
603.623	179.69
603.832	178.69
604.041	165.69
604.249	170.69
604.458	166.69
604.666	152.69
604.875	164.69
605.084	146.69
605.292	157.69
605.501	149.69
605.709	154.69
605.918	157.69
606.126	176.69
606.334	156.69
606.543	147.69
606.751	158.69
606.96	151.69
607.168	161.69
607.376	152.69
607.585	139.69
607.793	143.69
608.001	150.69
608.21	153.69
608.418	170.69
608.626	154.69
608.834	145.69
609.043	147.69
609.251	161.69
609.459	145.69
609.667	155.69
609.875	145.69
610.083	132.69
610.291	166.69
610.499	173.69
610.707	153.69
610.916	141.69
611.124	147.69
611.332	145.69
611.54	157.69
611.748	149.69
611.955	152.69
612.163	158.69
612.371	163.69
612.579	160.69
612.787	137.69
612.995	136.69
613.203	160.69
613.411	156.69
613.618	159.69
613.826	125.69
614.034	141.69
614.242	168.69
614.449	150.69
614.657	148.69
614.865	158.69
615.072	143.69
615.28	162.69
615.488	147.69
615.695	145.69
615.903	167.69
616.111	156.69
616.318	163.69
616.526	145.69
616.733	154.69
616.941	148.69
617.148	148.69
617.356	149.69
617.563	152.69
617.771	162.69
617.978	148.69
618.185	140.69
618.393	141.69
618.6	148.69
618.807	149.69
619.015	146.69
619.222	145.69
619.429	132.69
619.637	123.69
619.844	138.69
620.051	142.69
620.258	163.69
620.466	147.69
620.673	146.69
620.88	139.69
621.087	133.69
621.294	136.69
621.501	140.69
621.708	151.69
621.915	139.69
622.122	140.69
622.329	140.69
622.536	138.69
622.743	132.69
622.95	138.69
623.157	142.69
623.364	141.69
623.571	140.69
623.778	141.69
623.985	142.69
624.192	143.69
624.399	157.69
624.606	138.69
624.812	146.69
625.019	141.69
625.226	142.69
625.433	136.69
625.639	132.69
625.846	148.69
626.053	126.69
626.259	137.69
626.466	138.69
626.673	129.69
626.879	115.69
627.086	134.69
627.293	134.69
627.499	133.69
627.706	120.69
627.912	122.69
628.119	139.69
628.325	133.69
628.532	136.69
628.738	138.69
628.945	129.69
629.151	132.69
629.357	139.69
629.564	138.69
629.77	144.69
629.976	126.69
630.183	136.69
630.389	135.69
630.595	116.69
630.802	131.69
631.008	131.69
631.214	125.69
631.42	124.69
631.627	134.69
631.833	135.69
632.039	118.69
632.245	128.69
632.451	123.69
632.657	141.69
632.863	144.69
633.069	133.69
633.275	144.69
633.481	128.69
633.688	135.69
633.893	138.69
634.099	128.69
634.305	116.69
634.511	135.69
634.717	138.69
634.923	120.69
635.129	122.69
635.335	126.69
635.541	129.69
635.747	121.69
635.952	131.69
636.158	134.69
636.364	110.69
636.57	114.69
636.775	136.69
636.981	121.69
637.187	133.69
637.392	116.69
637.598	118.69
637.804	122.69
638.009	132.69
638.215	130.69
638.421	131.69
638.626	121.69
638.832	116.69
639.037	121.69
639.243	133.69
639.448	125.69
639.654	138.69
639.859	120.69
640.065	127.69
640.27	128.69
640.475	116.69
640.681	117.69
640.886	124.69
641.091	121.69
641.297	118.69
641.502	123.69
641.707	127.69
641.913	138.69
642.118	125.69
642.323	118.69
642.528	128.69
642.733	118.69
642.939	116.69
643.144	124.69
643.349	127.69
643.554	126.69
643.759	114.69
643.964	122.69
644.169	130.69
644.374	120.69
644.579	112.69
644.784	128.69
644.989	118.69
645.194	107.69
645.399	114.69
645.604	110.69
645.809	102.69
646.014	123.69
646.219	116.69
646.423	125.69
646.628	125.69
646.833	115.69
647.038	123.69
647.243	124.69
647.447	120.69
647.652	112.69
647.857	106.69
648.062	123.69
648.266	128.69
648.471	132.69
648.676	125.69
648.88	138.69
649.085	128.69
649.289	105.69
649.494	117.69
649.698	123.69
649.903	117.69
650.107	120.69
650.312	127.69
650.516	128.69
650.721	118.69
650.925	117.69
651.13	113.69
651.334	117.69
651.539	113.69
651.743	120.69
651.947	127.69
652.152	120.69
652.356	104.69
652.56	117.69
652.764	117.69
652.969	124.69
653.173	122.69
653.377	106.69
653.581	119.69
653.785	117.69
653.99	104.69
654.194	103.69
654.398	109.69
654.602	101.69
654.806	121.69
655.01	112.69
655.214	110.69
655.418	115.69
655.622	116.69
655.826	114.69
656.03	100.69
656.234	112.69
656.438	125.69
656.642	112.69
656.846	115.69
657.049	114.69
657.253	107.69
657.457	117.69
657.661	112.69
657.865	107.69
658.068	90.69
658.272	104.69
658.476	102.69
658.68	93.69
658.883	85.69
659.087	101.69
659.291	81.69
659.494	76.69
659.698	91.69
659.901	89.69
660.105	98.69
660.309	94.69
660.512	87.69
660.716	109.69
660.919	98.69
661.123	78.69
661.326	90.69
661.53	90.69
661.733	83.69
661.936	88.69
662.14	81.69
662.343	96.69
662.546	83.69
662.75	101.69
662.953	85.69
663.156	90.69
663.36	86.69
663.563	76.69
663.766	78.69
663.969	79.69
664.173	79.69
664.376	77.69
664.579	81.69
664.782	72.69
664.985	84.69
665.188	94.69
665.391	78.69
665.594	78.69
665.797	87.69
666	83.69
666.203	88.69
666.406	90.69
666.609	80.69
666.812	100.69
667.015	73.69
667.218	83.69
667.421	84.69
667.624	92.69
667.827	86.69
668.03	87.69
668.232	86.69
668.435	88.69
668.638	79.69
668.841	78.69
669.043	81.69
669.246	77.69
669.449	87.69
669.651	73.69
669.854	77.69
670.057	85.69
670.259	78.69
670.462	82.69
670.665	88.69
670.867	93.69
671.07	81.69
671.272	89.69
671.475	92.69
671.677	93.69
671.88	81.69
672.082	98.69
672.284	74.69
672.487	78.69
672.689	71.69
672.892	88.69
