Data from Fe(NO3)3@0.0125M.TitratingCurve.Agarose3%dH2O.NegLispCup.LampEnergy10.LIBS07252019_HRD10591_17-00-22-336.txt Node
Date: Thu Jul 25 17:00:22 EDT 2019
User: cochatt
Spectrometer: HR+D1059
Trigger mode: 1
Integration Time (sec): 1.000000E-1
Scans to average: 1
Electric dark correction enabled: true
Nonlinearity correction enabled: false
Boxcar width: 0
XAxis mode: Wavelengths
Number of Pixels in Spectrum: 2048
>>>>>Begin Spectral Data<<<<<
223.165	-8.25
223.4	-8.25
223.635	-8.25
223.869	-23.25
224.104	-4.25
224.338	-10.25
224.573	-15.25
224.808	-12.25
225.042	-14.25
225.277	-10.25
225.511	4.75
225.746	-8.25
225.98	7.75
226.215	2.75
226.449	6.75
226.683	21.75
226.918	30.75
227.152	31.75
227.387	34.75
227.621	34.75
227.856	47.75
228.09	48.75
228.324	43.75
228.559	72.75
228.793	52.75
229.027	79.75
229.262	79.75
229.496	74.75
229.73	94.75
229.964	88.75
230.199	91.75
230.433	100.75
230.667	98.75
230.901	115.75
231.136	119.75
231.37	111.75
231.604	113.75
231.838	108.75
232.072	106.75
232.306	113.75
232.541	115.75
232.775	108.75
233.009	108.75
233.243	109.75
233.477	101.75
233.711	101.75
233.945	117.75
234.179	112.75
234.413	105.75
234.647	111.75
234.881	116.75
235.115	108.75
235.349	118.75
235.583	97.75
235.817	119.75
236.051	110.75
236.285	102.75
236.519	111.75
236.753	93.75
236.987	121.75
237.221	112.75
237.455	122.75
237.689	109.75
237.922	102.75
238.156	124.75
238.39	121.75
238.624	123.75
238.858	122.75
239.091	124.75
239.325	116.75
239.559	132.75
239.793	128.75
240.027	136.75
240.26	125.75
240.494	117.75
240.728	111.75
240.961	121.75
241.195	121.75
241.429	122.75
241.662	129.75
241.896	134.75
242.13	128.75
242.363	128.75
242.597	128.75
242.83	135.75
243.064	126.75
243.298	118.75
243.531	121.75
243.765	127.75
243.998	130.75
244.232	133.75
244.465	136.75
244.699	124.75
244.932	138.75
245.166	136.75
245.399	101.75
245.633	127.75
245.866	150.75
246.099	129.75
246.333	141.75
246.566	139.75
246.8	151.75
247.033	140.75
247.266	138.75
247.5	140.75
247.733	151.75
247.966	139.75
248.2	159.75
248.433	168.75
248.666	156.75
248.899	161.75
249.133	155.75
249.366	155.75
249.599	156.75
249.832	159.75
250.066	153.75
250.299	161.75
250.532	141.75
250.765	157.75
250.998	164.75
251.231	157.75
251.465	158.75
251.698	172.75
251.931	152.75
252.164	165.75
252.397	178.75
252.63	149.75
252.863	186.75
253.096	168.75
253.329	173.75
253.562	154.75
253.795	168.75
254.028	164.75
254.261	180.75
254.494	182.75
254.727	175.75
254.96	157.75
255.193	171.75
255.426	159.75
255.659	143.75
255.892	180.75
256.124	168.75
256.357	172.75
256.59	187.75
256.823	184.75
257.056	171.75
257.289	183.75
257.521	177.75
257.754	162.75
257.987	176.75
258.22	172.75
258.452	184.75
258.685	199.75
258.918	197.75
259.151	198.75
259.383	188.75
259.616	189.75
259.849	199.75
260.081	208.75
260.314	221.75
260.547	196.75
260.779	175.75
261.012	199.75
261.244	198.75
261.477	198.75
261.71	204.75
261.942	203.75
262.175	181.75
262.407	198.75
262.64	189.75
262.872	209.75
263.105	194.75
263.337	209.75
263.57	215.75
263.802	212.75
264.035	212.75
264.267	193.75
264.499	209.75
264.732	172.75
264.964	189.75
265.197	200.75
265.429	204.75
265.661	195.75
265.894	196.75
266.126	224.75
266.358	200.75
266.591	198.75
266.823	208.75
267.055	213.75
267.287	216.75
267.52	203.75
267.752	195.75
267.984	213.75
268.216	201.75
268.448	203.75
268.681	212.75
268.913	210.75
269.145	215.75
269.377	209.75
269.609	190.75
269.841	203.75
270.073	203.75
270.306	205.75
270.538	219.75
270.77	218.75
271.002	219.75
271.234	228.75
271.466	212.75
271.698	225.75
271.93	215.75
272.162	217.75
272.394	207.75
272.626	227.75
272.858	240.75
273.09	217.75
273.322	233.75
273.553	230.75
273.785	224.75
274.017	262.75
274.249	251.75
274.481	259.75
274.713	263.75
274.945	275.75
275.176	287.75
275.408	278.75
275.64	255.75
275.872	257.75
276.104	244.75
276.335	242.75
276.567	237.75
276.799	259.75
277.031	237.75
277.262	243.75
277.494	239.75
277.726	234.75
277.957	236.75
278.189	247.75
278.421	246.75
278.652	241.75
278.884	252.75
279.115	255.75
279.347	275.75
279.579	239.75
279.81	256.75
280.042	261.75
280.273	235.75
280.505	232.75
280.736	257.75
280.968	263.75
281.199	256.75
281.431	267.75
281.662	275.75
281.894	255.75
282.125	253.75
282.356	257.75
282.588	278.75
282.819	248.75
283.051	263.75
283.282	277.75
283.513	269.75
283.745	281.75
283.976	268.75
284.207	253.75
284.439	245.75
284.67	269.75
284.901	271.75
285.132	265.75
285.364	278.75
285.595	275.75
285.826	280.75
286.057	289.75
286.288	289.75
286.52	275.75
286.751	282.75
286.982	275.75
287.213	276.75
287.444	294.75
287.675	278.75
287.906	288.75
288.138	275.75
288.369	280.75
288.6	268.75
288.831	278.75
289.062	295.75
289.293	294.75
289.524	290.75
289.755	288.75
289.986	278.75
290.217	294.75
290.448	298.75
290.679	291.75
290.91	299.75
291.141	287.75
291.371	297.75
291.602	303.75
291.833	289.75
292.064	320.75
292.295	283.75
292.526	300.75
292.757	288.75
292.987	276.75
293.218	288.75
293.449	304.75
293.68	288.75
293.91	311.75
294.141	293.75
294.372	296.75
294.603	297.75
294.833	326.75
295.064	317.75
295.295	315.75
295.525	310.75
295.756	315.75
295.987	299.75
296.217	316.75
296.448	303.75
296.679	310.75
296.909	323.75
297.14	312.75
297.37	295.75
297.601	323.75
297.831	315.75
298.062	322.75
298.292	321.75
298.523	334.75
298.753	333.75
298.984	314.75
299.214	304.75
299.445	315.75
299.675	321.75
299.905	321.75
300.136	337.75
300.366	332.75
300.597	328.75
300.827	326.75
301.057	330.75
301.288	331.75
301.518	326.75
301.748	345.75
301.979	356.75
302.209	348.75
302.439	331.75
302.669	341.75
302.9	343.75
303.13	330.75
303.36	352.75
303.59	317.75
303.82	337.75
304.051	338.75
304.281	358.75
304.511	345.75
304.741	348.75
304.971	344.75
305.201	356.75
305.431	339.75
305.661	363.75
305.891	354.75
306.121	364.75
306.352	360.75
306.582	338.75
306.812	347.75
307.042	353.75
307.272	362.75
307.502	346.75
307.731	343.75
307.961	344.75
308.191	340.75
308.421	354.75
308.651	351.75
308.881	350.75
309.111	365.75
309.341	344.75
309.571	347.75
309.8	341.75
310.03	355.75
310.26	357.75
310.49	357.75
310.72	356.75
310.949	322.75
311.179	349.75
311.409	358.75
311.639	353.75
311.868	352.75
312.098	346.75
312.328	367.75
312.557	369.75
312.787	368.75
313.017	383.75
313.246	379.75
313.476	353.75
313.706	357.75
313.935	370.75
314.165	369.75
314.394	367.75
314.624	375.75
314.853	385.75
315.083	385.75
315.312	388.75
315.542	383.75
315.771	378.75
316.001	369.75
316.23	388.75
316.46	381.75
316.689	394.75
316.919	408.75
317.148	391.75
317.377	378.75
317.607	377.75
317.836	389.75
318.065	383.75
318.295	401.75
318.524	391.75
318.753	387.75
318.983	390.75
319.212	409.75
319.441	389.75
319.67	388.75
319.9	380.75
320.129	397.75
320.358	402.75
320.587	407.75
320.816	404.75
321.046	380.75
321.275	416.75
321.504	416.75
321.733	410.75
321.962	403.75
322.191	411.75
322.42	407.75
322.649	409.75
322.878	398.75
323.108	392.75
323.337	384.75
323.566	396.75
323.795	405.75
324.024	408.75
324.253	406.75
324.482	399.75
324.71	403.75
324.939	389.75
325.168	416.75
325.397	409.75
325.626	401.75
325.855	417.75
326.084	435.75
326.313	426.75
326.542	410.75
326.77	421.75
326.999	423.75
327.228	439.75
327.457	431.75
327.686	414.75
327.914	419.75
328.143	423.75
328.372	429.75
328.6	422.75
328.829	399.75
329.058	430.75
329.287	431.75
329.515	440.75
329.744	431.75
329.972	436.75
330.201	439.75
330.43	449.75
330.658	439.75
330.887	445.75
331.115	411.75
331.344	441.75
331.572	459.75
331.801	456.75
332.03	449.75
332.258	448.75
332.486	467.75
332.715	473.75
332.943	457.75
333.172	455.75
333.4	466.75
333.629	457.75
333.857	461.75
334.085	472.75
334.314	470.75
334.542	457.75
334.771	492.75
334.999	489.75
335.227	479.75
335.455	477.75
335.684	470.75
335.912	472.75
336.14	500.75
336.369	467.75
336.597	472.75
336.825	491.75
337.053	486.75
337.281	467.75
337.51	480.75
337.738	490.75
337.966	476.75
338.194	476.75
338.422	490.75
338.65	466.75
338.878	474.75
339.106	458.75
339.334	470.75
339.562	464.75
339.79	464.75
340.018	482.75
340.246	455.75
340.474	464.75
340.702	452.75
340.93	460.75
341.158	462.75
341.386	444.75
341.614	468.75
341.842	454.75
342.07	455.75
342.298	452.75
342.526	450.75
342.754	470.75
342.981	460.75
343.209	452.75
343.437	482.75
343.665	457.75
343.893	471.75
344.12	503.75
344.348	483.75
344.576	482.75
344.804	474.75
345.031	453.75
345.259	471.75
345.487	454.75
345.714	465.75
345.942	477.75
346.17	460.75
346.397	457.75
346.625	457.75
346.853	433.75
347.08	436.75
347.308	457.75
347.535	461.75
347.763	456.75
347.99	429.75
348.218	433.75
348.445	445.75
348.673	448.75
348.9	449.75
349.128	444.75
349.355	432.75
349.583	451.75
349.81	444.75
350.037	445.75
350.265	464.75
350.492	473.75
350.72	452.75
350.947	442.75
351.174	450.75
351.402	427.75
351.629	427.75
351.856	447.75
352.083	437.75
352.311	442.75
352.538	440.75
352.765	424.75
352.992	458.75
353.22	435.75
353.447	447.75
353.674	449.75
353.901	460.75
354.128	437.75
354.355	437.75
354.583	442.75
354.81	447.75
355.037	411.75
355.264	438.75
355.491	433.75
355.718	454.75
355.945	451.75
356.172	453.75
356.399	442.75
356.626	425.75
356.853	454.75
357.08	468.75
357.307	452.75
357.534	460.75
357.761	456.75
357.988	464.75
358.215	475.75
358.441	471.75
358.668	455.75
358.895	457.75
359.122	442.75
359.349	448.75
359.576	462.75
359.802	431.75
360.029	464.75
360.256	433.75
360.483	456.75
360.709	436.75
360.936	464.75
361.163	448.75
361.39	451.75
361.616	455.75
361.843	469.75
362.07	454.75
362.296	454.75
362.523	450.75
362.749	449.75
362.976	465.75
363.203	469.75
363.429	440.75
363.656	468.75
363.882	470.75
364.109	453.75
364.335	451.75
364.562	461.75
364.788	472.75
365.015	467.75
365.241	453.75
365.468	471.75
365.694	447.75
365.92	463.75
366.147	475.75
366.373	451.75
366.599	469.75
366.826	459.75
367.052	471.75
367.278	474.75
367.505	457.75
367.731	479.75
367.957	469.75
368.184	467.75
368.41	473.75
368.636	496.75
368.862	474.75
369.089	483.75
369.315	490.75
369.541	501.75
369.767	499.75
369.993	477.75
370.219	487.75
370.445	479.75
370.672	474.75
370.898	466.75
371.124	481.75
371.35	488.75
371.576	504.75
371.802	508.75
372.028	489.75
372.254	479.75
372.48	513.75
372.706	523.75
372.932	526.75
373.158	504.75
373.384	499.75
373.61	509.75
373.835	531.75
374.061	507.75
374.287	487.75
374.513	528.75
374.739	533.75
374.965	524.75
375.191	533.75
375.416	515.75
375.642	498.75
375.868	524.75
376.094	517.75
376.319	508.75
376.545	516.75
376.771	507.75
376.997	503.75
377.222	513.75
377.448	489.75
377.674	487.75
377.899	498.75
378.125	502.75
378.35	497.75
378.576	492.75
378.802	512.75
379.027	495.75
379.253	496.75
379.478	498.75
379.704	491.75
379.929	499.75
380.155	506.75
380.38	484.75
380.606	515.75
380.831	528.75
381.057	519.75
381.282	510.75
381.507	517.75
381.733	508.75
381.958	532.75
382.184	516.75
382.409	497.75
382.634	540.75
382.86	527.75
383.085	511.75
383.31	517.75
383.535	532.75
383.761	512.75
383.986	511.75
384.211	531.75
384.436	540.75
384.662	525.75
384.887	540.75
385.112	537.75
385.337	556.75
385.562	565.75
385.787	540.75
386.013	568.75
386.238	549.75
386.463	564.75
386.688	547.75
386.913	540.75
387.138	559.75
387.363	555.75
387.588	564.75
387.813	559.75
388.038	571.75
388.263	557.75
388.488	561.75
388.713	569.75
388.938	586.75
389.163	589.75
389.387	556.75
389.612	571.75
389.837	570.75
390.062	567.75
390.287	571.75
390.512	575.75
390.736	575.75
390.961	597.75
391.186	565.75
391.411	594.75
391.636	625.75
391.86	599.75
392.085	583.75
392.31	582.75
392.534	590.75
392.759	599.75
392.984	572.75
393.208	604.75
393.433	647.75
393.658	650.75
393.882	608.75
394.107	606.75
394.331	598.75
394.556	580.75
394.78	599.75
395.005	616.75
395.229	600.75
395.454	631.75
395.678	605.75
395.903	583.75
396.127	581.75
396.352	612.75
396.576	629.75
396.801	604.75
397.025	648.75
397.249	647.75
397.474	670.75
397.698	603.75
397.922	644.75
398.147	609.75
398.371	631.75
398.595	635.75
398.82	635.75
399.044	651.75
399.268	665.75
399.492	732.75
399.717	723.75
399.941	724.75
400.165	751.75
400.389	708.75
400.613	700.75
400.837	687.75
401.062	681.75
401.286	681.75
401.51	676.75
401.734	664.75
401.958	661.75
402.182	659.75
402.406	689.75
402.63	663.75
402.854	668.75
403.078	673.75
403.302	652.75
403.526	652.75
403.75	671.75
403.974	667.75
404.198	651.75
404.422	691.75
404.645	666.75
404.869	657.75
405.093	681.75
405.317	669.75
405.541	677.75
405.765	677.75
405.988	684.75
406.212	710.75
406.436	689.75
406.66	708.75
406.883	695.75
407.107	700.75
407.331	723.75
407.555	758.75
407.778	731.75
408.002	744.75
408.226	767.75
408.449	772.75
408.673	751.75
408.896	734.75
409.12	711.75
409.344	722.75
409.567	722.75
409.791	721.75
410.014	717.75
410.238	722.75
410.461	671.75
410.685	716.75
410.908	721.75
411.132	689.75
411.355	687.75
411.578	681.75
411.802	695.75
412.025	707.75
412.249	701.75
412.472	689.75
412.695	693.75
412.919	692.75
413.142	685.75
413.365	658.75
413.589	672.75
413.812	658.75
414.035	691.75
414.258	676.75
414.482	674.75
414.705	654.75
414.928	679.75
415.151	682.75
415.374	678.75
415.597	670.75
415.821	652.75
416.044	642.75
416.267	637.75
416.49	649.75
416.713	644.75
416.936	676.75
417.159	632.75
417.382	651.75
417.605	632.75
417.828	641.75
418.051	650.75
418.274	629.75
418.497	634.75
418.72	663.75
418.943	659.75
419.166	668.75
419.389	696.75
419.611	692.75
419.834	671.75
420.057	647.75
420.28	654.75
420.503	627.75
420.726	615.75
420.948	596.75
421.171	632.75
421.394	623.75
421.617	637.75
421.839	633.75
422.062	642.75
422.285	625.75
422.507	638.75
422.73	633.75
422.953	652.75
423.175	625.75
423.398	638.75
423.621	632.75
423.843	644.75
424.066	618.75
424.288	618.75
424.511	630.75
424.733	608.75
424.956	620.75
425.178	650.75
425.401	643.75
425.623	630.75
425.846	608.75
426.068	630.75
426.291	631.75
426.513	630.75
426.735	619.75
426.958	618.75
427.18	614.75
427.402	641.75
427.625	630.75
427.847	615.75
428.069	608.75
428.292	623.75
428.514	595.75
428.736	628.75
428.958	612.75
429.181	600.75
429.403	599.75
429.625	592.75
429.847	599.75
430.069	621.75
430.292	598.75
430.514	592.75
430.736	622.75
430.958	629.75
431.18	639.75
431.402	614.75
431.624	627.75
431.846	603.75
432.068	625.75
432.29	623.75
432.512	604.75
432.734	623.75
432.956	620.75
433.178	644.75
433.4	618.75
433.622	618.75
433.844	635.75
434.066	635.75
434.287	618.75
434.509	624.75
434.731	646.75
434.953	609.75
435.175	624.75
435.397	636.75
435.618	644.75
435.84	636.75
436.062	628.75
436.284	589.75
436.505	609.75
436.727	620.75
436.949	616.75
437.17	598.75
437.392	611.75
437.614	611.75
437.835	595.75
438.057	580.75
438.278	597.75
438.5	613.75
438.721	612.75
438.943	598.75
439.165	616.75
439.386	604.75
439.608	608.75
439.829	607.75
440.05	623.75
440.272	624.75
440.493	630.75
440.715	619.75
440.936	621.75
441.158	604.75
441.379	631.75
441.6	637.75
441.822	647.75
442.043	627.75
442.264	648.75
442.486	618.75
442.707	631.75
442.928	635.75
443.149	628.75
443.371	620.75
443.592	625.75
443.813	621.75
444.034	634.75
444.255	623.75
444.476	645.75
444.698	651.75
444.919	654.75
445.14	722.75
445.361	693.75
445.582	645.75
445.803	612.75
446.024	618.75
446.245	613.75
446.466	603.75
446.687	592.75
446.908	616.75
447.129	605.75
447.35	619.75
447.571	598.75
447.792	582.75
448.013	603.75
448.234	593.75
448.455	601.75
448.675	566.75
448.896	587.75
449.117	595.75
449.338	582.75
449.559	575.75
449.779	607.75
450	591.75
450.221	577.75
450.442	588.75
450.662	570.75
450.883	589.75
451.104	554.75
451.324	557.75
451.545	567.75
451.766	596.75
451.986	569.75
452.207	563.75
452.428	585.75
452.648	556.75
452.869	555.75
453.089	566.75
453.31	569.75
453.53	564.75
453.751	567.75
453.971	547.75
454.192	561.75
454.412	567.75
454.633	553.75
454.853	559.75
455.073	559.75
455.294	563.75
455.514	552.75
455.734	575.75
455.955	576.75
456.175	535.75
456.395	561.75
456.616	589.75
456.836	571.75
457.056	564.75
457.276	540.75
457.497	583.75
457.717	545.75
457.937	555.75
458.157	560.75
458.377	559.75
458.598	587.75
458.818	606.75
459.038	590.75
459.258	578.75
459.478	609.75
459.698	603.75
459.918	598.75
460.138	631.75
460.358	633.75
460.578	653.75
460.798	648.75
461.018	651.75
461.238	647.75
461.458	681.75
461.678	666.75
461.898	661.75
462.118	662.75
462.338	684.75
462.558	675.75
462.777	707.75
462.997	688.75
463.217	724.75
463.437	736.75
463.657	708.75
463.876	710.75
464.096	684.75
464.316	676.75
464.536	701.75
464.755	709.75
464.975	697.75
465.195	667.75
465.414	629.75
465.634	644.75
465.854	635.75
466.073	635.75
466.293	632.75
466.512	618.75
466.732	603.75
466.951	610.75
467.171	618.75
467.391	629.75
467.61	617.75
467.829	595.75
468.049	627.75
468.268	608.75
468.488	598.75
468.707	620.75
468.927	619.75
469.146	616.75
469.365	616.75
469.585	605.75
469.804	609.75
470.023	608.75
470.243	607.75
470.462	613.75
470.681	634.75
470.901	603.75
471.12	627.75
471.339	647.75
471.558	631.75
471.777	634.75
471.997	618.75
472.216	637.75
472.435	603.75
472.654	635.75
472.873	611.75
473.092	627.75
473.311	619.75
473.53	608.75
473.749	596.75
473.968	620.75
474.187	626.75
474.406	626.75
474.625	613.75
474.844	636.75
475.063	627.75
475.282	629.75
475.501	640.75
475.72	659.75
475.939	636.75
476.158	641.75
476.377	658.75
476.596	675.75
476.814	671.75
477.033	667.75
477.252	654.75
477.471	671.75
477.69	704.75
477.908	701.75
478.127	716.75
478.346	699.75
478.564	692.75
478.783	713.75
479.002	712.75
479.22	721.75
479.439	725.75
479.658	745.75
479.876	725.75
480.095	747.75
480.313	745.75
480.532	761.75
480.751	726.75
480.969	723.75
481.188	715.75
481.406	739.75
481.624	752.75
481.843	736.75
482.061	731.75
482.28	757.75
482.498	742.75
482.717	730.75
482.935	736.75
483.153	747.75
483.372	721.75
483.59	743.75
483.808	736.75
484.027	740.75
484.245	752.75
484.463	742.75
484.681	745.75
484.9	748.75
485.118	756.75
485.336	715.75
485.554	756.75
485.772	743.75
485.99	729.75
486.209	755.75
486.427	764.75
486.645	769.75
486.863	773.75
487.081	768.75
487.299	743.75
487.517	771.75
487.735	755.75
487.953	748.75
488.171	775.75
488.389	743.75
488.607	799.75
488.825	778.75
489.043	773.75
489.261	781.75
489.479	773.75
489.696	771.75
489.914	778.75
490.132	754.75
490.35	797.75
490.568	759.75
490.786	777.75
491.003	772.75
491.221	757.75
491.439	803.75
491.657	781.75
491.874	793.75
492.092	793.75
492.31	788.75
492.527	792.75
492.745	810.75
492.963	789.75
493.18	783.75
493.398	780.75
493.615	804.75
493.833	814.75
494.05	792.75
494.268	825.75
494.485	803.75
494.703	805.75
494.92	814.75
495.138	806.75
495.355	817.75
495.573	822.75
495.79	833.75
496.008	856.75
496.225	855.75
496.442	842.75
496.66	831.75
496.877	859.75
497.094	892.75
497.312	867.75
497.529	863.75
497.746	875.75
497.963	893.75
498.181	945.75
498.398	931.75
498.615	964.75
498.832	982.75
499.049	1003.75
499.267	1060.75
499.484	1064.75
499.701	1062.75
499.918	1127.75
500.135	1177.75
500.352	1203.75
500.569	1168.75
500.786	1176.75
501.003	1184.75
501.22	1174.75
501.437	1107.75
501.654	1087.75
501.871	1035.75
502.088	1029.75
502.305	1003.75
502.522	1000.75
502.739	961.75
502.956	954.75
503.172	915.75
503.389	931.75
503.606	890.75
503.823	883.75
504.04	868.75
504.256	874.75
504.473	851.75
504.69	844.75
504.907	847.75
505.123	851.75
505.34	820.75
505.557	787.75
505.773	792.75
505.99	807.75
506.207	774.75
506.423	767.75
506.64	778.75
506.856	752.75
507.073	737.75
507.289	746.75
507.506	726.75
507.722	746.75
507.939	734.75
508.155	709.75
508.372	720.75
508.588	691.75
508.805	697.75
509.021	703.75
509.238	710.75
509.454	708.75
509.67	693.75
509.887	701.75
510.103	707.75
510.319	681.75
510.536	692.75
510.752	673.75
510.968	691.75
511.184	662.75
511.401	664.75
511.617	692.75
511.833	676.75
512.049	697.75
512.265	697.75
512.481	684.75
512.698	671.75
512.914	677.75
513.13	685.75
513.346	666.75
513.562	672.75
513.778	678.75
513.994	688.75
514.21	671.75
514.426	666.75
514.642	697.75
514.858	697.75
515.074	683.75
515.29	707.75
515.506	703.75
515.721	705.75
515.937	679.75
516.153	701.75
516.369	717.75
516.585	720.75
516.801	719.75
517.016	734.75
517.232	743.75
517.448	743.75
517.664	731.75
517.879	691.75
518.095	727.75
518.311	747.75
518.527	715.75
518.742	713.75
518.958	698.75
519.173	737.75
519.389	705.75
519.605	673.75
519.82	672.75
520.036	695.75
520.251	693.75
520.467	679.75
520.682	678.75
520.898	675.75
521.113	646.75
521.329	673.75
521.544	669.75
521.76	680.75
521.975	619.75
522.19	639.75
522.406	655.75
522.621	628.75
522.836	662.75
523.052	655.75
523.267	663.75
523.482	627.75
523.698	651.75
523.913	642.75
524.128	642.75
524.343	625.75
524.559	641.75
524.774	633.75
524.989	616.75
525.204	617.75
525.419	609.75
525.634	610.75
525.849	632.75
526.064	606.75
526.28	636.75
526.495	647.75
526.71	647.75
526.925	624.75
527.14	619.75
527.355	631.75
527.57	617.75
527.785	628.75
527.999	617.75
528.214	624.75
528.429	634.75
528.644	612.75
528.859	596.75
529.074	612.75
529.289	637.75
529.503	590.75
529.718	623.75
529.933	608.75
530.148	608.75
530.363	625.75
530.577	618.75
530.792	599.75
531.007	591.75
531.221	611.75
531.436	627.75
531.651	640.75
531.865	613.75
532.08	603.75
532.295	609.75
532.509	588.75
532.724	586.75
532.938	587.75
533.153	602.75
533.367	609.75
533.582	592.75
533.796	600.75
534.011	611.75
534.225	592.75
534.44	581.75
534.654	569.75
534.868	583.75
535.083	577.75
535.297	580.75
535.511	612.75
535.726	575.75
535.94	600.75
536.154	596.75
536.369	574.75
536.583	592.75
536.797	588.75
537.011	576.75
537.225	579.75
537.44	568.75
537.654	577.75
537.868	536.75
538.082	552.75
538.296	575.75
538.51	578.75
538.724	570.75
538.938	591.75
539.153	571.75
539.367	563.75
539.581	550.75
539.795	563.75
540.009	554.75
540.222	559.75
540.436	555.75
540.65	555.75
540.864	548.75
541.078	557.75
541.292	551.75
541.506	574.75
541.72	572.75
541.934	562.75
542.147	585.75
542.361	550.75
542.575	564.75
542.789	545.75
543.002	553.75
543.216	569.75
543.43	550.75
543.644	555.75
543.857	555.75
544.071	564.75
544.285	563.75
544.498	557.75
544.712	562.75
544.925	551.75
545.139	565.75
545.352	560.75
545.566	566.75
545.779	550.75
545.993	547.75
546.206	551.75
546.42	559.75
546.633	561.75
546.847	560.75
547.06	575.75
547.274	561.75
547.487	551.75
547.7	599.75
547.914	550.75
548.127	538.75
548.34	574.75
548.554	548.75
548.767	567.75
548.98	559.75
549.193	551.75
549.407	563.75
549.62	545.75
549.833	549.75
550.046	559.75
550.259	559.75
550.473	545.75
550.686	544.75
550.899	560.75
551.112	589.75
551.325	559.75
551.538	555.75
551.751	549.75
551.964	530.75
552.177	547.75
552.39	540.75
552.603	557.75
552.816	540.75
553.029	567.75
553.242	572.75
553.455	572.75
553.667	559.75
553.88	557.75
554.093	532.75
554.306	532.75
554.519	549.75
554.732	533.75
554.944	539.75
555.157	556.75
555.37	517.75
555.583	524.75
555.795	520.75
556.008	536.75
556.221	509.75
556.433	516.75
556.646	519.75
556.859	529.75
557.071	500.75
557.284	497.75
557.496	503.75
557.709	506.75
557.921	492.75
558.134	479.75
558.346	504.75
558.559	493.75
558.771	519.75
558.984	511.75
559.196	499.75
559.409	501.75
559.621	489.75
559.833	491.75
560.046	502.75
560.258	496.75
560.47	466.75
560.683	492.75
560.895	492.75
561.107	497.75
561.32	491.75
561.532	483.75
561.744	489.75
561.956	473.75
562.168	488.75
562.381	485.75
562.593	492.75
562.805	483.75
563.017	512.75
563.229	481.75
563.441	488.75
563.653	496.75
563.865	488.75
564.077	503.75
564.289	495.75
564.501	500.75
564.713	502.75
564.925	513.75
565.137	494.75
565.349	521.75
565.561	519.75
565.773	542.75
565.985	519.75
566.197	539.75
566.408	543.75
566.62	540.75
566.832	537.75
567.044	571.75
567.255	553.75
567.467	568.75
567.679	562.75
567.891	549.75
568.102	556.75
568.314	529.75
568.526	531.75
568.737	526.75
568.949	532.75
569.161	502.75
569.372	479.75
569.584	496.75
569.795	507.75
570.007	487.75
570.218	463.75
570.43	455.75
570.641	452.75
570.853	469.75
571.064	450.75
571.276	459.75
571.487	447.75
571.698	432.75
571.91	449.75
572.121	441.75
572.333	460.75
572.544	426.75
572.755	409.75
572.966	433.75
573.178	415.75
573.389	415.75
573.6	431.75
573.811	411.75
574.023	397.75
574.234	416.75
574.445	397.75
574.656	405.75
574.867	404.75
575.078	387.75
575.289	395.75
575.501	397.75
575.712	403.75
575.923	395.75
576.134	380.75
576.345	405.75
576.556	391.75
576.767	387.75
576.978	391.75
577.188	370.75
577.399	395.75
577.61	377.75
577.821	387.75
578.032	362.75
578.243	349.75
578.454	366.75
578.665	383.75
578.875	386.75
579.086	371.75
579.297	357.75
579.508	364.75
579.718	364.75
579.929	375.75
580.14	353.75
580.35	363.75
580.561	375.75
580.772	347.75
580.982	374.75
581.193	371.75
581.403	373.75
581.614	351.75
581.825	349.75
582.035	369.75
582.246	348.75
582.456	361.75
582.667	352.75
582.877	358.75
583.087	368.75
583.298	338.75
583.508	350.75
583.719	369.75
583.929	359.75
584.139	346.75
584.35	331.75
584.56	336.75
584.77	335.75
584.981	332.75
585.191	345.75
585.401	353.75
585.611	348.75
585.821	327.75
586.032	346.75
586.242	319.75
586.452	336.75
586.662	341.75
586.872	346.75
587.082	340.75
587.292	334.75
587.502	339.75
587.713	324.75
587.923	335.75
588.133	342.75
588.343	329.75
588.553	329.75
588.762	334.75
588.972	367.75
589.182	429.75
589.392	398.75
589.602	360.75
589.812	417.75
590.022	375.75
590.232	330.75
590.441	337.75
590.651	329.75
590.861	330.75
591.071	324.75
591.281	334.75
591.49	319.75
591.7	321.75
591.91	342.75
592.119	310.75
592.329	324.75
592.539	355.75
592.748	347.75
592.958	340.75
593.167	342.75
593.377	324.75
593.587	332.75
593.796	350.75
594.006	342.75
594.215	361.75
594.424	328.75
594.634	343.75
594.843	323.75
595.053	308.75
595.262	329.75
595.472	314.75
595.681	314.75
595.89	337.75
596.1	313.75
596.309	303.75
596.518	296.75
596.727	301.75
596.937	310.75
597.146	318.75
597.355	296.75
597.564	305.75
597.774	321.75
597.983	311.75
598.192	309.75
598.401	303.75
598.61	295.75
598.819	318.75
599.028	294.75
599.237	299.75
599.446	288.75
599.655	293.75
599.864	287.75
600.073	300.75
600.282	301.75
600.491	292.75
600.7	293.75
600.909	286.75
601.118	273.75
601.327	278.75
601.536	282.75
601.745	273.75
601.953	286.75
602.162	295.75
602.371	278.75
602.58	275.75
602.789	285.75
602.997	277.75
603.206	295.75
603.415	278.75
603.623	286.75
603.832	284.75
604.041	286.75
604.249	272.75
604.458	275.75
604.666	277.75
604.875	269.75
605.084	268.75
605.292	266.75
605.501	262.75
605.709	290.75
605.918	262.75
606.126	273.75
606.334	269.75
606.543	283.75
606.751	267.75
606.96	287.75
607.168	282.75
607.376	290.75
607.585	280.75
607.793	266.75
608.001	269.75
608.21	261.75
608.418	286.75
608.626	276.75
608.834	254.75
609.043	280.75
609.251	253.75
609.459	248.75
609.667	261.75
609.875	262.75
610.083	264.75
610.291	276.75
610.499	260.75
610.707	255.75
610.916	256.75
611.124	263.75
611.332	278.75
611.54	273.75
611.748	269.75
611.955	267.75
612.163	259.75
612.371	230.75
612.579	259.75
612.787	255.75
612.995	265.75
613.203	264.75
613.411	253.75
613.618	243.75
613.826	248.75
614.034	271.75
614.242	269.75
614.449	239.75
614.657	272.75
614.865	269.75
615.072	253.75
615.28	259.75
615.488	248.75
615.695	243.75
615.903	231.75
616.111	237.75
616.318	258.75
616.526	241.75
616.733	239.75
616.941	252.75
617.148	248.75
617.356	246.75
617.563	237.75
617.771	255.75
617.978	267.75
618.185	248.75
618.393	242.75
618.6	266.75
618.807	269.75
619.015	240.75
619.222	251.75
619.429	241.75
619.637	255.75
619.844	261.75
620.051	241.75
620.258	225.75
620.466	243.75
620.673	233.75
620.88	219.75
621.087	216.75
621.294	226.75
621.501	233.75
621.708	231.75
621.915	237.75
622.122	216.75
622.329	249.75
622.536	240.75
622.743	237.75
622.95	240.75
623.157	241.75
623.364	241.75
623.571	263.75
623.778	243.75
623.985	218.75
624.192	227.75
624.399	211.75
624.606	257.75
624.812	226.75
625.019	226.75
625.226	224.75
625.433	244.75
625.639	241.75
625.846	235.75
626.053	243.75
626.259	235.75
626.466	234.75
626.673	216.75
626.879	230.75
627.086	222.75
627.293	223.75
627.499	204.75
627.706	225.75
627.912	217.75
628.119	231.75
628.325	211.75
628.532	215.75
628.738	212.75
628.945	225.75
629.151	224.75
629.357	216.75
629.564	220.75
629.77	218.75
629.976	219.75
630.183	219.75
630.389	220.75
630.595	235.75
630.802	217.75
631.008	218.75
631.214	220.75
631.42	214.75
631.627	228.75
631.833	208.75
632.039	211.75
632.245	213.75
632.451	223.75
632.657	204.75
632.863	208.75
633.069	209.75
633.275	199.75
633.481	212.75
633.688	185.75
633.893	215.75
634.099	203.75
634.305	202.75
634.511	200.75
634.717	223.75
634.923	212.75
635.129	204.75
635.335	222.75
635.541	208.75
635.747	201.75
635.952	200.75
636.158	214.75
636.364	213.75
636.57	221.75
636.775	210.75
636.981	206.75
637.187	194.75
637.392	198.75
637.598	201.75
637.804	199.75
638.009	210.75
638.215	200.75
638.421	195.75
638.626	197.75
638.832	195.75
639.037	197.75
639.243	207.75
639.448	192.75
639.654	185.75
639.859	198.75
640.065	200.75
640.27	198.75
640.475	198.75
640.681	187.75
640.886	183.75
641.091	185.75
641.297	187.75
641.502	186.75
641.707	183.75
641.913	195.75
642.118	196.75
642.323	205.75
642.528	186.75
642.733	191.75
642.939	192.75
643.144	204.75
643.349	185.75
643.554	187.75
643.759	189.75
643.964	195.75
644.169	204.75
644.374	190.75
644.579	201.75
644.784	204.75
644.989	199.75
645.194	188.75
645.399	179.75
645.604	189.75
645.809	178.75
646.014	190.75
646.219	182.75
646.423	191.75
646.628	201.75
646.833	204.75
647.038	192.75
647.243	203.75
647.447	183.75
647.652	162.75
647.857	182.75
648.062	191.75
648.266	193.75
648.471	214.75
648.676	183.75
648.88	200.75
649.085	179.75
649.289	191.75
649.494	194.75
649.698	192.75
649.903	186.75
650.107	184.75
650.312	190.75
650.516	188.75
650.721	179.75
650.925	192.75
651.13	179.75
651.334	185.75
651.539	186.75
651.743	193.75
651.947	175.75
652.152	203.75
652.356	179.75
652.56	185.75
652.764	193.75
652.969	196.75
653.173	180.75
653.377	176.75
653.581	172.75
653.785	181.75
653.99	168.75
654.194	186.75
654.398	181.75
654.602	177.75
654.806	183.75
655.01	187.75
655.214	165.75
655.418	172.75
655.622	193.75
655.826	180.75
656.03	174.75
656.234	189.75
656.438	168.75
656.642	175.75
656.846	176.75
657.049	165.75
657.253	159.75
657.457	163.75
657.661	161.75
657.865	152.75
658.068	150.75
658.272	139.75
658.476	129.75
658.68	130.75
658.883	129.75
659.087	120.75
659.291	119.75
659.494	124.75
659.698	122.75
659.901	106.75
660.105	120.75
660.309	113.75
660.512	109.75
660.716	100.75
660.919	101.75
661.123	108.75
661.326	99.75
661.53	93.75
661.733	101.75
661.936	95.75
662.14	104.75
662.343	85.75
662.546	84.75
662.75	96.75
662.953	90.75
663.156	84.75
663.36	76.75
663.563	76.75
663.766	87.75
663.969	88.75
664.173	98.75
664.376	72.75
664.579	90.75
664.782	68.75
664.985	77.75
665.188	88.75
665.391	82.75
665.594	83.75
665.797	64.75
666	74.75
666.203	77.75
666.406	83.75
666.609	78.75
666.812	98.75
667.015	85.75
667.218	83.75
667.421	74.75
667.624	71.75
667.827	83.75
668.03	80.75
668.232	76.75
668.435	89.75
668.638	86.75
668.841	84.75
669.043	86.75
669.246	78.75
669.449	81.75
669.651	91.75
669.854	86.75
670.057	82.75
670.259	80.75
670.462	81.75
670.665	77.75
670.867	85.75
671.07	63.75
671.272	91.75
671.475	83.75
671.677	82.75
671.88	69.75
672.082	92.75
672.284	75.75
672.487	76.75
672.689	82.75
672.892	87.75
