Data from Fe(NO3)3@0.0125M.TitratingCurve.Agarose3%dH2O.NegLispCup.LampEnergy10.LIBS07252019_HRD10591_16-58-50-336.txt Node
Date: Thu Jul 25 16:58:50 EDT 2019
User: cochatt
Spectrometer: HR+D1059
Trigger mode: 1
Integration Time (sec): 1.000000E-1
Scans to average: 1
Electric dark correction enabled: true
Nonlinearity correction enabled: false
Boxcar width: 0
XAxis mode: Wavelengths
Number of Pixels in Spectrum: 2048
>>>>>Begin Spectral Data<<<<<
223.165	-27.44
223.4	-27.44
223.635	-27.44
223.869	-22.44
224.104	-15.44
224.338	-3.44
224.573	-3.44
224.808	-19.44
225.042	-18.44
225.277	3.56
225.511	6.56
225.746	2.56
225.98	3.56
226.215	14.56
226.449	8.56
226.683	11.56
226.918	28.56
227.152	30.56
227.387	24.56
227.621	38.56
227.856	40.56
228.09	37.56
228.324	42.56
228.559	46.56
228.793	71.56
229.027	106.56
229.262	102.56
229.496	122.56
229.73	121.56
229.964	109.56
230.199	122.56
230.433	121.56
230.667	117.56
230.901	119.56
231.136	127.56
231.37	136.56
231.604	139.56
231.838	121.56
232.072	128.56
232.306	129.56
232.541	124.56
232.775	125.56
233.009	125.56
233.243	134.56
233.477	136.56
233.711	125.56
233.945	124.56
234.179	130.56
234.413	115.56
234.647	136.56
234.881	124.56
235.115	142.56
235.349	147.56
235.583	137.56
235.817	133.56
236.051	134.56
236.285	138.56
236.519	130.56
236.753	136.56
236.987	150.56
237.221	144.56
237.455	153.56
237.689	132.56
237.922	148.56
238.156	140.56
238.39	135.56
238.624	149.56
238.858	144.56
239.091	155.56
239.325	171.56
239.559	145.56
239.793	168.56
240.027	153.56
240.26	153.56
240.494	160.56
240.728	152.56
240.961	168.56
241.195	178.56
241.429	161.56
241.662	158.56
241.896	168.56
242.13	167.56
242.363	146.56
242.597	151.56
242.83	159.56
243.064	166.56
243.298	166.56
243.531	171.56
243.765	168.56
243.998	184.56
244.232	189.56
244.465	178.56
244.699	183.56
244.932	172.56
245.166	189.56
245.399	202.56
245.633	178.56
245.866	182.56
246.099	183.56
246.333	177.56
246.566	184.56
246.8	179.56
247.033	196.56
247.266	187.56
247.5	192.56
247.733	187.56
247.966	204.56
248.2	193.56
248.433	190.56
248.666	195.56
248.899	197.56
249.133	213.56
249.366	209.56
249.599	200.56
249.832	220.56
250.066	211.56
250.299	207.56
250.532	199.56
250.765	201.56
250.998	217.56
251.231	216.56
251.465	212.56
251.698	198.56
251.931	226.56
252.164	223.56
252.397	219.56
252.63	216.56
252.863	218.56
253.096	236.56
253.329	211.56
253.562	213.56
253.795	215.56
254.028	221.56
254.261	236.56
254.494	229.56
254.727	219.56
254.96	224.56
255.193	234.56
255.426	244.56
255.659	235.56
255.892	226.56
256.124	242.56
256.357	252.56
256.59	224.56
256.823	231.56
257.056	227.56
257.289	229.56
257.521	252.56
257.754	250.56
257.987	248.56
258.22	256.56
258.452	264.56
258.685	267.56
258.918	264.56
259.151	275.56
259.383	262.56
259.616	264.56
259.849	283.56
260.081	277.56
260.314	278.56
260.547	269.56
260.779	272.56
261.012	283.56
261.244	266.56
261.477	267.56
261.71	276.56
261.942	267.56
262.175	274.56
262.407	277.56
262.64	282.56
262.872	296.56
263.105	286.56
263.337	292.56
263.57	297.56
263.802	286.56
264.035	279.56
264.267	290.56
264.499	268.56
264.732	281.56
264.964	276.56
265.197	286.56
265.429	278.56
265.661	287.56
265.894	313.56
266.126	310.56
266.358	292.56
266.591	291.56
266.823	285.56
267.055	292.56
267.287	308.56
267.52	314.56
267.752	287.56
267.984	308.56
268.216	325.56
268.448	304.56
268.681	291.56
268.913	309.56
269.145	290.56
269.377	309.56
269.609	306.56
269.841	326.56
270.073	327.56
270.306	302.56
270.538	308.56
270.77	331.56
271.002	321.56
271.234	336.56
271.466	330.56
271.698	318.56
271.93	329.56
272.162	338.56
272.394	358.56
272.626	317.56
272.858	363.56
273.09	345.56
273.322	352.56
273.553	348.56
273.785	332.56
274.017	341.56
274.249	354.56
274.481	370.56
274.713	376.56
274.945	363.56
275.176	375.56
275.408	381.56
275.64	368.56
275.872	365.56
276.104	368.56
276.335	370.56
276.567	362.56
276.799	367.56
277.031	380.56
277.262	364.56
277.494	361.56
277.726	378.56
277.957	368.56
278.189	365.56
278.421	354.56
278.652	376.56
278.884	376.56
279.115	380.56
279.347	386.56
279.579	378.56
279.81	369.56
280.042	373.56
280.273	358.56
280.505	386.56
280.736	386.56
280.968	390.56
281.199	392.56
281.431	390.56
281.662	386.56
281.894	402.56
282.125	391.56
282.356	405.56
282.588	395.56
282.819	406.56
283.051	417.56
283.282	395.56
283.513	394.56
283.745	406.56
283.976	410.56
284.207	404.56
284.439	405.56
284.67	420.56
284.901	420.56
285.132	414.56
285.364	418.56
285.595	414.56
285.826	422.56
286.057	420.56
286.288	423.56
286.52	392.56
286.751	436.56
286.982	433.56
287.213	436.56
287.444	420.56
287.675	426.56
287.906	417.56
288.138	418.56
288.369	438.56
288.6	432.56
288.831	443.56
289.062	427.56
289.293	446.56
289.524	444.56
289.755	447.56
289.986	438.56
290.217	445.56
290.448	438.56
290.679	456.56
290.91	442.56
291.141	440.56
291.371	447.56
291.602	464.56
291.833	452.56
292.064	433.56
292.295	430.56
292.526	432.56
292.757	441.56
292.987	462.56
293.218	462.56
293.449	474.56
293.68	457.56
293.91	454.56
294.141	469.56
294.372	436.56
294.603	440.56
294.833	467.56
295.064	468.56
295.295	456.56
295.525	450.56
295.756	469.56
295.987	456.56
296.217	466.56
296.448	480.56
296.679	453.56
296.909	471.56
297.14	482.56
297.37	490.56
297.601	465.56
297.831	485.56
298.062	462.56
298.292	485.56
298.523	484.56
298.753	485.56
298.984	497.56
299.214	490.56
299.445	492.56
299.675	485.56
299.905	494.56
300.136	510.56
300.366	494.56
300.597	488.56
300.827	481.56
301.057	493.56
301.288	508.56
301.518	491.56
301.748	513.56
301.979	501.56
302.209	517.56
302.439	504.56
302.669	510.56
302.9	524.56
303.13	509.56
303.36	517.56
303.59	508.56
303.82	529.56
304.051	494.56
304.281	539.56
304.511	538.56
304.741	536.56
304.971	509.56
305.201	521.56
305.431	538.56
305.661	515.56
305.891	538.56
306.121	530.56
306.352	537.56
306.582	520.56
306.812	527.56
307.042	530.56
307.272	542.56
307.502	510.56
307.731	530.56
307.961	517.56
308.191	532.56
308.421	535.56
308.651	533.56
308.881	521.56
309.111	533.56
309.341	540.56
309.571	550.56
309.8	544.56
310.03	535.56
310.26	521.56
310.49	533.56
310.72	527.56
310.949	534.56
311.179	533.56
311.409	542.56
311.639	545.56
311.868	569.56
312.098	536.56
312.328	567.56
312.557	574.56
312.787	577.56
313.017	562.56
313.246	566.56
313.476	580.56
313.706	566.56
313.935	575.56
314.165	580.56
314.394	563.56
314.624	582.56
314.853	596.56
315.083	583.56
315.312	584.56
315.542	573.56
315.771	557.56
316.001	588.56
316.23	572.56
316.46	576.56
316.689	581.56
316.919	615.56
317.148	591.56
317.377	600.56
317.607	601.56
317.836	578.56
318.065	602.56
318.295	591.56
318.524	591.56
318.753	602.56
318.983	590.56
319.212	575.56
319.441	605.56
319.67	609.56
319.9	587.56
320.129	571.56
320.358	607.56
320.587	574.56
320.816	606.56
321.046	599.56
321.275	617.56
321.504	613.56
321.733	626.56
321.962	617.56
322.191	612.56
322.42	619.56
322.649	621.56
322.878	632.56
323.108	610.56
323.337	632.56
323.566	610.56
323.795	629.56
324.024	626.56
324.253	608.56
324.482	627.56
324.71	621.56
324.939	620.56
325.168	633.56
325.397	630.56
325.626	636.56
325.855	640.56
326.084	646.56
326.313	642.56
326.542	630.56
326.77	653.56
326.999	655.56
327.228	639.56
327.457	635.56
327.686	636.56
327.914	672.56
328.143	658.56
328.372	645.56
328.6	653.56
328.829	657.56
329.058	672.56
329.287	639.56
329.515	652.56
329.744	649.56
329.972	665.56
330.201	667.56
330.43	660.56
330.658	652.56
330.887	658.56
331.115	685.56
331.344	666.56
331.572	695.56
331.801	684.56
332.03	674.56
332.258	690.56
332.486	681.56
332.715	702.56
332.943	674.56
333.172	690.56
333.4	692.56
333.629	704.56
333.857	714.56
334.085	715.56
334.314	731.56
334.542	682.56
334.771	712.56
334.999	685.56
335.227	732.56
335.455	725.56
335.684	733.56
335.912	724.56
336.14	724.56
336.369	706.56
336.597	697.56
336.825	713.56
337.053	738.56
337.281	709.56
337.51	694.56
337.738	712.56
337.966	711.56
338.194	667.56
338.422	703.56
338.65	685.56
338.878	702.56
339.106	688.56
339.334	697.56
339.562	727.56
339.79	692.56
340.018	678.56
340.246	672.56
340.474	684.56
340.702	672.56
340.93	702.56
341.158	713.56
341.386	689.56
341.614	714.56
341.842	684.56
342.07	684.56
342.298	692.56
342.526	682.56
342.754	698.56
342.981	669.56
343.209	706.56
343.437	706.56
343.665	687.56
343.893	699.56
344.12	732.56
344.348	722.56
344.576	740.56
344.804	716.56
345.031	691.56
345.259	689.56
345.487	688.56
345.714	686.56
345.942	664.56
346.17	670.56
346.397	704.56
346.625	675.56
346.853	665.56
347.08	644.56
347.308	664.56
347.535	676.56
347.763	676.56
347.99	688.56
348.218	685.56
348.445	676.56
348.673	656.56
348.9	660.56
349.128	664.56
349.355	662.56
349.583	682.56
349.81	694.56
350.037	682.56
350.265	660.56
350.492	668.56
350.72	648.56
350.947	673.56
351.174	678.56
351.402	658.56
351.629	678.56
351.856	664.56
352.083	688.56
352.311	639.56
352.538	663.56
352.765	678.56
352.992	684.56
353.22	661.56
353.447	652.56
353.674	668.56
353.901	672.56
354.128	663.56
354.355	654.56
354.583	670.56
354.81	688.56
355.037	660.56
355.264	665.56
355.491	668.56
355.718	682.56
355.945	679.56
356.172	671.56
356.399	681.56
356.626	674.56
356.853	678.56
357.08	675.56
357.307	688.56
357.534	638.56
357.761	653.56
357.988	681.56
358.215	682.56
358.441	693.56
358.668	672.56
358.895	668.56
359.122	661.56
359.349	671.56
359.576	682.56
359.802	678.56
360.029	657.56
360.256	655.56
360.483	675.56
360.709	686.56
360.936	660.56
361.163	684.56
361.39	669.56
361.616	668.56
361.843	658.56
362.07	669.56
362.296	671.56
362.523	676.56
362.749	638.56
362.976	654.56
363.203	667.56
363.429	669.56
363.656	675.56
363.882	680.56
364.109	680.56
364.335	694.56
364.562	700.56
364.788	676.56
365.015	702.56
365.241	695.56
365.468	704.56
365.694	675.56
365.92	675.56
366.147	703.56
366.373	696.56
366.599	708.56
366.826	688.56
367.052	692.56
367.278	701.56
367.505	698.56
367.731	689.56
367.957	688.56
368.184	701.56
368.41	729.56
368.636	686.56
368.862	701.56
369.089	683.56
369.315	688.56
369.541	686.56
369.767	698.56
369.993	728.56
370.219	704.56
370.445	712.56
370.672	713.56
370.898	696.56
371.124	717.56
371.35	712.56
371.576	708.56
371.802	715.56
372.028	763.56
372.254	730.56
372.48	724.56
372.706	741.56
372.932	723.56
373.158	710.56
373.384	712.56
373.61	731.56
373.835	724.56
374.061	717.56
374.287	713.56
374.513	741.56
374.739	720.56
374.965	758.56
375.191	724.56
375.416	739.56
375.642	737.56
375.868	710.56
376.094	719.56
376.319	716.56
376.545	718.56
376.771	723.56
376.997	735.56
377.222	710.56
377.448	720.56
377.674	718.56
377.899	711.56
378.125	705.56
378.35	709.56
378.576	716.56
378.802	728.56
379.027	704.56
379.253	715.56
379.478	742.56
379.704	713.56
379.929	743.56
380.155	706.56
380.38	702.56
380.606	727.56
380.831	700.56
381.057	733.56
381.282	707.56
381.507	731.56
381.733	726.56
381.958	733.56
382.184	755.56
382.409	733.56
382.634	752.56
382.86	731.56
383.085	756.56
383.31	725.56
383.535	745.56
383.761	724.56
383.986	749.56
384.211	764.56
384.436	790.56
384.662	725.56
384.887	749.56
385.112	760.56
385.337	765.56
385.562	771.56
385.787	770.56
386.013	774.56
386.238	773.56
386.463	799.56
386.688	785.56
386.913	778.56
387.138	769.56
387.363	788.56
387.588	790.56
387.813	781.56
388.038	775.56
388.263	800.56
388.488	787.56
388.713	807.56
388.938	806.56
389.163	789.56
389.387	829.56
389.612	781.56
389.837	812.56
390.062	782.56
390.287	817.56
390.512	800.56
390.736	787.56
390.961	818.56
391.186	813.56
391.411	814.56
391.636	794.56
391.86	818.56
392.085	834.56
392.31	796.56
392.534	817.56
392.759	791.56
392.984	822.56
393.208	791.56
393.433	825.56
393.658	818.56
393.882	804.56
394.107	818.56
394.331	800.56
394.556	815.56
394.78	820.56
395.005	806.56
395.229	806.56
395.454	832.56
395.678	824.56
395.903	828.56
396.127	843.56
396.352	810.56
396.576	816.56
396.801	814.56
397.025	856.56
397.249	839.56
397.474	848.56
397.698	839.56
397.922	855.56
398.147	855.56
398.371	872.56
398.595	877.56
398.82	892.56
399.044	895.56
399.268	912.56
399.492	933.56
399.717	945.56
399.941	968.56
400.165	941.56
400.389	924.56
400.613	924.56
400.837	913.56
401.062	913.56
401.286	892.56
401.51	886.56
401.734	890.56
401.958	892.56
402.182	881.56
402.406	858.56
402.63	880.56
402.854	894.56
403.078	924.56
403.302	910.56
403.526	900.56
403.75	877.56
403.974	893.56
404.198	897.56
404.422	886.56
404.645	905.56
404.869	886.56
405.093	900.56
405.317	910.56
405.541	894.56
405.765	903.56
405.988	918.56
406.212	901.56
406.436	901.56
406.66	960.56
406.883	941.56
407.107	935.56
407.331	943.56
407.555	944.56
407.778	952.56
408.002	973.56
408.226	981.56
408.449	996.56
408.673	975.56
408.896	910.56
409.12	935.56
409.344	935.56
409.567	908.56
409.791	897.56
410.014	903.56
410.238	929.56
410.461	928.56
410.685	914.56
410.908	909.56
411.132	916.56
411.355	895.56
411.578	922.56
411.802	898.56
412.025	914.56
412.249	888.56
412.472	901.56
412.695	887.56
412.919	881.56
413.142	883.56
413.365	897.56
413.589	900.56
413.812	864.56
414.035	854.56
414.258	895.56
414.482	866.56
414.705	865.56
414.928	859.56
415.151	892.56
415.374	856.56
415.597	853.56
415.821	867.56
416.044	854.56
416.267	845.56
416.49	859.56
416.713	855.56
416.936	864.56
417.159	842.56
417.382	847.56
417.605	836.56
417.828	849.56
418.051	854.56
418.274	856.56
418.497	803.56
418.72	796.56
418.943	818.56
419.166	858.56
419.389	905.56
419.611	902.56
419.834	894.56
420.057	855.56
420.28	900.56
420.503	822.56
420.726	835.56
420.948	841.56
421.171	817.56
421.394	820.56
421.617	849.56
421.839	813.56
422.062	832.56
422.285	820.56
422.507	853.56
422.73	836.56
422.953	839.56
423.175	844.56
423.398	841.56
423.621	804.56
423.843	825.56
424.066	837.56
424.288	808.56
424.511	854.56
424.733	842.56
424.956	824.56
425.178	830.56
425.401	816.56
425.623	827.56
425.846	809.56
426.068	836.56
426.291	847.56
426.513	774.56
426.735	794.56
426.958	824.56
427.18	790.56
427.402	799.56
427.625	835.56
427.847	792.56
428.069	812.56
428.292	817.56
428.514	788.56
428.736	810.56
428.958	826.56
429.181	786.56
429.403	761.56
429.625	821.56
429.847	809.56
430.069	813.56
430.292	802.56
430.514	795.56
430.736	820.56
430.958	797.56
431.18	814.56
431.402	801.56
431.624	811.56
431.846	802.56
432.068	774.56
432.29	796.56
432.512	795.56
432.734	788.56
432.956	805.56
433.178	816.56
433.4	766.56
433.622	798.56
433.844	801.56
434.066	799.56
434.287	779.56
434.509	797.56
434.731	797.56
434.953	831.56
435.175	816.56
435.397	822.56
435.618	813.56
435.84	788.56
436.062	799.56
436.284	787.56
436.505	777.56
436.727	786.56
436.949	801.56
437.17	791.56
437.392	800.56
437.614	805.56
437.835	771.56
438.057	821.56
438.278	776.56
438.5	774.56
438.721	766.56
438.943	773.56
439.165	793.56
439.386	780.56
439.608	768.56
439.829	789.56
440.05	813.56
440.272	802.56
440.493	798.56
440.715	793.56
440.936	818.56
441.158	760.56
441.379	803.56
441.6	823.56
441.822	805.56
442.043	797.56
442.264	799.56
442.486	795.56
442.707	832.56
442.928	798.56
443.149	801.56
443.371	826.56
443.592	840.56
443.813	793.56
444.034	786.56
444.255	817.56
444.476	832.56
444.698	804.56
444.919	814.56
445.14	883.56
445.361	826.56
445.582	807.56
445.803	788.56
446.024	788.56
446.245	782.56
446.466	788.56
446.687	779.56
446.908	778.56
447.129	754.56
447.35	771.56
447.571	756.56
447.792	748.56
448.013	757.56
448.234	777.56
448.455	757.56
448.675	754.56
448.896	754.56
449.117	756.56
449.338	740.56
449.559	741.56
449.779	721.56
450	739.56
450.221	729.56
450.442	716.56
450.662	714.56
450.883	718.56
451.104	715.56
451.324	708.56
451.545	755.56
451.766	718.56
451.986	690.56
452.207	739.56
452.428	728.56
452.648	716.56
452.869	716.56
453.089	724.56
453.31	701.56
453.53	707.56
453.751	706.56
453.971	712.56
454.192	710.56
454.412	707.56
454.633	726.56
454.853	712.56
455.073	727.56
455.294	726.56
455.514	721.56
455.734	712.56
455.955	710.56
456.175	708.56
456.395	712.56
456.616	735.56
456.836	730.56
457.056	718.56
457.276	709.56
457.497	724.56
457.717	705.56
457.937	704.56
458.157	708.56
458.377	716.56
458.598	738.56
458.818	748.56
459.038	755.56
459.258	743.56
459.478	738.56
459.698	762.56
459.918	771.56
460.138	771.56
460.358	779.56
460.578	781.56
460.798	793.56
461.018	818.56
461.238	809.56
461.458	790.56
461.678	820.56
461.898	810.56
462.118	797.56
462.338	828.56
462.558	858.56
462.777	844.56
462.997	843.56
463.217	871.56
463.437	881.56
463.657	858.56
463.876	875.56
464.096	850.56
464.316	836.56
464.536	873.56
464.755	853.56
464.975	853.56
465.195	791.56
465.414	820.56
465.634	796.56
465.854	767.56
466.073	799.56
466.293	804.56
466.512	800.56
466.732	744.56
466.951	782.56
467.171	770.56
467.391	787.56
467.61	754.56
467.829	769.56
468.049	762.56
468.268	759.56
468.488	746.56
468.707	741.56
468.927	770.56
469.146	781.56
469.365	750.56
469.585	756.56
469.804	790.56
470.023	789.56
470.243	758.56
470.462	765.56
470.681	795.56
470.901	793.56
471.12	754.56
471.339	764.56
471.558	771.56
471.777	768.56
471.997	782.56
472.216	786.56
472.435	781.56
472.654	761.56
472.873	785.56
473.092	786.56
473.311	784.56
473.53	767.56
473.749	780.56
473.968	810.56
474.187	779.56
474.406	797.56
474.625	792.56
474.844	796.56
475.063	789.56
475.282	800.56
475.501	806.56
475.72	811.56
475.939	834.56
476.158	819.56
476.377	816.56
476.596	835.56
476.814	852.56
477.033	856.56
477.252	840.56
477.471	834.56
477.69	863.56
477.908	872.56
478.127	864.56
478.346	872.56
478.564	900.56
478.783	896.56
479.002	884.56
479.22	915.56
479.439	922.56
479.658	938.56
479.876	916.56
480.095	916.56
480.313	914.56
480.532	946.56
480.751	925.56
480.969	944.56
481.188	931.56
481.406	947.56
481.624	922.56
481.843	936.56
482.061	924.56
482.28	936.56
482.498	905.56
482.717	921.56
482.935	904.56
483.153	931.56
483.372	938.56
483.59	959.56
483.808	955.56
484.027	963.56
484.245	945.56
484.463	964.56
484.681	962.56
484.9	947.56
485.118	954.56
485.336	951.56
485.554	1003.56
485.772	949.56
485.99	995.56
486.209	968.56
486.427	952.56
486.645	977.56
486.863	957.56
487.081	953.56
487.299	983.56
487.517	952.56
487.735	954.56
487.953	969.56
488.171	955.56
488.389	983.56
488.607	960.56
488.825	951.56
489.043	967.56
489.261	959.56
489.479	967.56
489.696	971.56
489.914	937.56
490.132	948.56
490.35	968.56
490.568	971.56
490.786	962.56
491.003	949.56
491.221	973.56
491.439	946.56
491.657	960.56
491.874	1000.56
492.092	1012.56
492.31	968.56
492.527	973.56
492.745	973.56
492.963	980.56
493.18	990.56
493.398	971.56
493.615	985.56
493.833	982.56
494.05	976.56
494.268	998.56
494.485	989.56
494.703	992.56
494.92	1022.56
495.138	1011.56
495.355	993.56
495.573	992.56
495.79	1015.56
496.008	1029.56
496.225	1032.56
496.442	1028.56
496.66	1025.56
496.877	1035.56
497.094	1068.56
497.312	1069.56
497.529	1060.56
497.746	1060.56
497.963	1078.56
498.181	1109.56
498.398	1161.56
498.615	1133.56
498.832	1156.56
499.049	1184.56
499.267	1206.56
499.484	1266.56
499.701	1282.56
499.918	1282.56
500.135	1308.56
500.352	1332.56
500.569	1322.56
500.786	1368.56
501.003	1370.56
501.22	1334.56
501.437	1274.56
501.654	1245.56
501.871	1241.56
502.088	1180.56
502.305	1167.56
502.522	1146.56
502.739	1152.56
502.956	1108.56
503.172	1074.56
503.389	1079.56
503.606	1046.56
503.823	1001.56
504.04	1050.56
504.256	1055.56
504.473	1029.56
504.69	1024.56
504.907	1020.56
505.123	984.56
505.34	982.56
505.557	967.56
505.773	960.56
505.99	946.56
506.207	948.56
506.423	955.56
506.64	928.56
506.856	938.56
507.073	920.56
507.289	916.56
507.506	903.56
507.722	893.56
507.939	908.56
508.155	876.56
508.372	865.56
508.588	900.56
508.805	880.56
509.021	863.56
509.238	848.56
509.454	864.56
509.67	835.56
509.887	850.56
510.103	875.56
510.319	857.56
510.536	823.56
510.752	835.56
510.968	858.56
511.184	853.56
511.401	821.56
511.617	838.56
511.833	851.56
512.049	800.56
512.265	826.56
512.481	820.56
512.698	808.56
512.914	825.56
513.13	837.56
513.346	834.56
513.562	847.56
513.778	801.56
513.994	807.56
514.21	833.56
514.426	835.56
514.642	825.56
514.858	830.56
515.074	839.56
515.29	871.56
515.506	809.56
515.721	830.56
515.937	836.56
516.153	828.56
516.369	859.56
516.585	836.56
516.801	849.56
517.016	855.56
517.232	856.56
517.448	844.56
517.664	868.56
517.879	873.56
518.095	834.56
518.311	853.56
518.527	857.56
518.742	844.56
518.958	836.56
519.173	830.56
519.389	827.56
519.605	844.56
519.82	816.56
520.036	810.56
520.251	820.56
520.467	784.56
520.682	832.56
520.898	792.56
521.113	804.56
521.329	765.56
521.544	809.56
521.76	790.56
521.975	795.56
522.19	772.56
522.406	785.56
522.621	768.56
522.836	784.56
523.052	773.56
523.267	764.56
523.482	770.56
523.698	756.56
523.913	760.56
524.128	741.56
524.343	781.56
524.559	753.56
524.774	764.56
524.989	743.56
525.204	761.56
525.419	733.56
525.634	755.56
525.849	776.56
526.064	753.56
526.28	762.56
526.495	740.56
526.71	738.56
526.925	740.56
527.14	734.56
527.355	741.56
527.57	737.56
527.785	739.56
527.999	734.56
528.214	732.56
528.429	738.56
528.644	737.56
528.859	732.56
529.074	740.56
529.289	728.56
529.503	743.56
529.718	739.56
529.933	734.56
530.148	709.56
530.363	740.56
530.577	719.56
530.792	706.56
531.007	693.56
531.221	700.56
531.436	704.56
531.651	698.56
531.865	709.56
532.08	727.56
532.295	725.56
532.509	676.56
532.724	706.56
532.938	702.56
533.153	732.56
533.367	699.56
533.582	715.56
533.796	713.56
534.011	720.56
534.225	704.56
534.44	725.56
534.654	700.56
534.868	686.56
535.083	675.56
535.297	705.56
535.511	716.56
535.726	685.56
535.94	698.56
536.154	678.56
536.369	678.56
536.583	685.56
536.797	693.56
537.011	686.56
537.225	677.56
537.44	669.56
537.654	690.56
537.868	683.56
538.082	669.56
538.296	666.56
538.51	698.56
538.724	692.56
538.938	658.56
539.153	669.56
539.367	670.56
539.581	663.56
539.795	678.56
540.009	681.56
540.222	668.56
540.436	668.56
540.65	660.56
540.864	652.56
541.078	669.56
541.292	679.56
541.506	664.56
541.72	653.56
541.934	656.56
542.147	680.56
542.361	688.56
542.575	653.56
542.789	658.56
543.002	660.56
543.216	646.56
543.43	648.56
543.644	656.56
543.857	648.56
544.071	641.56
544.285	658.56
544.498	658.56
544.712	658.56
544.925	638.56
545.139	652.56
545.352	635.56
545.566	660.56
545.779	640.56
545.993	642.56
546.206	653.56
546.42	654.56
546.633	634.56
546.847	664.56
547.06	655.56
547.274	653.56
547.487	643.56
547.7	638.56
547.914	636.56
548.127	637.56
548.34	654.56
548.554	638.56
548.767	633.56
548.98	650.56
549.193	649.56
549.407	619.56
549.62	637.56
549.833	655.56
550.046	667.56
550.259	656.56
550.473	640.56
550.686	629.56
550.899	606.56
551.112	638.56
551.325	634.56
551.538	618.56
551.751	631.56
551.964	625.56
552.177	619.56
552.39	610.56
552.603	629.56
552.816	627.56
553.029	633.56
553.242	621.56
553.455	633.56
553.667	626.56
553.88	609.56
554.093	636.56
554.306	602.56
554.519	592.56
554.732	595.56
554.944	616.56
555.157	614.56
555.37	582.56
555.583	594.56
555.795	590.56
556.008	584.56
556.221	589.56
556.433	572.56
556.646	575.56
556.859	597.56
557.071	553.56
557.284	586.56
557.496	570.56
557.709	568.56
557.921	562.56
558.134	571.56
558.346	562.56
558.559	559.56
558.771	552.56
558.984	560.56
559.196	558.56
559.409	532.56
559.621	544.56
559.833	576.56
560.046	545.56
560.258	540.56
560.47	555.56
560.683	570.56
560.895	545.56
561.107	557.56
561.32	544.56
561.532	547.56
561.744	549.56
561.956	532.56
562.168	561.56
562.381	573.56
562.593	534.56
562.805	558.56
563.017	547.56
563.229	531.56
563.441	543.56
563.653	542.56
563.865	553.56
564.077	562.56
564.289	552.56
564.501	567.56
564.713	570.56
564.925	564.56
565.137	580.56
565.349	566.56
565.561	584.56
565.773	600.56
565.985	581.56
566.197	580.56
566.408	576.56
566.62	594.56
566.832	603.56
567.044	596.56
567.255	613.56
567.467	590.56
567.679	586.56
567.891	601.56
568.102	596.56
568.314	593.56
568.526	574.56
568.737	562.56
568.949	552.56
569.161	544.56
569.372	563.56
569.584	510.56
569.795	539.56
570.007	529.56
570.218	524.56
570.43	510.56
570.641	520.56
570.853	520.56
571.064	509.56
571.276	506.56
571.487	483.56
571.698	498.56
571.91	497.56
572.121	471.56
572.333	496.56
572.544	466.56
572.755	490.56
572.966	489.56
573.178	459.56
573.389	466.56
573.6	467.56
573.811	466.56
574.023	440.56
574.234	456.56
574.445	446.56
574.656	440.56
574.867	432.56
575.078	456.56
575.289	458.56
575.501	454.56
575.712	451.56
575.923	444.56
576.134	413.56
576.345	434.56
576.556	433.56
576.767	419.56
576.978	413.56
577.188	423.56
577.399	418.56
577.61	427.56
577.821	423.56
578.032	417.56
578.243	411.56
578.454	406.56
578.665	414.56
578.875	419.56
579.086	402.56
579.297	397.56
579.508	402.56
579.718	394.56
579.929	407.56
580.14	407.56
580.35	393.56
580.561	402.56
580.772	408.56
580.982	394.56
581.193	399.56
581.403	393.56
581.614	404.56
581.825	384.56
582.035	374.56
582.246	374.56
582.456	393.56
582.667	382.56
582.877	389.56
583.087	397.56
583.298	385.56
583.508	386.56
583.719	381.56
583.929	380.56
584.139	389.56
584.35	378.56
584.56	382.56
584.77	390.56
584.981	373.56
585.191	380.56
585.401	366.56
585.611	354.56
585.821	371.56
586.032	363.56
586.242	361.56
586.452	357.56
586.662	376.56
586.872	364.56
587.082	376.56
587.292	355.56
587.502	347.56
587.713	380.56
587.923	366.56
588.133	378.56
588.343	375.56
588.553	361.56
588.762	370.56
588.972	374.56
589.182	404.56
589.392	386.56
589.602	372.56
589.812	383.56
590.022	374.56
590.232	369.56
590.441	349.56
590.651	354.56
590.861	371.56
591.071	356.56
591.281	364.56
591.49	371.56
591.7	370.56
591.91	374.56
592.119	351.56
592.329	365.56
592.539	375.56
592.748	368.56
592.958	354.56
593.167	356.56
593.377	356.56
593.587	374.56
593.796	370.56
594.006	356.56
594.215	364.56
594.424	357.56
594.634	351.56
594.843	355.56
595.053	345.56
595.262	332.56
595.472	350.56
595.681	354.56
595.89	361.56
596.1	347.56
596.309	337.56
596.518	338.56
596.727	341.56
596.937	327.56
597.146	320.56
597.355	328.56
597.564	313.56
597.774	331.56
597.983	321.56
598.192	334.56
598.401	328.56
598.61	314.56
598.819	327.56
599.028	306.56
599.237	325.56
599.446	312.56
599.655	312.56
599.864	324.56
600.073	315.56
600.282	323.56
600.491	310.56
600.7	328.56
600.909	312.56
601.118	304.56
601.327	329.56
601.536	306.56
601.745	306.56
601.953	313.56
602.162	297.56
602.371	312.56
602.58	318.56
602.789	323.56
602.997	300.56
603.206	288.56
603.415	304.56
603.623	306.56
603.832	283.56
604.041	270.56
604.249	285.56
604.458	291.56
604.666	286.56
604.875	300.56
605.084	292.56
605.292	297.56
605.501	269.56
605.709	304.56
605.918	300.56
606.126	301.56
606.334	281.56
606.543	296.56
606.751	278.56
606.96	296.56
607.168	283.56
607.376	292.56
607.585	293.56
607.793	305.56
608.001	276.56
608.21	294.56
608.418	283.56
608.626	291.56
608.834	292.56
609.043	294.56
609.251	281.56
609.459	290.56
609.667	269.56
609.875	291.56
610.083	275.56
610.291	286.56
610.499	278.56
610.707	273.56
610.916	277.56
611.124	278.56
611.332	300.56
611.54	266.56
611.748	284.56
611.955	267.56
612.163	280.56
612.371	280.56
612.579	265.56
612.787	268.56
612.995	274.56
613.203	264.56
613.411	257.56
613.618	289.56
613.826	289.56
614.034	270.56
614.242	264.56
614.449	276.56
614.657	263.56
614.865	258.56
615.072	278.56
615.28	264.56
615.488	263.56
615.695	258.56
615.903	274.56
616.111	273.56
616.318	244.56
616.526	264.56
616.733	274.56
616.941	269.56
617.148	266.56
617.356	278.56
617.563	275.56
617.771	242.56
617.978	263.56
618.185	253.56
618.393	237.56
618.6	268.56
618.807	280.56
619.015	246.56
619.222	261.56
619.429	266.56
619.637	272.56
619.844	258.56
620.051	258.56
620.258	261.56
620.466	232.56
620.673	242.56
620.88	233.56
621.087	251.56
621.294	249.56
621.501	243.56
621.708	229.56
621.915	244.56
622.122	254.56
622.329	251.56
622.536	244.56
622.743	266.56
622.95	251.56
623.157	243.56
623.364	237.56
623.571	262.56
623.778	243.56
623.985	248.56
624.192	242.56
624.399	236.56
624.606	261.56
624.812	257.56
625.019	245.56
625.226	243.56
625.433	229.56
625.639	231.56
625.846	221.56
626.053	228.56
626.259	225.56
626.466	237.56
626.673	250.56
626.879	236.56
627.086	224.56
627.293	234.56
627.499	211.56
627.706	236.56
627.912	209.56
628.119	224.56
628.325	234.56
628.532	226.56
628.738	232.56
628.945	225.56
629.151	221.56
629.357	218.56
629.564	212.56
629.77	242.56
629.976	224.56
630.183	224.56
630.389	218.56
630.595	219.56
630.802	209.56
631.008	218.56
631.214	228.56
631.42	211.56
631.627	242.56
631.833	225.56
632.039	219.56
632.245	207.56
632.451	200.56
632.657	217.56
632.863	215.56
633.069	202.56
633.275	218.56
633.481	217.56
633.688	217.56
633.893	209.56
634.099	225.56
634.305	230.56
634.511	184.56
634.717	217.56
634.923	201.56
635.129	209.56
635.335	208.56
635.541	210.56
635.747	196.56
635.952	189.56
636.158	195.56
636.364	201.56
636.57	213.56
636.775	220.56
636.981	188.56
637.187	228.56
637.392	216.56
637.598	201.56
637.804	196.56
638.009	212.56
638.215	201.56
638.421	200.56
638.626	227.56
638.832	197.56
639.037	198.56
639.243	211.56
639.448	203.56
639.654	203.56
639.859	213.56
640.065	200.56
640.27	211.56
640.475	197.56
640.681	207.56
640.886	199.56
641.091	180.56
641.297	213.56
641.502	194.56
641.707	195.56
641.913	188.56
642.118	213.56
642.323	195.56
642.528	202.56
642.733	193.56
642.939	192.56
643.144	198.56
643.349	194.56
643.554	195.56
643.759	200.56
643.964	186.56
644.169	198.56
644.374	190.56
644.579	190.56
644.784	204.56
644.989	186.56
645.194	210.56
645.399	209.56
645.604	193.56
645.809	191.56
646.014	206.56
646.219	195.56
646.423	192.56
646.628	193.56
646.833	195.56
647.038	189.56
647.243	183.56
647.447	200.56
647.652	198.56
647.857	189.56
648.062	214.56
648.266	199.56
648.471	214.56
648.676	202.56
648.88	200.56
649.085	203.56
649.289	205.56
649.494	187.56
649.698	198.56
649.903	214.56
650.107	190.56
650.312	199.56
650.516	196.56
650.721	180.56
650.925	192.56
651.13	205.56
651.334	199.56
651.539	188.56
651.743	176.56
651.947	205.56
652.152	190.56
652.356	198.56
652.56	186.56
652.764	191.56
652.969	164.56
653.173	176.56
653.377	182.56
653.581	182.56
653.785	193.56
653.99	188.56
654.194	194.56
654.398	182.56
654.602	186.56
654.806	188.56
655.01	180.56
655.214	180.56
655.418	190.56
655.622	198.56
655.826	197.56
656.03	201.56
656.234	190.56
656.438	172.56
656.642	184.56
656.846	185.56
657.049	183.56
657.253	184.56
657.457	163.56
657.661	164.56
657.865	149.56
658.068	138.56
658.272	139.56
658.476	130.56
658.68	132.56
658.883	133.56
659.087	122.56
659.291	126.56
659.494	114.56
659.698	124.56
659.901	115.56
660.105	109.56
660.309	96.56
660.512	106.56
660.716	108.56
660.919	91.56
661.123	87.56
661.326	98.56
661.53	89.56
661.733	93.56
661.936	105.56
662.14	101.56
662.343	99.56
662.546	96.56
662.75	103.56
662.953	100.56
663.156	95.56
663.36	84.56
663.563	97.56
663.766	97.56
663.969	77.56
664.173	88.56
664.376	93.56
664.579	89.56
664.782	72.56
664.985	84.56
665.188	86.56
665.391	92.56
665.594	81.56
665.797	85.56
666	97.56
666.203	85.56
666.406	83.56
666.609	74.56
666.812	78.56
667.015	83.56
667.218	83.56
667.421	81.56
667.624	76.56
667.827	87.56
668.03	84.56
668.232	74.56
668.435	87.56
668.638	87.56
668.841	89.56
669.043	73.56
669.246	84.56
669.449	86.56
669.651	93.56
669.854	74.56
670.057	83.56
670.259	72.56
670.462	89.56
670.665	79.56
670.867	90.56
671.07	88.56
671.272	79.56
671.475	95.56
671.677	78.56
671.88	77.56
672.082	80.56
672.284	93.56
672.487	82.56
672.689	78.56
672.892	93.56
