Data from Fe(NO3)3@0.05M.TitratingCurve.Agarose3%dH2O.NegLispCup.LampEnergy10.LIBS07252019_HRD10591_16-46-58-334.txt Node
Date: Thu Jul 25 16:46:58 EDT 2019
User: cochatt
Spectrometer: HR+D1059
Trigger mode: 1
Integration Time (sec): 1.000000E-1
Scans to average: 1
Electric dark correction enabled: true
Nonlinearity correction enabled: false
Boxcar width: 0
XAxis mode: Wavelengths
Number of Pixels in Spectrum: 2048
>>>>>Begin Spectral Data<<<<<
223.165	-11.06
223.4	-11.06
223.635	-11.06
223.869	-9.06
224.104	-7.06
224.338	-19.06
224.573	-22.06
224.808	-12.06
225.042	-3.06
225.277	-1.06
225.511	-17.06
225.746	7.94
225.98	-3.06
226.215	2.94
226.449	20.94
226.683	13.94
226.918	24.94
227.152	33.94
227.387	25.94
227.621	25.94
227.856	48.94
228.09	57.94
228.324	50.94
228.559	56.94
228.793	53.94
229.027	102.94
229.262	104.94
229.496	112.94
229.73	114.94
229.964	108.94
230.199	119.94
230.433	121.94
230.667	117.94
230.901	121.94
231.136	112.94
231.37	128.94
231.604	132.94
231.838	124.94
232.072	124.94
232.306	128.94
232.541	127.94
232.775	131.94
233.009	121.94
233.243	124.94
233.477	128.94
233.711	135.94
233.945	123.94
234.179	134.94
234.413	147.94
234.647	136.94
234.881	144.94
235.115	141.94
235.349	147.94
235.583	139.94
235.817	134.94
236.051	156.94
236.285	134.94
236.519	142.94
236.753	152.94
236.987	143.94
237.221	162.94
237.455	149.94
237.689	141.94
237.922	151.94
238.156	142.94
238.39	147.94
238.624	180.94
238.858	167.94
239.091	169.94
239.325	164.94
239.559	141.94
239.793	158.94
240.027	163.94
240.26	167.94
240.494	154.94
240.728	159.94
240.961	156.94
241.195	174.94
241.429	178.94
241.662	166.94
241.896	163.94
242.13	153.94
242.363	164.94
242.597	157.94
242.83	166.94
243.064	169.94
243.298	180.94
243.531	183.94
243.765	172.94
243.998	194.94
244.232	192.94
244.465	193.94
244.699	173.94
244.932	180.94
245.166	181.94
245.399	188.94
245.633	188.94
245.866	187.94
246.099	196.94
246.333	199.94
246.566	193.94
246.8	200.94
247.033	200.94
247.266	191.94
247.5	210.94
247.733	198.94
247.966	195.94
248.2	190.94
248.433	213.94
248.666	198.94
248.899	224.94
249.133	202.94
249.366	228.94
249.599	216.94
249.832	223.94
250.066	223.94
250.299	216.94
250.532	226.94
250.765	216.94
250.998	218.94
251.231	216.94
251.465	217.94
251.698	225.94
251.931	238.94
252.164	207.94
252.397	208.94
252.63	249.94
252.863	255.94
253.096	229.94
253.329	245.94
253.562	240.94
253.795	234.94
254.028	248.94
254.261	262.94
254.494	251.94
254.727	242.94
254.96	241.94
255.193	249.94
255.426	244.94
255.659	260.94
255.892	247.94
256.124	238.94
256.357	241.94
256.59	263.94
256.823	279.94
257.056	253.94
257.289	252.94
257.521	244.94
257.754	266.94
257.987	269.94
258.22	263.94
258.452	259.94
258.685	293.94
258.918	284.94
259.151	270.94
259.383	285.94
259.616	286.94
259.849	278.94
260.081	307.94
260.314	345.94
260.547	293.94
260.779	276.94
261.012	296.94
261.244	287.94
261.477	311.94
261.71	298.94
261.942	300.94
262.175	292.94
262.407	294.94
262.64	286.94
262.872	304.94
263.105	306.94
263.337	323.94
263.57	295.94
263.802	306.94
264.035	297.94
264.267	294.94
264.499	289.94
264.732	296.94
264.964	291.94
265.197	290.94
265.429	295.94
265.661	302.94
265.894	310.94
266.126	302.94
266.358	317.94
266.591	320.94
266.823	309.94
267.055	312.94
267.287	300.94
267.52	302.94
267.752	315.94
267.984	308.94
268.216	333.94
268.448	323.94
268.681	316.94
268.913	316.94
269.145	317.94
269.377	319.94
269.609	312.94
269.841	325.94
270.073	311.94
270.306	309.94
270.538	322.94
270.77	331.94
271.002	323.94
271.234	322.94
271.466	337.94
271.698	334.94
271.93	335.94
272.162	336.94
272.394	357.94
272.626	322.94
272.858	333.94
273.09	333.94
273.322	350.94
273.553	357.94
273.785	380.94
274.017	366.94
274.249	397.94
274.481	385.94
274.713	395.94
274.945	411.94
275.176	414.94
275.408	379.94
275.64	400.94
275.872	381.94
276.104	380.94
276.335	352.94
276.567	376.94
276.799	351.94
277.031	375.94
277.262	352.94
277.494	374.94
277.726	355.94
277.957	368.94
278.189	372.94
278.421	369.94
278.652	380.94
278.884	383.94
279.115	382.94
279.347	381.94
279.579	384.94
279.81	361.94
280.042	384.94
280.273	376.94
280.505	380.94
280.736	393.94
280.968	404.94
281.199	367.94
281.431	388.94
281.662	381.94
281.894	373.94
282.125	385.94
282.356	418.94
282.588	398.94
282.819	392.94
283.051	379.94
283.282	404.94
283.513	432.94
283.745	393.94
283.976	395.94
284.207	391.94
284.439	406.94
284.67	404.94
284.901	423.94
285.132	422.94
285.364	408.94
285.595	404.94
285.826	401.94
286.057	420.94
286.288	420.94
286.52	408.94
286.751	426.94
286.982	433.94
287.213	431.94
287.444	423.94
287.675	424.94
287.906	413.94
288.138	419.94
288.369	432.94
288.6	423.94
288.831	420.94
289.062	429.94
289.293	423.94
289.524	417.94
289.755	419.94
289.986	438.94
290.217	419.94
290.448	434.94
290.679	452.94
290.91	436.94
291.141	444.94
291.371	435.94
291.602	432.94
291.833	434.94
292.064	407.94
292.295	430.94
292.526	448.94
292.757	438.94
292.987	428.94
293.218	434.94
293.449	453.94
293.68	424.94
293.91	444.94
294.141	432.94
294.372	436.94
294.603	448.94
294.833	435.94
295.064	458.94
295.295	438.94
295.525	435.94
295.756	433.94
295.987	448.94
296.217	456.94
296.448	465.94
296.679	465.94
296.909	426.94
297.14	460.94
297.37	484.94
297.601	468.94
297.831	474.94
298.062	458.94
298.292	464.94
298.523	485.94
298.753	509.94
298.984	457.94
299.214	450.94
299.445	444.94
299.675	468.94
299.905	480.94
300.136	468.94
300.366	448.94
300.597	481.94
300.827	482.94
301.057	485.94
301.288	481.94
301.518	487.94
301.748	486.94
301.979	525.94
302.209	520.94
302.439	516.94
302.669	488.94
302.9	475.94
303.13	502.94
303.36	495.94
303.59	467.94
303.82	482.94
304.051	504.94
304.281	520.94
304.511	485.94
304.741	506.94
304.971	494.94
305.201	502.94
305.431	505.94
305.661	509.94
305.891	508.94
306.121	496.94
306.352	515.94
306.582	511.94
306.812	511.94
307.042	493.94
307.272	502.94
307.502	505.94
307.731	490.94
307.961	498.94
308.191	466.94
308.421	482.94
308.651	500.94
308.881	492.94
309.111	494.94
309.341	504.94
309.571	496.94
309.8	500.94
310.03	509.94
310.26	513.94
310.49	523.94
310.72	514.94
310.949	492.94
311.179	510.94
311.409	514.94
311.639	523.94
311.868	511.94
312.098	529.94
312.328	519.94
312.557	527.94
312.787	508.94
313.017	524.94
313.246	514.94
313.476	525.94
313.706	508.94
313.935	526.94
314.165	544.94
314.394	546.94
314.624	557.94
314.853	519.94
315.083	547.94
315.312	541.94
315.542	542.94
315.771	548.94
316.001	546.94
316.23	536.94
316.46	534.94
316.689	531.94
316.919	539.94
317.148	551.94
317.377	548.94
317.607	526.94
317.836	528.94
318.065	558.94
318.295	560.94
318.524	560.94
318.753	546.94
318.983	566.94
319.212	536.94
319.441	552.94
319.67	537.94
319.9	533.94
320.129	537.94
320.358	536.94
320.587	543.94
320.816	536.94
321.046	542.94
321.275	540.94
321.504	541.94
321.733	536.94
321.962	540.94
322.191	536.94
322.42	551.94
322.649	559.94
322.878	547.94
323.108	570.94
323.337	586.94
323.566	558.94
323.795	564.94
324.024	564.94
324.253	576.94
324.482	573.94
324.71	567.94
324.939	586.94
325.168	563.94
325.397	576.94
325.626	606.94
325.855	593.94
326.084	583.94
326.313	607.94
326.542	580.94
326.77	595.94
326.999	599.94
327.228	565.94
327.457	598.94
327.686	621.94
327.914	592.94
328.143	587.94
328.372	581.94
328.6	592.94
328.829	585.94
329.058	604.94
329.287	606.94
329.515	613.94
329.744	594.94
329.972	615.94
330.201	623.94
330.43	612.94
330.658	617.94
330.887	630.94
331.115	622.94
331.344	626.94
331.572	630.94
331.801	629.94
332.03	624.94
332.258	632.94
332.486	651.94
332.715	638.94
332.943	642.94
333.172	671.94
333.4	680.94
333.629	689.94
333.857	704.94
334.085	692.94
334.314	723.94
334.542	721.94
334.771	703.94
334.999	705.94
335.227	721.94
335.455	723.94
335.684	729.94
335.912	719.94
336.14	719.94
336.369	697.94
336.597	703.94
336.825	720.94
337.053	701.94
337.281	697.94
337.51	686.94
337.738	684.94
337.966	661.94
338.194	668.94
338.422	644.94
338.65	663.94
338.878	656.94
339.106	662.94
339.334	680.94
339.562	656.94
339.79	644.94
340.018	635.94
340.246	642.94
340.474	646.94
340.702	642.94
340.93	663.94
341.158	649.94
341.386	648.94
341.614	633.94
341.842	656.94
342.07	633.94
342.298	650.94
342.526	633.94
342.754	620.94
342.981	617.94
343.209	648.94
343.437	649.94
343.665	687.94
343.893	702.94
344.12	708.94
344.348	699.94
344.576	678.94
344.804	679.94
345.031	664.94
345.259	674.94
345.487	651.94
345.714	644.94
345.942	636.94
346.17	656.94
346.397	634.94
346.625	632.94
346.853	621.94
347.08	605.94
347.308	627.94
347.535	589.94
347.763	607.94
347.99	625.94
348.218	608.94
348.445	609.94
348.673	623.94
348.9	615.94
349.128	622.94
349.355	590.94
349.583	593.94
349.81	616.94
350.037	600.94
350.265	600.94
350.492	597.94
350.72	597.94
350.947	591.94
351.174	576.94
351.402	602.94
351.629	621.94
351.856	590.94
352.083	574.94
352.311	602.94
352.538	601.94
352.765	601.94
352.992	578.94
353.22	587.94
353.447	599.94
353.674	622.94
353.901	590.94
354.128	607.94
354.355	613.94
354.583	600.94
354.81	577.94
355.037	617.94
355.264	609.94
355.491	604.94
355.718	607.94
355.945	605.94
356.172	622.94
356.399	608.94
356.626	602.94
356.853	637.94
357.08	604.94
357.307	618.94
357.534	614.94
357.761	627.94
357.988	607.94
358.215	628.94
358.441	640.94
358.668	608.94
358.895	612.94
359.122	610.94
359.349	625.94
359.576	599.94
359.802	608.94
360.029	597.94
360.256	624.94
360.483	596.94
360.709	604.94
360.936	601.94
361.163	613.94
361.39	600.94
361.616	622.94
361.843	632.94
362.07	604.94
362.296	606.94
362.523	616.94
362.749	644.94
362.976	621.94
363.203	637.94
363.429	596.94
363.656	634.94
363.882	627.94
364.109	629.94
364.335	599.94
364.562	622.94
364.788	617.94
365.015	648.94
365.241	617.94
365.468	592.94
365.694	616.94
365.92	606.94
366.147	611.94
366.373	618.94
366.599	611.94
366.826	600.94
367.052	606.94
367.278	647.94
367.505	630.94
367.731	644.94
367.957	624.94
368.184	651.94
368.41	624.94
368.636	602.94
368.862	640.94
369.089	617.94
369.315	660.94
369.541	640.94
369.767	634.94
369.993	650.94
370.219	642.94
370.445	646.94
370.672	650.94
370.898	675.94
371.124	680.94
371.35	646.94
371.576	642.94
371.802	686.94
372.028	697.94
372.254	684.94
372.48	674.94
372.706	674.94
372.932	690.94
373.158	697.94
373.384	711.94
373.61	706.94
373.835	709.94
374.061	690.94
374.287	705.94
374.513	671.94
374.739	720.94
374.965	707.94
375.191	727.94
375.416	708.94
375.642	707.94
375.868	719.94
376.094	719.94
376.319	701.94
376.545	686.94
376.771	703.94
376.997	674.94
377.222	677.94
377.448	659.94
377.674	675.94
377.899	669.94
378.125	693.94
378.35	674.94
378.576	680.94
378.802	653.94
379.027	676.94
379.253	681.94
379.478	676.94
379.704	682.94
379.929	675.94
380.155	686.94
380.38	661.94
380.606	671.94
380.831	664.94
381.057	672.94
381.282	672.94
381.507	681.94
381.733	689.94
381.958	688.94
382.184	706.94
382.409	717.94
382.634	707.94
382.86	720.94
383.085	721.94
383.31	711.94
383.535	721.94
383.761	730.94
383.986	721.94
384.211	727.94
384.436	745.94
384.662	750.94
384.887	770.94
385.112	776.94
385.337	790.94
385.562	776.94
385.787	768.94
386.013	782.94
386.238	813.94
386.463	819.94
386.688	815.94
386.913	797.94
387.138	760.94
387.363	779.94
387.588	802.94
387.813	783.94
388.038	775.94
388.263	817.94
388.488	782.94
388.713	780.94
388.938	795.94
389.163	821.94
389.387	841.94
389.612	785.94
389.837	799.94
390.062	815.94
390.287	777.94
390.512	801.94
390.736	781.94
390.961	816.94
391.186	807.94
391.411	798.94
391.636	863.94
391.86	880.94
392.085	846.94
392.31	864.94
392.534	842.94
392.759	860.94
392.984	846.94
393.208	856.94
393.433	824.94
393.658	833.94
393.882	852.94
394.107	854.94
394.331	832.94
394.556	836.94
394.78	822.94
395.005	851.94
395.229	868.94
395.454	857.94
395.678	869.94
395.903	864.94
396.127	857.94
396.352	870.94
396.576	862.94
396.801	870.94
397.025	869.94
397.249	881.94
397.474	914.94
397.698	896.94
397.922	907.94
398.147	920.94
398.371	929.94
398.595	927.94
398.82	966.94
399.044	1005.94
399.268	1036.94
399.492	1086.94
399.717	1182.94
399.941	1193.94
400.165	1134.94
400.389	1097.94
400.613	1038.94
400.837	1020.94
401.062	964.94
401.286	972.94
401.51	980.94
401.734	978.94
401.958	974.94
402.182	997.94
402.406	993.94
402.63	979.94
402.854	956.94
403.078	988.94
403.302	993.94
403.526	1010.94
403.75	983.94
403.974	999.94
404.198	1009.94
404.422	1010.94
404.645	1001.94
404.869	1019.94
405.093	1012.94
405.317	1005.94
405.541	1039.94
405.765	1042.94
405.988	1020.94
406.212	1048.94
406.436	1079.94
406.66	1071.94
406.883	1073.94
407.107	1123.94
407.331	1128.94
407.555	1174.94
407.778	1168.94
408.002	1153.94
408.226	1112.94
408.449	1096.94
408.673	1093.94
408.896	1071.94
409.12	1092.94
409.344	1085.94
409.567	1061.94
409.791	1069.94
410.014	1044.94
410.238	1070.94
410.461	1058.94
410.685	1016.94
410.908	1045.94
411.132	1015.94
411.355	982.94
411.578	1011.94
411.802	998.94
412.025	999.94
412.249	1014.94
412.472	991.94
412.695	1000.94
412.919	971.94
413.142	1005.94
413.365	994.94
413.589	995.94
413.812	986.94
414.035	1007.94
414.258	995.94
414.482	996.94
414.705	976.94
414.928	1004.94
415.151	964.94
415.374	983.94
415.597	963.94
415.821	974.94
416.044	918.94
416.267	968.94
416.49	968.94
416.713	960.94
416.936	961.94
417.159	925.94
417.382	964.94
417.605	920.94
417.828	963.94
418.051	970.94
418.274	944.94
418.497	938.94
418.72	958.94
418.943	968.94
419.166	990.94
419.389	1062.94
419.611	1044.94
419.834	1004.94
420.057	1013.94
420.28	965.94
420.503	932.94
420.726	911.94
420.948	920.94
421.171	905.94
421.394	956.94
421.617	898.94
421.839	933.94
422.062	912.94
422.285	912.94
422.507	957.94
422.73	920.94
422.953	945.94
423.175	941.94
423.398	960.94
423.621	925.94
423.843	925.94
424.066	926.94
424.288	959.94
424.511	939.94
424.733	940.94
424.956	928.94
425.178	972.94
425.401	959.94
425.623	915.94
425.846	924.94
426.068	921.94
426.291	912.94
426.513	941.94
426.735	919.94
426.958	896.94
427.18	895.94
427.402	896.94
427.625	893.94
427.847	914.94
428.069	911.94
428.292	900.94
428.514	862.94
428.736	890.94
428.958	897.94
429.181	873.94
429.403	876.94
429.625	881.94
429.847	890.94
430.069	873.94
430.292	876.94
430.514	872.94
430.736	881.94
430.958	910.94
431.18	854.94
431.402	879.94
431.624	861.94
431.846	889.94
432.068	871.94
432.29	892.94
432.512	876.94
432.734	919.94
432.956	905.94
433.178	890.94
433.4	902.94
433.622	896.94
433.844	885.94
434.066	915.94
434.287	911.94
434.509	925.94
434.731	925.94
434.953	945.94
435.175	952.94
435.397	907.94
435.618	934.94
435.84	924.94
436.062	879.94
436.284	876.94
436.505	912.94
436.727	944.94
436.949	904.94
437.17	878.94
437.392	867.94
437.614	857.94
437.835	857.94
438.057	902.94
438.278	869.94
438.5	876.94
438.721	871.94
438.943	876.94
439.165	884.94
439.386	883.94
439.608	892.94
439.829	873.94
440.05	901.94
440.272	894.94
440.493	871.94
440.715	874.94
440.936	912.94
441.158	903.94
441.379	898.94
441.6	950.94
441.822	919.94
442.043	956.94
442.264	932.94
442.486	918.94
442.707	924.94
442.928	944.94
443.149	944.94
443.371	958.94
443.592	932.94
443.813	934.94
444.034	946.94
444.255	952.94
444.476	996.94
444.698	985.94
444.919	1008.94
445.14	1084.94
445.361	1011.94
445.582	990.94
445.803	954.94
446.024	912.94
446.245	919.94
446.466	893.94
446.687	894.94
446.908	929.94
447.129	857.94
447.35	852.94
447.571	871.94
447.792	858.94
448.013	847.94
448.234	832.94
448.455	823.94
448.675	837.94
448.896	823.94
449.117	821.94
449.338	825.94
449.559	831.94
449.779	804.94
450	808.94
450.221	821.94
450.442	822.94
450.662	818.94
450.883	857.94
451.104	833.94
451.324	807.94
451.545	842.94
451.766	835.94
451.986	790.94
452.207	819.94
452.428	819.94
452.648	817.94
452.869	798.94
453.089	777.94
453.31	807.94
453.53	780.94
453.751	781.94
453.971	773.94
454.192	766.94
454.412	781.94
454.633	791.94
454.853	777.94
455.073	788.94
455.294	790.94
455.514	781.94
455.734	792.94
455.955	752.94
456.175	763.94
456.395	787.94
456.616	753.94
456.836	765.94
457.056	752.94
457.276	762.94
457.497	794.94
457.717	773.94
457.937	783.94
458.157	778.94
458.377	831.94
458.598	792.94
458.818	854.94
459.038	838.94
459.258	846.94
459.478	881.94
459.698	878.94
459.918	922.94
460.138	904.94
460.358	950.94
460.578	948.94
460.798	948.94
461.018	999.94
461.238	972.94
461.458	963.94
461.678	982.94
461.898	979.94
462.118	983.94
462.338	1005.94
462.558	1022.94
462.777	1059.94
462.997	1132.94
463.217	1116.94
463.437	1154.94
463.657	1124.94
463.876	1108.94
464.096	1097.94
464.316	1060.94
464.536	1060.94
464.755	1061.94
464.975	1029.94
465.195	1007.94
465.414	975.94
465.634	954.94
465.854	892.94
466.073	898.94
466.293	888.94
466.512	872.94
466.732	876.94
466.951	863.94
467.171	840.94
467.391	882.94
467.61	865.94
467.829	848.94
468.049	862.94
468.268	852.94
468.488	823.94
468.707	854.94
468.927	838.94
469.146	845.94
469.365	864.94
469.585	830.94
469.804	867.94
470.023	894.94
470.243	864.94
470.462	878.94
470.681	889.94
470.901	863.94
471.12	894.94
471.339	889.94
471.558	853.94
471.777	868.94
471.997	835.94
472.216	840.94
472.435	841.94
472.654	813.94
472.873	849.94
473.092	853.94
473.311	816.94
473.53	837.94
473.749	846.94
473.968	838.94
474.187	824.94
474.406	842.94
474.625	825.94
474.844	868.94
475.063	861.94
475.282	854.94
475.501	870.94
475.72	872.94
475.939	888.94
476.158	880.94
476.377	866.94
476.596	949.94
476.814	918.94
477.033	916.94
477.252	905.94
477.471	883.94
477.69	922.94
477.908	942.94
478.127	956.94
478.346	960.94
478.564	970.94
478.783	980.94
479.002	991.94
479.22	1008.94
479.439	1024.94
479.658	1006.94
479.876	1004.94
480.095	1010.94
480.313	1064.94
480.532	1048.94
480.751	1025.94
480.969	1025.94
481.188	1011.94
481.406	1034.94
481.624	991.94
481.843	963.94
482.061	967.94
482.28	988.94
482.498	972.94
482.717	976.94
482.935	963.94
483.153	989.94
483.372	987.94
483.59	977.94
483.808	995.94
484.027	1020.94
484.245	991.94
484.463	967.94
484.681	1006.94
484.9	990.94
485.118	1009.94
485.336	972.94
485.554	1020.94
485.772	1004.94
485.99	999.94
486.209	1006.94
486.427	1012.94
486.645	1007.94
486.863	1019.94
487.081	1011.94
487.299	993.94
487.517	998.94
487.735	1001.94
487.953	1036.94
488.171	1044.94
488.389	991.94
488.607	1022.94
488.825	998.94
489.043	990.94
489.261	1025.94
489.479	1038.94
489.696	1024.94
489.914	1017.94
490.132	1027.94
490.35	1001.94
490.568	1030.94
490.786	1044.94
491.003	1007.94
491.221	1033.94
491.439	1054.94
491.657	1026.94
491.874	1033.94
492.092	1033.94
492.31	1063.94
492.527	1061.94
492.745	1061.94
492.963	1071.94
493.18	1050.94
493.398	1033.94
493.615	1060.94
493.833	1052.94
494.05	1042.94
494.268	1048.94
494.485	1038.94
494.703	1101.94
494.92	1065.94
495.138	1110.94
495.355	1076.94
495.573	1084.94
495.79	1099.94
496.008	1101.94
496.225	1098.94
496.442	1109.94
496.66	1096.94
496.877	1110.94
497.094	1149.94
497.312	1190.94
497.529	1166.94
497.746	1190.94
497.963	1222.94
498.181	1266.94
498.398	1320.94
498.615	1331.94
498.832	1396.94
499.049	1490.94
499.267	1519.94
499.484	1625.94
499.701	1693.94
499.918	1777.94
500.135	1909.94
500.352	1996.94
500.569	2033.94
500.786	2078.94
501.003	1962.94
501.22	1877.94
501.437	1790.94
501.654	1657.94
501.871	1584.94
502.088	1532.94
502.305	1460.94
502.522	1404.94
502.739	1352.94
502.956	1317.94
503.172	1282.94
503.389	1243.94
503.606	1198.94
503.823	1154.94
504.04	1195.94
504.256	1129.94
504.473	1138.94
504.69	1139.94
504.907	1157.94
505.123	1108.94
505.34	1083.94
505.557	1082.94
505.773	1033.94
505.99	1043.94
506.207	1008.94
506.423	970.94
506.64	981.94
506.856	942.94
507.073	932.94
507.289	974.94
507.506	936.94
507.722	941.94
507.939	909.94
508.155	926.94
508.372	900.94
508.588	906.94
508.805	907.94
509.021	886.94
509.238	865.94
509.454	850.94
509.67	888.94
509.887	858.94
510.103	853.94
510.319	892.94
510.536	855.94
510.752	850.94
510.968	856.94
511.184	844.94
511.401	869.94
511.617	859.94
511.833	848.94
512.049	852.94
512.265	854.94
512.481	861.94
512.698	854.94
512.914	832.94
513.13	877.94
513.346	856.94
513.562	842.94
513.778	846.94
513.994	852.94
514.21	873.94
514.426	861.94
514.642	863.94
514.858	844.94
515.074	869.94
515.29	857.94
515.506	851.94
515.721	892.94
515.937	909.94
516.153	888.94
516.369	917.94
516.585	928.94
516.801	925.94
517.016	946.94
517.232	985.94
517.448	1001.94
517.664	1005.94
517.879	999.94
518.095	993.94
518.311	979.94
518.527	996.94
518.742	965.94
518.958	945.94
519.173	936.94
519.389	905.94
519.605	896.94
519.82	894.94
520.036	889.94
520.251	871.94
520.467	828.94
520.682	840.94
520.898	828.94
521.113	825.94
521.329	817.94
521.544	824.94
521.76	848.94
521.975	803.94
522.19	826.94
522.406	800.94
522.621	810.94
522.836	796.94
523.052	802.94
523.267	790.94
523.482	774.94
523.698	787.94
523.913	777.94
524.128	798.94
524.343	772.94
524.559	772.94
524.774	775.94
524.989	766.94
525.204	736.94
525.419	770.94
525.634	757.94
525.849	742.94
526.064	751.94
526.28	764.94
526.495	744.94
526.71	770.94
526.925	772.94
527.14	766.94
527.355	768.94
527.57	742.94
527.785	741.94
527.999	723.94
528.214	720.94
528.429	766.94
528.644	754.94
528.859	771.94
529.074	759.94
529.289	753.94
529.503	748.94
529.718	746.94
529.933	760.94
530.148	741.94
530.363	769.94
530.577	742.94
530.792	732.94
531.007	733.94
531.221	742.94
531.436	725.94
531.651	741.94
531.865	724.94
532.08	723.94
532.295	728.94
532.509	734.94
532.724	739.94
532.938	748.94
533.153	718.94
533.367	718.94
533.582	704.94
533.796	735.94
534.011	712.94
534.225	720.94
534.44	722.94
534.654	728.94
534.868	696.94
535.083	713.94
535.297	687.94
535.511	712.94
535.726	729.94
535.94	717.94
536.154	722.94
536.369	673.94
536.583	703.94
536.797	711.94
537.011	701.94
537.225	687.94
537.44	685.94
537.654	722.94
537.868	693.94
538.082	648.94
538.296	688.94
538.51	703.94
538.724	689.94
538.938	664.94
539.153	694.94
539.367	698.94
539.581	670.94
539.795	674.94
540.009	662.94
540.222	686.94
540.436	677.94
540.65	670.94
540.864	686.94
541.078	656.94
541.292	672.94
541.506	669.94
541.72	666.94
541.934	658.94
542.147	656.94
542.361	668.94
542.575	651.94
542.789	664.94
543.002	679.94
543.216	646.94
543.43	678.94
543.644	649.94
543.857	665.94
544.071	660.94
544.285	672.94
544.498	655.94
544.712	650.94
544.925	665.94
545.139	676.94
545.352	673.94
545.566	678.94
545.779	659.94
545.993	713.94
546.206	703.94
546.42	685.94
546.633	677.94
546.847	677.94
547.06	686.94
547.274	685.94
547.487	680.94
547.7	658.94
547.914	645.94
548.127	693.94
548.34	681.94
548.554	662.94
548.767	680.94
548.98	676.94
549.193	680.94
549.407	664.94
549.62	705.94
549.833	707.94
550.046	678.94
550.259	670.94
550.473	657.94
550.686	690.94
550.899	666.94
551.112	638.94
551.325	676.94
551.538	669.94
551.751	671.94
551.964	674.94
552.177	651.94
552.39	652.94
552.603	688.94
552.816	671.94
553.029	681.94
553.242	663.94
553.455	689.94
553.667	718.94
553.88	692.94
554.093	669.94
554.306	658.94
554.519	665.94
554.732	674.94
554.944	667.94
555.157	634.94
555.37	626.94
555.583	625.94
555.795	634.94
556.008	608.94
556.221	599.94
556.433	579.94
556.646	596.94
556.859	603.94
557.071	602.94
557.284	594.94
557.496	592.94
557.709	570.94
557.921	578.94
558.134	591.94
558.346	569.94
558.559	590.94
558.771	593.94
558.984	564.94
559.196	576.94
559.409	568.94
559.621	566.94
559.833	567.94
560.046	561.94
560.258	568.94
560.47	576.94
560.683	587.94
560.895	573.94
561.107	561.94
561.32	560.94
561.532	571.94
561.744	591.94
561.956	565.94
562.168	576.94
562.381	559.94
562.593	562.94
562.805	556.94
563.017	593.94
563.229	574.94
563.441	551.94
563.653	577.94
563.865	565.94
564.077	577.94
564.289	589.94
564.501	582.94
564.713	580.94
564.925	593.94
565.137	615.94
565.349	620.94
565.561	638.94
565.773	648.94
565.985	657.94
566.197	688.94
566.408	694.94
566.62	730.94
566.832	731.94
567.044	762.94
567.255	732.94
567.467	772.94
567.679	772.94
567.891	784.94
568.102	766.94
568.314	749.94
568.526	711.94
568.737	702.94
568.949	669.94
569.161	629.94
569.372	624.94
569.584	609.94
569.795	590.94
570.007	561.94
570.218	574.94
570.43	574.94
570.641	550.94
570.853	560.94
571.064	556.94
571.276	540.94
571.487	537.94
571.698	533.94
571.91	479.94
572.121	516.94
572.333	478.94
572.544	521.94
572.755	474.94
572.966	492.94
573.178	500.94
573.389	449.94
573.6	478.94
573.811	448.94
574.023	486.94
574.234	450.94
574.445	444.94
574.656	476.94
574.867	452.94
575.078	462.94
575.289	457.94
575.501	453.94
575.712	463.94
575.923	444.94
576.134	446.94
576.345	435.94
576.556	454.94
576.767	449.94
576.978	444.94
577.188	450.94
577.399	430.94
577.61	407.94
577.821	457.94
578.032	429.94
578.243	426.94
578.454	430.94
578.665	422.94
578.875	445.94
579.086	406.94
579.297	414.94
579.508	413.94
579.718	401.94
579.929	412.94
580.14	432.94
580.35	402.94
580.561	399.94
580.772	397.94
580.982	404.94
581.193	408.94
581.403	412.94
581.614	408.94
581.825	399.94
582.035	404.94
582.246	385.94
582.456	391.94
582.667	380.94
582.877	392.94
583.087	400.94
583.298	402.94
583.508	389.94
583.719	381.94
583.929	384.94
584.139	375.94
584.35	397.94
584.56	376.94
584.77	388.94
584.981	364.94
585.191	382.94
585.401	373.94
585.611	380.94
585.821	382.94
586.032	391.94
586.242	374.94
586.452	389.94
586.662	371.94
586.872	367.94
587.082	365.94
587.292	381.94
587.502	377.94
587.713	370.94
587.923	367.94
588.133	368.94
588.343	381.94
588.553	390.94
588.762	379.94
588.972	382.94
589.182	396.94
589.392	394.94
589.602	398.94
589.812	390.94
590.022	383.94
590.232	375.94
590.441	371.94
590.651	384.94
590.861	369.94
591.071	384.94
591.281	398.94
591.49	388.94
591.7	372.94
591.91	379.94
592.119	393.94
592.329	388.94
592.539	385.94
592.748	387.94
592.958	420.94
593.167	403.94
593.377	422.94
593.587	408.94
593.796	419.94
594.006	416.94
594.215	411.94
594.424	411.94
594.634	404.94
594.843	405.94
595.053	389.94
595.262	402.94
595.472	353.94
595.681	339.94
595.89	358.94
596.1	380.94
596.309	374.94
596.518	369.94
596.727	348.94
596.937	345.94
597.146	353.94
597.355	346.94
597.564	357.94
597.774	349.94
597.983	346.94
598.192	316.94
598.401	324.94
598.61	341.94
598.819	340.94
599.028	334.94
599.237	298.94
599.446	339.94
599.655	321.94
599.864	313.94
600.073	325.94
600.282	320.94
600.491	307.94
600.7	312.94
600.909	327.94
601.118	324.94
601.327	307.94
601.536	336.94
601.745	323.94
601.953	318.94
602.162	314.94
602.371	311.94
602.58	312.94
602.789	294.94
602.997	297.94
603.206	288.94
603.415	282.94
603.623	300.94
603.832	300.94
604.041	329.94
604.249	292.94
604.458	300.94
604.666	309.94
604.875	283.94
605.084	292.94
605.292	300.94
605.501	308.94
605.709	299.94
605.918	293.94
606.126	311.94
606.334	291.94
606.543	306.94
606.751	280.94
606.96	281.94
607.168	295.94
607.376	299.94
607.585	300.94
607.793	287.94
608.001	279.94
608.21	286.94
608.418	302.94
608.626	278.94
608.834	293.94
609.043	291.94
609.251	267.94
609.459	270.94
609.667	289.94
609.875	294.94
610.083	284.94
610.291	276.94
610.499	265.94
610.707	277.94
610.916	291.94
611.124	301.94
611.332	279.94
611.54	280.94
611.748	287.94
611.955	272.94
612.163	270.94
612.371	280.94
612.579	276.94
612.787	260.94
612.995	288.94
613.203	282.94
613.411	265.94
613.618	262.94
613.826	275.94
614.034	269.94
614.242	264.94
614.449	272.94
614.657	282.94
614.865	282.94
615.072	280.94
615.28	278.94
615.488	277.94
615.695	280.94
615.903	273.94
616.111	266.94
616.318	274.94
616.526	262.94
616.733	274.94
616.941	275.94
617.148	263.94
617.356	268.94
617.563	270.94
617.771	274.94
617.978	274.94
618.185	260.94
618.393	273.94
618.6	276.94
618.807	262.94
619.015	259.94
619.222	284.94
619.429	239.94
619.637	262.94
619.844	261.94
620.051	267.94
620.258	261.94
620.466	265.94
620.673	239.94
620.88	256.94
621.087	241.94
621.294	253.94
621.501	244.94
621.708	261.94
621.915	255.94
622.122	240.94
622.329	247.94
622.536	250.94
622.743	259.94
622.95	258.94
623.157	228.94
623.364	231.94
623.571	246.94
623.778	237.94
623.985	241.94
624.192	248.94
624.399	250.94
624.606	261.94
624.812	252.94
625.019	206.94
625.226	236.94
625.433	239.94
625.639	243.94
625.846	245.94
626.053	239.94
626.259	251.94
626.466	254.94
626.673	233.94
626.879	236.94
627.086	237.94
627.293	229.94
627.499	238.94
627.706	221.94
627.912	231.94
628.119	239.94
628.325	226.94
628.532	218.94
628.738	234.94
628.945	217.94
629.151	236.94
629.357	231.94
629.564	240.94
629.77	227.94
629.976	235.94
630.183	244.94
630.389	205.94
630.595	222.94
630.802	239.94
631.008	222.94
631.214	219.94
631.42	212.94
631.627	230.94
631.833	215.94
632.039	210.94
632.245	227.94
632.451	217.94
632.657	201.94
632.863	216.94
633.069	220.94
633.275	206.94
633.481	212.94
633.688	218.94
633.893	221.94
634.099	214.94
634.305	203.94
634.511	221.94
634.717	208.94
634.923	217.94
635.129	210.94
635.335	200.94
635.541	202.94
635.747	204.94
635.952	207.94
636.158	198.94
636.364	200.94
636.57	206.94
636.775	206.94
636.981	193.94
637.187	199.94
637.392	193.94
637.598	208.94
637.804	203.94
638.009	196.94
638.215	202.94
638.421	198.94
638.626	189.94
638.832	201.94
639.037	189.94
639.243	193.94
639.448	197.94
639.654	189.94
639.859	199.94
640.065	197.94
640.27	194.94
640.475	206.94
640.681	202.94
640.886	188.94
641.091	207.94
641.297	193.94
641.502	197.94
641.707	193.94
641.913	198.94
642.118	187.94
642.323	204.94
642.528	205.94
642.733	199.94
642.939	194.94
643.144	190.94
643.349	207.94
643.554	210.94
643.759	191.94
643.964	187.94
644.169	196.94
644.374	194.94
644.579	202.94
644.784	184.94
644.989	199.94
645.194	191.94
645.399	200.94
645.604	203.94
645.809	197.94
646.014	200.94
646.219	204.94
646.423	198.94
646.628	196.94
646.833	198.94
647.038	194.94
647.243	207.94
647.447	204.94
647.652	206.94
647.857	191.94
648.062	202.94
648.266	203.94
648.471	203.94
648.676	200.94
648.88	207.94
649.085	210.94
649.289	199.94
649.494	199.94
649.698	205.94
649.903	189.94
650.107	199.94
650.312	199.94
650.516	192.94
650.721	195.94
650.925	175.94
651.13	193.94
651.334	208.94
651.539	198.94
651.743	184.94
651.947	179.94
652.152	188.94
652.356	166.94
652.56	188.94
652.764	188.94
652.969	186.94
653.173	179.94
653.377	157.94
653.581	165.94
653.785	174.94
653.99	182.94
654.194	168.94
654.398	173.94
654.602	182.94
654.806	180.94
655.01	193.94
655.214	169.94
655.418	185.94
655.622	181.94
655.826	168.94
656.03	177.94
656.234	200.94
656.438	177.94
656.642	174.94
656.846	170.94
657.049	181.94
657.253	176.94
657.457	152.94
657.661	141.94
657.865	138.94
658.068	137.94
658.272	148.94
658.476	132.94
658.68	124.94
658.883	111.94
659.087	126.94
659.291	125.94
659.494	109.94
659.698	132.94
659.901	117.94
660.105	101.94
660.309	105.94
660.512	108.94
660.716	113.94
660.919	85.94
661.123	76.94
661.326	92.94
661.53	85.94
661.733	84.94
661.936	84.94
662.14	92.94
662.343	100.94
662.546	101.94
662.75	84.94
662.953	85.94
663.156	75.94
663.36	74.94
663.563	70.94
663.766	82.94
663.969	88.94
664.173	82.94
664.376	81.94
664.579	82.94
664.782	88.94
664.985	72.94
665.188	81.94
665.391	79.94
665.594	72.94
665.797	80.94
666	87.94
666.203	78.94
666.406	77.94
666.609	80.94
666.812	74.94
667.015	79.94
667.218	77.94
667.421	96.94
667.624	80.94
667.827	81.94
668.03	84.94
668.232	79.94
668.435	79.94
668.638	76.94
668.841	87.94
669.043	92.94
669.246	75.94
669.449	79.94
669.651	83.94
669.854	87.94
670.057	79.94
670.259	75.94
670.462	86.94
670.665	82.94
670.867	70.94
671.07	79.94
671.272	71.94
671.475	84.94
671.677	92.94
671.88	84.94
672.082	74.94
672.284	67.94
672.487	66.94
672.689	79.94
672.892	64.94
