Data from Fe(NO3)3@0.05M.TitratingCurve.Agarose3%dH2O.NegLispCup.LampEnergy10.LIBS07252019_HRD10591_16-47-14-334.txt Node
Date: Thu Jul 25 16:47:14 EDT 2019
User: cochatt
Spectrometer: HR+D1059
Trigger mode: 1
Integration Time (sec): 1.000000E-1
Scans to average: 1
Electric dark correction enabled: true
Nonlinearity correction enabled: false
Boxcar width: 0
XAxis mode: Wavelengths
Number of Pixels in Spectrum: 2048
>>>>>Begin Spectral Data<<<<<
223.165	-21.25
223.4	-21.25
223.635	-21.25
223.869	-27.25
224.104	-10.25
224.338	-20.25
224.573	-8.25
224.808	-12.25
225.042	-11.25
225.277	-8.25
225.511	-10.25
225.746	7.75
225.98	23.75
226.215	18.75
226.449	10.75
226.683	13.75
226.918	20.75
227.152	33.75
227.387	36.75
227.621	32.75
227.856	30.75
228.09	40.75
228.324	44.75
228.559	48.75
228.793	72.75
229.027	89.75
229.262	97.75
229.496	85.75
229.73	111.75
229.964	121.75
230.199	99.75
230.433	111.75
230.667	121.75
230.901	130.75
231.136	122.75
231.37	114.75
231.604	131.75
231.838	124.75
232.072	115.75
232.306	114.75
232.541	124.75
232.775	135.75
233.009	119.75
233.243	134.75
233.477	126.75
233.711	140.75
233.945	129.75
234.179	125.75
234.413	125.75
234.647	144.75
234.881	130.75
235.115	136.75
235.349	144.75
235.583	125.75
235.817	127.75
236.051	136.75
236.285	125.75
236.519	136.75
236.753	139.75
236.987	141.75
237.221	136.75
237.455	142.75
237.689	133.75
237.922	137.75
238.156	131.75
238.39	146.75
238.624	158.75
238.858	139.75
239.091	145.75
239.325	136.75
239.559	124.75
239.793	158.75
240.027	156.75
240.26	163.75
240.494	164.75
240.728	154.75
240.961	156.75
241.195	169.75
241.429	178.75
241.662	169.75
241.896	162.75
242.13	163.75
242.363	156.75
242.597	158.75
242.83	152.75
243.064	148.75
243.298	163.75
243.531	164.75
243.765	173.75
243.998	180.75
244.232	174.75
244.465	168.75
244.699	160.75
244.932	166.75
245.166	175.75
245.399	170.75
245.633	178.75
245.866	179.75
246.099	173.75
246.333	185.75
246.566	187.75
246.8	191.75
247.033	189.75
247.266	181.75
247.5	187.75
247.733	183.75
247.966	171.75
248.2	175.75
248.433	195.75
248.666	182.75
248.899	202.75
249.133	186.75
249.366	193.75
249.599	208.75
249.832	196.75
250.066	201.75
250.299	212.75
250.532	203.75
250.765	193.75
250.998	203.75
251.231	202.75
251.465	219.75
251.698	214.75
251.931	192.75
252.164	191.75
252.397	209.75
252.63	222.75
252.863	237.75
253.096	234.75
253.329	224.75
253.562	221.75
253.795	225.75
254.028	232.75
254.261	236.75
254.494	253.75
254.727	211.75
254.96	224.75
255.193	239.75
255.426	218.75
255.659	235.75
255.892	223.75
256.124	199.75
256.357	208.75
256.59	222.75
256.823	213.75
257.056	231.75
257.289	236.75
257.521	223.75
257.754	235.75
257.987	236.75
258.22	241.75
258.452	240.75
258.685	229.75
258.918	243.75
259.151	223.75
259.383	240.75
259.616	261.75
259.849	269.75
260.081	279.75
260.314	280.75
260.547	266.75
260.779	260.75
261.012	267.75
261.244	285.75
261.477	273.75
261.71	265.75
261.942	237.75
262.175	260.75
262.407	257.75
262.64	261.75
262.872	274.75
263.105	262.75
263.337	276.75
263.57	287.75
263.802	263.75
264.035	267.75
264.267	277.75
264.499	260.75
264.732	260.75
264.964	254.75
265.197	263.75
265.429	262.75
265.661	266.75
265.894	273.75
266.126	257.75
266.358	269.75
266.591	268.75
266.823	277.75
267.055	258.75
267.287	274.75
267.52	268.75
267.752	287.75
267.984	280.75
268.216	273.75
268.448	294.75
268.681	300.75
268.913	259.75
269.145	273.75
269.377	282.75
269.609	305.75
269.841	290.75
270.073	296.75
270.306	291.75
270.538	293.75
270.77	289.75
271.002	301.75
271.234	277.75
271.466	298.75
271.698	305.75
271.93	310.75
272.162	303.75
272.394	302.75
272.626	292.75
272.858	308.75
273.09	296.75
273.322	326.75
273.553	323.75
273.785	329.75
274.017	333.75
274.249	338.75
274.481	354.75
274.713	345.75
274.945	350.75
275.176	379.75
275.408	385.75
275.64	354.75
275.872	351.75
276.104	348.75
276.335	327.75
276.567	341.75
276.799	334.75
277.031	329.75
277.262	321.75
277.494	340.75
277.726	332.75
277.957	334.75
278.189	324.75
278.421	337.75
278.652	318.75
278.884	354.75
279.115	326.75
279.347	332.75
279.579	330.75
279.81	336.75
280.042	325.75
280.273	339.75
280.505	346.75
280.736	344.75
280.968	347.75
281.199	334.75
281.431	365.75
281.662	372.75
281.894	358.75
282.125	341.75
282.356	362.75
282.588	330.75
282.819	358.75
283.051	362.75
283.282	348.75
283.513	354.75
283.745	349.75
283.976	354.75
284.207	364.75
284.439	357.75
284.67	358.75
284.901	345.75
285.132	367.75
285.364	369.75
285.595	373.75
285.826	364.75
286.057	356.75
286.288	368.75
286.52	394.75
286.751	361.75
286.982	377.75
287.213	387.75
287.444	381.75
287.675	385.75
287.906	357.75
288.138	378.75
288.369	370.75
288.6	372.75
288.831	385.75
289.062	380.75
289.293	385.75
289.524	385.75
289.755	380.75
289.986	399.75
290.217	371.75
290.448	356.75
290.679	383.75
290.91	371.75
291.141	372.75
291.371	392.75
291.602	387.75
291.833	379.75
292.064	387.75
292.295	411.75
292.526	382.75
292.757	405.75
292.987	400.75
293.218	375.75
293.449	394.75
293.68	411.75
293.91	392.75
294.141	390.75
294.372	394.75
294.603	389.75
294.833	395.75
295.064	406.75
295.295	382.75
295.525	386.75
295.756	397.75
295.987	432.75
296.217	407.75
296.448	412.75
296.679	410.75
296.909	431.75
297.14	413.75
297.37	409.75
297.601	417.75
297.831	399.75
298.062	409.75
298.292	397.75
298.523	445.75
298.753	425.75
298.984	419.75
299.214	415.75
299.445	419.75
299.675	421.75
299.905	432.75
300.136	417.75
300.366	431.75
300.597	420.75
300.827	415.75
301.057	417.75
301.288	434.75
301.518	435.75
301.748	434.75
301.979	445.75
302.209	439.75
302.439	460.75
302.669	449.75
302.9	449.75
303.13	432.75
303.36	445.75
303.59	442.75
303.82	455.75
304.051	448.75
304.281	460.75
304.511	445.75
304.741	427.75
304.971	446.75
305.201	450.75
305.431	426.75
305.661	475.75
305.891	452.75
306.121	445.75
306.352	448.75
306.582	447.75
306.812	446.75
307.042	450.75
307.272	460.75
307.502	456.75
307.731	448.75
307.961	447.75
308.191	454.75
308.421	450.75
308.651	459.75
308.881	443.75
309.111	468.75
309.341	456.75
309.571	447.75
309.8	466.75
310.03	441.75
310.26	455.75
310.49	455.75
310.72	460.75
310.949	460.75
311.179	451.75
311.409	443.75
311.639	482.75
311.868	453.75
312.098	463.75
312.328	437.75
312.557	466.75
312.787	461.75
313.017	488.75
313.246	468.75
313.476	471.75
313.706	471.75
313.935	480.75
314.165	476.75
314.394	489.75
314.624	484.75
314.853	488.75
315.083	483.75
315.312	485.75
315.542	496.75
315.771	470.75
316.001	481.75
316.23	485.75
316.46	460.75
316.689	513.75
316.919	486.75
317.148	505.75
317.377	481.75
317.607	506.75
317.836	484.75
318.065	502.75
318.295	494.75
318.524	479.75
318.753	479.75
318.983	482.75
319.212	495.75
319.441	504.75
319.67	493.75
319.9	510.75
320.129	484.75
320.358	494.75
320.587	487.75
320.816	500.75
321.046	491.75
321.275	491.75
321.504	489.75
321.733	479.75
321.962	492.75
322.191	503.75
322.42	506.75
322.649	498.75
322.878	507.75
323.108	488.75
323.337	500.75
323.566	492.75
323.795	507.75
324.024	523.75
324.253	532.75
324.482	524.75
324.71	509.75
324.939	501.75
325.168	517.75
325.397	504.75
325.626	514.75
325.855	500.75
326.084	540.75
326.313	523.75
326.542	516.75
326.77	530.75
326.999	523.75
327.228	515.75
327.457	548.75
327.686	526.75
327.914	536.75
328.143	531.75
328.372	506.75
328.6	528.75
328.829	541.75
329.058	542.75
329.287	549.75
329.515	525.75
329.744	520.75
329.972	532.75
330.201	555.75
330.43	563.75
330.658	548.75
330.887	570.75
331.115	550.75
331.344	560.75
331.572	538.75
331.801	548.75
332.03	570.75
332.258	594.75
332.486	589.75
332.715	586.75
332.943	634.75
333.172	608.75
333.4	591.75
333.629	610.75
333.857	634.75
334.085	627.75
334.314	662.75
334.542	607.75
334.771	639.75
334.999	633.75
335.227	618.75
335.455	641.75
335.684	642.75
335.912	632.75
336.14	620.75
336.369	613.75
336.597	619.75
336.825	620.75
337.053	592.75
337.281	599.75
337.51	608.75
337.738	616.75
337.966	585.75
338.194	579.75
338.422	581.75
338.65	588.75
338.878	601.75
339.106	583.75
339.334	584.75
339.562	564.75
339.79	562.75
340.018	557.75
340.246	573.75
340.474	581.75
340.702	576.75
340.93	578.75
341.158	580.75
341.386	583.75
341.614	564.75
341.842	570.75
342.07	575.75
342.298	555.75
342.526	579.75
342.754	565.75
342.981	568.75
343.209	562.75
343.437	607.75
343.665	589.75
343.893	635.75
344.12	666.75
344.348	633.75
344.576	624.75
344.804	623.75
345.031	584.75
345.259	575.75
345.487	566.75
345.714	571.75
345.942	560.75
346.17	548.75
346.397	561.75
346.625	592.75
346.853	550.75
347.08	531.75
347.308	575.75
347.535	548.75
347.763	548.75
347.99	537.75
348.218	561.75
348.445	529.75
348.673	537.75
348.9	554.75
349.128	549.75
349.355	568.75
349.583	540.75
349.81	538.75
350.037	548.75
350.265	545.75
350.492	540.75
350.72	540.75
350.947	561.75
351.174	555.75
351.402	534.75
351.629	543.75
351.856	544.75
352.083	554.75
352.311	534.75
352.538	556.75
352.765	524.75
352.992	565.75
353.22	531.75
353.447	531.75
353.674	532.75
353.901	535.75
354.128	537.75
354.355	544.75
354.583	521.75
354.81	537.75
355.037	534.75
355.264	538.75
355.491	545.75
355.718	538.75
355.945	530.75
356.172	544.75
356.399	552.75
356.626	566.75
356.853	553.75
357.08	555.75
357.307	567.75
357.534	543.75
357.761	528.75
357.988	569.75
358.215	572.75
358.441	555.75
358.668	556.75
358.895	553.75
359.122	548.75
359.349	547.75
359.576	564.75
359.802	555.75
360.029	547.75
360.256	541.75
360.483	536.75
360.709	559.75
360.936	583.75
361.163	548.75
361.39	569.75
361.616	559.75
361.843	552.75
362.07	559.75
362.296	569.75
362.523	528.75
362.749	543.75
362.976	543.75
363.203	564.75
363.429	568.75
363.656	568.75
363.882	566.75
364.109	546.75
364.335	548.75
364.562	546.75
364.788	553.75
365.015	596.75
365.241	581.75
365.468	559.75
365.694	544.75
365.92	559.75
366.147	530.75
366.373	539.75
366.599	575.75
366.826	580.75
367.052	573.75
367.278	551.75
367.505	561.75
367.731	571.75
367.957	586.75
368.184	550.75
368.41	540.75
368.636	589.75
368.862	546.75
369.089	573.75
369.315	568.75
369.541	579.75
369.767	569.75
369.993	560.75
370.219	586.75
370.445	599.75
370.672	587.75
370.898	593.75
371.124	603.75
371.35	590.75
371.576	600.75
371.802	614.75
372.028	602.75
372.254	625.75
372.48	635.75
372.706	618.75
372.932	625.75
373.158	636.75
373.384	645.75
373.61	646.75
373.835	656.75
374.061	627.75
374.287	631.75
374.513	655.75
374.739	648.75
374.965	653.75
375.191	661.75
375.416	639.75
375.642	623.75
375.868	639.75
376.094	621.75
376.319	601.75
376.545	619.75
376.771	613.75
376.997	633.75
377.222	618.75
377.448	614.75
377.674	605.75
377.899	610.75
378.125	601.75
378.35	609.75
378.576	627.75
378.802	621.75
379.027	619.75
379.253	606.75
379.478	596.75
379.704	621.75
379.929	616.75
380.155	628.75
380.38	645.75
380.606	618.75
380.831	619.75
381.057	611.75
381.282	618.75
381.507	644.75
381.733	653.75
381.958	627.75
382.184	637.75
382.409	644.75
382.634	671.75
382.86	652.75
383.085	659.75
383.31	649.75
383.535	667.75
383.761	674.75
383.986	668.75
384.211	662.75
384.436	679.75
384.662	682.75
384.887	695.75
385.112	667.75
385.337	683.75
385.562	715.75
385.787	741.75
386.013	739.75
386.238	712.75
386.463	724.75
386.688	709.75
386.913	706.75
387.138	725.75
387.363	732.75
387.588	726.75
387.813	721.75
388.038	737.75
388.263	728.75
388.488	737.75
388.713	744.75
388.938	735.75
389.163	736.75
389.387	740.75
389.612	697.75
389.837	751.75
390.062	694.75
390.287	747.75
390.512	724.75
390.736	747.75
390.961	715.75
391.186	745.75
391.411	736.75
391.636	781.75
391.86	773.75
392.085	768.75
392.31	779.75
392.534	783.75
392.759	785.75
392.984	777.75
393.208	802.75
393.433	748.75
393.658	780.75
393.882	751.75
394.107	799.75
394.331	740.75
394.556	739.75
394.78	761.75
395.005	775.75
395.229	788.75
395.454	792.75
395.678	810.75
395.903	776.75
396.127	792.75
396.352	791.75
396.576	796.75
396.801	770.75
397.025	804.75
397.249	809.75
397.474	853.75
397.698	858.75
397.922	830.75
398.147	858.75
398.371	858.75
398.595	888.75
398.82	915.75
399.044	947.75
399.268	979.75
399.492	1042.75
399.717	1106.75
399.941	1097.75
400.165	1122.75
400.389	1063.75
400.613	997.75
400.837	953.75
401.062	939.75
401.286	936.75
401.51	930.75
401.734	919.75
401.958	920.75
402.182	923.75
402.406	893.75
402.63	912.75
402.854	916.75
403.078	912.75
403.302	929.75
403.526	920.75
403.75	905.75
403.974	921.75
404.198	929.75
404.422	930.75
404.645	949.75
404.869	951.75
405.093	929.75
405.317	916.75
405.541	924.75
405.765	937.75
405.988	929.75
406.212	934.75
406.436	958.75
406.66	1010.75
406.883	966.75
407.107	1015.75
407.331	1013.75
407.555	1034.75
407.778	1021.75
408.002	1026.75
408.226	1004.75
408.449	1037.75
408.673	983.75
408.896	973.75
409.12	943.75
409.344	963.75
409.567	927.75
409.791	940.75
410.014	924.75
410.238	939.75
410.461	932.75
410.685	967.75
410.908	954.75
411.132	931.75
411.355	920.75
411.578	932.75
411.802	943.75
412.025	917.75
412.249	918.75
412.472	934.75
412.695	896.75
412.919	898.75
413.142	908.75
413.365	908.75
413.589	930.75
413.812	915.75
414.035	905.75
414.258	899.75
414.482	893.75
414.705	910.75
414.928	883.75
415.151	885.75
415.374	877.75
415.597	893.75
415.821	863.75
416.044	851.75
416.267	859.75
416.49	867.75
416.713	838.75
416.936	870.75
417.159	837.75
417.382	861.75
417.605	842.75
417.828	853.75
418.051	821.75
418.274	867.75
418.497	879.75
418.72	867.75
418.943	882.75
419.166	882.75
419.389	962.75
419.611	977.75
419.834	971.75
420.057	902.75
420.28	889.75
420.503	890.75
420.726	864.75
420.948	853.75
421.171	876.75
421.394	843.75
421.617	855.75
421.839	882.75
422.062	888.75
422.285	857.75
422.507	855.75
422.73	851.75
422.953	877.75
423.175	869.75
423.398	863.75
423.621	860.75
423.843	858.75
424.066	882.75
424.288	892.75
424.511	865.75
424.733	873.75
424.956	839.75
425.178	836.75
425.401	859.75
425.623	868.75
425.846	843.75
426.068	849.75
426.291	869.75
426.513	847.75
426.735	856.75
426.958	834.75
427.18	810.75
427.402	844.75
427.625	844.75
427.847	803.75
428.069	771.75
428.292	851.75
428.514	811.75
428.736	825.75
428.958	833.75
429.181	781.75
429.403	800.75
429.625	805.75
429.847	808.75
430.069	794.75
430.292	796.75
430.514	792.75
430.736	820.75
430.958	787.75
431.18	816.75
431.402	804.75
431.624	809.75
431.846	808.75
432.068	794.75
432.29	823.75
432.512	797.75
432.734	859.75
432.956	832.75
433.178	834.75
433.4	808.75
433.622	857.75
433.844	842.75
434.066	843.75
434.287	837.75
434.509	867.75
434.731	856.75
434.953	862.75
435.175	848.75
435.397	853.75
435.618	890.75
435.84	827.75
436.062	807.75
436.284	818.75
436.505	804.75
436.727	826.75
436.949	811.75
437.17	834.75
437.392	811.75
437.614	793.75
437.835	787.75
438.057	798.75
438.278	806.75
438.5	797.75
438.721	784.75
438.943	799.75
439.165	805.75
439.386	796.75
439.608	798.75
439.829	837.75
440.05	802.75
440.272	809.75
440.493	828.75
440.715	845.75
440.936	838.75
441.158	840.75
441.379	844.75
441.6	857.75
441.822	843.75
442.043	862.75
442.264	840.75
442.486	860.75
442.707	876.75
442.928	842.75
443.149	839.75
443.371	879.75
443.592	876.75
443.813	850.75
444.034	897.75
444.255	922.75
444.476	934.75
444.698	940.75
444.919	927.75
445.14	1012.75
445.361	971.75
445.582	899.75
445.803	851.75
446.024	867.75
446.245	872.75
446.466	823.75
446.687	835.75
446.908	849.75
447.129	801.75
447.35	787.75
447.571	779.75
447.792	762.75
448.013	783.75
448.234	777.75
448.455	779.75
448.675	782.75
448.896	773.75
449.117	771.75
449.338	769.75
449.559	757.75
449.779	747.75
450	741.75
450.221	758.75
450.442	736.75
450.662	769.75
450.883	726.75
451.104	769.75
451.324	753.75
451.545	749.75
451.766	753.75
451.986	764.75
452.207	732.75
452.428	756.75
452.648	731.75
452.869	726.75
453.089	731.75
453.31	704.75
453.53	695.75
453.751	717.75
453.971	721.75
454.192	729.75
454.412	709.75
454.633	724.75
454.853	717.75
455.073	720.75
455.294	717.75
455.514	732.75
455.734	729.75
455.955	698.75
456.175	708.75
456.395	712.75
456.616	729.75
456.836	692.75
457.056	721.75
457.276	706.75
457.497	711.75
457.717	732.75
457.937	723.75
458.157	739.75
458.377	759.75
458.598	772.75
458.818	777.75
459.038	787.75
459.258	790.75
459.478	811.75
459.698	831.75
459.918	833.75
460.138	852.75
460.358	874.75
460.578	875.75
460.798	899.75
461.018	898.75
461.238	918.75
461.458	926.75
461.678	914.75
461.898	938.75
462.118	960.75
462.338	949.75
462.558	980.75
462.777	1002.75
462.997	1044.75
463.217	1083.75
463.437	1043.75
463.657	1063.75
463.876	1047.75
464.096	1004.75
464.316	1013.75
464.536	965.75
464.755	983.75
464.975	979.75
465.195	901.75
465.414	911.75
465.634	880.75
465.854	870.75
466.073	832.75
466.293	856.75
466.512	819.75
466.732	817.75
466.951	829.75
467.171	817.75
467.391	818.75
467.61	792.75
467.829	770.75
468.049	817.75
468.268	779.75
468.488	793.75
468.707	800.75
468.927	802.75
469.146	824.75
469.365	799.75
469.585	780.75
469.804	811.75
470.023	827.75
470.243	816.75
470.462	811.75
470.681	843.75
470.901	829.75
471.12	818.75
471.339	835.75
471.558	812.75
471.777	817.75
471.997	801.75
472.216	820.75
472.435	779.75
472.654	767.75
472.873	791.75
473.092	785.75
473.311	772.75
473.53	788.75
473.749	795.75
473.968	800.75
474.187	798.75
474.406	792.75
474.625	789.75
474.844	780.75
475.063	800.75
475.282	800.75
475.501	785.75
475.72	807.75
475.939	790.75
476.158	820.75
476.377	849.75
476.596	866.75
476.814	861.75
477.033	826.75
477.252	840.75
477.471	859.75
477.69	881.75
477.908	878.75
478.127	920.75
478.346	912.75
478.564	892.75
478.783	907.75
479.002	947.75
479.22	928.75
479.439	959.75
479.658	966.75
479.876	938.75
480.095	961.75
480.313	996.75
480.532	987.75
480.751	958.75
480.969	943.75
481.188	953.75
481.406	948.75
481.624	961.75
481.843	917.75
482.061	914.75
482.28	903.75
482.498	943.75
482.717	921.75
482.935	930.75
483.153	925.75
483.372	919.75
483.59	949.75
483.808	943.75
484.027	940.75
484.245	934.75
484.463	914.75
484.681	899.75
484.9	903.75
485.118	926.75
485.336	935.75
485.554	960.75
485.772	905.75
485.99	928.75
486.209	944.75
486.427	940.75
486.645	928.75
486.863	929.75
487.081	943.75
487.299	945.75
487.517	939.75
487.735	968.75
487.953	956.75
488.171	931.75
488.389	931.75
488.607	947.75
488.825	924.75
489.043	918.75
489.261	900.75
489.479	940.75
489.696	938.75
489.914	930.75
490.132	973.75
490.35	951.75
490.568	961.75
490.786	976.75
491.003	964.75
491.221	957.75
491.439	975.75
491.657	971.75
491.874	954.75
492.092	992.75
492.31	979.75
492.527	982.75
492.745	986.75
492.963	993.75
493.18	992.75
493.398	995.75
493.615	978.75
493.833	991.75
494.05	1027.75
494.268	987.75
494.485	1010.75
494.703	998.75
494.92	1034.75
495.138	1009.75
495.355	994.75
495.573	1041.75
495.79	1025.75
496.008	1055.75
496.225	1040.75
496.442	1049.75
496.66	1063.75
496.877	1068.75
497.094	1086.75
497.312	1104.75
497.529	1109.75
497.746	1129.75
497.963	1202.75
498.181	1187.75
498.398	1237.75
498.615	1300.75
498.832	1307.75
499.049	1428.75
499.267	1446.75
499.484	1553.75
499.701	1619.75
499.918	1706.75
500.135	1791.75
500.352	1909.75
500.569	1911.75
500.786	1910.75
501.003	1905.75
501.22	1810.75
501.437	1679.75
501.654	1604.75
501.871	1517.75
502.088	1449.75
502.305	1404.75
502.522	1347.75
502.739	1301.75
502.956	1281.75
503.172	1236.75
503.389	1187.75
503.606	1135.75
503.823	1143.75
504.04	1131.75
504.256	1116.75
504.473	1089.75
504.69	1079.75
504.907	1092.75
505.123	1043.75
505.34	1027.75
505.557	1002.75
505.773	987.75
505.99	973.75
506.207	972.75
506.423	921.75
506.64	915.75
506.856	907.75
507.073	909.75
507.289	915.75
507.506	881.75
507.722	896.75
507.939	892.75
508.155	856.75
508.372	847.75
508.588	844.75
508.805	860.75
509.021	854.75
509.238	815.75
509.454	805.75
509.67	800.75
509.887	829.75
510.103	804.75
510.319	828.75
510.536	791.75
510.752	788.75
510.968	813.75
511.184	804.75
511.401	791.75
511.617	795.75
511.833	818.75
512.049	794.75
512.265	779.75
512.481	792.75
512.698	798.75
512.914	810.75
513.13	801.75
513.346	810.75
513.562	796.75
513.778	796.75
513.994	809.75
514.21	795.75
514.426	828.75
514.642	825.75
514.858	819.75
515.074	812.75
515.29	828.75
515.506	811.75
515.721	837.75
515.937	848.75
516.153	849.75
516.369	870.75
516.585	876.75
516.801	881.75
517.016	891.75
517.232	927.75
517.448	928.75
517.664	938.75
517.879	931.75
518.095	950.75
518.311	903.75
518.527	897.75
518.742	932.75
518.958	879.75
519.173	862.75
519.389	857.75
519.605	846.75
519.82	854.75
520.036	820.75
520.251	849.75
520.467	797.75
520.682	791.75
520.898	787.75
521.113	794.75
521.329	796.75
521.544	797.75
521.76	760.75
521.975	760.75
522.19	759.75
522.406	758.75
522.621	773.75
522.836	741.75
523.052	773.75
523.267	720.75
523.482	757.75
523.698	767.75
523.913	703.75
524.128	749.75
524.343	732.75
524.559	761.75
524.774	738.75
524.989	725.75
525.204	732.75
525.419	750.75
525.634	749.75
525.849	761.75
526.064	742.75
526.28	725.75
526.495	724.75
526.71	712.75
526.925	723.75
527.14	690.75
527.355	697.75
527.57	677.75
527.785	709.75
527.999	698.75
528.214	741.75
528.429	707.75
528.644	716.75
528.859	695.75
529.074	713.75
529.289	707.75
529.503	716.75
529.718	717.75
529.933	710.75
530.148	726.75
530.363	709.75
530.577	689.75
530.792	698.75
531.007	697.75
531.221	716.75
531.436	717.75
531.651	707.75
531.865	691.75
532.08	711.75
532.295	737.75
532.509	688.75
532.724	704.75
532.938	712.75
533.153	696.75
533.367	710.75
533.582	727.75
533.796	698.75
534.011	701.75
534.225	691.75
534.44	664.75
534.654	668.75
534.868	667.75
535.083	699.75
535.297	695.75
535.511	691.75
535.726	681.75
535.94	670.75
536.154	656.75
536.369	654.75
536.583	674.75
536.797	665.75
537.011	684.75
537.225	660.75
537.44	665.75
537.654	685.75
537.868	664.75
538.082	651.75
538.296	661.75
538.51	679.75
538.724	674.75
538.938	651.75
539.153	631.75
539.367	657.75
539.581	659.75
539.795	634.75
540.009	639.75
540.222	653.75
540.436	641.75
540.65	650.75
540.864	642.75
541.078	651.75
541.292	659.75
541.506	629.75
541.72	636.75
541.934	644.75
542.147	632.75
542.361	656.75
542.575	638.75
542.789	636.75
543.002	640.75
543.216	635.75
543.43	646.75
543.644	633.75
543.857	660.75
544.071	637.75
544.285	627.75
544.498	639.75
544.712	651.75
544.925	651.75
545.139	659.75
545.352	655.75
545.566	639.75
545.779	648.75
545.993	645.75
546.206	649.75
546.42	675.75
546.633	635.75
546.847	655.75
547.06	639.75
547.274	650.75
547.487	654.75
547.7	654.75
547.914	643.75
548.127	671.75
548.34	664.75
548.554	627.75
548.767	666.75
548.98	665.75
549.193	654.75
549.407	649.75
549.62	675.75
549.833	671.75
550.046	647.75
550.259	675.75
550.473	635.75
550.686	664.75
550.899	632.75
551.112	630.75
551.325	671.75
551.538	655.75
551.751	653.75
551.964	644.75
552.177	660.75
552.39	655.75
552.603	656.75
552.816	653.75
553.029	662.75
553.242	664.75
553.455	674.75
553.667	673.75
553.88	649.75
554.093	646.75
554.306	633.75
554.519	635.75
554.732	628.75
554.944	615.75
555.157	593.75
555.37	613.75
555.583	597.75
555.795	623.75
556.008	601.75
556.221	597.75
556.433	576.75
556.646	592.75
556.859	570.75
557.071	578.75
557.284	574.75
557.496	571.75
557.709	561.75
557.921	544.75
558.134	537.75
558.346	563.75
558.559	551.75
558.771	545.75
558.984	535.75
559.196	543.75
559.409	545.75
559.621	530.75
559.833	546.75
560.046	536.75
560.258	555.75
560.47	556.75
560.683	556.75
560.895	552.75
561.107	524.75
561.32	525.75
561.532	549.75
561.744	549.75
561.956	541.75
562.168	553.75
562.381	551.75
562.593	564.75
562.805	560.75
563.017	592.75
563.229	545.75
563.441	551.75
563.653	544.75
563.865	575.75
564.077	563.75
564.289	585.75
564.501	582.75
564.713	581.75
564.925	584.75
565.137	598.75
565.349	607.75
565.561	635.75
565.773	643.75
565.985	667.75
566.197	670.75
566.408	710.75
566.62	703.75
566.832	730.75
567.044	733.75
567.255	739.75
567.467	755.75
567.679	765.75
567.891	785.75
568.102	763.75
568.314	748.75
568.526	717.75
568.737	692.75
568.949	652.75
569.161	640.75
569.372	627.75
569.584	603.75
569.795	586.75
570.007	568.75
570.218	581.75
570.43	536.75
570.641	524.75
570.853	545.75
571.064	519.75
571.276	529.75
571.487	538.75
571.698	522.75
571.91	491.75
572.121	502.75
572.333	473.75
572.544	482.75
572.755	482.75
572.966	459.75
573.178	469.75
573.389	467.75
573.6	465.75
573.811	474.75
574.023	472.75
574.234	455.75
574.445	450.75
574.656	446.75
574.867	454.75
575.078	441.75
575.289	452.75
575.501	427.75
575.712	441.75
575.923	437.75
576.134	434.75
576.345	448.75
576.556	457.75
576.767	425.75
576.978	435.75
577.188	456.75
577.399	405.75
577.61	416.75
577.821	418.75
578.032	411.75
578.243	415.75
578.454	422.75
578.665	387.75
578.875	407.75
579.086	407.75
579.297	409.75
579.508	398.75
579.718	400.75
579.929	385.75
580.14	397.75
580.35	379.75
580.561	415.75
580.772	409.75
580.982	400.75
581.193	392.75
581.403	401.75
581.614	383.75
581.825	374.75
582.035	398.75
582.246	391.75
582.456	387.75
582.667	405.75
582.877	401.75
583.087	412.75
583.298	384.75
583.508	384.75
583.719	363.75
583.929	373.75
584.139	376.75
584.35	372.75
584.56	379.75
584.77	372.75
584.981	376.75
585.191	359.75
585.401	367.75
585.611	375.75
585.821	362.75
586.032	378.75
586.242	375.75
586.452	392.75
586.662	386.75
586.872	357.75
587.082	375.75
587.292	371.75
587.502	364.75
587.713	371.75
587.923	375.75
588.133	377.75
588.343	377.75
588.553	371.75
588.762	391.75
588.972	383.75
589.182	381.75
589.392	389.75
589.602	371.75
589.812	384.75
590.022	377.75
590.232	360.75
590.441	379.75
590.651	359.75
590.861	385.75
591.071	369.75
591.281	367.75
591.49	374.75
591.7	391.75
591.91	378.75
592.119	388.75
592.329	393.75
592.539	385.75
592.748	391.75
592.958	375.75
593.167	412.75
593.377	399.75
593.587	401.75
593.796	408.75
594.006	427.75
594.215	385.75
594.424	401.75
594.634	401.75
594.843	384.75
595.053	372.75
595.262	368.75
595.472	364.75
595.681	368.75
595.89	365.75
596.1	370.75
596.309	367.75
596.518	356.75
596.727	346.75
596.937	329.75
597.146	339.75
597.355	340.75
597.564	329.75
597.774	322.75
597.983	327.75
598.192	337.75
598.401	339.75
598.61	323.75
598.819	328.75
599.028	325.75
599.237	325.75
599.446	304.75
599.655	321.75
599.864	333.75
600.073	316.75
600.282	326.75
600.491	301.75
600.7	323.75
600.909	314.75
601.118	298.75
601.327	307.75
601.536	308.75
601.745	305.75
601.953	309.75
602.162	309.75
602.371	293.75
602.58	301.75
602.789	312.75
602.997	299.75
603.206	311.75
603.415	291.75
603.623	309.75
603.832	294.75
604.041	300.75
604.249	296.75
604.458	308.75
604.666	308.75
604.875	305.75
605.084	287.75
605.292	278.75
605.501	298.75
605.709	297.75
605.918	296.75
606.126	279.75
606.334	293.75
606.543	284.75
606.751	293.75
606.96	279.75
607.168	297.75
607.376	291.75
607.585	274.75
607.793	292.75
608.001	278.75
608.21	287.75
608.418	275.75
608.626	281.75
608.834	272.75
609.043	289.75
609.251	288.75
609.459	284.75
609.667	283.75
609.875	291.75
610.083	284.75
610.291	269.75
610.499	277.75
610.707	277.75
610.916	273.75
611.124	293.75
611.332	264.75
611.54	285.75
611.748	285.75
611.955	284.75
612.163	283.75
612.371	279.75
612.579	282.75
612.787	264.75
612.995	275.75
613.203	291.75
613.411	274.75
613.618	272.75
613.826	269.75
614.034	278.75
614.242	287.75
614.449	262.75
614.657	273.75
614.865	271.75
615.072	266.75
615.28	267.75
615.488	263.75
615.695	263.75
615.903	273.75
616.111	260.75
616.318	264.75
616.526	269.75
616.733	265.75
616.941	267.75
617.148	254.75
617.356	267.75
617.563	267.75
617.771	268.75
617.978	252.75
618.185	264.75
618.393	261.75
618.6	260.75
618.807	257.75
619.015	242.75
619.222	249.75
619.429	249.75
619.637	265.75
619.844	254.75
620.051	239.75
620.258	256.75
620.466	245.75
620.673	238.75
620.88	242.75
621.087	247.75
621.294	244.75
621.501	275.75
621.708	256.75
621.915	247.75
622.122	250.75
622.329	243.75
622.536	257.75
622.743	251.75
622.95	248.75
623.157	260.75
623.364	235.75
623.571	243.75
623.778	244.75
623.985	254.75
624.192	245.75
624.399	235.75
624.606	242.75
624.812	234.75
625.019	239.75
625.226	218.75
625.433	241.75
625.639	232.75
625.846	243.75
626.053	229.75
626.259	231.75
626.466	239.75
626.673	235.75
626.879	229.75
627.086	244.75
627.293	245.75
627.499	235.75
627.706	243.75
627.912	220.75
628.119	239.75
628.325	237.75
628.532	228.75
628.738	231.75
628.945	227.75
629.151	213.75
629.357	226.75
629.564	214.75
629.77	213.75
629.976	224.75
630.183	218.75
630.389	224.75
630.595	231.75
630.802	215.75
631.008	218.75
631.214	219.75
631.42	231.75
631.627	223.75
631.833	189.75
632.039	224.75
632.245	226.75
632.451	240.75
632.657	213.75
632.863	223.75
633.069	221.75
633.275	215.75
633.481	214.75
633.688	213.75
633.893	221.75
634.099	208.75
634.305	211.75
634.511	216.75
634.717	221.75
634.923	210.75
635.129	212.75
635.335	209.75
635.541	205.75
635.747	219.75
635.952	208.75
636.158	220.75
636.364	193.75
636.57	201.75
636.775	220.75
636.981	209.75
637.187	214.75
637.392	211.75
637.598	215.75
637.804	193.75
638.009	219.75
638.215	222.75
638.421	199.75
638.626	196.75
638.832	216.75
639.037	197.75
639.243	204.75
639.448	203.75
639.654	214.75
639.859	185.75
640.065	204.75
640.27	209.75
640.475	193.75
640.681	207.75
640.886	198.75
641.091	193.75
641.297	207.75
641.502	197.75
641.707	198.75
641.913	194.75
642.118	186.75
642.323	212.75
642.528	195.75
642.733	204.75
642.939	193.75
643.144	197.75
643.349	189.75
643.554	205.75
643.759	199.75
643.964	192.75
644.169	191.75
644.374	211.75
644.579	191.75
644.784	191.75
644.989	212.75
645.194	204.75
645.399	205.75
645.604	218.75
645.809	204.75
646.014	187.75
646.219	191.75
646.423	186.75
646.628	192.75
646.833	202.75
647.038	214.75
647.243	215.75
647.447	197.75
647.652	202.75
647.857	212.75
648.062	215.75
648.266	213.75
648.471	203.75
648.676	193.75
648.88	210.75
649.085	221.75
649.289	202.75
649.494	193.75
649.698	178.75
649.903	183.75
650.107	181.75
650.312	213.75
650.516	196.75
650.721	189.75
650.925	207.75
651.13	204.75
651.334	188.75
651.539	178.75
651.743	204.75
651.947	167.75
652.152	162.75
652.356	198.75
652.56	194.75
652.764	187.75
652.969	185.75
653.173	183.75
653.377	183.75
653.581	198.75
653.785	184.75
653.99	180.75
654.194	184.75
654.398	173.75
654.602	176.75
654.806	187.75
655.01	175.75
655.214	167.75
655.418	168.75
655.622	171.75
655.826	183.75
656.03	182.75
656.234	167.75
656.438	167.75
656.642	179.75
656.846	171.75
657.049	154.75
657.253	159.75
657.457	158.75
657.661	146.75
657.865	150.75
658.068	142.75
658.272	135.75
658.476	134.75
658.68	121.75
658.883	120.75
659.087	123.75
659.291	121.75
659.494	116.75
659.698	116.75
659.901	113.75
660.105	107.75
660.309	111.75
660.512	113.75
660.716	114.75
660.919	97.75
661.123	108.75
661.326	98.75
661.53	97.75
661.733	96.75
661.936	110.75
662.14	95.75
662.343	83.75
662.546	103.75
662.75	99.75
662.953	89.75
663.156	90.75
663.36	96.75
663.563	94.75
663.766	87.75
663.969	87.75
664.173	92.75
664.376	82.75
664.579	81.75
664.782	82.75
664.985	85.75
665.188	82.75
665.391	78.75
665.594	74.75
665.797	85.75
666	102.75
666.203	80.75
666.406	79.75
666.609	78.75
666.812	92.75
667.015	89.75
667.218	81.75
667.421	81.75
667.624	77.75
667.827	82.75
668.03	74.75
668.232	75.75
668.435	80.75
668.638	77.75
668.841	80.75
669.043	71.75
669.246	76.75
669.449	83.75
669.651	95.75
669.854	84.75
670.057	75.75
670.259	87.75
670.462	80.75
670.665	67.75
670.867	80.75
671.07	85.75
671.272	81.75
671.475	91.75
671.677	67.75
671.88	81.75
672.082	79.75
672.284	76.75
672.487	91.75
672.689	71.75
672.892	68.75
