Data from Fe(NO3)3@0.0125M.TitratingCurve.Agarose3%dH2O.NegLispCup.LampEnergy10.LIBS07252019_HRD10591_16-58-39-336.txt Node
Date: Thu Jul 25 16:58:39 EDT 2019
User: cochatt
Spectrometer: HR+D1059
Trigger mode: 1
Integration Time (sec): 1.000000E-1
Scans to average: 1
Electric dark correction enabled: true
Nonlinearity correction enabled: false
Boxcar width: 0
XAxis mode: Wavelengths
Number of Pixels in Spectrum: 2048
>>>>>Begin Spectral Data<<<<<
223.165	-15.06
223.4	-15.06
223.635	-15.06
223.869	-22.06
224.104	-23.06
224.338	-12.06
224.573	2.94
224.808	3.94
225.042	-4.06
225.277	-14.06
225.511	-22.06
225.746	0.94
225.98	6.94
226.215	6.94
226.449	20.94
226.683	16.94
226.918	21.94
227.152	30.94
227.387	35.94
227.621	25.94
227.856	50.94
228.09	52.94
228.324	54.94
228.559	50.94
228.793	72.94
229.027	106.94
229.262	110.94
229.496	126.94
229.73	110.94
229.964	112.94
230.199	123.94
230.433	139.94
230.667	142.94
230.901	126.94
231.136	130.94
231.37	149.94
231.604	141.94
231.838	136.94
232.072	126.94
232.306	131.94
232.541	139.94
232.775	128.94
233.009	134.94
233.243	142.94
233.477	150.94
233.711	141.94
233.945	150.94
234.179	133.94
234.413	135.94
234.647	139.94
234.881	167.94
235.115	151.94
235.349	167.94
235.583	167.94
235.817	149.94
236.051	162.94
236.285	145.94
236.519	148.94
236.753	147.94
236.987	161.94
237.221	162.94
237.455	154.94
237.689	152.94
237.922	174.94
238.156	164.94
238.39	174.94
238.624	167.94
238.858	188.94
239.091	181.94
239.325	162.94
239.559	184.94
239.793	180.94
240.027	189.94
240.26	178.94
240.494	171.94
240.728	176.94
240.961	197.94
241.195	171.94
241.429	202.94
241.662	191.94
241.896	180.94
242.13	186.94
242.363	180.94
242.597	184.94
242.83	196.94
243.064	188.94
243.298	202.94
243.531	185.94
243.765	203.94
243.998	198.94
244.232	214.94
244.465	208.94
244.699	196.94
244.932	196.94
245.166	185.94
245.399	196.94
245.633	182.94
245.866	216.94
246.099	222.94
246.333	226.94
246.566	200.94
246.8	217.94
247.033	223.94
247.266	231.94
247.5	215.94
247.733	224.94
247.966	233.94
248.2	232.94
248.433	223.94
248.666	228.94
248.899	236.94
249.133	232.94
249.366	255.94
249.599	228.94
249.832	245.94
250.066	249.94
250.299	245.94
250.532	259.94
250.765	230.94
250.998	233.94
251.231	262.94
251.465	248.94
251.698	256.94
251.931	264.94
252.164	258.94
252.397	255.94
252.63	272.94
252.863	271.94
253.096	275.94
253.329	274.94
253.562	259.94
253.795	243.94
254.028	267.94
254.261	260.94
254.494	279.94
254.727	266.94
254.96	285.94
255.193	286.94
255.426	283.94
255.659	275.94
255.892	290.94
256.124	299.94
256.357	308.94
256.59	278.94
256.823	280.94
257.056	299.94
257.289	302.94
257.521	302.94
257.754	305.94
257.987	295.94
258.22	292.94
258.452	315.94
258.685	320.94
258.918	310.94
259.151	308.94
259.383	325.94
259.616	321.94
259.849	330.94
260.081	332.94
260.314	334.94
260.547	332.94
260.779	330.94
261.012	333.94
261.244	320.94
261.477	331.94
261.71	340.94
261.942	331.94
262.175	336.94
262.407	328.94
262.64	336.94
262.872	341.94
263.105	356.94
263.337	372.94
263.57	335.94
263.802	324.94
264.035	342.94
264.267	343.94
264.499	342.94
264.732	338.94
264.964	322.94
265.197	354.94
265.429	353.94
265.661	377.94
265.894	350.94
266.126	362.94
266.358	359.94
266.591	351.94
266.823	368.94
267.055	368.94
267.287	372.94
267.52	377.94
267.752	360.94
267.984	361.94
268.216	392.94
268.448	382.94
268.681	383.94
268.913	382.94
269.145	386.94
269.377	378.94
269.609	394.94
269.841	382.94
270.073	404.94
270.306	394.94
270.538	389.94
270.77	390.94
271.002	384.94
271.234	397.94
271.466	407.94
271.698	423.94
271.93	376.94
272.162	405.94
272.394	426.94
272.626	419.94
272.858	411.94
273.09	414.94
273.322	414.94
273.553	414.94
273.785	415.94
274.017	416.94
274.249	458.94
274.481	451.94
274.713	419.94
274.945	455.94
275.176	464.94
275.408	453.94
275.64	465.94
275.872	461.94
276.104	462.94
276.335	449.94
276.567	440.94
276.799	451.94
277.031	455.94
277.262	443.94
277.494	435.94
277.726	451.94
277.957	459.94
278.189	487.94
278.421	450.94
278.652	458.94
278.884	463.94
279.115	464.94
279.347	460.94
279.579	477.94
279.81	464.94
280.042	475.94
280.273	486.94
280.505	483.94
280.736	472.94
280.968	456.94
281.199	499.94
281.431	491.94
281.662	484.94
281.894	504.94
282.125	497.94
282.356	476.94
282.588	498.94
282.819	507.94
283.051	486.94
283.282	512.94
283.513	504.94
283.745	500.94
283.976	499.94
284.207	510.94
284.439	516.94
284.67	524.94
284.901	516.94
285.132	509.94
285.364	553.94
285.595	536.94
285.826	501.94
286.057	512.94
286.288	530.94
286.52	518.94
286.751	528.94
286.982	539.94
287.213	543.94
287.444	556.94
287.675	534.94
287.906	546.94
288.138	554.94
288.369	553.94
288.6	555.94
288.831	560.94
289.062	554.94
289.293	565.94
289.524	557.94
289.755	558.94
289.986	536.94
290.217	560.94
290.448	548.94
290.679	555.94
290.91	553.94
291.141	576.94
291.371	562.94
291.602	552.94
291.833	573.94
292.064	573.94
292.295	559.94
292.526	574.94
292.757	551.94
292.987	568.94
293.218	570.94
293.449	575.94
293.68	574.94
293.91	584.94
294.141	578.94
294.372	582.94
294.603	586.94
294.833	563.94
295.064	575.94
295.295	567.94
295.525	574.94
295.756	600.94
295.987	570.94
296.217	572.94
296.448	584.94
296.679	602.94
296.909	618.94
297.14	610.94
297.37	608.94
297.601	603.94
297.831	585.94
298.062	619.94
298.292	614.94
298.523	616.94
298.753	637.94
298.984	614.94
299.214	630.94
299.445	621.94
299.675	622.94
299.905	624.94
300.136	629.94
300.366	633.94
300.597	626.94
300.827	600.94
301.057	640.94
301.288	619.94
301.518	628.94
301.748	638.94
301.979	648.94
302.209	662.94
302.439	630.94
302.669	638.94
302.9	653.94
303.13	662.94
303.36	660.94
303.59	671.94
303.82	663.94
304.051	667.94
304.281	673.94
304.511	648.94
304.741	674.94
304.971	682.94
305.201	697.94
305.431	671.94
305.661	661.94
305.891	681.94
306.121	677.94
306.352	691.94
306.582	677.94
306.812	638.94
307.042	662.94
307.272	693.94
307.502	694.94
307.731	682.94
307.961	678.94
308.191	689.94
308.421	710.94
308.651	663.94
308.881	686.94
309.111	668.94
309.341	659.94
309.571	703.94
309.8	691.94
310.03	693.94
310.26	689.94
310.49	678.94
310.72	702.94
310.949	698.94
311.179	708.94
311.409	694.94
311.639	694.94
311.868	706.94
312.098	693.94
312.328	716.94
312.557	721.94
312.787	692.94
313.017	705.94
313.246	722.94
313.476	750.94
313.706	728.94
313.935	730.94
314.165	744.94
314.394	730.94
314.624	714.94
314.853	764.94
315.083	737.94
315.312	747.94
315.542	758.94
315.771	737.94
316.001	750.94
316.23	754.94
316.46	775.94
316.689	750.94
316.919	757.94
317.148	754.94
317.377	746.94
317.607	768.94
317.836	790.94
318.065	764.94
318.295	741.94
318.524	780.94
318.753	754.94
318.983	731.94
319.212	788.94
319.441	772.94
319.67	772.94
319.9	751.94
320.129	785.94
320.358	820.94
320.587	777.94
320.816	798.94
321.046	774.94
321.275	770.94
321.504	794.94
321.733	827.94
321.962	792.94
322.191	784.94
322.42	774.94
322.649	800.94
322.878	806.94
323.108	818.94
323.337	828.94
323.566	830.94
323.795	811.94
324.024	828.94
324.253	808.94
324.482	827.94
324.71	812.94
324.939	830.94
325.168	826.94
325.397	823.94
325.626	821.94
325.855	843.94
326.084	841.94
326.313	856.94
326.542	862.94
326.77	846.94
326.999	831.94
327.228	827.94
327.457	824.94
327.686	852.94
327.914	840.94
328.143	836.94
328.372	840.94
328.6	841.94
328.829	850.94
329.058	849.94
329.287	868.94
329.515	841.94
329.744	856.94
329.972	854.94
330.201	821.94
330.43	854.94
330.658	842.94
330.887	864.94
331.115	873.94
331.344	894.94
331.572	857.94
331.801	870.94
332.03	877.94
332.258	868.94
332.486	878.94
332.715	904.94
332.943	905.94
333.172	886.94
333.4	896.94
333.629	875.94
333.857	902.94
334.085	901.94
334.314	892.94
334.542	921.94
334.771	912.94
334.999	907.94
335.227	930.94
335.455	931.94
335.684	938.94
335.912	936.94
336.14	913.94
336.369	948.94
336.597	935.94
336.825	927.94
337.053	927.94
337.281	923.94
337.51	931.94
337.738	918.94
337.966	908.94
338.194	926.94
338.422	910.94
338.65	914.94
338.878	933.94
339.106	927.94
339.334	934.94
339.562	946.94
339.79	911.94
340.018	918.94
340.246	898.94
340.474	894.94
340.702	897.94
340.93	909.94
341.158	922.94
341.386	887.94
341.614	899.94
341.842	900.94
342.07	888.94
342.298	910.94
342.526	923.94
342.754	918.94
342.981	924.94
343.209	947.94
343.437	935.94
343.665	920.94
343.893	924.94
344.12	916.94
344.348	908.94
344.576	932.94
344.804	927.94
345.031	896.94
345.259	930.94
345.487	954.94
345.714	910.94
345.942	918.94
346.17	903.94
346.397	908.94
346.625	891.94
346.853	907.94
347.08	889.94
347.308	883.94
347.535	891.94
347.763	881.94
347.99	864.94
348.218	892.94
348.445	854.94
348.673	886.94
348.9	882.94
349.128	876.94
349.355	890.94
349.583	906.94
349.81	886.94
350.037	882.94
350.265	883.94
350.492	863.94
350.72	888.94
350.947	886.94
351.174	889.94
351.402	887.94
351.629	852.94
351.856	879.94
352.083	873.94
352.311	894.94
352.538	846.94
352.765	889.94
352.992	891.94
353.22	856.94
353.447	894.94
353.674	863.94
353.901	887.94
354.128	855.94
354.355	879.94
354.583	870.94
354.81	875.94
355.037	888.94
355.264	860.94
355.491	878.94
355.718	884.94
355.945	875.94
356.172	890.94
356.399	876.94
356.626	856.94
356.853	902.94
357.08	890.94
357.307	895.94
357.534	865.94
357.761	875.94
357.988	891.94
358.215	888.94
358.441	889.94
358.668	867.94
358.895	887.94
359.122	865.94
359.349	858.94
359.576	848.94
359.802	884.94
360.029	882.94
360.256	873.94
360.483	865.94
360.709	874.94
360.936	886.94
361.163	892.94
361.39	879.94
361.616	873.94
361.843	877.94
362.07	889.94
362.296	868.94
362.523	899.94
362.749	890.94
362.976	895.94
363.203	875.94
363.429	887.94
363.656	888.94
363.882	888.94
364.109	890.94
364.335	906.94
364.562	886.94
364.788	892.94
365.015	884.94
365.241	897.94
365.468	914.94
365.694	889.94
365.92	892.94
366.147	918.94
366.373	904.94
366.599	924.94
366.826	901.94
367.052	917.94
367.278	930.94
367.505	898.94
367.731	901.94
367.957	888.94
368.184	887.94
368.41	917.94
368.636	917.94
368.862	945.94
369.089	929.94
369.315	929.94
369.541	915.94
369.767	929.94
369.993	932.94
370.219	919.94
370.445	946.94
370.672	922.94
370.898	930.94
371.124	946.94
371.35	931.94
371.576	957.94
371.802	929.94
372.028	934.94
372.254	946.94
372.48	961.94
372.706	937.94
372.932	972.94
373.158	962.94
373.384	944.94
373.61	942.94
373.835	949.94
374.061	909.94
374.287	960.94
374.513	930.94
374.739	961.94
374.965	962.94
375.191	973.94
375.416	988.94
375.642	952.94
375.868	966.94
376.094	948.94
376.319	973.94
376.545	962.94
376.771	964.94
376.997	944.94
377.222	949.94
377.448	920.94
377.674	953.94
377.899	922.94
378.125	942.94
378.35	930.94
378.576	946.94
378.802	936.94
379.027	942.94
379.253	950.94
379.478	941.94
379.704	899.94
379.929	939.94
380.155	927.94
380.38	950.94
380.606	935.94
380.831	955.94
381.057	973.94
381.282	934.94
381.507	939.94
381.733	940.94
381.958	940.94
382.184	939.94
382.409	945.94
382.634	960.94
382.86	978.94
383.085	1014.94
383.31	989.94
383.535	937.94
383.761	961.94
383.986	998.94
384.211	1018.94
384.436	955.94
384.662	972.94
384.887	982.94
385.112	978.94
385.337	1016.94
385.562	998.94
385.787	1022.94
386.013	987.94
386.238	1020.94
386.463	973.94
386.688	996.94
386.913	969.94
387.138	1012.94
387.363	1035.94
387.588	1020.94
387.813	1011.94
388.038	1013.94
388.263	1016.94
388.488	1035.94
388.713	1044.94
388.938	1045.94
389.163	1014.94
389.387	1011.94
389.612	999.94
389.837	1042.94
390.062	1004.94
390.287	1038.94
390.512	998.94
390.736	1052.94
390.961	1040.94
391.186	1060.94
391.411	1056.94
391.636	1044.94
391.86	1049.94
392.085	1041.94
392.31	1050.94
392.534	1058.94
392.759	1062.94
392.984	1028.94
393.208	1059.94
393.433	1070.94
393.658	1050.94
393.882	1059.94
394.107	1047.94
394.331	1065.94
394.556	1038.94
394.78	1041.94
395.005	1056.94
395.229	1046.94
395.454	1087.94
395.678	1077.94
395.903	1059.94
396.127	1068.94
396.352	1071.94
396.576	1042.94
396.801	1080.94
397.025	1090.94
397.249	1113.94
397.474	1114.94
397.698	1062.94
397.922	1098.94
398.147	1090.94
398.371	1075.94
398.595	1113.94
398.82	1151.94
399.044	1139.94
399.268	1161.94
399.492	1171.94
399.717	1178.94
399.941	1207.94
400.165	1214.94
400.389	1193.94
400.613	1190.94
400.837	1130.94
401.062	1170.94
401.286	1119.94
401.51	1146.94
401.734	1144.94
401.958	1156.94
402.182	1145.94
402.406	1121.94
402.63	1127.94
402.854	1146.94
403.078	1143.94
403.302	1125.94
403.526	1124.94
403.75	1137.94
403.974	1110.94
404.198	1138.94
404.422	1131.94
404.645	1121.94
404.869	1137.94
405.093	1165.94
405.317	1148.94
405.541	1181.94
405.765	1163.94
405.988	1162.94
406.212	1168.94
406.436	1190.94
406.66	1191.94
406.883	1176.94
407.107	1227.94
407.331	1208.94
407.555	1213.94
407.778	1221.94
408.002	1228.94
408.226	1212.94
408.449	1246.94
408.673	1208.94
408.896	1212.94
409.12	1223.94
409.344	1196.94
409.567	1178.94
409.791	1176.94
410.014	1179.94
410.238	1186.94
410.461	1200.94
410.685	1160.94
410.908	1178.94
411.132	1173.94
411.355	1155.94
411.578	1166.94
411.802	1170.94
412.025	1142.94
412.249	1165.94
412.472	1155.94
412.695	1131.94
412.919	1150.94
413.142	1150.94
413.365	1141.94
413.589	1152.94
413.812	1127.94
414.035	1118.94
414.258	1126.94
414.482	1131.94
414.705	1115.94
414.928	1116.94
415.151	1113.94
415.374	1087.94
415.597	1119.94
415.821	1104.94
416.044	1073.94
416.267	1087.94
416.49	1111.94
416.713	1103.94
416.936	1119.94
417.159	1082.94
417.382	1056.94
417.605	1054.94
417.828	1047.94
418.051	1057.94
418.274	1079.94
418.497	1078.94
418.72	1088.94
418.943	1061.94
419.166	1088.94
419.389	1143.94
419.611	1180.94
419.834	1114.94
420.057	1073.94
420.28	1073.94
420.503	1049.94
420.726	1057.94
420.948	1056.94
421.171	1080.94
421.394	1107.94
421.617	1046.94
421.839	1078.94
422.062	1082.94
422.285	1049.94
422.507	1074.94
422.73	1050.94
422.953	1042.94
423.175	1043.94
423.398	1044.94
423.621	1047.94
423.843	1073.94
424.066	1037.94
424.288	1017.94
424.511	1046.94
424.733	1060.94
424.956	1043.94
425.178	1049.94
425.401	1044.94
425.623	1078.94
425.846	1062.94
426.068	1050.94
426.291	1052.94
426.513	1072.94
426.735	1041.94
426.958	1062.94
427.18	1050.94
427.402	1044.94
427.625	1060.94
427.847	1044.94
428.069	1045.94
428.292	1016.94
428.514	1042.94
428.736	1023.94
428.958	1042.94
429.181	1044.94
429.403	1032.94
429.625	1027.94
429.847	1029.94
430.069	1048.94
430.292	1056.94
430.514	1034.94
430.736	1056.94
430.958	1051.94
431.18	1056.94
431.402	1027.94
431.624	992.94
431.846	1046.94
432.068	1022.94
432.29	1030.94
432.512	1009.94
432.734	1045.94
432.956	1034.94
433.178	1042.94
433.4	1036.94
433.622	1027.94
433.844	1043.94
434.066	998.94
434.287	1030.94
434.509	1044.94
434.731	1036.94
434.953	1023.94
435.175	1040.94
435.397	1061.94
435.618	1056.94
435.84	1050.94
436.062	1026.94
436.284	1031.94
436.505	1014.94
436.727	1004.94
436.949	1002.94
437.17	1019.94
437.392	1022.94
437.614	991.94
437.835	988.94
438.057	1000.94
438.278	985.94
438.5	1011.94
438.721	1001.94
438.943	996.94
439.165	978.94
439.386	1008.94
439.608	1006.94
439.829	991.94
440.05	993.94
440.272	1028.94
440.493	1008.94
440.715	1008.94
440.936	1014.94
441.158	1005.94
441.379	1010.94
441.6	1014.94
441.822	1025.94
442.043	1029.94
442.264	1009.94
442.486	1020.94
442.707	1042.94
442.928	1004.94
443.149	1039.94
443.371	997.94
443.592	1020.94
443.813	1040.94
444.034	1016.94
444.255	1033.94
444.476	1050.94
444.698	1047.94
444.919	1016.94
445.14	1148.94
445.361	1087.94
445.582	1035.94
445.803	1039.94
446.024	1006.94
446.245	1001.94
446.466	1000.94
446.687	998.94
446.908	1003.94
447.129	997.94
447.35	930.94
447.571	980.94
447.792	960.94
448.013	947.94
448.234	954.94
448.455	953.94
448.675	956.94
448.896	926.94
449.117	935.94
449.338	939.94
449.559	932.94
449.779	919.94
450	932.94
450.221	948.94
450.442	906.94
450.662	924.94
450.883	948.94
451.104	940.94
451.324	902.94
451.545	938.94
451.766	902.94
451.986	938.94
452.207	930.94
452.428	939.94
452.648	930.94
452.869	905.94
453.089	927.94
453.31	889.94
453.53	912.94
453.751	900.94
453.971	918.94
454.192	906.94
454.412	915.94
454.633	908.94
454.853	915.94
455.073	895.94
455.294	896.94
455.514	901.94
455.734	899.94
455.955	922.94
456.175	888.94
456.395	910.94
456.616	905.94
456.836	918.94
457.056	918.94
457.276	897.94
457.497	910.94
457.717	889.94
457.937	926.94
458.157	911.94
458.377	926.94
458.598	938.94
458.818	960.94
459.038	965.94
459.258	931.94
459.478	968.94
459.698	979.94
459.918	1011.94
460.138	986.94
460.358	1034.94
460.578	1023.94
460.798	1006.94
461.018	1027.94
461.238	1014.94
461.458	1018.94
461.678	1038.94
461.898	1040.94
462.118	1037.94
462.338	1065.94
462.558	1080.94
462.777	1058.94
462.997	1056.94
463.217	1071.94
463.437	1079.94
463.657	1077.94
463.876	1078.94
464.096	1095.94
464.316	1091.94
464.536	1021.94
464.755	1081.94
464.975	1040.94
465.195	1018.94
465.414	1027.94
465.634	1032.94
465.854	1025.94
466.073	1021.94
466.293	972.94
466.512	995.94
466.732	969.94
466.951	1003.94
467.171	998.94
467.391	1010.94
467.61	966.94
467.829	968.94
468.049	986.94
468.268	975.94
468.488	969.94
468.707	970.94
468.927	979.94
469.146	992.94
469.365	981.94
469.585	948.94
469.804	1003.94
470.023	988.94
470.243	986.94
470.462	973.94
470.681	1020.94
470.901	1001.94
471.12	998.94
471.339	1003.94
471.558	993.94
471.777	1026.94
471.997	1013.94
472.216	1041.94
472.435	993.94
472.654	998.94
472.873	1002.94
473.092	1028.94
473.311	1036.94
473.53	989.94
473.749	1005.94
473.968	1018.94
474.187	1018.94
474.406	988.94
474.625	1046.94
474.844	1028.94
475.063	1020.94
475.282	1031.94
475.501	1031.94
475.72	1039.94
475.939	1059.94
476.158	1049.94
476.377	1062.94
476.596	1074.94
476.814	1081.94
477.033	1080.94
477.252	1094.94
477.471	1093.94
477.69	1087.94
477.908	1095.94
478.127	1099.94
478.346	1121.94
478.564	1143.94
478.783	1138.94
479.002	1138.94
479.22	1129.94
479.439	1156.94
479.658	1170.94
479.876	1172.94
480.095	1172.94
480.313	1187.94
480.532	1163.94
480.751	1164.94
480.969	1201.94
481.188	1153.94
481.406	1172.94
481.624	1197.94
481.843	1196.94
482.061	1186.94
482.28	1190.94
482.498	1170.94
482.717	1199.94
482.935	1196.94
483.153	1184.94
483.372	1192.94
483.59	1187.94
483.808	1202.94
484.027	1212.94
484.245	1250.94
484.463	1245.94
484.681	1227.94
484.9	1226.94
485.118	1232.94
485.336	1205.94
485.554	1232.94
485.772	1232.94
485.99	1224.94
486.209	1234.94
486.427	1202.94
486.645	1234.94
486.863	1234.94
487.081	1252.94
487.299	1249.94
487.517	1241.94
487.735	1257.94
487.953	1227.94
488.171	1247.94
488.389	1257.94
488.607	1249.94
488.825	1231.94
489.043	1247.94
489.261	1242.94
489.479	1252.94
489.696	1212.94
489.914	1273.94
490.132	1260.94
490.35	1274.94
490.568	1237.94
490.786	1255.94
491.003	1257.94
491.221	1266.94
491.439	1257.94
491.657	1262.94
491.874	1250.94
492.092	1259.94
492.31	1268.94
492.527	1320.94
492.745	1270.94
492.963	1276.94
493.18	1258.94
493.398	1254.94
493.615	1258.94
493.833	1263.94
494.05	1272.94
494.268	1259.94
494.485	1286.94
494.703	1248.94
494.92	1302.94
495.138	1305.94
495.355	1298.94
495.573	1317.94
495.79	1351.94
496.008	1342.94
496.225	1328.94
496.442	1322.94
496.66	1332.94
496.877	1305.94
497.094	1354.94
497.312	1385.94
497.529	1378.94
497.746	1391.94
497.963	1402.94
498.181	1422.94
498.398	1427.94
498.615	1462.94
498.832	1446.94
499.049	1524.94
499.267	1552.94
499.484	1568.94
499.701	1610.94
499.918	1619.94
500.135	1650.94
500.352	1680.94
500.569	1680.94
500.786	1670.94
501.003	1679.94
501.22	1653.94
501.437	1632.94
501.654	1604.94
501.871	1559.94
502.088	1524.94
502.305	1515.94
502.522	1485.94
502.739	1489.94
502.956	1434.94
503.172	1433.94
503.389	1391.94
503.606	1371.94
503.823	1340.94
504.04	1338.94
504.256	1351.94
504.473	1338.94
504.69	1301.94
504.907	1304.94
505.123	1249.94
505.34	1278.94
505.557	1271.94
505.773	1249.94
505.99	1254.94
506.207	1180.94
506.423	1226.94
506.64	1196.94
506.856	1166.94
507.073	1183.94
507.289	1179.94
507.506	1135.94
507.722	1164.94
507.939	1164.94
508.155	1164.94
508.372	1120.94
508.588	1139.94
508.805	1156.94
509.021	1148.94
509.238	1105.94
509.454	1105.94
509.67	1100.94
509.887	1091.94
510.103	1095.94
510.319	1098.94
510.536	1111.94
510.752	1090.94
510.968	1086.94
511.184	1060.94
511.401	1060.94
511.617	1043.94
511.833	1103.94
512.049	1072.94
512.265	1059.94
512.481	1057.94
512.698	1097.94
512.914	1036.94
513.13	1072.94
513.346	1088.94
513.562	1048.94
513.778	1051.94
513.994	1081.94
514.21	1082.94
514.426	1055.94
514.642	1068.94
514.858	1074.94
515.074	1064.94
515.29	1078.94
515.506	1058.94
515.721	1128.94
515.937	1078.94
516.153	1054.94
516.369	1089.94
516.585	1100.94
516.801	1100.94
517.016	1104.94
517.232	1104.94
517.448	1086.94
517.664	1091.94
517.879	1121.94
518.095	1090.94
518.311	1089.94
518.527	1108.94
518.742	1074.94
518.958	1079.94
519.173	1076.94
519.389	1044.94
519.605	1063.94
519.82	1071.94
520.036	1054.94
520.251	1024.94
520.467	1060.94
520.682	1027.94
520.898	1086.94
521.113	1015.94
521.329	1040.94
521.544	1038.94
521.76	1020.94
521.975	1003.94
522.19	1054.94
522.406	1037.94
522.621	1028.94
522.836	1012.94
523.052	971.94
523.267	987.94
523.482	1013.94
523.698	970.94
523.913	1001.94
524.128	996.94
524.343	995.94
524.559	989.94
524.774	982.94
524.989	984.94
525.204	1012.94
525.419	972.94
525.634	978.94
525.849	975.94
526.064	993.94
526.28	936.94
526.495	974.94
526.71	944.94
526.925	931.94
527.14	933.94
527.355	958.94
527.57	934.94
527.785	935.94
527.999	929.94
528.214	960.94
528.429	973.94
528.644	939.94
528.859	959.94
529.074	937.94
529.289	964.94
529.503	940.94
529.718	929.94
529.933	912.94
530.148	944.94
530.363	961.94
530.577	935.94
530.792	936.94
531.007	947.94
531.221	921.94
531.436	946.94
531.651	915.94
531.865	937.94
532.08	912.94
532.295	925.94
532.509	887.94
532.724	906.94
532.938	952.94
533.153	931.94
533.367	921.94
533.582	922.94
533.796	920.94
534.011	922.94
534.225	944.94
534.44	874.94
534.654	875.94
534.868	906.94
535.083	914.94
535.297	906.94
535.511	878.94
535.726	890.94
535.94	882.94
536.154	885.94
536.369	884.94
536.583	865.94
536.797	887.94
537.011	887.94
537.225	888.94
537.44	859.94
537.654	873.94
537.868	896.94
538.082	865.94
538.296	876.94
538.51	878.94
538.724	864.94
538.938	844.94
539.153	843.94
539.367	848.94
539.581	877.94
539.795	846.94
540.009	841.94
540.222	870.94
540.436	872.94
540.65	862.94
540.864	889.94
541.078	848.94
541.292	861.94
541.506	846.94
541.72	859.94
541.934	825.94
542.147	886.94
542.361	900.94
542.575	858.94
542.789	854.94
543.002	834.94
543.216	825.94
543.43	846.94
543.644	831.94
543.857	826.94
544.071	850.94
544.285	852.94
544.498	808.94
544.712	815.94
544.925	810.94
545.139	830.94
545.352	836.94
545.566	819.94
545.779	825.94
545.993	859.94
546.206	819.94
546.42	821.94
546.633	818.94
546.847	835.94
547.06	822.94
547.274	826.94
547.487	802.94
547.7	834.94
547.914	816.94
548.127	833.94
548.34	838.94
548.554	840.94
548.767	819.94
548.98	795.94
549.193	819.94
549.407	818.94
549.62	800.94
549.833	791.94
550.046	844.94
550.259	815.94
550.473	780.94
550.686	789.94
550.899	791.94
551.112	788.94
551.325	814.94
551.538	839.94
551.751	809.94
551.964	787.94
552.177	799.94
552.39	798.94
552.603	800.94
552.816	802.94
553.029	818.94
553.242	805.94
553.455	798.94
553.667	783.94
553.88	779.94
554.093	800.94
554.306	786.94
554.519	780.94
554.732	772.94
554.944	761.94
555.157	766.94
555.37	773.94
555.583	754.94
555.795	773.94
556.008	740.94
556.221	742.94
556.433	743.94
556.646	719.94
556.859	742.94
557.071	733.94
557.284	743.94
557.496	727.94
557.709	730.94
557.921	722.94
558.134	719.94
558.346	715.94
558.559	703.94
558.771	680.94
558.984	698.94
559.196	699.94
559.409	697.94
559.621	690.94
559.833	720.94
560.046	713.94
560.258	691.94
560.47	696.94
560.683	708.94
560.895	703.94
561.107	707.94
561.32	700.94
561.532	701.94
561.744	703.94
561.956	712.94
562.168	687.94
562.381	702.94
562.593	688.94
562.805	694.94
563.017	675.94
563.229	697.94
563.441	706.94
563.653	700.94
563.865	703.94
564.077	719.94
564.289	698.94
564.501	721.94
564.713	725.94
564.925	704.94
565.137	710.94
565.349	711.94
565.561	711.94
565.773	732.94
565.985	732.94
566.197	735.94
566.408	739.94
566.62	757.94
566.832	759.94
567.044	754.94
567.255	760.94
567.467	742.94
567.679	716.94
567.891	782.94
568.102	760.94
568.314	746.94
568.526	719.94
568.737	730.94
568.949	726.94
569.161	715.94
569.372	699.94
569.584	681.94
569.795	664.94
570.007	678.94
570.218	647.94
570.43	632.94
570.641	632.94
570.853	636.94
571.064	646.94
571.276	629.94
571.487	602.94
571.698	615.94
571.91	619.94
572.121	602.94
572.333	616.94
572.544	579.94
572.755	608.94
572.966	599.94
573.178	571.94
573.389	579.94
573.6	574.94
573.811	553.94
574.023	553.94
574.234	570.94
574.445	574.94
574.656	566.94
574.867	559.94
575.078	551.94
575.289	564.94
575.501	532.94
575.712	574.94
575.923	532.94
576.134	568.94
576.345	555.94
576.556	547.94
576.767	522.94
576.978	537.94
577.188	518.94
577.399	532.94
577.61	528.94
577.821	534.94
578.032	524.94
578.243	516.94
578.454	535.94
578.665	530.94
578.875	520.94
579.086	535.94
579.297	547.94
579.508	518.94
579.718	529.94
579.929	500.94
580.14	515.94
580.35	512.94
580.561	520.94
580.772	488.94
580.982	491.94
581.193	495.94
581.403	521.94
581.614	488.94
581.825	508.94
582.035	504.94
582.246	490.94
582.456	474.94
582.667	480.94
582.877	479.94
583.087	467.94
583.298	508.94
583.508	493.94
583.719	480.94
583.929	489.94
584.139	459.94
584.35	482.94
584.56	480.94
584.77	494.94
584.981	473.94
585.191	485.94
585.401	492.94
585.611	476.94
585.821	493.94
586.032	471.94
586.242	461.94
586.452	454.94
586.662	459.94
586.872	474.94
587.082	454.94
587.292	476.94
587.502	443.94
587.713	458.94
587.923	471.94
588.133	454.94
588.343	462.94
588.553	446.94
588.762	454.94
588.972	439.94
589.182	476.94
589.392	478.94
589.602	447.94
589.812	460.94
590.022	472.94
590.232	444.94
590.441	433.94
590.651	449.94
590.861	453.94
591.071	443.94
591.281	468.94
591.49	455.94
591.7	437.94
591.91	458.94
592.119	450.94
592.329	451.94
592.539	449.94
592.748	442.94
592.958	436.94
593.167	449.94
593.377	441.94
593.587	440.94
593.796	426.94
594.006	437.94
594.215	439.94
594.424	431.94
594.634	432.94
594.843	438.94
595.053	443.94
595.262	425.94
595.472	443.94
595.681	428.94
595.89	418.94
596.1	432.94
596.309	443.94
596.518	427.94
596.727	419.94
596.937	432.94
597.146	420.94
597.355	399.94
597.564	407.94
597.774	388.94
597.983	406.94
598.192	384.94
598.401	416.94
598.61	410.94
598.819	414.94
599.028	398.94
599.237	387.94
599.446	381.94
599.655	401.94
599.864	388.94
600.073	382.94
600.282	388.94
600.491	372.94
600.7	374.94
600.909	389.94
601.118	380.94
601.327	371.94
601.536	366.94
601.745	395.94
601.953	368.94
602.162	381.94
602.371	374.94
602.58	370.94
602.789	357.94
602.997	380.94
603.206	369.94
603.415	374.94
603.623	391.94
603.832	385.94
604.041	358.94
604.249	370.94
604.458	346.94
604.666	344.94
604.875	345.94
605.084	338.94
605.292	345.94
605.501	350.94
605.709	353.94
605.918	343.94
606.126	355.94
606.334	363.94
606.543	361.94
606.751	362.94
606.96	352.94
607.168	355.94
607.376	344.94
607.585	340.94
607.793	367.94
608.001	357.94
608.21	334.94
608.418	359.94
608.626	353.94
608.834	350.94
609.043	363.94
609.251	329.94
609.459	336.94
609.667	355.94
609.875	358.94
610.083	356.94
610.291	336.94
610.499	329.94
610.707	328.94
610.916	356.94
611.124	338.94
611.332	313.94
611.54	322.94
611.748	351.94
611.955	336.94
612.163	327.94
612.371	330.94
612.579	324.94
612.787	330.94
612.995	329.94
613.203	319.94
613.411	330.94
613.618	358.94
613.826	319.94
614.034	327.94
614.242	333.94
614.449	328.94
614.657	332.94
614.865	324.94
615.072	335.94
615.28	315.94
615.488	319.94
615.695	329.94
615.903	321.94
616.111	324.94
616.318	327.94
616.526	339.94
616.733	339.94
616.941	322.94
617.148	302.94
617.356	326.94
617.563	299.94
617.771	319.94
617.978	327.94
618.185	306.94
618.393	315.94
618.6	287.94
618.807	293.94
619.015	313.94
619.222	292.94
619.429	296.94
619.637	299.94
619.844	293.94
620.051	302.94
620.258	306.94
620.466	316.94
620.673	295.94
620.88	272.94
621.087	288.94
621.294	294.94
621.501	287.94
621.708	292.94
621.915	300.94
622.122	306.94
622.329	298.94
622.536	307.94
622.743	296.94
622.95	290.94
623.157	300.94
623.364	279.94
623.571	282.94
623.778	306.94
623.985	299.94
624.192	303.94
624.399	318.94
624.606	286.94
624.812	297.94
625.019	292.94
625.226	282.94
625.433	278.94
625.639	280.94
625.846	275.94
626.053	274.94
626.259	283.94
626.466	272.94
626.673	280.94
626.879	270.94
627.086	280.94
627.293	255.94
627.499	281.94
627.706	262.94
627.912	267.94
628.119	272.94
628.325	258.94
628.532	288.94
628.738	276.94
628.945	267.94
629.151	265.94
629.357	260.94
629.564	268.94
629.77	267.94
629.976	280.94
630.183	252.94
630.389	249.94
630.595	247.94
630.802	273.94
631.008	264.94
631.214	268.94
631.42	267.94
631.627	256.94
631.833	262.94
632.039	250.94
632.245	230.94
632.451	262.94
632.657	263.94
632.863	252.94
633.069	257.94
633.275	243.94
633.481	261.94
633.688	254.94
633.893	258.94
634.099	260.94
634.305	248.94
634.511	233.94
634.717	229.94
634.923	273.94
635.129	249.94
635.335	244.94
635.541	231.94
635.747	270.94
635.952	242.94
636.158	235.94
636.364	251.94
636.57	244.94
636.775	244.94
636.981	235.94
637.187	238.94
637.392	222.94
637.598	220.94
637.804	246.94
638.009	233.94
638.215	244.94
638.421	248.94
638.626	253.94
638.832	239.94
639.037	240.94
639.243	229.94
639.448	242.94
639.654	235.94
639.859	239.94
640.065	219.94
640.27	249.94
640.475	237.94
640.681	231.94
640.886	247.94
641.091	240.94
641.297	238.94
641.502	221.94
641.707	231.94
641.913	228.94
642.118	225.94
642.323	228.94
642.528	239.94
642.733	226.94
642.939	223.94
643.144	233.94
643.349	236.94
643.554	245.94
643.759	231.94
643.964	229.94
644.169	223.94
644.374	243.94
644.579	234.94
644.784	204.94
644.989	232.94
645.194	234.94
645.399	213.94
645.604	231.94
645.809	244.94
646.014	233.94
646.219	243.94
646.423	223.94
646.628	230.94
646.833	227.94
647.038	238.94
647.243	236.94
647.447	234.94
647.652	228.94
647.857	220.94
648.062	232.94
648.266	234.94
648.471	228.94
648.676	230.94
648.88	232.94
649.085	231.94
649.289	234.94
649.494	217.94
649.698	240.94
649.903	231.94
650.107	220.94
650.312	224.94
650.516	223.94
650.721	220.94
650.925	221.94
651.13	214.94
651.334	222.94
651.539	214.94
651.743	247.94
651.947	208.94
652.152	211.94
652.356	211.94
652.56	214.94
652.764	196.94
652.969	215.94
653.173	212.94
653.377	206.94
653.581	198.94
653.785	186.94
653.99	195.94
654.194	199.94
654.398	179.94
654.602	179.94
654.806	203.94
655.01	208.94
655.214	190.94
655.418	203.94
655.622	202.94
655.826	202.94
656.03	184.94
656.234	192.94
656.438	198.94
656.642	189.94
656.846	210.94
657.049	180.94
657.253	176.94
657.457	165.94
657.661	170.94
657.865	155.94
658.068	156.94
658.272	147.94
658.476	151.94
658.68	144.94
658.883	158.94
659.087	153.94
659.291	124.94
659.494	115.94
659.698	122.94
659.901	117.94
660.105	117.94
660.309	103.94
660.512	100.94
660.716	96.94
660.919	101.94
661.123	103.94
661.326	95.94
661.53	99.94
661.733	86.94
661.936	109.94
662.14	90.94
662.343	78.94
662.546	75.94
662.75	73.94
662.953	75.94
663.156	99.94
663.36	88.94
663.563	84.94
663.766	92.94
663.969	80.94
664.173	87.94
664.376	77.94
664.579	87.94
664.782	91.94
664.985	83.94
665.188	81.94
665.391	87.94
665.594	94.94
665.797	70.94
666	76.94
666.203	83.94
666.406	83.94
666.609	79.94
666.812	75.94
667.015	88.94
667.218	81.94
667.421	88.94
667.624	97.94
667.827	83.94
668.03	88.94
668.232	84.94
668.435	82.94
668.638	85.94
668.841	76.94
669.043	84.94
669.246	79.94
669.449	81.94
669.651	83.94
669.854	70.94
670.057	75.94
670.259	90.94
670.462	84.94
670.665	85.94
670.867	86.94
671.07	73.94
671.272	102.94
671.475	70.94
671.677	90.94
671.88	82.94
672.082	75.94
672.284	71.94
672.487	91.94
672.689	93.94
672.892	84.94
