Data from Fe(NO3)3@0.05M.TitratingCurve.Agarose3%dH2O.NegLispCup.LampEnergy10.LIBS07252019_HRD10591_16-47-57-334.txt Node
Date: Thu Jul 25 16:47:57 EDT 2019
User: cochatt
Spectrometer: HR+D1059
Trigger mode: 1
Integration Time (sec): 1.000000E-1
Scans to average: 1
Electric dark correction enabled: true
Nonlinearity correction enabled: false
Boxcar width: 0
XAxis mode: Wavelengths
Number of Pixels in Spectrum: 2048
>>>>>Begin Spectral Data<<<<<
223.165	-12.62
223.4	-12.62
223.635	-12.62
223.869	-16.62
224.104	-11.62
224.338	-20.62
224.573	-17.62
224.808	-14.62
225.042	-16.62
225.277	-16.62
225.511	0.38
225.746	-3.62
225.98	8.38
226.215	19.38
226.449	18.38
226.683	29.38
226.918	27.38
227.152	27.38
227.387	25.38
227.621	32.38
227.856	28.38
228.09	37.38
228.324	55.38
228.559	65.38
228.793	62.38
229.027	71.38
229.262	63.38
229.496	76.38
229.73	103.38
229.964	87.38
230.199	78.38
230.433	88.38
230.667	81.38
230.901	86.38
231.136	99.38
231.37	101.38
231.604	91.38
231.838	107.38
232.072	91.38
232.306	94.38
232.541	113.38
232.775	111.38
233.009	99.38
233.243	108.38
233.477	108.38
233.711	103.38
233.945	106.38
234.179	104.38
234.413	97.38
234.647	100.38
234.881	88.38
235.115	89.38
235.349	109.38
235.583	107.38
235.817	98.38
236.051	89.38
236.285	104.38
236.519	108.38
236.753	97.38
236.987	102.38
237.221	105.38
237.455	88.38
237.689	98.38
237.922	103.38
238.156	109.38
238.39	109.38
238.624	108.38
238.858	100.38
239.091	104.38
239.325	108.38
239.559	96.38
239.793	104.38
240.027	117.38
240.26	109.38
240.494	107.38
240.728	91.38
240.961	98.38
241.195	98.38
241.429	111.38
241.662	104.38
241.896	114.38
242.13	127.38
242.363	117.38
242.597	101.38
242.83	123.38
243.064	109.38
243.298	112.38
243.531	108.38
243.765	115.38
243.998	119.38
244.232	104.38
244.465	119.38
244.699	121.38
244.932	121.38
245.166	117.38
245.399	120.38
245.633	111.38
245.866	113.38
246.099	122.38
246.333	111.38
246.566	122.38
246.8	110.38
247.033	124.38
247.266	121.38
247.5	123.38
247.733	124.38
247.966	133.38
248.2	126.38
248.433	131.38
248.666	122.38
248.899	113.38
249.133	120.38
249.366	137.38
249.599	127.38
249.832	125.38
250.066	135.38
250.299	122.38
250.532	134.38
250.765	134.38
250.998	123.38
251.231	122.38
251.465	126.38
251.698	118.38
251.931	133.38
252.164	115.38
252.397	134.38
252.63	121.38
252.863	121.38
253.096	138.38
253.329	127.38
253.562	132.38
253.795	125.38
254.028	118.38
254.261	129.38
254.494	147.38
254.727	152.38
254.96	136.38
255.193	136.38
255.426	140.38
255.659	148.38
255.892	142.38
256.124	136.38
256.357	138.38
256.59	142.38
256.823	142.38
257.056	146.38
257.289	130.38
257.521	148.38
257.754	140.38
257.987	142.38
258.22	139.38
258.452	153.38
258.685	143.38
258.918	138.38
259.151	146.38
259.383	146.38
259.616	139.38
259.849	140.38
260.081	159.38
260.314	145.38
260.547	147.38
260.779	142.38
261.012	147.38
261.244	124.38
261.477	162.38
261.71	136.38
261.942	145.38
262.175	152.38
262.407	147.38
262.64	156.38
262.872	143.38
263.105	137.38
263.337	162.38
263.57	169.38
263.802	160.38
264.035	151.38
264.267	162.38
264.499	158.38
264.732	165.38
264.964	155.38
265.197	168.38
265.429	163.38
265.661	161.38
265.894	151.38
266.126	157.38
266.358	152.38
266.591	157.38
266.823	153.38
267.055	162.38
267.287	159.38
267.52	165.38
267.752	169.38
267.984	155.38
268.216	158.38
268.448	170.38
268.681	164.38
268.913	159.38
269.145	153.38
269.377	176.38
269.609	165.38
269.841	157.38
270.073	180.38
270.306	172.38
270.538	169.38
270.77	164.38
271.002	177.38
271.234	175.38
271.466	172.38
271.698	167.38
271.93	175.38
272.162	162.38
272.394	171.38
272.626	177.38
272.858	171.38
273.09	187.38
273.322	177.38
273.553	164.38
273.785	165.38
274.017	180.38
274.249	168.38
274.481	178.38
274.713	180.38
274.945	175.38
275.176	188.38
275.408	178.38
275.64	194.38
275.872	176.38
276.104	192.38
276.335	183.38
276.567	173.38
276.799	170.38
277.031	176.38
277.262	177.38
277.494	180.38
277.726	168.38
277.957	178.38
278.189	173.38
278.421	200.38
278.652	164.38
278.884	177.38
279.115	173.38
279.347	176.38
279.579	207.38
279.81	185.38
280.042	170.38
280.273	175.38
280.505	183.38
280.736	184.38
280.968	199.38
281.199	185.38
281.431	193.38
281.662	188.38
281.894	187.38
282.125	201.38
282.356	209.38
282.588	191.38
282.819	188.38
283.051	198.38
283.282	204.38
283.513	192.38
283.745	200.38
283.976	201.38
284.207	212.38
284.439	207.38
284.67	183.38
284.901	198.38
285.132	192.38
285.364	218.38
285.595	199.38
285.826	196.38
286.057	206.38
286.288	210.38
286.52	207.38
286.751	205.38
286.982	201.38
287.213	200.38
287.444	203.38
287.675	189.38
287.906	208.38
288.138	212.38
288.369	205.38
288.6	210.38
288.831	195.38
289.062	196.38
289.293	209.38
289.524	214.38
289.755	204.38
289.986	203.38
290.217	219.38
290.448	205.38
290.679	217.38
290.91	208.38
291.141	199.38
291.371	203.38
291.602	197.38
291.833	213.38
292.064	224.38
292.295	211.38
292.526	220.38
292.757	215.38
292.987	207.38
293.218	204.38
293.449	216.38
293.68	222.38
293.91	219.38
294.141	194.38
294.372	202.38
294.603	212.38
294.833	203.38
295.064	222.38
295.295	200.38
295.525	219.38
295.756	242.38
295.987	212.38
296.217	229.38
296.448	219.38
296.679	234.38
296.909	225.38
297.14	216.38
297.37	210.38
297.601	225.38
297.831	219.38
298.062	231.38
298.292	214.38
298.523	211.38
298.753	240.38
298.984	211.38
299.214	213.38
299.445	204.38
299.675	248.38
299.905	227.38
300.136	247.38
300.366	219.38
300.597	241.38
300.827	245.38
301.057	208.38
301.288	228.38
301.518	227.38
301.748	232.38
301.979	253.38
302.209	240.38
302.439	226.38
302.669	234.38
302.9	233.38
303.13	228.38
303.36	230.38
303.59	211.38
303.82	219.38
304.051	223.38
304.281	247.38
304.511	253.38
304.741	230.38
304.971	238.38
305.201	239.38
305.431	227.38
305.661	230.38
305.891	225.38
306.121	237.38
306.352	233.38
306.582	246.38
306.812	229.38
307.042	244.38
307.272	228.38
307.502	236.38
307.731	224.38
307.961	239.38
308.191	235.38
308.421	233.38
308.651	219.38
308.881	225.38
309.111	234.38
309.341	235.38
309.571	254.38
309.8	227.38
310.03	234.38
310.26	224.38
310.49	228.38
310.72	234.38
310.949	226.38
311.179	239.38
311.409	229.38
311.639	231.38
311.868	247.38
312.098	238.38
312.328	248.38
312.557	242.38
312.787	249.38
313.017	245.38
313.246	231.38
313.476	226.38
313.706	239.38
313.935	251.38
314.165	263.38
314.394	240.38
314.624	223.38
314.853	236.38
315.083	232.38
315.312	258.38
315.542	245.38
315.771	237.38
316.001	246.38
316.23	232.38
316.46	255.38
316.689	235.38
316.919	236.38
317.148	235.38
317.377	255.38
317.607	244.38
317.836	245.38
318.065	243.38
318.295	262.38
318.524	245.38
318.753	243.38
318.983	258.38
319.212	241.38
319.441	229.38
319.67	251.38
319.9	237.38
320.129	242.38
320.358	244.38
320.587	250.38
320.816	228.38
321.046	255.38
321.275	257.38
321.504	258.38
321.733	240.38
321.962	256.38
322.191	250.38
322.42	261.38
322.649	279.38
322.878	246.38
323.108	261.38
323.337	246.38
323.566	259.38
323.795	257.38
324.024	260.38
324.253	270.38
324.482	243.38
324.71	261.38
324.939	259.38
325.168	236.38
325.397	248.38
325.626	253.38
325.855	272.38
326.084	263.38
326.313	271.38
326.542	289.38
326.77	269.38
326.999	282.38
327.228	249.38
327.457	273.38
327.686	279.38
327.914	264.38
328.143	274.38
328.372	277.38
328.6	233.38
328.829	246.38
329.058	264.38
329.287	274.38
329.515	273.38
329.744	262.38
329.972	273.38
330.201	264.38
330.43	275.38
330.658	260.38
330.887	277.38
331.115	267.38
331.344	276.38
331.572	281.38
331.801	284.38
332.03	291.38
332.258	287.38
332.486	276.38
332.715	288.38
332.943	325.38
333.172	319.38
333.4	328.38
333.629	328.38
333.857	338.38
334.085	348.38
334.314	328.38
334.542	312.38
334.771	330.38
334.999	311.38
335.227	312.38
335.455	307.38
335.684	307.38
335.912	301.38
336.14	290.38
336.369	313.38
336.597	327.38
336.825	311.38
337.053	316.38
337.281	295.38
337.51	284.38
337.738	291.38
337.966	297.38
338.194	288.38
338.422	291.38
338.65	298.38
338.878	279.38
339.106	287.38
339.334	301.38
339.562	288.38
339.79	283.38
340.018	281.38
340.246	282.38
340.474	274.38
340.702	276.38
340.93	295.38
341.158	282.38
341.386	284.38
341.614	275.38
341.842	268.38
342.07	281.38
342.298	287.38
342.526	263.38
342.754	281.38
342.981	281.38
343.209	294.38
343.437	286.38
343.665	309.38
343.893	309.38
344.12	338.38
344.348	316.38
344.576	332.38
344.804	308.38
345.031	292.38
345.259	288.38
345.487	305.38
345.714	266.38
345.942	272.38
346.17	280.38
346.397	276.38
346.625	260.38
346.853	259.38
347.08	278.38
347.308	280.38
347.535	271.38
347.763	269.38
347.99	273.38
348.218	266.38
348.445	250.38
348.673	273.38
348.9	275.38
349.128	283.38
349.355	276.38
349.583	268.38
349.81	266.38
350.037	280.38
350.265	271.38
350.492	261.38
350.72	271.38
350.947	262.38
351.174	273.38
351.402	280.38
351.629	267.38
351.856	282.38
352.083	257.38
352.311	270.38
352.538	271.38
352.765	278.38
352.992	273.38
353.22	255.38
353.447	276.38
353.674	279.38
353.901	260.38
354.128	282.38
354.355	275.38
354.583	256.38
354.81	270.38
355.037	281.38
355.264	257.38
355.491	274.38
355.718	270.38
355.945	288.38
356.172	280.38
356.399	269.38
356.626	285.38
356.853	275.38
357.08	267.38
357.307	276.38
357.534	270.38
357.761	275.38
357.988	278.38
358.215	281.38
358.441	274.38
358.668	268.38
358.895	265.38
359.122	272.38
359.349	261.38
359.576	283.38
359.802	286.38
360.029	262.38
360.256	284.38
360.483	275.38
360.709	262.38
360.936	275.38
361.163	275.38
361.39	263.38
361.616	284.38
361.843	290.38
362.07	269.38
362.296	264.38
362.523	283.38
362.749	300.38
362.976	275.38
363.203	279.38
363.429	286.38
363.656	279.38
363.882	289.38
364.109	260.38
364.335	274.38
364.562	280.38
364.788	288.38
365.015	273.38
365.241	280.38
365.468	268.38
365.694	262.38
365.92	268.38
366.147	268.38
366.373	274.38
366.599	264.38
366.826	282.38
367.052	276.38
367.278	267.38
367.505	265.38
367.731	299.38
367.957	281.38
368.184	284.38
368.41	289.38
368.636	285.38
368.862	303.38
369.089	269.38
369.315	271.38
369.541	292.38
369.767	284.38
369.993	298.38
370.219	274.38
370.445	308.38
370.672	293.38
370.898	295.38
371.124	301.38
371.35	298.38
371.576	291.38
371.802	294.38
372.028	299.38
372.254	300.38
372.48	305.38
372.706	301.38
372.932	313.38
373.158	330.38
373.384	313.38
373.61	326.38
373.835	308.38
374.061	301.38
374.287	321.38
374.513	314.38
374.739	321.38
374.965	321.38
375.191	326.38
375.416	307.38
375.642	299.38
375.868	311.38
376.094	323.38
376.319	315.38
376.545	288.38
376.771	303.38
376.997	310.38
377.222	313.38
377.448	294.38
377.674	306.38
377.899	307.38
378.125	279.38
378.35	296.38
378.576	293.38
378.802	307.38
379.027	314.38
379.253	307.38
379.478	310.38
379.704	279.38
379.929	311.38
380.155	296.38
380.38	307.38
380.606	321.38
380.831	298.38
381.057	318.38
381.282	307.38
381.507	304.38
381.733	301.38
381.958	309.38
382.184	319.38
382.409	310.38
382.634	327.38
382.86	328.38
383.085	339.38
383.31	325.38
383.535	332.38
383.761	345.38
383.986	346.38
384.211	344.38
384.436	346.38
384.662	337.38
384.887	339.38
385.112	361.38
385.337	369.38
385.562	351.38
385.787	356.38
386.013	384.38
386.238	365.38
386.463	356.38
386.688	370.38
386.913	371.38
387.138	349.38
387.363	377.38
387.588	375.38
387.813	345.38
388.038	357.38
388.263	347.38
388.488	367.38
388.713	345.38
388.938	343.38
389.163	356.38
389.387	379.38
389.612	347.38
389.837	333.38
390.062	346.38
390.287	358.38
390.512	357.38
390.736	363.38
390.961	348.38
391.186	378.38
391.411	383.38
391.636	369.38
391.86	387.38
392.085	401.38
392.31	395.38
392.534	390.38
392.759	386.38
392.984	378.38
393.208	359.38
393.433	382.38
393.658	358.38
393.882	376.38
394.107	374.38
394.331	382.38
394.556	379.38
394.78	354.38
395.005	383.38
395.229	388.38
395.454	393.38
395.678	388.38
395.903	391.38
396.127	399.38
396.352	394.38
396.576	403.38
396.801	375.38
397.025	396.38
397.249	395.38
397.474	406.38
397.698	388.38
397.922	397.38
398.147	411.38
398.371	398.38
398.595	422.38
398.82	433.38
399.044	462.38
399.268	513.38
399.492	569.38
399.717	588.38
399.941	589.38
400.165	546.38
400.389	521.38
400.613	492.38
400.837	449.38
401.062	442.38
401.286	453.38
401.51	445.38
401.734	444.38
401.958	459.38
402.182	437.38
402.406	456.38
402.63	445.38
402.854	478.38
403.078	448.38
403.302	460.38
403.526	467.38
403.75	474.38
403.974	477.38
404.198	476.38
404.422	489.38
404.645	507.38
404.869	479.38
405.093	469.38
405.317	476.38
405.541	469.38
405.765	475.38
405.988	471.38
406.212	475.38
406.436	474.38
406.66	491.38
406.883	469.38
407.107	497.38
407.331	508.38
407.555	508.38
407.778	510.38
408.002	504.38
408.226	509.38
408.449	517.38
408.673	474.38
408.896	470.38
409.12	469.38
409.344	492.38
409.567	464.38
409.791	486.38
410.014	490.38
410.238	476.38
410.461	462.38
410.685	481.38
410.908	483.38
411.132	461.38
411.355	474.38
411.578	461.38
411.802	445.38
412.025	447.38
412.249	472.38
412.472	469.38
412.695	476.38
412.919	445.38
413.142	453.38
413.365	448.38
413.589	447.38
413.812	448.38
414.035	449.38
414.258	456.38
414.482	433.38
414.705	446.38
414.928	449.38
415.151	425.38
415.374	444.38
415.597	453.38
415.821	424.38
416.044	431.38
416.267	435.38
416.49	440.38
416.713	430.38
416.936	451.38
417.159	448.38
417.382	440.38
417.605	446.38
417.828	429.38
418.051	450.38
418.274	461.38
418.497	443.38
418.72	443.38
418.943	475.38
419.166	473.38
419.389	503.38
419.611	474.38
419.834	457.38
420.057	457.38
420.28	435.38
420.503	443.38
420.726	434.38
420.948	441.38
421.171	454.38
421.394	444.38
421.617	422.38
421.839	441.38
422.062	441.38
422.285	438.38
422.507	443.38
422.73	439.38
422.953	445.38
423.175	453.38
423.398	445.38
423.621	469.38
423.843	466.38
424.066	486.38
424.288	469.38
424.511	444.38
424.733	481.38
424.956	453.38
425.178	466.38
425.401	448.38
425.623	421.38
425.846	431.38
426.068	419.38
426.291	437.38
426.513	417.38
426.735	420.38
426.958	424.38
427.18	415.38
427.402	403.38
427.625	418.38
427.847	392.38
428.069	422.38
428.292	427.38
428.514	425.38
428.736	411.38
428.958	437.38
429.181	409.38
429.403	391.38
429.625	397.38
429.847	398.38
430.069	391.38
430.292	414.38
430.514	418.38
430.736	406.38
430.958	377.38
431.18	397.38
431.402	408.38
431.624	414.38
431.846	397.38
432.068	397.38
432.29	409.38
432.512	416.38
432.734	427.38
432.956	422.38
433.178	427.38
433.4	432.38
433.622	405.38
433.844	429.38
434.066	433.38
434.287	421.38
434.509	412.38
434.731	443.38
434.953	438.38
435.175	449.38
435.397	458.38
435.618	425.38
435.84	415.38
436.062	424.38
436.284	420.38
436.505	433.38
436.727	414.38
436.949	437.38
437.17	435.38
437.392	402.38
437.614	412.38
437.835	391.38
438.057	415.38
438.278	396.38
438.5	401.38
438.721	420.38
438.943	407.38
439.165	419.38
439.386	422.38
439.608	428.38
439.829	436.38
440.05	416.38
440.272	434.38
440.493	423.38
440.715	439.38
440.936	444.38
441.158	424.38
441.379	448.38
441.6	474.38
441.822	455.38
442.043	462.38
442.264	464.38
442.486	455.38
442.707	451.38
442.928	455.38
443.149	437.38
443.371	454.38
443.592	453.38
443.813	466.38
444.034	468.38
444.255	474.38
444.476	490.38
444.698	508.38
444.919	517.38
445.14	631.38
445.361	544.38
445.582	484.38
445.803	449.38
446.024	441.38
446.245	464.38
446.466	452.38
446.687	421.38
446.908	438.38
447.129	429.38
447.35	412.38
447.571	423.38
447.792	396.38
448.013	405.38
448.234	421.38
448.455	409.38
448.675	391.38
448.896	400.38
449.117	403.38
449.338	413.38
449.559	400.38
449.779	397.38
450	393.38
450.221	409.38
450.442	405.38
450.662	385.38
450.883	397.38
451.104	403.38
451.324	387.38
451.545	386.38
451.766	411.38
451.986	391.38
452.207	398.38
452.428	401.38
452.648	392.38
452.869	379.38
453.089	378.38
453.31	382.38
453.53	350.38
453.751	374.38
453.971	355.38
454.192	371.38
454.412	376.38
454.633	379.38
454.853	381.38
455.073	352.38
455.294	383.38
455.514	396.38
455.734	373.38
455.955	375.38
456.175	392.38
456.395	350.38
456.616	363.38
456.836	379.38
457.056	379.38
457.276	386.38
457.497	379.38
457.717	359.38
457.937	375.38
458.157	367.38
458.377	380.38
458.598	389.38
458.818	388.38
459.038	389.38
459.258	407.38
459.478	419.38
459.698	427.38
459.918	422.38
460.138	463.38
460.358	456.38
460.578	457.38
460.798	492.38
461.018	502.38
461.238	484.38
461.458	471.38
461.678	467.38
461.898	475.38
462.118	471.38
462.338	525.38
462.558	538.38
462.777	532.38
462.997	573.38
463.217	595.38
463.437	566.38
463.657	554.38
463.876	543.38
464.096	527.38
464.316	487.38
464.536	542.38
464.755	533.38
464.975	501.38
465.195	467.38
465.414	443.38
465.634	441.38
465.854	436.38
466.073	421.38
466.293	419.38
466.512	419.38
466.732	431.38
466.951	433.38
467.171	444.38
467.391	434.38
467.61	418.38
467.829	427.38
468.049	416.38
468.268	400.38
468.488	408.38
468.707	392.38
468.927	391.38
469.146	384.38
469.365	410.38
469.585	400.38
469.804	427.38
470.023	421.38
470.243	418.38
470.462	423.38
470.681	406.38
470.901	411.38
471.12	416.38
471.339	428.38
471.558	417.38
471.777	409.38
471.997	405.38
472.216	390.38
472.435	391.38
472.654	410.38
472.873	391.38
473.092	403.38
473.311	411.38
473.53	397.38
473.749	401.38
473.968	411.38
474.187	395.38
474.406	369.38
474.625	403.38
474.844	379.38
475.063	422.38
475.282	391.38
475.501	417.38
475.72	416.38
475.939	417.38
476.158	416.38
476.377	437.38
476.596	411.38
476.814	409.38
477.033	423.38
477.252	428.38
477.471	420.38
477.69	436.38
477.908	447.38
478.127	454.38
478.346	462.38
478.564	452.38
478.783	460.38
479.002	464.38
479.22	484.38
479.439	470.38
479.658	472.38
479.876	462.38
480.095	449.38
480.313	472.38
480.532	475.38
480.751	483.38
480.969	477.38
481.188	473.38
481.406	445.38
481.624	461.38
481.843	432.38
482.061	421.38
482.28	448.38
482.498	453.38
482.717	450.38
482.935	456.38
483.153	442.38
483.372	457.38
483.59	461.38
483.808	447.38
484.027	435.38
484.245	451.38
484.463	442.38
484.681	462.38
484.9	456.38
485.118	471.38
485.336	459.38
485.554	431.38
485.772	456.38
485.99	462.38
486.209	457.38
486.427	451.38
486.645	464.38
486.863	443.38
487.081	473.38
487.299	453.38
487.517	481.38
487.735	436.38
487.953	447.38
488.171	452.38
488.389	484.38
488.607	473.38
488.825	457.38
489.043	455.38
489.261	469.38
489.479	455.38
489.696	460.38
489.914	457.38
490.132	475.38
490.35	465.38
490.568	448.38
490.786	486.38
491.003	469.38
491.221	485.38
491.439	475.38
491.657	479.38
491.874	471.38
492.092	471.38
492.31	485.38
492.527	485.38
492.745	480.38
492.963	480.38
493.18	501.38
493.398	478.38
493.615	478.38
493.833	492.38
494.05	497.38
494.268	483.38
494.485	487.38
494.703	489.38
494.92	500.38
495.138	509.38
495.355	483.38
495.573	498.38
495.79	492.38
496.008	524.38
496.225	495.38
496.442	529.38
496.66	523.38
496.877	517.38
497.094	508.38
497.312	530.38
497.529	535.38
497.746	551.38
497.963	548.38
498.181	588.38
498.398	593.38
498.615	610.38
498.832	644.38
499.049	678.38
499.267	708.38
499.484	750.38
499.701	833.38
499.918	887.38
500.135	981.38
500.352	1076.38
500.569	1109.38
500.786	1123.38
501.003	1025.38
501.22	954.38
501.437	889.38
501.654	820.38
501.871	739.38
502.088	695.38
502.305	651.38
502.522	634.38
502.739	641.38
502.956	585.38
503.172	568.38
503.389	574.38
503.606	564.38
503.823	529.38
504.04	537.38
504.256	553.38
504.473	537.38
504.69	559.38
504.907	544.38
505.123	531.38
505.34	507.38
505.557	483.38
505.773	492.38
505.99	473.38
506.207	455.38
506.423	463.38
506.64	451.38
506.856	462.38
507.073	439.38
507.289	445.38
507.506	442.38
507.722	433.38
507.939	431.38
508.155	409.38
508.372	413.38
508.588	419.38
508.805	404.38
509.021	412.38
509.238	395.38
509.454	408.38
509.67	394.38
509.887	397.38
510.103	407.38
510.319	400.38
510.536	404.38
510.752	405.38
510.968	393.38
511.184	401.38
511.401	401.38
511.617	393.38
511.833	411.38
512.049	403.38
512.265	398.38
512.481	389.38
512.698	394.38
512.914	403.38
513.13	397.38
513.346	402.38
513.562	411.38
513.778	427.38
513.994	404.38
514.21	397.38
514.426	396.38
514.642	396.38
514.858	390.38
515.074	407.38
515.29	411.38
515.506	420.38
515.721	437.38
515.937	400.38
516.153	419.38
516.369	431.38
516.585	438.38
516.801	459.38
517.016	452.38
517.232	471.38
517.448	477.38
517.664	487.38
517.879	488.38
518.095	492.38
518.311	493.38
518.527	481.38
518.742	461.38
518.958	437.38
519.173	459.38
519.389	435.38
519.605	424.38
519.82	428.38
520.036	419.38
520.251	402.38
520.467	394.38
520.682	385.38
520.898	393.38
521.113	389.38
521.329	400.38
521.544	392.38
521.76	416.38
521.975	368.38
522.19	371.38
522.406	382.38
522.621	383.38
522.836	379.38
523.052	401.38
523.267	367.38
523.482	367.38
523.698	365.38
523.913	385.38
524.128	373.38
524.343	402.38
524.559	373.38
524.774	383.38
524.989	396.38
525.204	358.38
525.419	369.38
525.634	375.38
525.849	365.38
526.064	375.38
526.28	362.38
526.495	363.38
526.71	348.38
526.925	356.38
527.14	356.38
527.355	371.38
527.57	370.38
527.785	374.38
527.999	369.38
528.214	375.38
528.429	380.38
528.644	355.38
528.859	376.38
529.074	371.38
529.289	378.38
529.503	395.38
529.718	376.38
529.933	369.38
530.148	360.38
530.363	357.38
530.577	362.38
530.792	374.38
531.007	343.38
531.221	367.38
531.436	355.38
531.651	370.38
531.865	369.38
532.08	366.38
532.295	354.38
532.509	355.38
532.724	361.38
532.938	377.38
533.153	371.38
533.367	384.38
533.582	373.38
533.796	360.38
534.011	367.38
534.225	355.38
534.44	367.38
534.654	349.38
534.868	357.38
535.083	356.38
535.297	353.38
535.511	350.38
535.726	355.38
535.94	346.38
536.154	352.38
536.369	325.38
536.583	344.38
536.797	335.38
537.011	337.38
537.225	355.38
537.44	335.38
537.654	370.38
537.868	355.38
538.082	332.38
538.296	348.38
538.51	349.38
538.724	351.38
538.938	341.38
539.153	357.38
539.367	360.38
539.581	354.38
539.795	322.38
540.009	341.38
540.222	325.38
540.436	323.38
540.65	331.38
540.864	344.38
541.078	353.38
541.292	334.38
541.506	350.38
541.72	340.38
541.934	353.38
542.147	359.38
542.361	338.38
542.575	346.38
542.789	350.38
543.002	342.38
543.216	333.38
543.43	329.38
543.644	337.38
543.857	331.38
544.071	335.38
544.285	344.38
544.498	347.38
544.712	343.38
544.925	360.38
545.139	357.38
545.352	361.38
545.566	355.38
545.779	350.38
545.993	357.38
546.206	359.38
546.42	354.38
546.633	359.38
546.847	354.38
547.06	359.38
547.274	346.38
547.487	339.38
547.7	347.38
547.914	340.38
548.127	352.38
548.34	345.38
548.554	354.38
548.767	349.38
548.98	337.38
549.193	350.38
549.407	352.38
549.62	378.38
549.833	357.38
550.046	335.38
550.259	329.38
550.473	330.38
550.686	337.38
550.899	334.38
551.112	346.38
551.325	337.38
551.538	330.38
551.751	340.38
551.964	327.38
552.177	340.38
552.39	360.38
552.603	340.38
552.816	350.38
553.029	360.38
553.242	353.38
553.455	343.38
553.667	373.38
553.88	352.38
554.093	343.38
554.306	344.38
554.519	343.38
554.732	345.38
554.944	316.38
555.157	323.38
555.37	334.38
555.583	330.38
555.795	341.38
556.008	331.38
556.221	328.38
556.433	324.38
556.646	313.38
556.859	301.38
557.071	300.38
557.284	309.38
557.496	292.38
557.709	289.38
557.921	295.38
558.134	292.38
558.346	320.38
558.559	300.38
558.771	313.38
558.984	303.38
559.196	301.38
559.409	296.38
559.621	288.38
559.833	295.38
560.046	312.38
560.258	304.38
560.47	293.38
560.683	288.38
560.895	283.38
561.107	297.38
561.32	307.38
561.532	310.38
561.744	302.38
561.956	299.38
562.168	305.38
562.381	299.38
562.593	298.38
562.805	303.38
563.017	289.38
563.229	299.38
563.441	297.38
563.653	312.38
563.865	321.38
564.077	319.38
564.289	308.38
564.501	305.38
564.713	298.38
564.925	284.38
565.137	321.38
565.349	307.38
565.561	343.38
565.773	344.38
565.985	328.38
566.197	369.38
566.408	376.38
566.62	382.38
566.832	420.38
567.044	407.38
567.255	418.38
567.467	430.38
567.679	447.38
567.891	476.38
568.102	455.38
568.314	443.38
568.526	396.38
568.737	375.38
568.949	381.38
569.161	349.38
569.372	338.38
569.584	321.38
569.795	310.38
570.007	311.38
570.218	278.38
570.43	267.38
570.641	309.38
570.853	301.38
571.064	298.38
571.276	299.38
571.487	287.38
571.698	269.38
571.91	284.38
572.121	279.38
572.333	277.38
572.544	264.38
572.755	256.38
572.966	256.38
573.178	253.38
573.389	250.38
573.6	236.38
573.811	256.38
574.023	243.38
574.234	264.38
574.445	257.38
574.656	253.38
574.867	236.38
575.078	248.38
575.289	230.38
575.501	242.38
575.712	239.38
575.923	245.38
576.134	249.38
576.345	240.38
576.556	244.38
576.767	256.38
576.978	236.38
577.188	255.38
577.399	243.38
577.61	221.38
577.821	225.38
578.032	227.38
578.243	223.38
578.454	236.38
578.665	242.38
578.875	213.38
579.086	228.38
579.297	226.38
579.508	220.38
579.718	235.38
579.929	218.38
580.14	234.38
580.35	219.38
580.561	239.38
580.772	222.38
580.982	240.38
581.193	231.38
581.403	219.38
581.614	231.38
581.825	211.38
582.035	214.38
582.246	228.38
582.456	220.38
582.667	221.38
582.877	234.38
583.087	204.38
583.298	203.38
583.508	213.38
583.719	229.38
583.929	205.38
584.139	211.38
584.35	195.38
584.56	220.38
584.77	213.38
584.981	221.38
585.191	205.38
585.401	215.38
585.611	211.38
585.821	226.38
586.032	219.38
586.242	216.38
586.452	226.38
586.662	206.38
586.872	198.38
587.082	201.38
587.292	192.38
587.502	210.38
587.713	188.38
587.923	209.38
588.133	216.38
588.343	215.38
588.553	212.38
588.762	212.38
588.972	209.38
589.182	233.38
589.392	214.38
589.602	227.38
589.812	207.38
590.022	208.38
590.232	192.38
590.441	211.38
590.651	205.38
590.861	219.38
591.071	193.38
591.281	199.38
591.49	216.38
591.7	210.38
591.91	214.38
592.119	235.38
592.329	219.38
592.539	225.38
592.748	209.38
592.958	234.38
593.167	237.38
593.377	243.38
593.587	242.38
593.796	247.38
594.006	236.38
594.215	239.38
594.424	245.38
594.634	220.38
594.843	231.38
595.053	241.38
595.262	223.38
595.472	225.38
595.681	215.38
595.89	200.38
596.1	212.38
596.309	189.38
596.518	193.38
596.727	214.38
596.937	185.38
597.146	189.38
597.355	201.38
597.564	195.38
597.774	196.38
597.983	179.38
598.192	190.38
598.401	187.38
598.61	185.38
598.819	187.38
599.028	171.38
599.237	190.38
599.446	188.38
599.655	193.38
599.864	168.38
600.073	193.38
600.282	184.38
600.491	181.38
600.7	191.38
600.909	180.38
601.118	172.38
601.327	196.38
601.536	183.38
601.745	179.38
601.953	196.38
602.162	188.38
602.371	198.38
602.58	175.38
602.789	203.38
602.997	193.38
603.206	186.38
603.415	174.38
603.623	182.38
603.832	183.38
604.041	184.38
604.249	171.38
604.458	164.38
604.666	187.38
604.875	168.38
605.084	165.38
605.292	177.38
605.501	192.38
605.709	175.38
605.918	163.38
606.126	175.38
606.334	176.38
606.543	185.38
606.751	188.38
606.96	186.38
607.168	189.38
607.376	185.38
607.585	194.38
607.793	177.38
608.001	169.38
608.21	153.38
608.418	175.38
608.626	190.38
608.834	176.38
609.043	196.38
609.251	165.38
609.459	176.38
609.667	175.38
609.875	171.38
610.083	163.38
610.291	165.38
610.499	156.38
610.707	169.38
610.916	176.38
611.124	169.38
611.332	167.38
611.54	173.38
611.748	168.38
611.955	177.38
612.163	170.38
612.371	167.38
612.579	160.38
612.787	156.38
612.995	171.38
613.203	186.38
613.411	165.38
613.618	181.38
613.826	178.38
614.034	160.38
614.242	164.38
614.449	155.38
614.657	164.38
614.865	155.38
615.072	180.38
615.28	179.38
615.488	152.38
615.695	180.38
615.903	173.38
616.111	170.38
616.318	161.38
616.526	173.38
616.733	171.38
616.941	169.38
617.148	143.38
617.356	162.38
617.563	163.38
617.771	160.38
617.978	159.38
618.185	172.38
618.393	161.38
618.6	166.38
618.807	154.38
619.015	182.38
619.222	161.38
619.429	179.38
619.637	171.38
619.844	163.38
620.051	162.38
620.258	167.38
620.466	157.38
620.673	140.38
620.88	159.38
621.087	168.38
621.294	157.38
621.501	165.38
621.708	154.38
621.915	157.38
622.122	151.38
622.329	165.38
622.536	147.38
622.743	164.38
622.95	146.38
623.157	175.38
623.364	161.38
623.571	148.38
623.778	163.38
623.985	156.38
624.192	140.38
624.399	148.38
624.606	159.38
624.812	157.38
625.019	159.38
625.226	153.38
625.433	153.38
625.639	152.38
625.846	142.38
626.053	155.38
626.259	157.38
626.466	151.38
626.673	154.38
626.879	154.38
627.086	177.38
627.293	162.38
627.499	156.38
627.706	155.38
627.912	131.38
628.119	162.38
628.325	139.38
628.532	149.38
628.738	157.38
628.945	156.38
629.151	154.38
629.357	148.38
629.564	141.38
629.77	148.38
629.976	148.38
630.183	143.38
630.389	140.38
630.595	152.38
630.802	136.38
631.008	152.38
631.214	129.38
631.42	136.38
631.627	147.38
631.833	142.38
632.039	137.38
632.245	155.38
632.451	151.38
632.657	145.38
632.863	139.38
633.069	144.38
633.275	147.38
633.481	138.38
633.688	141.38
633.893	143.38
634.099	138.38
634.305	132.38
634.511	131.38
634.717	143.38
634.923	137.38
635.129	135.38
635.335	141.38
635.541	136.38
635.747	134.38
635.952	130.38
636.158	137.38
636.364	124.38
636.57	135.38
636.775	141.38
636.981	135.38
637.187	132.38
637.392	121.38
637.598	135.38
637.804	138.38
638.009	136.38
638.215	130.38
638.421	146.38
638.626	125.38
638.832	130.38
639.037	135.38
639.243	133.38
639.448	142.38
639.654	123.38
639.859	138.38
640.065	125.38
640.27	146.38
640.475	125.38
640.681	135.38
640.886	149.38
641.091	139.38
641.297	137.38
641.502	133.38
641.707	118.38
641.913	129.38
642.118	125.38
642.323	127.38
642.528	134.38
642.733	139.38
642.939	131.38
643.144	129.38
643.349	123.38
643.554	139.38
643.759	127.38
643.964	135.38
644.169	129.38
644.374	125.38
644.579	129.38
644.784	131.38
644.989	112.38
645.194	114.38
645.399	126.38
645.604	132.38
645.809	128.38
646.014	128.38
646.219	128.38
646.423	137.38
646.628	128.38
646.833	123.38
647.038	118.38
647.243	129.38
647.447	127.38
647.652	149.38
647.857	129.38
648.062	133.38
648.266	135.38
648.471	133.38
648.676	133.38
648.88	140.38
649.085	111.38
649.289	131.38
649.494	131.38
649.698	131.38
649.903	141.38
650.107	123.38
650.312	121.38
650.516	132.38
650.721	124.38
650.925	130.38
651.13	132.38
651.334	127.38
651.539	131.38
651.743	120.38
651.947	116.38
652.152	121.38
652.356	119.38
652.56	108.38
652.764	108.38
652.969	112.38
653.173	133.38
653.377	110.38
653.581	114.38
653.785	127.38
653.99	103.38
654.194	124.38
654.398	117.38
654.602	109.38
654.806	109.38
655.01	120.38
655.214	113.38
655.418	121.38
655.622	118.38
655.826	116.38
656.03	99.38
656.234	100.38
656.438	90.38
656.642	107.38
656.846	107.38
657.049	108.38
657.253	95.38
657.457	100.38
657.661	97.38
657.865	111.38
658.068	111.38
658.272	103.38
658.476	119.38
658.68	95.38
658.883	73.38
659.087	95.38
659.291	101.38
659.494	99.38
659.698	96.38
659.901	96.38
660.105	90.38
660.309	96.38
660.512	99.38
660.716	87.38
660.919	101.38
661.123	105.38
661.326	86.38
661.53	87.38
661.733	90.38
661.936	88.38
662.14	86.38
662.343	84.38
662.546	87.38
662.75	86.38
662.953	84.38
663.156	86.38
663.36	73.38
663.563	81.38
663.766	79.38
663.969	76.38
664.173	82.38
664.376	81.38
664.579	84.38
664.782	92.38
664.985	76.38
665.188	76.38
665.391	80.38
665.594	85.38
665.797	83.38
666	89.38
666.203	75.38
666.406	84.38
666.609	71.38
666.812	82.38
667.015	83.38
667.218	87.38
667.421	77.38
667.624	75.38
667.827	81.38
668.03	86.38
668.232	88.38
668.435	87.38
668.638	83.38
668.841	76.38
669.043	86.38
669.246	84.38
669.449	90.38
669.651	86.38
669.854	76.38
670.057	77.38
670.259	80.38
670.462	70.38
670.665	64.38
670.867	81.38
671.07	86.38
671.272	66.38
671.475	81.38
671.677	89.38
671.88	78.38
672.082	81.38
672.284	67.38
672.487	81.38
672.689	83.38
672.892	77.38
