Data from Fe(NO3)3@0.0125M.TitratingCurve.Agarose3%dH2O.NegLispCup.LampEnergy10.LIBS07252019_HRD10591_16-59-01-338.txt Node
Date: Thu Jul 25 16:59:01 EDT 2019
User: cochatt
Spectrometer: HR+D1059
Trigger mode: 1
Integration Time (sec): 1.000000E-1
Scans to average: 1
Electric dark correction enabled: true
Nonlinearity correction enabled: false
Boxcar width: 0
XAxis mode: Wavelengths
Number of Pixels in Spectrum: 2048
>>>>>Begin Spectral Data<<<<<
223.165	-23.5
223.4	-23.5
223.635	-23.5
223.869	-20.5
224.104	-14.5
224.338	-21.5
224.573	-28.5
224.808	1.5
225.042	-10.5
225.277	-2.5
225.511	4.5
225.746	17.5
225.98	5.5
226.215	12.5
226.449	17.5
226.683	17.5
226.918	27.5
227.152	17.5
227.387	16.5
227.621	25.5
227.856	50.5
228.09	38.5
228.324	49.5
228.559	57.5
228.793	65.5
229.027	100.5
229.262	105.5
229.496	107.5
229.73	115.5
229.964	123.5
230.199	125.5
230.433	131.5
230.667	140.5
230.901	122.5
231.136	133.5
231.37	116.5
231.604	137.5
231.838	129.5
232.072	145.5
232.306	118.5
232.541	139.5
232.775	128.5
233.009	127.5
233.243	149.5
233.477	146.5
233.711	164.5
233.945	138.5
234.179	135.5
234.413	146.5
234.647	153.5
234.881	168.5
235.115	150.5
235.349	145.5
235.583	151.5
235.817	142.5
236.051	155.5
236.285	158.5
236.519	157.5
236.753	149.5
236.987	158.5
237.221	137.5
237.455	147.5
237.689	146.5
237.922	171.5
238.156	155.5
238.39	160.5
238.624	170.5
238.858	173.5
239.091	159.5
239.325	166.5
239.559	171.5
239.793	168.5
240.027	163.5
240.26	178.5
240.494	168.5
240.728	168.5
240.961	181.5
241.195	167.5
241.429	198.5
241.662	193.5
241.896	182.5
242.13	181.5
242.363	175.5
242.597	178.5
242.83	187.5
243.064	182.5
243.298	175.5
243.531	196.5
243.765	197.5
243.998	207.5
244.232	204.5
244.465	201.5
244.699	201.5
244.932	179.5
245.166	199.5
245.399	196.5
245.633	186.5
245.866	196.5
246.099	199.5
246.333	204.5
246.566	215.5
246.8	212.5
247.033	241.5
247.266	193.5
247.5	223.5
247.733	216.5
247.966	215.5
248.2	225.5
248.433	232.5
248.666	221.5
248.899	228.5
249.133	220.5
249.366	249.5
249.599	241.5
249.832	224.5
250.066	227.5
250.299	235.5
250.532	230.5
250.765	245.5
250.998	255.5
251.231	230.5
251.465	245.5
251.698	252.5
251.931	242.5
252.164	253.5
252.397	265.5
252.63	257.5
252.863	246.5
253.096	273.5
253.329	258.5
253.562	263.5
253.795	265.5
254.028	261.5
254.261	265.5
254.494	264.5
254.727	263.5
254.96	268.5
255.193	281.5
255.426	282.5
255.659	267.5
255.892	260.5
256.124	244.5
256.357	270.5
256.59	290.5
256.823	278.5
257.056	264.5
257.289	283.5
257.521	286.5
257.754	276.5
257.987	292.5
258.22	288.5
258.452	285.5
258.685	291.5
258.918	312.5
259.151	310.5
259.383	296.5
259.616	312.5
259.849	309.5
260.081	323.5
260.314	350.5
260.547	315.5
260.779	303.5
261.012	332.5
261.244	336.5
261.477	330.5
261.71	318.5
261.942	308.5
262.175	329.5
262.407	319.5
262.64	330.5
262.872	318.5
263.105	337.5
263.337	333.5
263.57	338.5
263.802	332.5
264.035	341.5
264.267	328.5
264.499	341.5
264.732	322.5
264.964	328.5
265.197	322.5
265.429	337.5
265.661	353.5
265.894	353.5
266.126	340.5
266.358	338.5
266.591	350.5
266.823	352.5
267.055	340.5
267.287	347.5
267.52	353.5
267.752	348.5
267.984	350.5
268.216	350.5
268.448	362.5
268.681	355.5
268.913	359.5
269.145	359.5
269.377	365.5
269.609	367.5
269.841	360.5
270.073	365.5
270.306	361.5
270.538	377.5
270.77	361.5
271.002	354.5
271.234	373.5
271.466	383.5
271.698	403.5
271.93	382.5
272.162	392.5
272.394	394.5
272.626	360.5
272.858	396.5
273.09	418.5
273.322	429.5
273.553	399.5
273.785	397.5
274.017	423.5
274.249	423.5
274.481	428.5
274.713	430.5
274.945	426.5
275.176	438.5
275.408	446.5
275.64	440.5
275.872	430.5
276.104	427.5
276.335	408.5
276.567	400.5
276.799	429.5
277.031	456.5
277.262	417.5
277.494	430.5
277.726	418.5
277.957	435.5
278.189	449.5
278.421	432.5
278.652	437.5
278.884	435.5
279.115	435.5
279.347	457.5
279.579	459.5
279.81	463.5
280.042	446.5
280.273	454.5
280.505	461.5
280.736	460.5
280.968	470.5
281.199	451.5
281.431	463.5
281.662	454.5
281.894	458.5
282.125	474.5
282.356	474.5
282.588	456.5
282.819	463.5
283.051	470.5
283.282	496.5
283.513	468.5
283.745	473.5
283.976	477.5
284.207	489.5
284.439	485.5
284.67	482.5
284.901	490.5
285.132	494.5
285.364	478.5
285.595	490.5
285.826	509.5
286.057	483.5
286.288	488.5
286.52	485.5
286.751	506.5
286.982	520.5
287.213	500.5
287.444	525.5
287.675	513.5
287.906	521.5
288.138	523.5
288.369	506.5
288.6	517.5
288.831	507.5
289.062	500.5
289.293	543.5
289.524	541.5
289.755	519.5
289.986	496.5
290.217	529.5
290.448	517.5
290.679	526.5
290.91	539.5
291.141	542.5
291.371	547.5
291.602	524.5
291.833	531.5
292.064	529.5
292.295	523.5
292.526	535.5
292.757	551.5
292.987	540.5
293.218	547.5
293.449	535.5
293.68	527.5
293.91	550.5
294.141	535.5
294.372	535.5
294.603	550.5
294.833	547.5
295.064	550.5
295.295	529.5
295.525	561.5
295.756	558.5
295.987	552.5
296.217	567.5
296.448	565.5
296.679	569.5
296.909	553.5
297.14	579.5
297.37	565.5
297.601	558.5
297.831	575.5
298.062	572.5
298.292	564.5
298.523	564.5
298.753	584.5
298.984	597.5
299.214	610.5
299.445	570.5
299.675	578.5
299.905	577.5
300.136	582.5
300.366	580.5
300.597	582.5
300.827	610.5
301.057	587.5
301.288	606.5
301.518	585.5
301.748	600.5
301.979	623.5
302.209	621.5
302.439	613.5
302.669	601.5
302.9	600.5
303.13	616.5
303.36	638.5
303.59	602.5
303.82	634.5
304.051	641.5
304.281	621.5
304.511	624.5
304.741	623.5
304.971	626.5
305.201	618.5
305.431	621.5
305.661	623.5
305.891	611.5
306.121	642.5
306.352	649.5
306.582	615.5
306.812	647.5
307.042	635.5
307.272	621.5
307.502	618.5
307.731	632.5
307.961	635.5
308.191	627.5
308.421	658.5
308.651	657.5
308.881	646.5
309.111	635.5
309.341	639.5
309.571	661.5
309.8	631.5
310.03	657.5
310.26	651.5
310.49	663.5
310.72	650.5
310.949	665.5
311.179	633.5
311.409	660.5
311.639	655.5
311.868	653.5
312.098	665.5
312.328	698.5
312.557	694.5
312.787	679.5
313.017	691.5
313.246	711.5
313.476	700.5
313.706	681.5
313.935	689.5
314.165	675.5
314.394	719.5
314.624	705.5
314.853	705.5
315.083	694.5
315.312	717.5
315.542	708.5
315.771	705.5
316.001	693.5
316.23	731.5
316.46	703.5
316.689	692.5
316.919	715.5
317.148	725.5
317.377	711.5
317.607	710.5
317.836	726.5
318.065	699.5
318.295	742.5
318.524	723.5
318.753	726.5
318.983	749.5
319.212	738.5
319.441	735.5
319.67	731.5
319.9	733.5
320.129	734.5
320.358	707.5
320.587	732.5
320.816	735.5
321.046	751.5
321.275	746.5
321.504	741.5
321.733	731.5
321.962	743.5
322.191	760.5
322.42	753.5
322.649	759.5
322.878	777.5
323.108	747.5
323.337	765.5
323.566	765.5
323.795	770.5
324.024	754.5
324.253	773.5
324.482	775.5
324.71	758.5
324.939	776.5
325.168	773.5
325.397	775.5
325.626	777.5
325.855	762.5
326.084	806.5
326.313	791.5
326.542	785.5
326.77	777.5
326.999	771.5
327.228	798.5
327.457	793.5
327.686	753.5
327.914	801.5
328.143	794.5
328.372	775.5
328.6	784.5
328.829	769.5
329.058	806.5
329.287	802.5
329.515	809.5
329.744	797.5
329.972	771.5
330.201	790.5
330.43	795.5
330.658	833.5
330.887	817.5
331.115	826.5
331.344	800.5
331.572	801.5
331.801	808.5
332.03	823.5
332.258	810.5
332.486	847.5
332.715	813.5
332.943	832.5
333.172	815.5
333.4	818.5
333.629	827.5
333.857	851.5
334.085	852.5
334.314	856.5
334.542	859.5
334.771	866.5
334.999	859.5
335.227	851.5
335.455	850.5
335.684	838.5
335.912	837.5
336.14	862.5
336.369	870.5
336.597	865.5
336.825	855.5
337.053	843.5
337.281	874.5
337.51	823.5
337.738	849.5
337.966	836.5
338.194	863.5
338.422	853.5
338.65	854.5
338.878	883.5
339.106	833.5
339.334	833.5
339.562	833.5
339.79	853.5
340.018	870.5
340.246	856.5
340.474	863.5
340.702	847.5
340.93	856.5
341.158	847.5
341.386	853.5
341.614	824.5
341.842	855.5
342.07	853.5
342.298	831.5
342.526	855.5
342.754	827.5
342.981	828.5
343.209	848.5
343.437	854.5
343.665	869.5
343.893	859.5
344.12	872.5
344.348	872.5
344.576	857.5
344.804	872.5
345.031	822.5
345.259	824.5
345.487	841.5
345.714	858.5
345.942	841.5
346.17	833.5
346.397	849.5
346.625	841.5
346.853	832.5
347.08	832.5
347.308	840.5
347.535	834.5
347.763	851.5
347.99	842.5
348.218	825.5
348.445	811.5
348.673	816.5
348.9	833.5
349.128	834.5
349.355	820.5
349.583	833.5
349.81	821.5
350.037	840.5
350.265	809.5
350.492	833.5
350.72	848.5
350.947	838.5
351.174	838.5
351.402	825.5
351.629	812.5
351.856	827.5
352.083	825.5
352.311	836.5
352.538	818.5
352.765	822.5
352.992	824.5
353.22	818.5
353.447	817.5
353.674	794.5
353.901	803.5
354.128	829.5
354.355	801.5
354.583	808.5
354.81	822.5
355.037	858.5
355.264	807.5
355.491	856.5
355.718	813.5
355.945	843.5
356.172	829.5
356.399	823.5
356.626	813.5
356.853	833.5
357.08	854.5
357.307	814.5
357.534	840.5
357.761	850.5
357.988	823.5
358.215	827.5
358.441	825.5
358.668	837.5
358.895	813.5
359.122	824.5
359.349	838.5
359.576	847.5
359.802	816.5
360.029	819.5
360.256	816.5
360.483	817.5
360.709	846.5
360.936	838.5
361.163	843.5
361.39	819.5
361.616	830.5
361.843	837.5
362.07	862.5
362.296	823.5
362.523	824.5
362.749	846.5
362.976	854.5
363.203	840.5
363.429	844.5
363.656	843.5
363.882	868.5
364.109	869.5
364.335	862.5
364.562	839.5
364.788	848.5
365.015	856.5
365.241	868.5
365.468	842.5
365.694	838.5
365.92	852.5
366.147	856.5
366.373	834.5
366.599	863.5
366.826	866.5
367.052	864.5
367.278	840.5
367.505	848.5
367.731	871.5
367.957	871.5
368.184	878.5
368.41	856.5
368.636	847.5
368.862	846.5
369.089	866.5
369.315	880.5
369.541	862.5
369.767	885.5
369.993	873.5
370.219	876.5
370.445	897.5
370.672	886.5
370.898	898.5
371.124	885.5
371.35	878.5
371.576	909.5
371.802	862.5
372.028	888.5
372.254	865.5
372.48	905.5
372.706	891.5
372.932	906.5
373.158	897.5
373.384	900.5
373.61	895.5
373.835	893.5
374.061	889.5
374.287	883.5
374.513	901.5
374.739	908.5
374.965	896.5
375.191	913.5
375.416	883.5
375.642	887.5
375.868	900.5
376.094	886.5
376.319	916.5
376.545	894.5
376.771	895.5
376.997	887.5
377.222	882.5
377.448	885.5
377.674	864.5
377.899	869.5
378.125	897.5
378.35	894.5
378.576	877.5
378.802	887.5
379.027	903.5
379.253	886.5
379.478	856.5
379.704	896.5
379.929	911.5
380.155	877.5
380.38	878.5
380.606	887.5
380.831	876.5
381.057	905.5
381.282	902.5
381.507	889.5
381.733	892.5
381.958	890.5
382.184	879.5
382.409	911.5
382.634	913.5
382.86	906.5
383.085	893.5
383.31	893.5
383.535	905.5
383.761	899.5
383.986	898.5
384.211	931.5
384.436	936.5
384.662	919.5
384.887	889.5
385.112	922.5
385.337	929.5
385.562	925.5
385.787	912.5
386.013	959.5
386.238	966.5
386.463	954.5
386.688	961.5
386.913	928.5
387.138	933.5
387.363	946.5
387.588	929.5
387.813	935.5
388.038	947.5
388.263	938.5
388.488	936.5
388.713	970.5
388.938	958.5
389.163	936.5
389.387	960.5
389.612	932.5
389.837	954.5
390.062	947.5
390.287	960.5
390.512	974.5
390.736	980.5
390.961	955.5
391.186	985.5
391.411	960.5
391.636	981.5
391.86	966.5
392.085	967.5
392.31	949.5
392.534	956.5
392.759	975.5
392.984	982.5
393.208	983.5
393.433	993.5
393.658	972.5
393.882	972.5
394.107	984.5
394.331	968.5
394.556	970.5
394.78	974.5
395.005	990.5
395.229	985.5
395.454	1014.5
395.678	983.5
395.903	991.5
396.127	977.5
396.352	994.5
396.576	990.5
396.801	971.5
397.025	991.5
397.249	1006.5
397.474	995.5
397.698	1005.5
397.922	999.5
398.147	1021.5
398.371	1045.5
398.595	1068.5
398.82	1042.5
399.044	1040.5
399.268	1027.5
399.492	1083.5
399.717	1082.5
399.941	1116.5
400.165	1106.5
400.389	1089.5
400.613	1056.5
400.837	1062.5
401.062	1057.5
401.286	1040.5
401.51	1048.5
401.734	1035.5
401.958	1054.5
402.182	1059.5
402.406	1047.5
402.63	1064.5
402.854	1064.5
403.078	1038.5
403.302	1034.5
403.526	1042.5
403.75	1071.5
403.974	1049.5
404.198	1016.5
404.422	1041.5
404.645	1041.5
404.869	1049.5
405.093	1051.5
405.317	1036.5
405.541	1054.5
405.765	1073.5
405.988	1098.5
406.212	1106.5
406.436	1059.5
406.66	1087.5
406.883	1080.5
407.107	1093.5
407.331	1118.5
407.555	1115.5
407.778	1105.5
408.002	1094.5
408.226	1113.5
408.449	1098.5
408.673	1115.5
408.896	1085.5
409.12	1063.5
409.344	1102.5
409.567	1092.5
409.791	1098.5
410.014	1054.5
410.238	1082.5
410.461	1067.5
410.685	1079.5
410.908	1060.5
411.132	1091.5
411.355	1057.5
411.578	1056.5
411.802	1074.5
412.025	1028.5
412.249	1036.5
412.472	1071.5
412.695	1033.5
412.919	1058.5
413.142	1042.5
413.365	1045.5
413.589	1063.5
413.812	1065.5
414.035	1057.5
414.258	1061.5
414.482	1073.5
414.705	1031.5
414.928	1022.5
415.151	1028.5
415.374	1040.5
415.597	1016.5
415.821	1011.5
416.044	1001.5
416.267	996.5
416.49	979.5
416.713	1029.5
416.936	1020.5
417.159	1009.5
417.382	977.5
417.605	982.5
417.828	982.5
418.051	977.5
418.274	991.5
418.497	993.5
418.72	999.5
418.943	985.5
419.166	979.5
419.389	1081.5
419.611	1031.5
419.834	1026.5
420.057	1017.5
420.28	995.5
420.503	979.5
420.726	945.5
420.948	961.5
421.171	969.5
421.394	971.5
421.617	969.5
421.839	976.5
422.062	992.5
422.285	942.5
422.507	976.5
422.73	959.5
422.953	980.5
423.175	986.5
423.398	966.5
423.621	971.5
423.843	962.5
424.066	957.5
424.288	952.5
424.511	959.5
424.733	976.5
424.956	974.5
425.178	977.5
425.401	948.5
425.623	971.5
425.846	961.5
426.068	1002.5
426.291	928.5
426.513	990.5
426.735	963.5
426.958	950.5
427.18	960.5
427.402	970.5
427.625	967.5
427.847	957.5
428.069	960.5
428.292	967.5
428.514	953.5
428.736	967.5
428.958	953.5
429.181	957.5
429.403	958.5
429.625	951.5
429.847	958.5
430.069	933.5
430.292	948.5
430.514	941.5
430.736	980.5
430.958	953.5
431.18	938.5
431.402	990.5
431.624	937.5
431.846	936.5
432.068	981.5
432.29	993.5
432.512	958.5
432.734	961.5
432.956	949.5
433.178	975.5
433.4	933.5
433.622	962.5
433.844	931.5
434.066	941.5
434.287	938.5
434.509	951.5
434.731	980.5
434.953	943.5
435.175	939.5
435.397	966.5
435.618	954.5
435.84	985.5
436.062	935.5
436.284	957.5
436.505	949.5
436.727	934.5
436.949	931.5
437.17	944.5
437.392	941.5
437.614	943.5
437.835	928.5
438.057	906.5
438.278	894.5
438.5	943.5
438.721	933.5
438.943	938.5
439.165	898.5
439.386	922.5
439.608	944.5
439.829	919.5
440.05	940.5
440.272	966.5
440.493	959.5
440.715	918.5
440.936	935.5
441.158	928.5
441.379	905.5
441.6	930.5
441.822	949.5
442.043	944.5
442.264	949.5
442.486	952.5
442.707	959.5
442.928	954.5
443.149	924.5
443.371	943.5
443.592	935.5
443.813	957.5
444.034	949.5
444.255	921.5
444.476	929.5
444.698	924.5
444.919	953.5
445.14	1044.5
445.361	997.5
445.582	944.5
445.803	950.5
446.024	918.5
446.245	921.5
446.466	957.5
446.687	923.5
446.908	903.5
447.129	915.5
447.35	902.5
447.571	898.5
447.792	882.5
448.013	931.5
448.234	884.5
448.455	870.5
448.675	878.5
448.896	884.5
449.117	870.5
449.338	883.5
449.559	899.5
449.779	885.5
450	852.5
450.221	867.5
450.442	903.5
450.662	872.5
450.883	866.5
451.104	884.5
451.324	887.5
451.545	854.5
451.766	865.5
451.986	831.5
452.207	854.5
452.428	866.5
452.648	859.5
452.869	835.5
453.089	835.5
453.31	851.5
453.53	837.5
453.751	855.5
453.971	835.5
454.192	866.5
454.412	825.5
454.633	839.5
454.853	853.5
455.073	872.5
455.294	864.5
455.514	852.5
455.734	867.5
455.955	843.5
456.175	832.5
456.395	840.5
456.616	816.5
456.836	850.5
457.056	885.5
457.276	863.5
457.497	863.5
457.717	834.5
457.937	833.5
458.157	884.5
458.377	870.5
458.598	854.5
458.818	880.5
459.038	888.5
459.258	862.5
459.478	880.5
459.698	905.5
459.918	915.5
460.138	889.5
460.358	903.5
460.578	910.5
460.798	966.5
461.018	951.5
461.238	952.5
461.458	914.5
461.678	925.5
461.898	966.5
462.118	943.5
462.338	953.5
462.558	937.5
462.777	985.5
462.997	994.5
463.217	988.5
463.437	981.5
463.657	951.5
463.876	991.5
464.096	985.5
464.316	951.5
464.536	959.5
464.755	965.5
464.975	958.5
465.195	974.5
465.414	966.5
465.634	925.5
465.854	886.5
466.073	924.5
466.293	930.5
466.512	943.5
466.732	905.5
466.951	915.5
467.171	927.5
467.391	885.5
467.61	892.5
467.829	898.5
468.049	909.5
468.268	902.5
468.488	891.5
468.707	870.5
468.927	906.5
469.146	900.5
469.365	936.5
469.585	899.5
469.804	921.5
470.023	936.5
470.243	905.5
470.462	930.5
470.681	917.5
470.901	910.5
471.12	930.5
471.339	922.5
471.558	924.5
471.777	918.5
471.997	905.5
472.216	965.5
472.435	919.5
472.654	954.5
472.873	943.5
473.092	953.5
473.311	940.5
473.53	934.5
473.749	927.5
473.968	967.5
474.187	931.5
474.406	960.5
474.625	961.5
474.844	956.5
475.063	953.5
475.282	995.5
475.501	963.5
475.72	977.5
475.939	982.5
476.158	1010.5
476.377	999.5
476.596	983.5
476.814	1013.5
477.033	1038.5
477.252	1034.5
477.471	1060.5
477.69	1043.5
477.908	1057.5
478.127	1051.5
478.346	1031.5
478.564	1064.5
478.783	1075.5
479.002	1109.5
479.22	1069.5
479.439	1130.5
479.658	1100.5
479.876	1109.5
480.095	1093.5
480.313	1107.5
480.532	1111.5
480.751	1152.5
480.969	1122.5
481.188	1147.5
481.406	1123.5
481.624	1124.5
481.843	1100.5
482.061	1095.5
482.28	1147.5
482.498	1119.5
482.717	1122.5
482.935	1118.5
483.153	1143.5
483.372	1145.5
483.59	1135.5
483.808	1124.5
484.027	1143.5
484.245	1152.5
484.463	1176.5
484.681	1147.5
484.9	1163.5
485.118	1163.5
485.336	1136.5
485.554	1160.5
485.772	1148.5
485.99	1169.5
486.209	1172.5
486.427	1171.5
486.645	1154.5
486.863	1142.5
487.081	1168.5
487.299	1186.5
487.517	1155.5
487.735	1182.5
487.953	1209.5
488.171	1181.5
488.389	1182.5
488.607	1166.5
488.825	1192.5
489.043	1185.5
489.261	1160.5
489.479	1181.5
489.696	1167.5
489.914	1174.5
490.132	1217.5
490.35	1201.5
490.568	1178.5
490.786	1182.5
491.003	1166.5
491.221	1221.5
491.439	1217.5
491.657	1237.5
491.874	1189.5
492.092	1204.5
492.31	1224.5
492.527	1199.5
492.745	1193.5
492.963	1199.5
493.18	1197.5
493.398	1226.5
493.615	1186.5
493.833	1180.5
494.05	1187.5
494.268	1217.5
494.485	1188.5
494.703	1193.5
494.92	1202.5
495.138	1236.5
495.355	1224.5
495.573	1209.5
495.79	1206.5
496.008	1245.5
496.225	1253.5
496.442	1232.5
496.66	1253.5
496.877	1234.5
497.094	1248.5
497.312	1295.5
497.529	1263.5
497.746	1268.5
497.963	1286.5
498.181	1330.5
498.398	1321.5
498.615	1317.5
498.832	1394.5
499.049	1407.5
499.267	1371.5
499.484	1413.5
499.701	1427.5
499.918	1441.5
500.135	1468.5
500.352	1485.5
500.569	1502.5
500.786	1499.5
501.003	1521.5
501.22	1473.5
501.437	1435.5
501.654	1391.5
501.871	1431.5
502.088	1363.5
502.305	1361.5
502.522	1338.5
502.739	1316.5
502.956	1299.5
503.172	1279.5
503.389	1294.5
503.606	1264.5
503.823	1250.5
504.04	1242.5
504.256	1251.5
504.473	1251.5
504.69	1216.5
504.907	1198.5
505.123	1174.5
505.34	1147.5
505.557	1178.5
505.773	1150.5
505.99	1147.5
506.207	1129.5
506.423	1110.5
506.64	1131.5
506.856	1104.5
507.073	1118.5
507.289	1078.5
507.506	1095.5
507.722	1062.5
507.939	1089.5
508.155	1075.5
508.372	1055.5
508.588	1063.5
508.805	1069.5
509.021	1063.5
509.238	1061.5
509.454	1046.5
509.67	1039.5
509.887	1023.5
510.103	1040.5
510.319	1049.5
510.536	1006.5
510.752	1025.5
510.968	1033.5
511.184	1001.5
511.401	1023.5
511.617	1035.5
511.833	1030.5
512.049	1016.5
512.265	1017.5
512.481	990.5
512.698	998.5
512.914	1033.5
513.13	1020.5
513.346	1022.5
513.562	1047.5
513.778	1023.5
513.994	1017.5
514.21	1000.5
514.426	997.5
514.642	983.5
514.858	1002.5
515.074	982.5
515.29	1014.5
515.506	1016.5
515.721	1033.5
515.937	1023.5
516.153	1005.5
516.369	1027.5
516.585	1028.5
516.801	1019.5
517.016	1035.5
517.232	1017.5
517.448	1038.5
517.664	1019.5
517.879	1038.5
518.095	1008.5
518.311	996.5
518.527	1021.5
518.742	1003.5
518.958	1008.5
519.173	1002.5
519.389	1021.5
519.605	1012.5
519.82	968.5
520.036	1011.5
520.251	1015.5
520.467	979.5
520.682	958.5
520.898	952.5
521.113	953.5
521.329	976.5
521.544	949.5
521.76	967.5
521.975	953.5
522.19	953.5
522.406	983.5
522.621	982.5
522.836	1006.5
523.052	963.5
523.267	937.5
523.482	932.5
523.698	923.5
523.913	930.5
524.128	916.5
524.343	891.5
524.559	949.5
524.774	955.5
524.989	912.5
525.204	931.5
525.419	941.5
525.634	932.5
525.849	927.5
526.064	944.5
526.28	896.5
526.495	923.5
526.71	911.5
526.925	911.5
527.14	905.5
527.355	905.5
527.57	925.5
527.785	897.5
527.999	896.5
528.214	883.5
528.429	877.5
528.644	900.5
528.859	903.5
529.074	915.5
529.289	903.5
529.503	884.5
529.718	887.5
529.933	918.5
530.148	890.5
530.363	866.5
530.577	880.5
530.792	867.5
531.007	889.5
531.221	897.5
531.436	892.5
531.651	899.5
531.865	870.5
532.08	872.5
532.295	890.5
532.509	858.5
532.724	868.5
532.938	865.5
533.153	872.5
533.367	904.5
533.582	891.5
533.796	869.5
534.011	885.5
534.225	831.5
534.44	838.5
534.654	882.5
534.868	864.5
535.083	856.5
535.297	851.5
535.511	825.5
535.726	855.5
535.94	860.5
536.154	848.5
536.369	865.5
536.583	840.5
536.797	827.5
537.011	836.5
537.225	816.5
537.44	797.5
537.654	837.5
537.868	819.5
538.082	816.5
538.296	811.5
538.51	811.5
538.724	834.5
538.938	844.5
539.153	797.5
539.367	821.5
539.581	853.5
539.795	827.5
540.009	824.5
540.222	822.5
540.436	824.5
540.65	779.5
540.864	805.5
541.078	789.5
541.292	830.5
541.506	804.5
541.72	806.5
541.934	792.5
542.147	795.5
542.361	825.5
542.575	787.5
542.789	786.5
543.002	795.5
543.216	789.5
543.43	795.5
543.644	784.5
543.857	799.5
544.071	779.5
544.285	804.5
544.498	773.5
544.712	793.5
544.925	800.5
545.139	785.5
545.352	765.5
545.566	797.5
545.779	787.5
545.993	795.5
546.206	809.5
546.42	778.5
546.633	798.5
546.847	778.5
547.06	780.5
547.274	795.5
547.487	785.5
547.7	790.5
547.914	800.5
548.127	786.5
548.34	780.5
548.554	767.5
548.767	768.5
548.98	816.5
549.193	777.5
549.407	756.5
549.62	791.5
549.833	785.5
550.046	794.5
550.259	755.5
550.473	761.5
550.686	754.5
550.899	738.5
551.112	732.5
551.325	778.5
551.538	773.5
551.751	730.5
551.964	783.5
552.177	744.5
552.39	761.5
552.603	747.5
552.816	739.5
553.029	773.5
553.242	767.5
553.455	749.5
553.667	767.5
553.88	750.5
554.093	734.5
554.306	715.5
554.519	725.5
554.732	731.5
554.944	729.5
555.157	699.5
555.37	697.5
555.583	703.5
555.795	708.5
556.008	707.5
556.221	694.5
556.433	696.5
556.646	702.5
556.859	705.5
557.071	696.5
557.284	689.5
557.496	690.5
557.709	697.5
557.921	682.5
558.134	693.5
558.346	671.5
558.559	679.5
558.771	680.5
558.984	694.5
559.196	685.5
559.409	664.5
559.621	661.5
559.833	669.5
560.046	659.5
560.258	648.5
560.47	687.5
560.683	665.5
560.895	670.5
561.107	677.5
561.32	654.5
561.532	665.5
561.744	680.5
561.956	636.5
562.168	663.5
562.381	667.5
562.593	652.5
562.805	648.5
563.017	650.5
563.229	670.5
563.441	663.5
563.653	680.5
563.865	662.5
564.077	655.5
564.289	658.5
564.501	662.5
564.713	675.5
564.925	665.5
565.137	684.5
565.349	691.5
565.561	673.5
565.773	690.5
565.985	697.5
566.197	675.5
566.408	676.5
566.62	689.5
566.832	700.5
567.044	670.5
567.255	680.5
567.467	688.5
567.679	712.5
567.891	711.5
568.102	685.5
568.314	672.5
568.526	659.5
568.737	634.5
568.949	653.5
569.161	641.5
569.372	620.5
569.584	631.5
569.795	614.5
570.007	635.5
570.218	612.5
570.43	610.5
570.641	612.5
570.853	603.5
571.064	619.5
571.276	586.5
571.487	584.5
571.698	569.5
571.91	590.5
572.121	594.5
572.333	567.5
572.544	555.5
572.755	546.5
572.966	552.5
573.178	576.5
573.389	545.5
573.6	537.5
573.811	552.5
574.023	546.5
574.234	550.5
574.445	521.5
574.656	525.5
574.867	529.5
575.078	538.5
575.289	528.5
575.501	530.5
575.712	526.5
575.923	552.5
576.134	527.5
576.345	521.5
576.556	524.5
576.767	502.5
576.978	529.5
577.188	520.5
577.399	512.5
577.61	516.5
577.821	513.5
578.032	502.5
578.243	497.5
578.454	510.5
578.665	496.5
578.875	478.5
579.086	500.5
579.297	494.5
579.508	486.5
579.718	502.5
579.929	493.5
580.14	484.5
580.35	492.5
580.561	484.5
580.772	469.5
580.982	465.5
581.193	476.5
581.403	478.5
581.614	475.5
581.825	457.5
582.035	471.5
582.246	462.5
582.456	466.5
582.667	463.5
582.877	464.5
583.087	463.5
583.298	452.5
583.508	458.5
583.719	472.5
583.929	465.5
584.139	443.5
584.35	457.5
584.56	462.5
584.77	446.5
584.981	447.5
585.191	463.5
585.401	443.5
585.611	445.5
585.821	457.5
586.032	442.5
586.242	452.5
586.452	450.5
586.662	438.5
586.872	426.5
587.082	434.5
587.292	429.5
587.502	434.5
587.713	425.5
587.923	442.5
588.133	441.5
588.343	410.5
588.553	407.5
588.762	446.5
588.972	454.5
589.182	470.5
589.392	446.5
589.602	442.5
589.812	476.5
590.022	443.5
590.232	433.5
590.441	433.5
590.651	430.5
590.861	407.5
591.071	416.5
591.281	443.5
591.49	420.5
591.7	429.5
591.91	422.5
592.119	421.5
592.329	415.5
592.539	410.5
592.748	419.5
592.958	422.5
593.167	406.5
593.377	418.5
593.587	433.5
593.796	450.5
594.006	425.5
594.215	409.5
594.424	393.5
594.634	440.5
594.843	424.5
595.053	408.5
595.262	406.5
595.472	420.5
595.681	413.5
595.89	422.5
596.1	417.5
596.309	407.5
596.518	383.5
596.727	401.5
596.937	388.5
597.146	401.5
597.355	388.5
597.564	387.5
597.774	376.5
597.983	393.5
598.192	383.5
598.401	369.5
598.61	397.5
598.819	387.5
599.028	379.5
599.237	399.5
599.446	378.5
599.655	359.5
599.864	389.5
600.073	365.5
600.282	367.5
600.491	373.5
600.7	389.5
600.909	364.5
601.118	361.5
601.327	367.5
601.536	366.5
601.745	361.5
601.953	350.5
602.162	346.5
602.371	346.5
602.58	363.5
602.789	359.5
602.997	353.5
603.206	363.5
603.415	354.5
603.623	351.5
603.832	344.5
604.041	346.5
604.249	339.5
604.458	334.5
604.666	329.5
604.875	343.5
605.084	344.5
605.292	346.5
605.501	338.5
605.709	346.5
605.918	350.5
606.126	330.5
606.334	325.5
606.543	343.5
606.751	348.5
606.96	328.5
607.168	338.5
607.376	344.5
607.585	338.5
607.793	330.5
608.001	349.5
608.21	327.5
608.418	315.5
608.626	331.5
608.834	320.5
609.043	326.5
609.251	333.5
609.459	321.5
609.667	319.5
609.875	323.5
610.083	315.5
610.291	328.5
610.499	326.5
610.707	313.5
610.916	326.5
611.124	310.5
611.332	315.5
611.54	325.5
611.748	322.5
611.955	303.5
612.163	314.5
612.371	338.5
612.579	315.5
612.787	337.5
612.995	308.5
613.203	330.5
613.411	315.5
613.618	315.5
613.826	336.5
614.034	326.5
614.242	318.5
614.449	302.5
614.657	309.5
614.865	307.5
615.072	318.5
615.28	310.5
615.488	314.5
615.695	305.5
615.903	309.5
616.111	305.5
616.318	315.5
616.526	312.5
616.733	320.5
616.941	301.5
617.148	301.5
617.356	307.5
617.563	311.5
617.771	307.5
617.978	299.5
618.185	300.5
618.393	320.5
618.6	319.5
618.807	308.5
619.015	307.5
619.222	299.5
619.429	312.5
619.637	278.5
619.844	302.5
620.051	293.5
620.258	301.5
620.466	297.5
620.673	272.5
620.88	293.5
621.087	302.5
621.294	289.5
621.501	282.5
621.708	276.5
621.915	296.5
622.122	274.5
622.329	270.5
622.536	272.5
622.743	277.5
622.95	290.5
623.157	287.5
623.364	296.5
623.571	287.5
623.778	295.5
623.985	297.5
624.192	280.5
624.399	279.5
624.606	274.5
624.812	273.5
625.019	285.5
625.226	278.5
625.433	254.5
625.639	280.5
625.846	296.5
626.053	289.5
626.259	287.5
626.466	291.5
626.673	281.5
626.879	272.5
627.086	279.5
627.293	258.5
627.499	269.5
627.706	266.5
627.912	277.5
628.119	257.5
628.325	274.5
628.532	275.5
628.738	277.5
628.945	276.5
629.151	264.5
629.357	263.5
629.564	247.5
629.77	265.5
629.976	265.5
630.183	243.5
630.389	262.5
630.595	249.5
630.802	266.5
631.008	255.5
631.214	235.5
631.42	250.5
631.627	264.5
631.833	259.5
632.039	260.5
632.245	265.5
632.451	257.5
632.657	246.5
632.863	239.5
633.069	258.5
633.275	256.5
633.481	258.5
633.688	229.5
633.893	229.5
634.099	252.5
634.305	263.5
634.511	258.5
634.717	245.5
634.923	245.5
635.129	257.5
635.335	249.5
635.541	225.5
635.747	232.5
635.952	220.5
636.158	234.5
636.364	239.5
636.57	240.5
636.775	238.5
636.981	239.5
637.187	237.5
637.392	242.5
637.598	209.5
637.804	219.5
638.009	240.5
638.215	239.5
638.421	234.5
638.626	232.5
638.832	223.5
639.037	218.5
639.243	229.5
639.448	222.5
639.654	231.5
639.859	228.5
640.065	223.5
640.27	243.5
640.475	239.5
640.681	215.5
640.886	208.5
641.091	241.5
641.297	223.5
641.502	248.5
641.707	233.5
641.913	228.5
642.118	217.5
642.323	225.5
642.528	226.5
642.733	214.5
642.939	227.5
643.144	231.5
643.349	217.5
643.554	213.5
643.759	228.5
643.964	215.5
644.169	235.5
644.374	223.5
644.579	229.5
644.784	219.5
644.989	225.5
645.194	193.5
645.399	218.5
645.604	215.5
645.809	218.5
646.014	209.5
646.219	229.5
646.423	221.5
646.628	227.5
646.833	228.5
647.038	230.5
647.243	237.5
647.447	226.5
647.652	238.5
647.857	236.5
648.062	241.5
648.266	222.5
648.471	228.5
648.676	229.5
648.88	215.5
649.085	233.5
649.289	242.5
649.494	235.5
649.698	238.5
649.903	230.5
650.107	225.5
650.312	221.5
650.516	207.5
650.721	220.5
650.925	223.5
651.13	238.5
651.334	207.5
651.539	232.5
651.743	242.5
651.947	215.5
652.152	225.5
652.356	212.5
652.56	207.5
652.764	228.5
652.969	204.5
653.173	207.5
653.377	202.5
653.581	211.5
653.785	205.5
653.99	207.5
654.194	189.5
654.398	200.5
654.602	202.5
654.806	209.5
655.01	215.5
655.214	216.5
655.418	207.5
655.622	193.5
655.826	201.5
656.03	206.5
656.234	207.5
656.438	197.5
656.642	207.5
656.846	193.5
657.049	185.5
657.253	195.5
657.457	183.5
657.661	163.5
657.865	172.5
658.068	157.5
658.272	145.5
658.476	140.5
658.68	132.5
658.883	139.5
659.087	129.5
659.291	137.5
659.494	118.5
659.698	126.5
659.901	113.5
660.105	114.5
660.309	118.5
660.512	134.5
660.716	112.5
660.919	109.5
661.123	113.5
661.326	98.5
661.53	85.5
661.733	84.5
661.936	91.5
662.14	96.5
662.343	100.5
662.546	79.5
662.75	101.5
662.953	89.5
663.156	98.5
663.36	100.5
663.563	72.5
663.766	85.5
663.969	90.5
664.173	77.5
664.376	76.5
664.579	74.5
664.782	88.5
664.985	84.5
665.188	89.5
665.391	88.5
665.594	83.5
665.797	79.5
666	80.5
666.203	77.5
666.406	81.5
666.609	72.5
666.812	73.5
667.015	72.5
667.218	84.5
667.421	74.5
667.624	87.5
667.827	87.5
668.03	85.5
668.232	80.5
668.435	90.5
668.638	84.5
668.841	81.5
669.043	80.5
669.246	80.5
669.449	72.5
669.651	77.5
669.854	75.5
670.057	73.5
670.259	89.5
670.462	75.5
670.665	70.5
670.867	84.5
671.07	82.5
671.272	94.5
671.475	75.5
671.677	75.5
671.88	65.5
672.082	92.5
672.284	80.5
672.487	78.5
672.689	78.5
672.892	80.5
