Data from Fe(NO3)3@0.05M.TitratingCurve.Agarose3%dH2O.NegLispCup.LampEnergy10.LIBS07252019_HRD10591_16-48-36-334.txt Node
Date: Thu Jul 25 16:48:36 EDT 2019
User: cochatt
Spectrometer: HR+D1059
Trigger mode: 1
Integration Time (sec): 1.000000E-1
Scans to average: 1
Electric dark correction enabled: true
Nonlinearity correction enabled: false
Boxcar width: 0
XAxis mode: Wavelengths
Number of Pixels in Spectrum: 2048
>>>>>Begin Spectral Data<<<<<
223.165	-24.12
223.4	-24.12
223.635	-24.12
223.869	-18.12
224.104	-27.12
224.338	-3.12
224.573	-10.12
224.808	-9.12
225.042	-10.12
225.277	-3.12
225.511	-9.12
225.746	-11.12
225.98	6.88
226.215	4.88
226.449	-1.12
226.683	42.88
226.918	30.88
227.152	40.88
227.387	29.88
227.621	48.88
227.856	41.88
228.09	33.88
228.324	61.88
228.559	54.88
228.793	63.88
229.027	62.88
229.262	42.88
229.496	77.88
229.73	78.88
229.964	71.88
230.199	83.88
230.433	88.88
230.667	85.88
230.901	74.88
231.136	79.88
231.37	102.88
231.604	84.88
231.838	105.88
232.072	93.88
232.306	92.88
232.541	103.88
232.775	99.88
233.009	84.88
233.243	102.88
233.477	89.88
233.711	89.88
233.945	91.88
234.179	100.88
234.413	78.88
234.647	95.88
234.881	98.88
235.115	86.88
235.349	97.88
235.583	90.88
235.817	98.88
236.051	100.88
236.285	113.88
236.519	88.88
236.753	96.88
236.987	99.88
237.221	91.88
237.455	91.88
237.689	91.88
237.922	84.88
238.156	77.88
238.39	87.88
238.624	85.88
238.858	92.88
239.091	92.88
239.325	87.88
239.559	94.88
239.793	87.88
240.027	102.88
240.26	101.88
240.494	98.88
240.728	80.88
240.961	104.88
241.195	94.88
241.429	87.88
241.662	101.88
241.896	102.88
242.13	99.88
242.363	98.88
242.597	101.88
242.83	98.88
243.064	87.88
243.298	90.88
243.531	104.88
243.765	115.88
243.998	88.88
244.232	98.88
244.465	101.88
244.699	96.88
244.932	100.88
245.166	107.88
245.399	101.88
245.633	101.88
245.866	99.88
246.099	96.88
246.333	101.88
246.566	92.88
246.8	112.88
247.033	106.88
247.266	110.88
247.5	96.88
247.733	101.88
247.966	108.88
248.2	107.88
248.433	104.88
248.666	102.88
248.899	115.88
249.133	109.88
249.366	122.88
249.599	110.88
249.832	114.88
250.066	98.88
250.299	108.88
250.532	125.88
250.765	123.88
250.998	106.88
251.231	108.88
251.465	117.88
251.698	108.88
251.931	112.88
252.164	99.88
252.397	106.88
252.63	113.88
252.863	113.88
253.096	129.88
253.329	107.88
253.562	109.88
253.795	107.88
254.028	125.88
254.261	126.88
254.494	129.88
254.727	123.88
254.96	112.88
255.193	101.88
255.426	112.88
255.659	123.88
255.892	120.88
256.124	113.88
256.357	120.88
256.59	126.88
256.823	125.88
257.056	114.88
257.289	104.88
257.521	116.88
257.754	111.88
257.987	115.88
258.22	114.88
258.452	124.88
258.685	120.88
258.918	134.88
259.151	112.88
259.383	117.88
259.616	117.88
259.849	128.88
260.081	110.88
260.314	123.88
260.547	114.88
260.779	122.88
261.012	127.88
261.244	120.88
261.477	126.88
261.71	129.88
261.942	107.88
262.175	128.88
262.407	110.88
262.64	115.88
262.872	130.88
263.105	108.88
263.337	126.88
263.57	130.88
263.802	131.88
264.035	129.88
264.267	118.88
264.499	121.88
264.732	143.88
264.964	132.88
265.197	120.88
265.429	140.88
265.661	147.88
265.894	119.88
266.126	121.88
266.358	129.88
266.591	105.88
266.823	122.88
267.055	126.88
267.287	127.88
267.52	130.88
267.752	136.88
267.984	129.88
268.216	132.88
268.448	136.88
268.681	136.88
268.913	116.88
269.145	121.88
269.377	132.88
269.609	128.88
269.841	129.88
270.073	128.88
270.306	130.88
270.538	126.88
270.77	126.88
271.002	137.88
271.234	120.88
271.466	139.88
271.698	130.88
271.93	137.88
272.162	121.88
272.394	145.88
272.626	119.88
272.858	133.88
273.09	133.88
273.322	135.88
273.553	147.88
273.785	132.88
274.017	134.88
274.249	136.88
274.481	149.88
274.713	148.88
274.945	154.88
275.176	165.88
275.408	143.88
275.64	145.88
275.872	146.88
276.104	146.88
276.335	139.88
276.567	134.88
276.799	141.88
277.031	140.88
277.262	132.88
277.494	150.88
277.726	145.88
277.957	146.88
278.189	144.88
278.421	130.88
278.652	141.88
278.884	140.88
279.115	138.88
279.347	140.88
279.579	147.88
279.81	154.88
280.042	126.88
280.273	131.88
280.505	147.88
280.736	142.88
280.968	148.88
281.199	152.88
281.431	138.88
281.662	146.88
281.894	168.88
282.125	157.88
282.356	158.88
282.588	141.88
282.819	138.88
283.051	148.88
283.282	150.88
283.513	141.88
283.745	154.88
283.976	138.88
284.207	137.88
284.439	128.88
284.67	155.88
284.901	147.88
285.132	149.88
285.364	149.88
285.595	142.88
285.826	157.88
286.057	150.88
286.288	150.88
286.52	160.88
286.751	149.88
286.982	147.88
287.213	146.88
287.444	156.88
287.675	157.88
287.906	156.88
288.138	157.88
288.369	160.88
288.6	139.88
288.831	152.88
289.062	160.88
289.293	164.88
289.524	151.88
289.755	162.88
289.986	158.88
290.217	164.88
290.448	147.88
290.679	149.88
290.91	158.88
291.141	148.88
291.371	152.88
291.602	163.88
291.833	157.88
292.064	160.88
292.295	170.88
292.526	152.88
292.757	153.88
292.987	144.88
293.218	170.88
293.449	158.88
293.68	169.88
293.91	144.88
294.141	158.88
294.372	147.88
294.603	139.88
294.833	160.88
295.064	174.88
295.295	148.88
295.525	152.88
295.756	158.88
295.987	153.88
296.217	160.88
296.448	170.88
296.679	163.88
296.909	168.88
297.14	169.88
297.37	154.88
297.601	162.88
297.831	168.88
298.062	176.88
298.292	162.88
298.523	182.88
298.753	157.88
298.984	160.88
299.214	165.88
299.445	158.88
299.675	157.88
299.905	153.88
300.136	173.88
300.366	157.88
300.597	176.88
300.827	165.88
301.057	180.88
301.288	158.88
301.518	194.88
301.748	164.88
301.979	166.88
302.209	163.88
302.439	169.88
302.669	184.88
302.9	181.88
303.13	172.88
303.36	159.88
303.59	162.88
303.82	163.88
304.051	185.88
304.281	166.88
304.511	173.88
304.741	161.88
304.971	168.88
305.201	156.88
305.431	173.88
305.661	183.88
305.891	160.88
306.121	171.88
306.352	180.88
306.582	168.88
306.812	167.88
307.042	177.88
307.272	173.88
307.502	176.88
307.731	180.88
307.961	164.88
308.191	165.88
308.421	154.88
308.651	176.88
308.881	173.88
309.111	178.88
309.341	151.88
309.571	172.88
309.8	164.88
310.03	177.88
310.26	173.88
310.49	172.88
310.72	166.88
310.949	176.88
311.179	173.88
311.409	178.88
311.639	180.88
311.868	158.88
312.098	161.88
312.328	157.88
312.557	174.88
312.787	179.88
313.017	171.88
313.246	181.88
313.476	173.88
313.706	173.88
313.935	173.88
314.165	189.88
314.394	184.88
314.624	166.88
314.853	168.88
315.083	157.88
315.312	166.88
315.542	170.88
315.771	176.88
316.001	176.88
316.23	169.88
316.46	181.88
316.689	183.88
316.919	171.88
317.148	173.88
317.377	170.88
317.607	171.88
317.836	163.88
318.065	148.88
318.295	176.88
318.524	179.88
318.753	186.88
318.983	164.88
319.212	153.88
319.441	174.88
319.67	169.88
319.9	169.88
320.129	183.88
320.358	178.88
320.587	170.88
320.816	176.88
321.046	166.88
321.275	169.88
321.504	166.88
321.733	192.88
321.962	182.88
322.191	182.88
322.42	171.88
322.649	173.88
322.878	191.88
323.108	172.88
323.337	169.88
323.566	184.88
323.795	182.88
324.024	178.88
324.253	188.88
324.482	181.88
324.71	182.88
324.939	179.88
325.168	183.88
325.397	181.88
325.626	198.88
325.855	179.88
326.084	196.88
326.313	184.88
326.542	199.88
326.77	178.88
326.999	184.88
327.228	182.88
327.457	170.88
327.686	188.88
327.914	186.88
328.143	206.88
328.372	190.88
328.6	180.88
328.829	176.88
329.058	188.88
329.287	195.88
329.515	165.88
329.744	196.88
329.972	199.88
330.201	183.88
330.43	180.88
330.658	191.88
330.887	184.88
331.115	187.88
331.344	193.88
331.572	193.88
331.801	172.88
332.03	196.88
332.258	176.88
332.486	201.88
332.715	198.88
332.943	199.88
333.172	212.88
333.4	232.88
333.629	226.88
333.857	226.88
334.085	227.88
334.314	218.88
334.542	221.88
334.771	211.88
334.999	217.88
335.227	217.88
335.455	210.88
335.684	217.88
335.912	220.88
336.14	213.88
336.369	210.88
336.597	199.88
336.825	212.88
337.053	215.88
337.281	208.88
337.51	206.88
337.738	202.88
337.966	214.88
338.194	200.88
338.422	194.88
338.65	198.88
338.878	209.88
339.106	182.88
339.334	200.88
339.562	184.88
339.79	196.88
340.018	176.88
340.246	191.88
340.474	192.88
340.702	183.88
340.93	191.88
341.158	179.88
341.386	194.88
341.614	192.88
341.842	194.88
342.07	197.88
342.298	180.88
342.526	197.88
342.754	200.88
342.981	198.88
343.209	187.88
343.437	204.88
343.665	218.88
343.893	218.88
344.12	217.88
344.348	229.88
344.576	188.88
344.804	204.88
345.031	181.88
345.259	208.88
345.487	194.88
345.714	179.88
345.942	171.88
346.17	186.88
346.397	202.88
346.625	196.88
346.853	186.88
347.08	184.88
347.308	181.88
347.535	204.88
347.763	197.88
347.99	182.88
348.218	198.88
348.445	187.88
348.673	187.88
348.9	202.88
349.128	187.88
349.355	172.88
349.583	179.88
349.81	172.88
350.037	184.88
350.265	192.88
350.492	180.88
350.72	186.88
350.947	192.88
351.174	202.88
351.402	176.88
351.629	177.88
351.856	175.88
352.083	183.88
352.311	185.88
352.538	185.88
352.765	186.88
352.992	172.88
353.22	192.88
353.447	196.88
353.674	181.88
353.901	180.88
354.128	168.88
354.355	168.88
354.583	181.88
354.81	187.88
355.037	193.88
355.264	191.88
355.491	177.88
355.718	184.88
355.945	181.88
356.172	187.88
356.399	188.88
356.626	174.88
356.853	189.88
357.08	192.88
357.307	193.88
357.534	191.88
357.761	183.88
357.988	186.88
358.215	176.88
358.441	172.88
358.668	182.88
358.895	187.88
359.122	182.88
359.349	172.88
359.576	180.88
359.802	189.88
360.029	191.88
360.256	180.88
360.483	196.88
360.709	196.88
360.936	198.88
361.163	193.88
361.39	181.88
361.616	182.88
361.843	181.88
362.07	162.88
362.296	188.88
362.523	188.88
362.749	180.88
362.976	196.88
363.203	183.88
363.429	187.88
363.656	192.88
363.882	182.88
364.109	185.88
364.335	194.88
364.562	181.88
364.788	184.88
365.015	187.88
365.241	186.88
365.468	180.88
365.694	199.88
365.92	183.88
366.147	201.88
366.373	185.88
366.599	170.88
366.826	198.88
367.052	194.88
367.278	194.88
367.505	197.88
367.731	193.88
367.957	189.88
368.184	192.88
368.41	201.88
368.636	193.88
368.862	193.88
369.089	186.88
369.315	198.88
369.541	204.88
369.767	186.88
369.993	165.88
370.219	185.88
370.445	186.88
370.672	214.88
370.898	189.88
371.124	192.88
371.35	197.88
371.576	192.88
371.802	206.88
372.028	202.88
372.254	188.88
372.48	197.88
372.706	208.88
372.932	220.88
373.158	196.88
373.384	211.88
373.61	203.88
373.835	218.88
374.061	222.88
374.287	209.88
374.513	216.88
374.739	213.88
374.965	213.88
375.191	227.88
375.416	233.88
375.642	208.88
375.868	207.88
376.094	199.88
376.319	211.88
376.545	216.88
376.771	204.88
376.997	195.88
377.222	198.88
377.448	195.88
377.674	207.88
377.899	206.88
378.125	198.88
378.35	209.88
378.576	216.88
378.802	220.88
379.027	211.88
379.253	214.88
379.478	202.88
379.704	231.88
379.929	220.88
380.155	199.88
380.38	218.88
380.606	204.88
380.831	200.88
381.057	214.88
381.282	219.88
381.507	220.88
381.733	209.88
381.958	200.88
382.184	237.88
382.409	215.88
382.634	233.88
382.86	225.88
383.085	224.88
383.31	230.88
383.535	246.88
383.761	246.88
383.986	229.88
384.211	216.88
384.436	235.88
384.662	234.88
384.887	241.88
385.112	253.88
385.337	234.88
385.562	232.88
385.787	223.88
386.013	266.88
386.238	245.88
386.463	236.88
386.688	241.88
386.913	247.88
387.138	245.88
387.363	240.88
387.588	247.88
387.813	227.88
388.038	229.88
388.263	258.88
388.488	244.88
388.713	255.88
388.938	264.88
389.163	262.88
389.387	243.88
389.612	251.88
389.837	248.88
390.062	250.88
390.287	249.88
390.512	237.88
390.736	244.88
390.961	237.88
391.186	244.88
391.411	260.88
391.636	268.88
391.86	261.88
392.085	277.88
392.31	273.88
392.534	276.88
392.759	276.88
392.984	251.88
393.208	270.88
393.433	254.88
393.658	269.88
393.882	279.88
394.107	285.88
394.331	263.88
394.556	253.88
394.78	268.88
395.005	277.88
395.229	272.88
395.454	270.88
395.678	277.88
395.903	265.88
396.127	269.88
396.352	268.88
396.576	249.88
396.801	262.88
397.025	272.88
397.249	269.88
397.474	262.88
397.698	272.88
397.922	269.88
398.147	291.88
398.371	268.88
398.595	290.88
398.82	292.88
399.044	300.88
399.268	337.88
399.492	370.88
399.717	408.88
399.941	395.88
400.165	373.88
400.389	341.88
400.613	327.88
400.837	322.88
401.062	328.88
401.286	305.88
401.51	298.88
401.734	318.88
401.958	288.88
402.182	305.88
402.406	303.88
402.63	324.88
402.854	314.88
403.078	333.88
403.302	330.88
403.526	347.88
403.75	344.88
403.974	348.88
404.198	355.88
404.422	337.88
404.645	331.88
404.869	333.88
405.093	338.88
405.317	326.88
405.541	336.88
405.765	324.88
405.988	325.88
406.212	333.88
406.436	336.88
406.66	340.88
406.883	329.88
407.107	352.88
407.331	364.88
407.555	376.88
407.778	380.88
408.002	370.88
408.226	351.88
408.449	344.88
408.673	344.88
408.896	345.88
409.12	317.88
409.344	343.88
409.567	337.88
409.791	350.88
410.014	369.88
410.238	342.88
410.461	334.88
410.685	321.88
410.908	328.88
411.132	311.88
411.355	323.88
411.578	314.88
411.802	323.88
412.025	327.88
412.249	332.88
412.472	328.88
412.695	324.88
412.919	316.88
413.142	318.88
413.365	343.88
413.589	319.88
413.812	329.88
414.035	317.88
414.258	331.88
414.482	334.88
414.705	324.88
414.928	313.88
415.151	333.88
415.374	312.88
415.597	312.88
415.821	308.88
416.044	313.88
416.267	292.88
416.49	315.88
416.713	304.88
416.936	330.88
417.159	309.88
417.382	310.88
417.605	310.88
417.828	292.88
418.051	312.88
418.274	311.88
418.497	322.88
418.72	329.88
418.943	325.88
419.166	306.88
419.389	355.88
419.611	328.88
419.834	310.88
420.057	324.88
420.28	319.88
420.503	326.88
420.726	316.88
420.948	312.88
421.171	311.88
421.394	312.88
421.617	341.88
421.839	337.88
422.062	327.88
422.285	311.88
422.507	315.88
422.73	323.88
422.953	331.88
423.175	332.88
423.398	320.88
423.621	334.88
423.843	328.88
424.066	329.88
424.288	331.88
424.511	326.88
424.733	332.88
424.956	334.88
425.178	312.88
425.401	322.88
425.623	324.88
425.846	283.88
426.068	318.88
426.291	296.88
426.513	316.88
426.735	297.88
426.958	316.88
427.18	311.88
427.402	309.88
427.625	295.88
427.847	296.88
428.069	314.88
428.292	294.88
428.514	284.88
428.736	308.88
428.958	289.88
429.181	296.88
429.403	287.88
429.625	289.88
429.847	280.88
430.069	286.88
430.292	293.88
430.514	288.88
430.736	299.88
430.958	300.88
431.18	306.88
431.402	289.88
431.624	283.88
431.846	279.88
432.068	289.88
432.29	306.88
432.512	305.88
432.734	316.88
432.956	310.88
433.178	319.88
433.4	313.88
433.622	298.88
433.844	322.88
434.066	302.88
434.287	304.88
434.509	302.88
434.731	314.88
434.953	335.88
435.175	328.88
435.397	311.88
435.618	314.88
435.84	314.88
436.062	304.88
436.284	306.88
436.505	299.88
436.727	307.88
436.949	297.88
437.17	308.88
437.392	299.88
437.614	304.88
437.835	283.88
438.057	290.88
438.278	296.88
438.5	299.88
438.721	298.88
438.943	294.88
439.165	300.88
439.386	310.88
439.608	315.88
439.829	305.88
440.05	309.88
440.272	305.88
440.493	334.88
440.715	308.88
440.936	322.88
441.158	316.88
441.379	328.88
441.6	347.88
441.822	357.88
442.043	325.88
442.264	334.88
442.486	324.88
442.707	336.88
442.928	332.88
443.149	327.88
443.371	325.88
443.592	300.88
443.813	338.88
444.034	305.88
444.255	356.88
444.476	359.88
444.698	368.88
444.919	374.88
445.14	486.88
445.361	415.88
445.582	341.88
445.803	339.88
446.024	333.88
446.245	330.88
446.466	324.88
446.687	332.88
446.908	333.88
447.129	324.88
447.35	308.88
447.571	288.88
447.792	304.88
448.013	284.88
448.234	306.88
448.455	288.88
448.675	312.88
448.896	302.88
449.117	286.88
449.338	305.88
449.559	292.88
449.779	284.88
450	281.88
450.221	283.88
450.442	310.88
450.662	290.88
450.883	299.88
451.104	304.88
451.324	296.88
451.545	276.88
451.766	309.88
451.986	300.88
452.207	283.88
452.428	274.88
452.648	304.88
452.869	295.88
453.089	288.88
453.31	280.88
453.53	278.88
453.751	295.88
453.971	294.88
454.192	276.88
454.412	256.88
454.633	280.88
454.853	269.88
455.073	285.88
455.294	276.88
455.514	278.88
455.734	290.88
455.955	262.88
456.175	270.88
456.395	274.88
456.616	262.88
456.836	288.88
457.056	266.88
457.276	262.88
457.497	265.88
457.717	269.88
457.937	274.88
458.157	260.88
458.377	269.88
458.598	270.88
458.818	290.88
459.038	286.88
459.258	300.88
459.478	312.88
459.698	308.88
459.918	313.88
460.138	336.88
460.358	331.88
460.578	324.88
460.798	352.88
461.018	357.88
461.238	353.88
461.458	358.88
461.678	356.88
461.898	327.88
462.118	346.88
462.338	372.88
462.558	373.88
462.777	366.88
462.997	378.88
463.217	411.88
463.437	422.88
463.657	396.88
463.876	397.88
464.096	395.88
464.316	381.88
464.536	381.88
464.755	385.88
464.975	378.88
465.195	370.88
465.414	337.88
465.634	330.88
465.854	326.88
466.073	312.88
466.293	328.88
466.512	315.88
466.732	312.88
466.951	296.88
467.171	301.88
467.391	309.88
467.61	293.88
467.829	295.88
468.049	294.88
468.268	301.88
468.488	294.88
468.707	288.88
468.927	299.88
469.146	296.88
469.365	310.88
469.585	291.88
469.804	322.88
470.023	301.88
470.243	314.88
470.462	304.88
470.681	312.88
470.901	315.88
471.12	303.88
471.339	304.88
471.558	296.88
471.777	283.88
471.997	293.88
472.216	294.88
472.435	292.88
472.654	289.88
472.873	279.88
473.092	290.88
473.311	268.88
473.53	298.88
473.749	280.88
473.968	283.88
474.187	280.88
474.406	283.88
474.625	293.88
474.844	276.88
475.063	301.88
475.282	306.88
475.501	274.88
475.72	288.88
475.939	281.88
476.158	280.88
476.377	301.88
476.596	290.88
476.814	298.88
477.033	305.88
477.252	310.88
477.471	307.88
477.69	329.88
477.908	316.88
478.127	326.88
478.346	321.88
478.564	344.88
478.783	315.88
479.002	329.88
479.22	353.88
479.439	343.88
479.658	351.88
479.876	342.88
480.095	332.88
480.313	334.88
480.532	345.88
480.751	350.88
480.969	331.88
481.188	330.88
481.406	302.88
481.624	322.88
481.843	308.88
482.061	304.88
482.28	304.88
482.498	308.88
482.717	316.88
482.935	327.88
483.153	325.88
483.372	327.88
483.59	318.88
483.808	317.88
484.027	300.88
484.245	314.88
484.463	302.88
484.681	317.88
484.9	301.88
485.118	334.88
485.336	311.88
485.554	322.88
485.772	320.88
485.99	331.88
486.209	320.88
486.427	322.88
486.645	324.88
486.863	322.88
487.081	325.88
487.299	306.88
487.517	343.88
487.735	339.88
487.953	339.88
488.171	354.88
488.389	324.88
488.607	324.88
488.825	323.88
489.043	304.88
489.261	318.88
489.479	297.88
489.696	324.88
489.914	315.88
490.132	339.88
490.35	327.88
490.568	324.88
490.786	326.88
491.003	334.88
491.221	321.88
491.439	345.88
491.657	352.88
491.874	333.88
492.092	351.88
492.31	361.88
492.527	343.88
492.745	372.88
492.963	353.88
493.18	352.88
493.398	345.88
493.615	331.88
493.833	326.88
494.05	370.88
494.268	369.88
494.485	349.88
494.703	370.88
494.92	330.88
495.138	339.88
495.355	376.88
495.573	356.88
495.79	344.88
496.008	338.88
496.225	344.88
496.442	358.88
496.66	356.88
496.877	339.88
497.094	376.88
497.312	374.88
497.529	386.88
497.746	393.88
497.963	402.88
498.181	387.88
498.398	409.88
498.615	427.88
498.832	452.88
499.049	480.88
499.267	470.88
499.484	540.88
499.701	600.88
499.918	629.88
500.135	705.88
500.352	802.88
500.569	798.88
500.786	798.88
501.003	766.88
501.22	681.88
501.437	637.88
501.654	566.88
501.871	523.88
502.088	488.88
502.305	450.88
502.522	447.88
502.739	427.88
502.956	409.88
503.172	408.88
503.389	396.88
503.606	370.88
503.823	363.88
504.04	370.88
504.256	370.88
504.473	386.88
504.69	383.88
504.907	397.88
505.123	362.88
505.34	354.88
505.557	334.88
505.773	328.88
505.99	341.88
506.207	312.88
506.423	300.88
506.64	321.88
506.856	308.88
507.073	311.88
507.289	316.88
507.506	301.88
507.722	301.88
507.939	313.88
508.155	294.88
508.372	276.88
508.588	301.88
508.805	294.88
509.021	300.88
509.238	292.88
509.454	292.88
509.67	271.88
509.887	275.88
510.103	277.88
510.319	279.88
510.536	276.88
510.752	265.88
510.968	276.88
511.184	280.88
511.401	290.88
511.617	292.88
511.833	280.88
512.049	271.88
512.265	269.88
512.481	283.88
512.698	300.88
512.914	294.88
513.13	291.88
513.346	276.88
513.562	258.88
513.778	289.88
513.994	300.88
514.21	296.88
514.426	295.88
514.642	289.88
514.858	293.88
515.074	290.88
515.29	317.88
515.506	312.88
515.721	287.88
515.937	294.88
516.153	299.88
516.369	285.88
516.585	306.88
516.801	314.88
517.016	334.88
517.232	328.88
517.448	333.88
517.664	361.88
517.879	371.88
518.095	383.88
518.311	361.88
518.527	322.88
518.742	330.88
518.958	328.88
519.173	305.88
519.389	338.88
519.605	303.88
519.82	300.88
520.036	294.88
520.251	299.88
520.467	277.88
520.682	291.88
520.898	289.88
521.113	274.88
521.329	294.88
521.544	274.88
521.76	262.88
521.975	276.88
522.19	278.88
522.406	262.88
522.621	263.88
522.836	249.88
523.052	265.88
523.267	291.88
523.482	268.88
523.698	285.88
523.913	282.88
524.128	260.88
524.343	262.88
524.559	277.88
524.774	266.88
524.989	270.88
525.204	267.88
525.419	258.88
525.634	261.88
525.849	279.88
526.064	262.88
526.28	264.88
526.495	252.88
526.71	260.88
526.925	266.88
527.14	243.88
527.355	252.88
527.57	247.88
527.785	256.88
527.999	233.88
528.214	256.88
528.429	276.88
528.644	266.88
528.859	254.88
529.074	264.88
529.289	266.88
529.503	260.88
529.718	257.88
529.933	262.88
530.148	279.88
530.363	270.88
530.577	252.88
530.792	266.88
531.007	258.88
531.221	258.88
531.436	275.88
531.651	262.88
531.865	266.88
532.08	256.88
532.295	266.88
532.509	263.88
532.724	256.88
532.938	257.88
533.153	246.88
533.367	261.88
533.582	264.88
533.796	263.88
534.011	261.88
534.225	255.88
534.44	249.88
534.654	260.88
534.868	244.88
535.083	283.88
535.297	260.88
535.511	254.88
535.726	278.88
535.94	264.88
536.154	257.88
536.369	233.88
536.583	256.88
536.797	235.88
537.011	232.88
537.225	252.88
537.44	248.88
537.654	233.88
537.868	256.88
538.082	216.88
538.296	242.88
538.51	237.88
538.724	245.88
538.938	251.88
539.153	257.88
539.367	249.88
539.581	224.88
539.795	249.88
540.009	228.88
540.222	242.88
540.436	245.88
540.65	240.88
540.864	220.88
541.078	253.88
541.292	255.88
541.506	266.88
541.72	270.88
541.934	240.88
542.147	246.88
542.361	251.88
542.575	250.88
542.789	236.88
543.002	246.88
543.216	253.88
543.43	246.88
543.644	238.88
543.857	249.88
544.071	257.88
544.285	237.88
544.498	232.88
544.712	251.88
544.925	260.88
545.139	254.88
545.352	234.88
545.566	264.88
545.779	242.88
545.993	252.88
546.206	260.88
546.42	261.88
546.633	260.88
546.847	235.88
547.06	253.88
547.274	248.88
547.487	241.88
547.7	263.88
547.914	264.88
548.127	268.88
548.34	264.88
548.554	259.88
548.767	249.88
548.98	248.88
549.193	257.88
549.407	271.88
549.62	252.88
549.833	256.88
550.046	250.88
550.259	258.88
550.473	262.88
550.686	259.88
550.899	244.88
551.112	248.88
551.325	243.88
551.538	252.88
551.751	245.88
551.964	250.88
552.177	245.88
552.39	260.88
552.603	243.88
552.816	267.88
553.029	262.88
553.242	276.88
553.455	276.88
553.667	268.88
553.88	232.88
554.093	249.88
554.306	258.88
554.519	246.88
554.732	253.88
554.944	260.88
555.157	252.88
555.37	237.88
555.583	225.88
555.795	246.88
556.008	223.88
556.221	230.88
556.433	237.88
556.646	226.88
556.859	233.88
557.071	223.88
557.284	236.88
557.496	234.88
557.709	227.88
557.921	223.88
558.134	225.88
558.346	228.88
558.559	220.88
558.771	230.88
558.984	217.88
559.196	217.88
559.409	217.88
559.621	206.88
559.833	205.88
560.046	198.88
560.258	210.88
560.47	226.88
560.683	241.88
560.895	209.88
561.107	211.88
561.32	220.88
561.532	206.88
561.744	215.88
561.956	220.88
562.168	222.88
562.381	226.88
562.593	226.88
562.805	213.88
563.017	219.88
563.229	213.88
563.441	218.88
563.653	222.88
563.865	219.88
564.077	214.88
564.289	225.88
564.501	221.88
564.713	244.88
564.925	240.88
565.137	219.88
565.349	234.88
565.561	232.88
565.773	243.88
565.985	233.88
566.197	280.88
566.408	268.88
566.62	270.88
566.832	314.88
567.044	299.88
567.255	306.88
567.467	312.88
567.679	326.88
567.891	331.88
568.102	331.88
568.314	320.88
568.526	305.88
568.737	271.88
568.949	257.88
569.161	248.88
569.372	232.88
569.584	221.88
569.795	235.88
570.007	223.88
570.218	221.88
570.43	211.88
570.641	217.88
570.853	225.88
571.064	215.88
571.276	225.88
571.487	217.88
571.698	186.88
571.91	196.88
572.121	212.88
572.333	185.88
572.544	200.88
572.755	175.88
572.966	196.88
573.178	202.88
573.389	188.88
573.6	189.88
573.811	194.88
574.023	184.88
574.234	182.88
574.445	184.88
574.656	189.88
574.867	179.88
575.078	189.88
575.289	193.88
575.501	194.88
575.712	178.88
575.923	192.88
576.134	177.88
576.345	171.88
576.556	188.88
576.767	170.88
576.978	181.88
577.188	190.88
577.399	194.88
577.61	179.88
577.821	171.88
578.032	164.88
578.243	172.88
578.454	178.88
578.665	179.88
578.875	168.88
579.086	176.88
579.297	164.88
579.508	156.88
579.718	171.88
579.929	182.88
580.14	158.88
580.35	181.88
580.561	162.88
580.772	150.88
580.982	168.88
581.193	172.88
581.403	180.88
581.614	180.88
581.825	161.88
582.035	168.88
582.246	168.88
582.456	165.88
582.667	149.88
582.877	167.88
583.087	174.88
583.298	177.88
583.508	162.88
583.719	155.88
583.929	164.88
584.139	159.88
584.35	167.88
584.56	169.88
584.77	166.88
584.981	166.88
585.191	166.88
585.401	161.88
585.611	160.88
585.821	157.88
586.032	158.88
586.242	160.88
586.452	158.88
586.662	165.88
586.872	170.88
587.082	168.88
587.292	160.88
587.502	150.88
587.713	153.88
587.923	169.88
588.133	165.88
588.343	170.88
588.553	184.88
588.762	167.88
588.972	161.88
589.182	162.88
589.392	167.88
589.602	161.88
589.812	163.88
590.022	166.88
590.232	151.88
590.441	160.88
590.651	161.88
590.861	156.88
591.071	154.88
591.281	156.88
591.49	176.88
591.7	163.88
591.91	176.88
592.119	176.88
592.329	172.88
592.539	177.88
592.748	173.88
592.958	184.88
593.167	172.88
593.377	180.88
593.587	190.88
593.796	186.88
594.006	180.88
594.215	195.88
594.424	193.88
594.634	190.88
594.843	179.88
595.053	167.88
595.262	163.88
595.472	168.88
595.681	168.88
595.89	158.88
596.1	156.88
596.309	150.88
596.518	160.88
596.727	172.88
596.937	154.88
597.146	154.88
597.355	150.88
597.564	146.88
597.774	139.88
597.983	150.88
598.192	150.88
598.401	158.88
598.61	128.88
598.819	143.88
599.028	169.88
599.237	136.88
599.446	144.88
599.655	141.88
599.864	149.88
600.073	149.88
600.282	157.88
600.491	161.88
600.7	154.88
600.909	142.88
601.118	139.88
601.327	148.88
601.536	154.88
601.745	158.88
601.953	139.88
602.162	149.88
602.371	144.88
602.58	156.88
602.789	142.88
602.997	162.88
603.206	156.88
603.415	148.88
603.623	147.88
603.832	155.88
604.041	153.88
604.249	150.88
604.458	151.88
604.666	136.88
604.875	145.88
605.084	150.88
605.292	143.88
605.501	137.88
605.709	139.88
605.918	130.88
606.126	136.88
606.334	156.88
606.543	138.88
606.751	153.88
606.96	156.88
607.168	145.88
607.376	136.88
607.585	152.88
607.793	124.88
608.001	142.88
608.21	137.88
608.418	134.88
608.626	146.88
608.834	142.88
609.043	140.88
609.251	145.88
609.459	160.88
609.667	145.88
609.875	152.88
610.083	132.88
610.291	129.88
610.499	122.88
610.707	149.88
610.916	140.88
611.124	130.88
611.332	130.88
611.54	136.88
611.748	127.88
611.955	136.88
612.163	136.88
612.371	126.88
612.579	123.88
612.787	148.88
612.995	139.88
613.203	133.88
613.411	138.88
613.618	144.88
613.826	134.88
614.034	130.88
614.242	151.88
614.449	136.88
614.657	142.88
614.865	125.88
615.072	144.88
615.28	141.88
615.488	126.88
615.695	144.88
615.903	130.88
616.111	136.88
616.318	142.88
616.526	126.88
616.733	140.88
616.941	121.88
617.148	136.88
617.356	134.88
617.563	141.88
617.771	150.88
617.978	134.88
618.185	138.88
618.393	144.88
618.6	131.88
618.807	130.88
619.015	141.88
619.222	128.88
619.429	128.88
619.637	130.88
619.844	132.88
620.051	141.88
620.258	128.88
620.466	128.88
620.673	139.88
620.88	123.88
621.087	106.88
621.294	140.88
621.501	136.88
621.708	139.88
621.915	137.88
622.122	141.88
622.329	149.88
622.536	125.88
622.743	121.88
622.95	133.88
623.157	136.88
623.364	132.88
623.571	132.88
623.778	124.88
623.985	126.88
624.192	141.88
624.399	134.88
624.606	125.88
624.812	139.88
625.019	123.88
625.226	134.88
625.433	134.88
625.639	128.88
625.846	138.88
626.053	128.88
626.259	117.88
626.466	141.88
626.673	132.88
626.879	117.88
627.086	128.88
627.293	134.88
627.499	125.88
627.706	126.88
627.912	109.88
628.119	125.88
628.325	123.88
628.532	144.88
628.738	128.88
628.945	130.88
629.151	132.88
629.357	120.88
629.564	118.88
629.77	124.88
629.976	129.88
630.183	116.88
630.389	126.88
630.595	120.88
630.802	118.88
631.008	134.88
631.214	118.88
631.42	140.88
631.627	108.88
631.833	113.88
632.039	106.88
632.245	123.88
632.451	116.88
632.657	122.88
632.863	123.88
633.069	123.88
633.275	127.88
633.481	134.88
633.688	119.88
633.893	118.88
634.099	122.88
634.305	130.88
634.511	112.88
634.717	104.88
634.923	111.88
635.129	112.88
635.335	119.88
635.541	123.88
635.747	117.88
635.952	124.88
636.158	112.88
636.364	121.88
636.57	126.88
636.775	118.88
636.981	128.88
637.187	115.88
637.392	122.88
637.598	116.88
637.804	112.88
638.009	117.88
638.215	133.88
638.421	124.88
638.626	116.88
638.832	99.88
639.037	125.88
639.243	119.88
639.448	117.88
639.654	120.88
639.859	121.88
640.065	108.88
640.27	118.88
640.475	119.88
640.681	122.88
640.886	125.88
641.091	110.88
641.297	128.88
641.502	123.88
641.707	115.88
641.913	124.88
642.118	119.88
642.323	114.88
642.528	115.88
642.733	112.88
642.939	124.88
643.144	106.88
643.349	110.88
643.554	126.88
643.759	126.88
643.964	115.88
644.169	116.88
644.374	112.88
644.579	120.88
644.784	109.88
644.989	116.88
645.194	130.88
645.399	113.88
645.604	119.88
645.809	112.88
646.014	110.88
646.219	102.88
646.423	98.88
646.628	118.88
646.833	123.88
647.038	122.88
647.243	110.88
647.447	122.88
647.652	124.88
647.857	109.88
648.062	118.88
648.266	106.88
648.471	120.88
648.676	124.88
648.88	100.88
649.085	119.88
649.289	124.88
649.494	117.88
649.698	123.88
649.903	106.88
650.107	102.88
650.312	111.88
650.516	120.88
650.721	113.88
650.925	116.88
651.13	119.88
651.334	97.88
651.539	104.88
651.743	95.88
651.947	91.88
652.152	103.88
652.356	115.88
652.56	100.88
652.764	105.88
652.969	93.88
653.173	95.88
653.377	105.88
653.581	91.88
653.785	95.88
653.99	87.88
654.194	106.88
654.398	104.88
654.602	97.88
654.806	93.88
655.01	94.88
655.214	99.88
655.418	105.88
655.622	103.88
655.826	120.88
656.03	120.88
656.234	107.88
656.438	100.88
656.642	109.88
656.846	89.88
657.049	86.88
657.253	99.88
657.457	104.88
657.661	91.88
657.865	101.88
658.068	98.88
658.272	97.88
658.476	95.88
658.68	89.88
658.883	92.88
659.087	98.88
659.291	83.88
659.494	78.88
659.698	83.88
659.901	90.88
660.105	94.88
660.309	88.88
660.512	86.88
660.716	96.88
660.919	99.88
661.123	101.88
661.326	96.88
661.53	94.88
661.733	104.88
661.936	89.88
662.14	97.88
662.343	99.88
662.546	74.88
662.75	78.88
662.953	87.88
663.156	93.88
663.36	90.88
663.563	97.88
663.766	76.88
663.969	89.88
664.173	81.88
664.376	84.88
664.579	84.88
664.782	94.88
664.985	81.88
665.188	75.88
665.391	81.88
665.594	91.88
665.797	83.88
666	80.88
666.203	91.88
666.406	91.88
666.609	85.88
666.812	78.88
667.015	84.88
667.218	86.88
667.421	84.88
667.624	87.88
667.827	80.88
668.03	77.88
668.232	82.88
668.435	71.88
668.638	77.88
668.841	85.88
669.043	82.88
669.246	82.88
669.449	87.88
669.651	89.88
669.854	78.88
670.057	89.88
670.259	80.88
670.462	85.88
670.665	82.88
670.867	82.88
671.07	91.88
671.272	86.88
671.475	75.88
671.677	85.88
671.88	77.88
672.082	83.88
672.284	94.88
672.487	84.88
672.689	80.88
672.892	81.88
