Data from Fe(NO3)3@0.1M.TitratingCurve.Agarose3%dH2O.NegLispCup.LampEnergy10.LIBS07252019_HRD10591_16-42-01-333.txt Node
Date: Thu Jul 25 16:42:01 EDT 2019
User: cochatt
Spectrometer: HR+D1059
Trigger mode: 1
Integration Time (sec): 1.000000E-1
Scans to average: 1
Electric dark correction enabled: true
Nonlinearity correction enabled: false
Boxcar width: 0
XAxis mode: Wavelengths
Number of Pixels in Spectrum: 2048
>>>>>Begin Spectral Data<<<<<
223.165	-18.94
223.4	-18.94
223.635	-18.94
223.869	-15.94
224.104	-3.94
224.338	-11.94
224.573	-13.94
224.808	-13.94
225.042	-13.94
225.277	-0.94
225.511	6.06
225.746	3.06
225.98	-2.94
226.215	9.06
226.449	17.06
226.683	15.06
226.918	17.06
227.152	29.06
227.387	23.06
227.621	33.06
227.856	39.06
228.09	38.06
228.324	40.06
228.559	41.06
228.793	51.06
229.027	60.06
229.262	64.06
229.496	70.06
229.73	81.06
229.964	75.06
230.199	66.06
230.433	76.06
230.667	82.06
230.901	91.06
231.136	66.06
231.37	79.06
231.604	80.06
231.838	83.06
232.072	102.06
232.306	80.06
232.541	88.06
232.775	83.06
233.009	81.06
233.243	93.06
233.477	83.06
233.711	78.06
233.945	82.06
234.179	91.06
234.413	82.06
234.647	86.06
234.881	72.06
235.115	70.06
235.349	84.06
235.583	83.06
235.817	75.06
236.051	85.06
236.285	89.06
236.519	86.06
236.753	75.06
236.987	86.06
237.221	78.06
237.455	81.06
237.689	89.06
237.922	85.06
238.156	75.06
238.39	70.06
238.624	78.06
238.858	81.06
239.091	73.06
239.325	94.06
239.559	90.06
239.793	77.06
240.027	81.06
240.26	83.06
240.494	73.06
240.728	77.06
240.961	91.06
241.195	72.06
241.429	87.06
241.662	83.06
241.896	89.06
242.13	85.06
242.363	77.06
242.597	84.06
242.83	86.06
243.064	74.06
243.298	80.06
243.531	76.06
243.765	93.06
243.998	99.06
244.232	80.06
244.465	78.06
244.699	86.06
244.932	86.06
245.166	87.06
245.399	84.06
245.633	98.06
245.866	79.06
246.099	84.06
246.333	82.06
246.566	81.06
246.8	95.06
247.033	84.06
247.266	78.06
247.5	83.06
247.733	85.06
247.966	80.06
248.2	90.06
248.433	95.06
248.666	87.06
248.899	93.06
249.133	81.06
249.366	88.06
249.599	93.06
249.832	85.06
250.066	77.06
250.299	80.06
250.532	84.06
250.765	92.06
250.998	95.06
251.231	96.06
251.465	97.06
251.698	97.06
251.931	106.06
252.164	97.06
252.397	105.06
252.63	106.06
252.863	95.06
253.096	90.06
253.329	92.06
253.562	85.06
253.795	82.06
254.028	87.06
254.261	86.06
254.494	97.06
254.727	96.06
254.96	87.06
255.193	90.06
255.426	90.06
255.659	90.06
255.892	94.06
256.124	99.06
256.357	95.06
256.59	94.06
256.823	93.06
257.056	92.06
257.289	99.06
257.521	95.06
257.754	99.06
257.987	91.06
258.22	90.06
258.452	99.06
258.685	114.06
258.918	100.06
259.151	78.06
259.383	106.06
259.616	100.06
259.849	100.06
260.081	104.06
260.314	106.06
260.547	78.06
260.779	94.06
261.012	94.06
261.244	96.06
261.477	99.06
261.71	85.06
261.942	89.06
262.175	92.06
262.407	111.06
262.64	103.06
262.872	100.06
263.105	97.06
263.337	80.06
263.57	102.06
263.802	94.06
264.035	104.06
264.267	100.06
264.499	97.06
264.732	92.06
264.964	93.06
265.197	110.06
265.429	103.06
265.661	114.06
265.894	104.06
266.126	101.06
266.358	91.06
266.591	94.06
266.823	107.06
267.055	111.06
267.287	86.06
267.52	80.06
267.752	101.06
267.984	100.06
268.216	102.06
268.448	98.06
268.681	90.06
268.913	104.06
269.145	96.06
269.377	90.06
269.609	99.06
269.841	103.06
270.073	115.06
270.306	111.06
270.538	91.06
270.77	103.06
271.002	109.06
271.234	118.06
271.466	100.06
271.698	93.06
271.93	104.06
272.162	104.06
272.394	107.06
272.626	84.06
272.858	103.06
273.09	105.06
273.322	114.06
273.553	87.06
273.785	93.06
274.017	108.06
274.249	113.06
274.481	110.06
274.713	103.06
274.945	123.06
275.176	103.06
275.408	110.06
275.64	114.06
275.872	89.06
276.104	88.06
276.335	105.06
276.567	107.06
276.799	114.06
277.031	114.06
277.262	103.06
277.494	98.06
277.726	107.06
277.957	101.06
278.189	100.06
278.421	122.06
278.652	109.06
278.884	121.06
279.115	104.06
279.347	109.06
279.579	109.06
279.81	115.06
280.042	122.06
280.273	106.06
280.505	128.06
280.736	109.06
280.968	112.06
281.199	107.06
281.431	103.06
281.662	108.06
281.894	119.06
282.125	116.06
282.356	110.06
282.588	123.06
282.819	110.06
283.051	120.06
283.282	113.06
283.513	102.06
283.745	126.06
283.976	110.06
284.207	117.06
284.439	121.06
284.67	115.06
284.901	105.06
285.132	124.06
285.364	106.06
285.595	107.06
285.826	103.06
286.057	119.06
286.288	115.06
286.52	124.06
286.751	121.06
286.982	120.06
287.213	114.06
287.444	117.06
287.675	119.06
287.906	117.06
288.138	128.06
288.369	128.06
288.6	118.06
288.831	120.06
289.062	118.06
289.293	111.06
289.524	113.06
289.755	117.06
289.986	126.06
290.217	114.06
290.448	129.06
290.679	110.06
290.91	107.06
291.141	126.06
291.371	115.06
291.602	112.06
291.833	115.06
292.064	115.06
292.295	111.06
292.526	118.06
292.757	122.06
292.987	114.06
293.218	125.06
293.449	136.06
293.68	111.06
293.91	119.06
294.141	118.06
294.372	120.06
294.603	124.06
294.833	103.06
295.064	128.06
295.295	112.06
295.525	112.06
295.756	114.06
295.987	110.06
296.217	118.06
296.448	114.06
296.679	114.06
296.909	123.06
297.14	134.06
297.37	125.06
297.601	121.06
297.831	132.06
298.062	131.06
298.292	135.06
298.523	128.06
298.753	130.06
298.984	108.06
299.214	120.06
299.445	130.06
299.675	133.06
299.905	126.06
300.136	126.06
300.366	120.06
300.597	128.06
300.827	131.06
301.057	129.06
301.288	127.06
301.518	124.06
301.748	132.06
301.979	122.06
302.209	133.06
302.439	138.06
302.669	123.06
302.9	132.06
303.13	125.06
303.36	126.06
303.59	112.06
303.82	137.06
304.051	125.06
304.281	124.06
304.511	118.06
304.741	145.06
304.971	133.06
305.201	127.06
305.431	135.06
305.661	136.06
305.891	119.06
306.121	122.06
306.352	138.06
306.582	140.06
306.812	127.06
307.042	117.06
307.272	146.06
307.502	129.06
307.731	119.06
307.961	130.06
308.191	137.06
308.421	120.06
308.651	128.06
308.881	126.06
309.111	130.06
309.341	123.06
309.571	128.06
309.8	130.06
310.03	123.06
310.26	136.06
310.49	130.06
310.72	138.06
310.949	136.06
311.179	126.06
311.409	111.06
311.639	126.06
311.868	130.06
312.098	136.06
312.328	131.06
312.557	128.06
312.787	143.06
313.017	120.06
313.246	127.06
313.476	129.06
313.706	132.06
313.935	119.06
314.165	119.06
314.394	130.06
314.624	126.06
314.853	131.06
315.083	131.06
315.312	140.06
315.542	123.06
315.771	143.06
316.001	132.06
316.23	136.06
316.46	123.06
316.689	126.06
316.919	130.06
317.148	133.06
317.377	122.06
317.607	129.06
317.836	126.06
318.065	123.06
318.295	134.06
318.524	140.06
318.753	144.06
318.983	136.06
319.212	126.06
319.441	132.06
319.67	136.06
319.9	142.06
320.129	138.06
320.358	127.06
320.587	147.06
320.816	132.06
321.046	134.06
321.275	132.06
321.504	127.06
321.733	132.06
321.962	140.06
322.191	123.06
322.42	135.06
322.649	125.06
322.878	136.06
323.108	137.06
323.337	131.06
323.566	138.06
323.795	149.06
324.024	132.06
324.253	128.06
324.482	139.06
324.71	144.06
324.939	135.06
325.168	140.06
325.397	141.06
325.626	131.06
325.855	146.06
326.084	148.06
326.313	131.06
326.542	134.06
326.77	132.06
326.999	128.06
327.228	139.06
327.457	128.06
327.686	137.06
327.914	136.06
328.143	139.06
328.372	127.06
328.6	155.06
328.829	123.06
329.058	128.06
329.287	138.06
329.515	135.06
329.744	137.06
329.972	146.06
330.201	139.06
330.43	154.06
330.658	130.06
330.887	139.06
331.115	154.06
331.344	146.06
331.572	146.06
331.801	148.06
332.03	139.06
332.258	150.06
332.486	139.06
332.715	137.06
332.943	148.06
333.172	161.06
333.4	155.06
333.629	168.06
333.857	149.06
334.085	144.06
334.314	163.06
334.542	150.06
334.771	150.06
334.999	152.06
335.227	154.06
335.455	147.06
335.684	169.06
335.912	152.06
336.14	159.06
336.369	152.06
336.597	147.06
336.825	159.06
337.053	153.06
337.281	143.06
337.51	144.06
337.738	148.06
337.966	137.06
338.194	155.06
338.422	151.06
338.65	154.06
338.878	134.06
339.106	148.06
339.334	130.06
339.562	154.06
339.79	130.06
340.018	150.06
340.246	122.06
340.474	138.06
340.702	160.06
340.93	148.06
341.158	141.06
341.386	144.06
341.614	141.06
341.842	147.06
342.07	128.06
342.298	146.06
342.526	160.06
342.754	140.06
342.981	140.06
343.209	149.06
343.437	148.06
343.665	152.06
343.893	161.06
344.12	157.06
344.348	131.06
344.576	138.06
344.804	150.06
345.031	144.06
345.259	144.06
345.487	155.06
345.714	147.06
345.942	144.06
346.17	154.06
346.397	149.06
346.625	154.06
346.853	130.06
347.08	132.06
347.308	156.06
347.535	140.06
347.763	155.06
347.99	139.06
348.218	150.06
348.445	139.06
348.673	138.06
348.9	150.06
349.128	146.06
349.355	135.06
349.583	144.06
349.81	150.06
350.037	144.06
350.265	152.06
350.492	151.06
350.72	159.06
350.947	148.06
351.174	137.06
351.402	131.06
351.629	130.06
351.856	152.06
352.083	158.06
352.311	135.06
352.538	146.06
352.765	143.06
352.992	124.06
353.22	156.06
353.447	150.06
353.674	157.06
353.901	140.06
354.128	149.06
354.355	139.06
354.583	147.06
354.81	153.06
355.037	138.06
355.264	146.06
355.491	142.06
355.718	136.06
355.945	162.06
356.172	136.06
356.399	143.06
356.626	131.06
356.853	152.06
357.08	153.06
357.307	151.06
357.534	149.06
357.761	160.06
357.988	160.06
358.215	142.06
358.441	140.06
358.668	130.06
358.895	136.06
359.122	143.06
359.349	139.06
359.576	131.06
359.802	151.06
360.029	146.06
360.256	153.06
360.483	145.06
360.709	156.06
360.936	144.06
361.163	153.06
361.39	142.06
361.616	130.06
361.843	124.06
362.07	148.06
362.296	131.06
362.523	132.06
362.749	140.06
362.976	150.06
363.203	166.06
363.429	152.06
363.656	148.06
363.882	147.06
364.109	134.06
364.335	138.06
364.562	152.06
364.788	140.06
365.015	162.06
365.241	142.06
365.468	147.06
365.694	145.06
365.92	151.06
366.147	158.06
366.373	146.06
366.599	149.06
366.826	155.06
367.052	150.06
367.278	154.06
367.505	153.06
367.731	144.06
367.957	135.06
368.184	140.06
368.41	153.06
368.636	158.06
368.862	147.06
369.089	150.06
369.315	142.06
369.541	158.06
369.767	167.06
369.993	148.06
370.219	151.06
370.445	145.06
370.672	141.06
370.898	154.06
371.124	163.06
371.35	160.06
371.576	157.06
371.802	149.06
372.028	139.06
372.254	173.06
372.48	155.06
372.706	150.06
372.932	155.06
373.158	161.06
373.384	164.06
373.61	170.06
373.835	160.06
374.061	154.06
374.287	167.06
374.513	148.06
374.739	182.06
374.965	170.06
375.191	176.06
375.416	167.06
375.642	164.06
375.868	158.06
376.094	158.06
376.319	151.06
376.545	154.06
376.771	139.06
376.997	167.06
377.222	162.06
377.448	164.06
377.674	160.06
377.899	185.06
378.125	166.06
378.35	141.06
378.576	160.06
378.802	151.06
379.027	164.06
379.253	159.06
379.478	148.06
379.704	160.06
379.929	165.06
380.155	134.06
380.38	150.06
380.606	170.06
380.831	169.06
381.057	169.06
381.282	158.06
381.507	149.06
381.733	176.06
381.958	151.06
382.184	165.06
382.409	159.06
382.634	155.06
382.86	163.06
383.085	163.06
383.31	167.06
383.535	176.06
383.761	156.06
383.986	178.06
384.211	157.06
384.436	172.06
384.662	157.06
384.887	175.06
385.112	171.06
385.337	178.06
385.562	183.06
385.787	184.06
386.013	174.06
386.238	175.06
386.463	187.06
386.688	170.06
386.913	165.06
387.138	167.06
387.363	158.06
387.588	171.06
387.813	175.06
388.038	197.06
388.263	175.06
388.488	176.06
388.713	184.06
388.938	160.06
389.163	168.06
389.387	164.06
389.612	150.06
389.837	154.06
390.062	178.06
390.287	170.06
390.512	163.06
390.736	174.06
390.961	178.06
391.186	175.06
391.411	170.06
391.636	169.06
391.86	179.06
392.085	176.06
392.31	178.06
392.534	179.06
392.759	182.06
392.984	178.06
393.208	177.06
393.433	180.06
393.658	180.06
393.882	187.06
394.107	164.06
394.331	174.06
394.556	179.06
394.78	184.06
395.005	175.06
395.229	176.06
395.454	185.06
395.678	183.06
395.903	188.06
396.127	171.06
396.352	190.06
396.576	182.06
396.801	174.06
397.025	169.06
397.249	178.06
397.474	190.06
397.698	181.06
397.922	201.06
398.147	194.06
398.371	176.06
398.595	195.06
398.82	204.06
399.044	208.06
399.268	222.06
399.492	243.06
399.717	238.06
399.941	232.06
400.165	228.06
400.389	227.06
400.613	200.06
400.837	194.06
401.062	212.06
401.286	211.06
401.51	202.06
401.734	201.06
401.958	216.06
402.182	190.06
402.406	202.06
402.63	206.06
402.854	214.06
403.078	226.06
403.302	206.06
403.526	211.06
403.75	210.06
403.974	202.06
404.198	224.06
404.422	218.06
404.645	223.06
404.869	208.06
405.093	200.06
405.317	198.06
405.541	214.06
405.765	210.06
405.988	210.06
406.212	218.06
406.436	218.06
406.66	209.06
406.883	209.06
407.107	229.06
407.331	230.06
407.555	243.06
407.778	227.06
408.002	234.06
408.226	216.06
408.449	241.06
408.673	233.06
408.896	233.06
409.12	226.06
409.344	229.06
409.567	212.06
409.791	211.06
410.014	209.06
410.238	220.06
410.461	230.06
410.685	218.06
410.908	215.06
411.132	230.06
411.355	220.06
411.578	215.06
411.802	215.06
412.025	202.06
412.249	201.06
412.472	212.06
412.695	202.06
412.919	213.06
413.142	219.06
413.365	208.06
413.589	228.06
413.812	210.06
414.035	206.06
414.258	194.06
414.482	216.06
414.705	215.06
414.928	211.06
415.151	201.06
415.374	213.06
415.597	194.06
415.821	217.06
416.044	203.06
416.267	212.06
416.49	219.06
416.713	213.06
416.936	191.06
417.159	213.06
417.382	200.06
417.605	187.06
417.828	215.06
418.051	204.06
418.274	221.06
418.497	215.06
418.72	229.06
418.943	231.06
419.166	222.06
419.389	212.06
419.611	196.06
419.834	220.06
420.057	214.06
420.28	227.06
420.503	209.06
420.726	231.06
420.948	203.06
421.171	214.06
421.394	208.06
421.617	222.06
421.839	216.06
422.062	209.06
422.285	210.06
422.507	229.06
422.73	215.06
422.953	224.06
423.175	202.06
423.398	230.06
423.621	199.06
423.843	202.06
424.066	238.06
424.288	226.06
424.511	220.06
424.733	215.06
424.956	200.06
425.178	224.06
425.401	206.06
425.623	203.06
425.846	215.06
426.068	200.06
426.291	213.06
426.513	202.06
426.735	220.06
426.958	206.06
427.18	202.06
427.402	211.06
427.625	194.06
427.847	184.06
428.069	210.06
428.292	210.06
428.514	203.06
428.736	219.06
428.958	205.06
429.181	187.06
429.403	208.06
429.625	196.06
429.847	205.06
430.069	216.06
430.292	206.06
430.514	204.06
430.736	212.06
430.958	214.06
431.18	195.06
431.402	208.06
431.624	188.06
431.846	196.06
432.068	199.06
432.29	196.06
432.512	202.06
432.734	198.06
432.956	211.06
433.178	206.06
433.4	212.06
433.622	217.06
433.844	209.06
434.066	203.06
434.287	208.06
434.509	212.06
434.731	229.06
434.953	200.06
435.175	221.06
435.397	234.06
435.618	204.06
435.84	217.06
436.062	212.06
436.284	207.06
436.505	193.06
436.727	201.06
436.949	214.06
437.17	196.06
437.392	212.06
437.614	194.06
437.835	198.06
438.057	199.06
438.278	195.06
438.5	199.06
438.721	205.06
438.943	207.06
439.165	207.06
439.386	212.06
439.608	210.06
439.829	220.06
440.05	209.06
440.272	233.06
440.493	225.06
440.715	232.06
440.936	222.06
441.158	232.06
441.379	222.06
441.6	244.06
441.822	240.06
442.043	234.06
442.264	208.06
442.486	238.06
442.707	248.06
442.928	240.06
443.149	219.06
443.371	235.06
443.592	239.06
443.813	229.06
444.034	234.06
444.255	243.06
444.476	267.06
444.698	247.06
444.919	242.06
445.14	319.06
445.361	285.06
445.582	244.06
445.803	234.06
446.024	232.06
446.245	235.06
446.466	227.06
446.687	227.06
446.908	220.06
447.129	219.06
447.35	212.06
447.571	226.06
447.792	210.06
448.013	215.06
448.234	215.06
448.455	218.06
448.675	220.06
448.896	204.06
449.117	213.06
449.338	215.06
449.559	224.06
449.779	235.06
450	211.06
450.221	219.06
450.442	235.06
450.662	208.06
450.883	200.06
451.104	201.06
451.324	212.06
451.545	214.06
451.766	206.06
451.986	219.06
452.207	207.06
452.428	200.06
452.648	204.06
452.869	203.06
453.089	192.06
453.31	193.06
453.53	209.06
453.751	189.06
453.971	199.06
454.192	202.06
454.412	174.06
454.633	185.06
454.853	197.06
455.073	193.06
455.294	195.06
455.514	194.06
455.734	202.06
455.955	176.06
456.175	203.06
456.395	195.06
456.616	204.06
456.836	181.06
457.056	211.06
457.276	208.06
457.497	186.06
457.717	186.06
457.937	195.06
458.157	176.06
458.377	200.06
458.598	196.06
458.818	197.06
459.038	192.06
459.258	190.06
459.478	222.06
459.698	204.06
459.918	214.06
460.138	229.06
460.358	232.06
460.578	243.06
460.798	235.06
461.018	236.06
461.238	241.06
461.458	229.06
461.678	226.06
461.898	231.06
462.118	236.06
462.338	253.06
462.558	245.06
462.777	247.06
462.997	263.06
463.217	278.06
463.437	284.06
463.657	251.06
463.876	244.06
464.096	260.06
464.316	240.06
464.536	244.06
464.755	246.06
464.975	235.06
465.195	208.06
465.414	211.06
465.634	221.06
465.854	214.06
466.073	213.06
466.293	222.06
466.512	196.06
466.732	211.06
466.951	207.06
467.171	205.06
467.391	201.06
467.61	218.06
467.829	204.06
468.049	206.06
468.268	227.06
468.488	203.06
468.707	229.06
468.927	206.06
469.146	217.06
469.365	222.06
469.585	215.06
469.804	214.06
470.023	228.06
470.243	224.06
470.462	205.06
470.681	212.06
470.901	218.06
471.12	210.06
471.339	201.06
471.558	210.06
471.777	217.06
471.997	200.06
472.216	210.06
472.435	197.06
472.654	204.06
472.873	190.06
473.092	185.06
473.311	196.06
473.53	215.06
473.749	198.06
473.968	206.06
474.187	206.06
474.406	200.06
474.625	195.06
474.844	199.06
475.063	216.06
475.282	202.06
475.501	212.06
475.72	216.06
475.939	203.06
476.158	196.06
476.377	213.06
476.596	219.06
476.814	207.06
477.033	213.06
477.252	195.06
477.471	222.06
477.69	224.06
477.908	234.06
478.127	214.06
478.346	219.06
478.564	219.06
478.783	233.06
479.002	224.06
479.22	222.06
479.439	228.06
479.658	225.06
479.876	240.06
480.095	221.06
480.313	234.06
480.532	226.06
480.751	217.06
480.969	217.06
481.188	204.06
481.406	217.06
481.624	212.06
481.843	226.06
482.061	210.06
482.28	220.06
482.498	231.06
482.717	197.06
482.935	213.06
483.153	208.06
483.372	226.06
483.59	232.06
483.808	224.06
484.027	224.06
484.245	226.06
484.463	226.06
484.681	235.06
484.9	230.06
485.118	229.06
485.336	215.06
485.554	225.06
485.772	215.06
485.99	226.06
486.209	211.06
486.427	222.06
486.645	222.06
486.863	234.06
487.081	234.06
487.299	231.06
487.517	212.06
487.735	236.06
487.953	234.06
488.171	224.06
488.389	245.06
488.607	198.06
488.825	217.06
489.043	220.06
489.261	193.06
489.479	210.06
489.696	205.06
489.914	230.06
490.132	234.06
490.35	222.06
490.568	234.06
490.786	239.06
491.003	239.06
491.221	229.06
491.439	242.06
491.657	242.06
491.874	244.06
492.092	244.06
492.31	244.06
492.527	231.06
492.745	250.06
492.963	240.06
493.18	256.06
493.398	240.06
493.615	230.06
493.833	221.06
494.05	240.06
494.268	262.06
494.485	263.06
494.703	226.06
494.92	223.06
495.138	241.06
495.355	241.06
495.573	231.06
495.79	235.06
496.008	249.06
496.225	258.06
496.442	263.06
496.66	243.06
496.877	240.06
497.094	265.06
497.312	266.06
497.529	270.06
497.746	276.06
497.963	275.06
498.181	272.06
498.398	262.06
498.615	283.06
498.832	283.06
499.049	300.06
499.267	329.06
499.484	324.06
499.701	372.06
499.918	372.06
500.135	397.06
500.352	424.06
500.569	431.06
500.786	451.06
501.003	408.06
501.22	361.06
501.437	364.06
501.654	326.06
501.871	324.06
502.088	274.06
502.305	281.06
502.522	282.06
502.739	266.06
502.956	268.06
503.172	256.06
503.389	252.06
503.606	242.06
503.823	239.06
504.04	241.06
504.256	251.06
504.473	247.06
504.69	261.06
504.907	230.06
505.123	238.06
505.34	225.06
505.557	223.06
505.773	221.06
505.99	212.06
506.207	212.06
506.423	207.06
506.64	208.06
506.856	214.06
507.073	202.06
507.289	213.06
507.506	232.06
507.722	216.06
507.939	224.06
508.155	222.06
508.372	189.06
508.588	207.06
508.805	211.06
509.021	205.06
509.238	208.06
509.454	199.06
509.67	194.06
509.887	184.06
510.103	201.06
510.319	184.06
510.536	197.06
510.752	203.06
510.968	186.06
511.184	196.06
511.401	189.06
511.617	180.06
511.833	192.06
512.049	190.06
512.265	191.06
512.481	183.06
512.698	207.06
512.914	210.06
513.13	201.06
513.346	198.06
513.562	208.06
513.778	202.06
513.994	208.06
514.21	186.06
514.426	188.06
514.642	206.06
514.858	178.06
515.074	192.06
515.29	198.06
515.506	211.06
515.721	198.06
515.937	208.06
516.153	180.06
516.369	224.06
516.585	203.06
516.801	215.06
517.016	204.06
517.232	228.06
517.448	254.06
517.664	241.06
517.879	241.06
518.095	213.06
518.311	223.06
518.527	220.06
518.742	225.06
518.958	213.06
519.173	218.06
519.389	201.06
519.605	211.06
519.82	203.06
520.036	211.06
520.251	194.06
520.467	192.06
520.682	192.06
520.898	192.06
521.113	203.06
521.329	194.06
521.544	169.06
521.76	190.06
521.975	193.06
522.19	188.06
522.406	194.06
522.621	187.06
522.836	208.06
523.052	184.06
523.267	184.06
523.482	188.06
523.698	175.06
523.913	187.06
524.128	215.06
524.343	182.06
524.559	202.06
524.774	178.06
524.989	199.06
525.204	196.06
525.419	195.06
525.634	183.06
525.849	188.06
526.064	169.06
526.28	186.06
526.495	166.06
526.71	170.06
526.925	193.06
527.14	164.06
527.355	174.06
527.57	168.06
527.785	178.06
527.999	171.06
528.214	179.06
528.429	197.06
528.644	180.06
528.859	200.06
529.074	184.06
529.289	170.06
529.503	187.06
529.718	176.06
529.933	178.06
530.148	190.06
530.363	190.06
530.577	176.06
530.792	203.06
531.007	170.06
531.221	180.06
531.436	204.06
531.651	175.06
531.865	168.06
532.08	198.06
532.295	177.06
532.509	171.06
532.724	203.06
532.938	185.06
533.153	178.06
533.367	174.06
533.582	196.06
533.796	180.06
534.011	186.06
534.225	178.06
534.44	187.06
534.654	185.06
534.868	172.06
535.083	175.06
535.297	166.06
535.511	178.06
535.726	179.06
535.94	197.06
536.154	178.06
536.369	168.06
536.583	180.06
536.797	190.06
537.011	179.06
537.225	168.06
537.44	191.06
537.654	187.06
537.868	161.06
538.082	184.06
538.296	161.06
538.51	169.06
538.724	159.06
538.938	163.06
539.153	185.06
539.367	178.06
539.581	176.06
539.795	183.06
540.009	178.06
540.222	172.06
540.436	187.06
540.65	172.06
540.864	171.06
541.078	175.06
541.292	176.06
541.506	178.06
541.72	177.06
541.934	193.06
542.147	190.06
542.361	189.06
542.575	187.06
542.789	177.06
543.002	174.06
543.216	178.06
543.43	170.06
543.644	179.06
543.857	195.06
544.071	171.06
544.285	194.06
544.498	193.06
544.712	200.06
544.925	197.06
545.139	179.06
545.352	168.06
545.566	184.06
545.779	202.06
545.993	199.06
546.206	194.06
546.42	195.06
546.633	184.06
546.847	180.06
547.06	172.06
547.274	201.06
547.487	170.06
547.7	180.06
547.914	176.06
548.127	196.06
548.34	191.06
548.554	177.06
548.767	187.06
548.98	185.06
549.193	191.06
549.407	171.06
549.62	193.06
549.833	174.06
550.046	175.06
550.259	189.06
550.473	164.06
550.686	179.06
550.899	176.06
551.112	180.06
551.325	176.06
551.538	193.06
551.751	172.06
551.964	177.06
552.177	182.06
552.39	169.06
552.603	183.06
552.816	178.06
553.029	196.06
553.242	174.06
553.455	176.06
553.667	183.06
553.88	190.06
554.093	175.06
554.306	163.06
554.519	171.06
554.732	178.06
554.944	172.06
555.157	171.06
555.37	173.06
555.583	182.06
555.795	163.06
556.008	161.06
556.221	163.06
556.433	176.06
556.646	163.06
556.859	173.06
557.071	174.06
557.284	172.06
557.496	167.06
557.709	158.06
557.921	164.06
558.134	160.06
558.346	164.06
558.559	160.06
558.771	166.06
558.984	150.06
559.196	151.06
559.409	153.06
559.621	149.06
559.833	146.06
560.046	158.06
560.258	162.06
560.47	153.06
560.683	163.06
560.895	148.06
561.107	165.06
561.32	154.06
561.532	149.06
561.744	155.06
561.956	150.06
562.168	161.06
562.381	156.06
562.593	158.06
562.805	168.06
563.017	144.06
563.229	159.06
563.441	155.06
563.653	153.06
563.865	165.06
564.077	148.06
564.289	170.06
564.501	174.06
564.713	168.06
564.925	178.06
565.137	164.06
565.349	151.06
565.561	178.06
565.773	179.06
565.985	175.06
566.197	175.06
566.408	210.06
566.62	194.06
566.832	198.06
567.044	214.06
567.255	186.06
567.467	193.06
567.679	207.06
567.891	210.06
568.102	200.06
568.314	193.06
568.526	190.06
568.737	204.06
568.949	179.06
569.161	165.06
569.372	174.06
569.584	154.06
569.795	161.06
570.007	153.06
570.218	156.06
570.43	159.06
570.641	173.06
570.853	151.06
571.064	156.06
571.276	159.06
571.487	163.06
571.698	158.06
571.91	149.06
572.121	152.06
572.333	150.06
572.544	116.06
572.755	158.06
572.966	149.06
573.178	145.06
573.389	152.06
573.6	134.06
573.811	138.06
574.023	128.06
574.234	133.06
574.445	146.06
574.656	144.06
574.867	145.06
575.078	141.06
575.289	143.06
575.501	138.06
575.712	150.06
575.923	137.06
576.134	149.06
576.345	136.06
576.556	130.06
576.767	135.06
576.978	131.06
577.188	136.06
577.399	130.06
577.61	140.06
577.821	129.06
578.032	156.06
578.243	126.06
578.454	138.06
578.665	139.06
578.875	140.06
579.086	127.06
579.297	118.06
579.508	142.06
579.718	134.06
579.929	134.06
580.14	127.06
580.35	137.06
580.561	140.06
580.772	130.06
580.982	127.06
581.193	146.06
581.403	126.06
581.614	129.06
581.825	127.06
582.035	118.06
582.246	142.06
582.456	135.06
582.667	125.06
582.877	141.06
583.087	126.06
583.298	131.06
583.508	134.06
583.719	120.06
583.929	132.06
584.139	137.06
584.35	150.06
584.56	135.06
584.77	127.06
584.981	133.06
585.191	122.06
585.401	130.06
585.611	127.06
585.821	122.06
586.032	113.06
586.242	141.06
586.452	130.06
586.662	126.06
586.872	124.06
587.082	121.06
587.292	111.06
587.502	127.06
587.713	127.06
587.923	135.06
588.133	138.06
588.343	154.06
588.553	132.06
588.762	130.06
588.972	136.06
589.182	129.06
589.392	124.06
589.602	128.06
589.812	150.06
590.022	130.06
590.232	132.06
590.441	136.06
590.651	130.06
590.861	112.06
591.071	121.06
591.281	126.06
591.49	146.06
591.7	116.06
591.91	131.06
592.119	141.06
592.329	148.06
592.539	137.06
592.748	131.06
592.958	134.06
593.167	138.06
593.377	122.06
593.587	132.06
593.796	144.06
594.006	147.06
594.215	134.06
594.424	134.06
594.634	131.06
594.843	138.06
595.053	150.06
595.262	139.06
595.472	128.06
595.681	139.06
595.89	138.06
596.1	114.06
596.309	124.06
596.518	135.06
596.727	115.06
596.937	122.06
597.146	120.06
597.355	117.06
597.564	132.06
597.774	126.06
597.983	130.06
598.192	120.06
598.401	134.06
598.61	131.06
598.819	117.06
599.028	111.06
599.237	115.06
599.446	116.06
599.655	132.06
599.864	132.06
600.073	106.06
600.282	121.06
600.491	113.06
600.7	118.06
600.909	110.06
601.118	106.06
601.327	130.06
601.536	122.06
601.745	132.06
601.953	112.06
602.162	123.06
602.371	108.06
602.58	120.06
602.789	119.06
602.997	128.06
603.206	115.06
603.415	112.06
603.623	121.06
603.832	114.06
604.041	124.06
604.249	121.06
604.458	98.06
604.666	118.06
604.875	116.06
605.084	121.06
605.292	132.06
605.501	120.06
605.709	112.06
605.918	112.06
606.126	119.06
606.334	130.06
606.543	121.06
606.751	113.06
606.96	115.06
607.168	132.06
607.376	124.06
607.585	114.06
607.793	112.06
608.001	124.06
608.21	116.06
608.418	120.06
608.626	110.06
608.834	118.06
609.043	132.06
609.251	111.06
609.459	119.06
609.667	129.06
609.875	106.06
610.083	108.06
610.291	119.06
610.499	114.06
610.707	121.06
610.916	125.06
611.124	114.06
611.332	109.06
611.54	106.06
611.748	122.06
611.955	100.06
612.163	130.06
612.371	126.06
612.579	115.06
612.787	108.06
612.995	102.06
613.203	84.06
613.411	112.06
613.618	114.06
613.826	121.06
614.034	135.06
614.242	128.06
614.449	116.06
614.657	128.06
614.865	123.06
615.072	118.06
615.28	105.06
615.488	112.06
615.695	114.06
615.903	102.06
616.111	116.06
616.318	122.06
616.526	123.06
616.733	111.06
616.941	103.06
617.148	110.06
617.356	115.06
617.563	110.06
617.771	121.06
617.978	113.06
618.185	129.06
618.393	109.06
618.6	102.06
618.807	126.06
619.015	111.06
619.222	119.06
619.429	110.06
619.637	114.06
619.844	114.06
620.051	122.06
620.258	116.06
620.466	120.06
620.673	94.06
620.88	99.06
621.087	102.06
621.294	108.06
621.501	119.06
621.708	127.06
621.915	110.06
622.122	114.06
622.329	115.06
622.536	122.06
622.743	103.06
622.95	107.06
623.157	105.06
623.364	99.06
623.571	101.06
623.778	106.06
623.985	108.06
624.192	115.06
624.399	107.06
624.606	118.06
624.812	106.06
625.019	114.06
625.226	100.06
625.433	112.06
625.639	121.06
625.846	100.06
626.053	105.06
626.259	116.06
626.466	109.06
626.673	105.06
626.879	99.06
627.086	96.06
627.293	102.06
627.499	112.06
627.706	110.06
627.912	108.06
628.119	120.06
628.325	98.06
628.532	116.06
628.738	104.06
628.945	102.06
629.151	111.06
629.357	108.06
629.564	106.06
629.77	104.06
629.976	97.06
630.183	118.06
630.389	111.06
630.595	104.06
630.802	108.06
631.008	110.06
631.214	90.06
631.42	114.06
631.627	117.06
631.833	106.06
632.039	114.06
632.245	104.06
632.451	106.06
632.657	100.06
632.863	97.06
633.069	106.06
633.275	80.06
633.481	121.06
633.688	120.06
633.893	122.06
634.099	115.06
634.305	119.06
634.511	96.06
634.717	105.06
634.923	101.06
635.129	98.06
635.335	122.06
635.541	111.06
635.747	119.06
635.952	97.06
636.158	116.06
636.364	102.06
636.57	93.06
636.775	110.06
636.981	104.06
637.187	100.06
637.392	100.06
637.598	102.06
637.804	112.06
638.009	108.06
638.215	106.06
638.421	98.06
638.626	109.06
638.832	102.06
639.037	105.06
639.243	109.06
639.448	108.06
639.654	97.06
639.859	98.06
640.065	106.06
640.27	121.06
640.475	97.06
640.681	104.06
640.886	105.06
641.091	105.06
641.297	114.06
641.502	114.06
641.707	95.06
641.913	110.06
642.118	103.06
642.323	109.06
642.528	89.06
642.733	94.06
642.939	96.06
643.144	123.06
643.349	97.06
643.554	113.06
643.759	120.06
643.964	99.06
644.169	102.06
644.374	109.06
644.579	94.06
644.784	116.06
644.989	96.06
645.194	118.06
645.399	112.06
645.604	102.06
645.809	113.06
646.014	103.06
646.219	114.06
646.423	103.06
646.628	102.06
646.833	127.06
647.038	120.06
647.243	97.06
647.447	108.06
647.652	98.06
647.857	110.06
648.062	125.06
648.266	110.06
648.471	97.06
648.676	94.06
648.88	107.06
649.085	103.06
649.289	105.06
649.494	96.06
649.698	102.06
649.903	100.06
650.107	97.06
650.312	104.06
650.516	106.06
650.721	91.06
650.925	89.06
651.13	99.06
651.334	104.06
651.539	102.06
651.743	105.06
651.947	91.06
652.152	106.06
652.356	97.06
652.56	114.06
652.764	112.06
652.969	100.06
653.173	91.06
653.377	95.06
653.581	96.06
653.785	106.06
653.99	92.06
654.194	100.06
654.398	102.06
654.602	96.06
654.806	100.06
655.01	109.06
655.214	114.06
655.418	107.06
655.622	110.06
655.826	114.06
656.03	104.06
656.234	106.06
656.438	119.06
656.642	91.06
656.846	113.06
657.049	96.06
657.253	104.06
657.457	112.06
657.661	103.06
657.865	114.06
658.068	94.06
658.272	94.06
658.476	98.06
658.68	91.06
658.883	82.06
659.087	88.06
659.291	107.06
659.494	94.06
659.698	99.06
659.901	93.06
660.105	98.06
660.309	87.06
660.512	95.06
660.716	95.06
660.919	94.06
661.123	82.06
661.326	86.06
661.53	84.06
661.733	80.06
661.936	93.06
662.14	79.06
662.343	76.06
662.546	88.06
662.75	99.06
662.953	77.06
663.156	74.06
663.36	74.06
663.563	73.06
663.766	85.06
663.969	79.06
664.173	87.06
664.376	81.06
664.579	77.06
664.782	80.06
664.985	71.06
665.188	88.06
665.391	82.06
665.594	77.06
665.797	75.06
666	87.06
666.203	73.06
666.406	74.06
666.609	85.06
666.812	94.06
667.015	79.06
667.218	76.06
667.421	75.06
667.624	81.06
667.827	76.06
668.03	84.06
668.232	79.06
668.435	95.06
668.638	77.06
668.841	89.06
669.043	79.06
669.246	78.06
669.449	80.06
669.651	77.06
669.854	76.06
670.057	76.06
670.259	74.06
670.462	64.06
670.665	64.06
670.867	87.06
671.07	89.06
671.272	91.06
671.475	86.06
671.677	80.06
671.88	74.06
672.082	82.06
672.284	72.06
672.487	80.06
672.689	72.06
672.892	89.06
