Data from Fe(NO3)3@0.05M.TitratingCurve.Agarose3%dH2O.NegLispCup.LampEnergy10.LIBS07252019_HRD10591_16-46-17-334.txt Node
Date: Thu Jul 25 16:46:17 EDT 2019
User: cochatt
Spectrometer: HR+D1059
Trigger mode: 1
Integration Time (sec): 1.000000E-1
Scans to average: 1
Electric dark correction enabled: true
Nonlinearity correction enabled: false
Boxcar width: 0
XAxis mode: Wavelengths
Number of Pixels in Spectrum: 2048
>>>>>Begin Spectral Data<<<<<
223.165	-16.31
223.4	-16.31
223.635	-16.31
223.869	-30.31
224.104	-24.31
224.338	-14.31
224.573	-25.31
224.808	-25.31
225.042	-11.31
225.277	13.69
225.511	2.69
225.746	2.69
225.98	8.69
226.215	19.69
226.449	12.69
226.683	18.69
226.918	27.69
227.152	40.69
227.387	28.69
227.621	46.69
227.856	55.69
228.09	52.69
228.324	47.69
228.559	62.69
228.793	73.69
229.027	115.69
229.262	118.69
229.496	109.69
229.73	116.69
229.964	132.69
230.199	122.69
230.433	131.69
230.667	132.69
230.901	139.69
231.136	145.69
231.37	122.69
231.604	146.69
231.838	136.69
232.072	144.69
232.306	154.69
232.541	146.69
232.775	160.69
233.009	144.69
233.243	153.69
233.477	164.69
233.711	172.69
233.945	150.69
234.179	159.69
234.413	188.69
234.647	168.69
234.881	178.69
235.115	165.69
235.349	179.69
235.583	165.69
235.817	159.69
236.051	169.69
236.285	184.69
236.519	176.69
236.753	183.69
236.987	162.69
237.221	174.69
237.455	185.69
237.689	189.69
237.922	181.69
238.156	181.69
238.39	194.69
238.624	213.69
238.858	216.69
239.091	197.69
239.325	193.69
239.559	201.69
239.793	202.69
240.027	229.69
240.26	231.69
240.494	214.69
240.728	197.69
240.961	202.69
241.195	216.69
241.429	237.69
241.662	224.69
241.896	225.69
242.13	217.69
242.363	205.69
242.597	224.69
242.83	233.69
243.064	220.69
243.298	208.69
243.531	216.69
243.765	245.69
243.998	217.69
244.232	231.69
244.465	236.69
244.699	238.69
244.932	228.69
245.166	246.69
245.399	264.69
245.633	232.69
245.866	248.69
246.099	244.69
246.333	254.69
246.566	265.69
246.8	260.69
247.033	247.69
247.266	263.69
247.5	264.69
247.733	270.69
247.966	272.69
248.2	251.69
248.433	266.69
248.666	253.69
248.899	267.69
249.133	288.69
249.366	297.69
249.599	309.69
249.832	294.69
250.066	296.69
250.299	289.69
250.532	281.69
250.765	278.69
250.998	284.69
251.231	291.69
251.465	296.69
251.698	293.69
251.931	305.69
252.164	296.69
252.397	312.69
252.63	305.69
252.863	305.69
253.096	322.69
253.329	330.69
253.562	321.69
253.795	318.69
254.028	350.69
254.261	351.69
254.494	320.69
254.727	330.69
254.96	332.69
255.193	336.69
255.426	335.69
255.659	333.69
255.892	337.69
256.124	353.69
256.357	336.69
256.59	347.69
256.823	362.69
257.056	357.69
257.289	338.69
257.521	349.69
257.754	344.69
257.987	319.69
258.22	346.69
258.452	345.69
258.685	353.69
258.918	352.69
259.151	330.69
259.383	373.69
259.616	364.69
259.849	374.69
260.081	434.69
260.314	446.69
260.547	406.69
260.779	376.69
261.012	410.69
261.244	413.69
261.477	414.69
261.71	416.69
261.942	383.69
262.175	398.69
262.407	382.69
262.64	386.69
262.872	405.69
263.105	421.69
263.337	416.69
263.57	413.69
263.802	388.69
264.035	388.69
264.267	392.69
264.499	385.69
264.732	364.69
264.964	392.69
265.197	394.69
265.429	400.69
265.661	402.69
265.894	378.69
266.126	405.69
266.358	390.69
266.591	413.69
266.823	402.69
267.055	400.69
267.287	406.69
267.52	404.69
267.752	394.69
267.984	414.69
268.216	408.69
268.448	430.69
268.681	415.69
268.913	421.69
269.145	434.69
269.377	444.69
269.609	407.69
269.841	442.69
270.073	417.69
270.306	420.69
270.538	432.69
270.77	416.69
271.002	431.69
271.234	430.69
271.466	440.69
271.698	442.69
271.93	442.69
272.162	444.69
272.394	452.69
272.626	444.69
272.858	477.69
273.09	457.69
273.322	466.69
273.553	472.69
273.785	469.69
274.017	485.69
274.249	546.69
274.481	526.69
274.713	515.69
274.945	569.69
275.176	563.69
275.408	546.69
275.64	531.69
275.872	528.69
276.104	510.69
276.335	508.69
276.567	485.69
276.799	478.69
277.031	517.69
277.262	482.69
277.494	480.69
277.726	482.69
277.957	484.69
278.189	484.69
278.421	509.69
278.652	518.69
278.884	513.69
279.115	483.69
279.347	496.69
279.579	489.69
279.81	489.69
280.042	492.69
280.273	514.69
280.505	504.69
280.736	515.69
280.968	496.69
281.199	532.69
281.431	521.69
281.662	532.69
281.894	513.69
282.125	532.69
282.356	526.69
282.588	542.69
282.819	526.69
283.051	518.69
283.282	518.69
283.513	527.69
283.745	524.69
283.976	540.69
284.207	534.69
284.439	553.69
284.67	554.69
284.901	570.69
285.132	540.69
285.364	537.69
285.595	537.69
285.826	557.69
286.057	551.69
286.288	552.69
286.52	572.69
286.751	550.69
286.982	535.69
287.213	564.69
287.444	574.69
287.675	566.69
287.906	592.69
288.138	553.69
288.369	550.69
288.6	582.69
288.831	579.69
289.062	553.69
289.293	553.69
289.524	566.69
289.755	583.69
289.986	567.69
290.217	553.69
290.448	568.69
290.679	578.69
290.91	564.69
291.141	576.69
291.371	570.69
291.602	585.69
291.833	587.69
292.064	593.69
292.295	581.69
292.526	586.69
292.757	584.69
292.987	581.69
293.218	563.69
293.449	577.69
293.68	564.69
293.91	572.69
294.141	575.69
294.372	552.69
294.603	590.69
294.833	591.69
295.064	580.69
295.295	580.69
295.525	563.69
295.756	591.69
295.987	553.69
296.217	596.69
296.448	612.69
296.679	601.69
296.909	606.69
297.14	618.69
297.37	629.69
297.601	613.69
297.831	600.69
298.062	611.69
298.292	600.69
298.523	623.69
298.753	637.69
298.984	634.69
299.214	629.69
299.445	632.69
299.675	635.69
299.905	631.69
300.136	618.69
300.366	613.69
300.597	660.69
300.827	664.69
301.057	640.69
301.288	642.69
301.518	641.69
301.748	664.69
301.979	658.69
302.209	684.69
302.439	666.69
302.669	661.69
302.9	664.69
303.13	656.69
303.36	670.69
303.59	644.69
303.82	661.69
304.051	657.69
304.281	677.69
304.511	633.69
304.741	651.69
304.971	669.69
305.201	666.69
305.431	668.69
305.661	676.69
305.891	661.69
306.121	671.69
306.352	632.69
306.582	648.69
306.812	666.69
307.042	661.69
307.272	665.69
307.502	649.69
307.731	662.69
307.961	661.69
308.191	682.69
308.421	688.69
308.651	653.69
308.881	652.69
309.111	672.69
309.341	647.69
309.571	677.69
309.8	660.69
310.03	658.69
310.26	650.69
310.49	645.69
310.72	664.69
310.949	681.69
311.179	678.69
311.409	689.69
311.639	693.69
311.868	696.69
312.098	674.69
312.328	697.69
312.557	716.69
312.787	673.69
313.017	700.69
313.246	705.69
313.476	689.69
313.706	689.69
313.935	690.69
314.165	698.69
314.394	690.69
314.624	716.69
314.853	712.69
315.083	719.69
315.312	720.69
315.542	737.69
315.771	721.69
316.001	707.69
316.23	704.69
316.46	718.69
316.689	728.69
316.919	727.69
317.148	733.69
317.377	741.69
317.607	726.69
317.836	708.69
318.065	719.69
318.295	739.69
318.524	717.69
318.753	735.69
318.983	726.69
319.212	735.69
319.441	732.69
319.67	716.69
319.9	707.69
320.129	752.69
320.358	740.69
320.587	712.69
320.816	739.69
321.046	740.69
321.275	745.69
321.504	751.69
321.733	722.69
321.962	751.69
322.191	752.69
322.42	749.69
322.649	754.69
322.878	756.69
323.108	741.69
323.337	742.69
323.566	752.69
323.795	755.69
324.024	751.69
324.253	749.69
324.482	745.69
324.71	752.69
324.939	761.69
325.168	778.69
325.397	783.69
325.626	770.69
325.855	770.69
326.084	781.69
326.313	788.69
326.542	776.69
326.77	786.69
326.999	802.69
327.228	796.69
327.457	774.69
327.686	792.69
327.914	772.69
328.143	778.69
328.372	812.69
328.6	814.69
328.829	787.69
329.058	800.69
329.287	786.69
329.515	800.69
329.744	786.69
329.972	800.69
330.201	809.69
330.43	816.69
330.658	792.69
330.887	818.69
331.115	808.69
331.344	812.69
331.572	822.69
331.801	843.69
332.03	842.69
332.258	846.69
332.486	861.69
332.715	882.69
332.943	866.69
333.172	879.69
333.4	882.69
333.629	891.69
333.857	910.69
334.085	912.69
334.314	922.69
334.542	944.69
334.771	940.69
334.999	928.69
335.227	932.69
335.455	952.69
335.684	933.69
335.912	951.69
336.14	928.69
336.369	925.69
336.597	919.69
336.825	916.69
337.053	905.69
337.281	916.69
337.51	906.69
337.738	906.69
337.966	897.69
338.194	869.69
338.422	879.69
338.65	860.69
338.878	861.69
339.106	892.69
339.334	889.69
339.562	878.69
339.79	865.69
340.018	868.69
340.246	848.69
340.474	857.69
340.702	840.69
340.93	862.69
341.158	867.69
341.386	842.69
341.614	823.69
341.842	811.69
342.07	817.69
342.298	851.69
342.526	851.69
342.754	825.69
342.981	862.69
343.209	840.69
343.437	849.69
343.665	866.69
343.893	916.69
344.12	904.69
344.348	910.69
344.576	905.69
344.804	895.69
345.031	876.69
345.259	884.69
345.487	853.69
345.714	852.69
345.942	840.69
346.17	834.69
346.397	816.69
346.625	851.69
346.853	822.69
347.08	829.69
347.308	834.69
347.535	826.69
347.763	816.69
347.99	832.69
348.218	814.69
348.445	801.69
348.673	796.69
348.9	824.69
349.128	813.69
349.355	792.69
349.583	835.69
349.81	798.69
350.037	805.69
350.265	786.69
350.492	812.69
350.72	809.69
350.947	770.69
351.174	778.69
351.402	813.69
351.629	796.69
351.856	796.69
352.083	823.69
352.311	799.69
352.538	797.69
352.765	806.69
352.992	816.69
353.22	793.69
353.447	776.69
353.674	784.69
353.901	787.69
354.128	791.69
354.355	770.69
354.583	816.69
354.81	822.69
355.037	818.69
355.264	794.69
355.491	813.69
355.718	805.69
355.945	834.69
356.172	823.69
356.399	849.69
356.626	812.69
356.853	812.69
357.08	808.69
357.307	800.69
357.534	795.69
357.761	808.69
357.988	841.69
358.215	824.69
358.441	798.69
358.668	796.69
358.895	786.69
359.122	787.69
359.349	812.69
359.576	797.69
359.802	785.69
360.029	783.69
360.256	793.69
360.483	809.69
360.709	815.69
360.936	820.69
361.163	797.69
361.39	796.69
361.616	805.69
361.843	799.69
362.07	840.69
362.296	825.69
362.523	823.69
362.749	828.69
362.976	818.69
363.203	817.69
363.429	820.69
363.656	817.69
363.882	800.69
364.109	828.69
364.335	824.69
364.562	824.69
364.788	817.69
365.015	819.69
365.241	814.69
365.468	801.69
365.694	810.69
365.92	825.69
366.147	827.69
366.373	847.69
366.599	816.69
366.826	838.69
367.052	818.69
367.278	827.69
367.505	822.69
367.731	837.69
367.957	817.69
368.184	836.69
368.41	843.69
368.636	853.69
368.862	853.69
369.089	862.69
369.315	848.69
369.541	850.69
369.767	874.69
369.993	866.69
370.219	862.69
370.445	870.69
370.672	898.69
370.898	882.69
371.124	889.69
371.35	892.69
371.576	882.69
371.802	916.69
372.028	912.69
372.254	893.69
372.48	902.69
372.706	905.69
372.932	918.69
373.158	920.69
373.384	918.69
373.61	917.69
373.835	969.69
374.061	917.69
374.287	925.69
374.513	907.69
374.739	952.69
374.965	962.69
375.191	987.69
375.416	949.69
375.642	933.69
375.868	917.69
376.094	933.69
376.319	918.69
376.545	908.69
376.771	912.69
376.997	901.69
377.222	885.69
377.448	892.69
377.674	892.69
377.899	909.69
378.125	901.69
378.35	900.69
378.576	874.69
378.802	888.69
379.027	892.69
379.253	887.69
379.478	898.69
379.704	900.69
379.929	900.69
380.155	889.69
380.38	921.69
380.606	905.69
380.831	888.69
381.057	904.69
381.282	907.69
381.507	893.69
381.733	912.69
381.958	951.69
382.184	949.69
382.409	958.69
382.634	962.69
382.86	954.69
383.085	960.69
383.31	952.69
383.535	953.69
383.761	935.69
383.986	976.69
384.211	998.69
384.436	1027.69
384.662	984.69
384.887	1012.69
385.112	1013.69
385.337	1011.69
385.562	1030.69
385.787	1074.69
386.013	1070.69
386.238	1084.69
386.463	1059.69
386.688	1026.69
386.913	1058.69
387.138	1028.69
387.363	1032.69
387.588	1038.69
387.813	1054.69
388.038	1065.69
388.263	1046.69
388.488	1067.69
388.713	1078.69
388.938	1043.69
389.163	1030.69
389.387	1057.69
389.612	1061.69
389.837	1037.69
390.062	1061.69
390.287	1073.69
390.512	1055.69
390.736	1075.69
390.961	1079.69
391.186	1050.69
391.411	1101.69
391.636	1097.69
391.86	1117.69
392.085	1139.69
392.31	1112.69
392.534	1103.69
392.759	1130.69
392.984	1124.69
393.208	1120.69
393.433	1136.69
393.658	1111.69
393.882	1134.69
394.107	1113.69
394.331	1113.69
394.556	1109.69
394.78	1133.69
395.005	1144.69
395.229	1091.69
395.454	1150.69
395.678	1132.69
395.903	1155.69
396.127	1170.69
396.352	1149.69
396.576	1123.69
396.801	1161.69
397.025	1177.69
397.249	1193.69
397.474	1194.69
397.698	1154.69
397.922	1193.69
398.147	1192.69
398.371	1207.69
398.595	1209.69
398.82	1249.69
399.044	1293.69
399.268	1380.69
399.492	1416.69
399.717	1486.69
399.941	1512.69
400.165	1475.69
400.389	1473.69
400.613	1369.69
400.837	1359.69
401.062	1343.69
401.286	1324.69
401.51	1306.69
401.734	1287.69
401.958	1313.69
402.182	1294.69
402.406	1279.69
402.63	1268.69
402.854	1274.69
403.078	1303.69
403.302	1276.69
403.526	1301.69
403.75	1317.69
403.974	1328.69
404.198	1314.69
404.422	1321.69
404.645	1353.69
404.869	1333.69
405.093	1336.69
405.317	1287.69
405.541	1324.69
405.765	1390.69
405.988	1361.69
406.212	1382.69
406.436	1372.69
406.66	1436.69
406.883	1404.69
407.107	1415.69
407.331	1436.69
407.555	1500.69
407.778	1486.69
408.002	1472.69
408.226	1497.69
408.449	1505.69
408.673	1447.69
408.896	1450.69
409.12	1390.69
409.344	1401.69
409.567	1397.69
409.791	1416.69
410.014	1404.69
410.238	1375.69
410.461	1380.69
410.685	1398.69
410.908	1362.69
411.132	1374.69
411.355	1322.69
411.578	1344.69
411.802	1338.69
412.025	1340.69
412.249	1364.69
412.472	1351.69
412.695	1334.69
412.919	1350.69
413.142	1294.69
413.365	1335.69
413.589	1341.69
413.812	1328.69
414.035	1300.69
414.258	1323.69
414.482	1328.69
414.705	1333.69
414.928	1268.69
415.151	1313.69
415.374	1319.69
415.597	1290.69
415.821	1283.69
416.044	1246.69
416.267	1288.69
416.49	1260.69
416.713	1294.69
416.936	1298.69
417.159	1242.69
417.382	1250.69
417.605	1252.69
417.828	1262.69
418.051	1264.69
418.274	1244.69
418.497	1234.69
418.72	1279.69
418.943	1254.69
419.166	1316.69
419.389	1364.69
419.611	1373.69
419.834	1346.69
420.057	1302.69
420.28	1282.69
420.503	1216.69
420.726	1211.69
420.948	1214.69
421.171	1214.69
421.394	1221.69
421.617	1254.69
421.839	1233.69
422.062	1247.69
422.285	1231.69
422.507	1273.69
422.73	1230.69
422.953	1229.69
423.175	1226.69
423.398	1249.69
423.621	1249.69
423.843	1250.69
424.066	1256.69
424.288	1239.69
424.511	1262.69
424.733	1248.69
424.956	1199.69
425.178	1262.69
425.401	1257.69
425.623	1236.69
425.846	1189.69
426.068	1208.69
426.291	1208.69
426.513	1225.69
426.735	1212.69
426.958	1207.69
427.18	1174.69
427.402	1205.69
427.625	1198.69
427.847	1156.69
428.069	1164.69
428.292	1192.69
428.514	1189.69
428.736	1171.69
428.958	1211.69
429.181	1162.69
429.403	1174.69
429.625	1156.69
429.847	1186.69
430.069	1189.69
430.292	1175.69
430.514	1156.69
430.736	1162.69
430.958	1167.69
431.18	1174.69
431.402	1186.69
431.624	1153.69
431.846	1147.69
432.068	1170.69
432.29	1193.69
432.512	1165.69
432.734	1209.69
432.956	1207.69
433.178	1198.69
433.4	1223.69
433.622	1217.69
433.844	1245.69
434.066	1212.69
434.287	1171.69
434.509	1205.69
434.731	1221.69
434.953	1232.69
435.175	1233.69
435.397	1244.69
435.618	1223.69
435.84	1210.69
436.062	1160.69
436.284	1178.69
436.505	1192.69
436.727	1219.69
436.949	1188.69
437.17	1160.69
437.392	1172.69
437.614	1151.69
437.835	1141.69
438.057	1147.69
438.278	1107.69
438.5	1168.69
438.721	1172.69
438.943	1134.69
439.165	1151.69
439.386	1181.69
439.608	1160.69
439.829	1186.69
440.05	1172.69
440.272	1161.69
440.493	1186.69
440.715	1192.69
440.936	1198.69
441.158	1202.69
441.379	1188.69
441.6	1227.69
441.822	1227.69
442.043	1249.69
442.264	1233.69
442.486	1197.69
442.707	1227.69
442.928	1211.69
443.149	1224.69
443.371	1228.69
443.592	1236.69
443.813	1237.69
444.034	1235.69
444.255	1245.69
444.476	1257.69
444.698	1302.69
444.919	1318.69
445.14	1423.69
445.361	1327.69
445.582	1288.69
445.803	1233.69
446.024	1185.69
446.245	1232.69
446.466	1223.69
446.687	1153.69
446.908	1192.69
447.129	1156.69
447.35	1145.69
447.571	1142.69
447.792	1122.69
448.013	1134.69
448.234	1108.69
448.455	1112.69
448.675	1093.69
448.896	1062.69
449.117	1067.69
449.338	1112.69
449.559	1097.69
449.779	1097.69
450	1101.69
450.221	1084.69
450.442	1106.69
450.662	1080.69
450.883	1077.69
451.104	1086.69
451.324	1082.69
451.545	1074.69
451.766	1056.69
451.986	1073.69
452.207	1096.69
452.428	1058.69
452.648	1056.69
452.869	1022.69
453.089	1052.69
453.31	1050.69
453.53	1037.69
453.751	1059.69
453.971	1048.69
454.192	1059.69
454.412	1030.69
454.633	1054.69
454.853	1040.69
455.073	1048.69
455.294	1074.69
455.514	1034.69
455.734	1026.69
455.955	1031.69
456.175	1039.69
456.395	1043.69
456.616	1045.69
456.836	1035.69
457.056	1054.69
457.276	1041.69
457.497	1073.69
457.717	1068.69
457.937	1080.69
458.157	1068.69
458.377	1068.69
458.598	1092.69
458.818	1078.69
459.038	1119.69
459.258	1139.69
459.478	1165.69
459.698	1208.69
459.918	1166.69
460.138	1190.69
460.358	1210.69
460.578	1242.69
460.798	1258.69
461.018	1258.69
461.238	1271.69
461.458	1271.69
461.678	1281.69
461.898	1328.69
462.118	1340.69
462.338	1314.69
462.558	1331.69
462.777	1383.69
462.997	1416.69
463.217	1462.69
463.437	1496.69
463.657	1435.69
463.876	1432.69
464.096	1432.69
464.316	1371.69
464.536	1377.69
464.755	1332.69
464.975	1338.69
465.195	1316.69
465.414	1274.69
465.634	1237.69
465.854	1224.69
466.073	1186.69
466.293	1158.69
466.512	1177.69
466.732	1172.69
466.951	1190.69
467.171	1164.69
467.391	1142.69
467.61	1134.69
467.829	1119.69
468.049	1113.69
468.268	1109.69
468.488	1114.69
468.707	1086.69
468.927	1129.69
469.146	1127.69
469.365	1107.69
469.585	1089.69
469.804	1151.69
470.023	1185.69
470.243	1139.69
470.462	1129.69
470.681	1146.69
470.901	1161.69
471.12	1136.69
471.339	1170.69
471.558	1153.69
471.777	1158.69
471.997	1118.69
472.216	1145.69
472.435	1118.69
472.654	1125.69
472.873	1118.69
473.092	1122.69
473.311	1153.69
473.53	1100.69
473.749	1102.69
473.968	1109.69
474.187	1114.69
474.406	1116.69
474.625	1119.69
474.844	1173.69
475.063	1142.69
475.282	1168.69
475.501	1142.69
475.72	1166.69
475.939	1135.69
476.158	1167.69
476.377	1199.69
476.596	1218.69
476.814	1201.69
477.033	1234.69
477.252	1196.69
477.471	1234.69
477.69	1205.69
477.908	1232.69
478.127	1286.69
478.346	1276.69
478.564	1270.69
478.783	1288.69
479.002	1311.69
479.22	1347.69
479.439	1369.69
479.658	1351.69
479.876	1339.69
480.095	1342.69
480.313	1382.69
480.532	1390.69
480.751	1346.69
480.969	1338.69
481.188	1339.69
481.406	1357.69
481.624	1363.69
481.843	1316.69
482.061	1326.69
482.28	1333.69
482.498	1352.69
482.717	1317.69
482.935	1340.69
483.153	1351.69
483.372	1318.69
483.59	1302.69
483.808	1309.69
484.027	1309.69
484.245	1344.69
484.463	1342.69
484.681	1394.69
484.9	1338.69
485.118	1368.69
485.336	1340.69
485.554	1370.69
485.772	1345.69
485.99	1341.69
486.209	1326.69
486.427	1367.69
486.645	1352.69
486.863	1399.69
487.081	1346.69
487.299	1362.69
487.517	1353.69
487.735	1359.69
487.953	1384.69
488.171	1392.69
488.389	1359.69
488.607	1344.69
488.825	1354.69
489.043	1337.69
489.261	1330.69
489.479	1358.69
489.696	1371.69
489.914	1330.69
490.132	1351.69
490.35	1335.69
490.568	1367.69
490.786	1352.69
491.003	1391.69
491.221	1384.69
491.439	1385.69
491.657	1389.69
491.874	1380.69
492.092	1397.69
492.31	1435.69
492.527	1428.69
492.745	1421.69
492.963	1401.69
493.18	1386.69
493.398	1408.69
493.615	1399.69
493.833	1407.69
494.05	1391.69
494.268	1399.69
494.485	1407.69
494.703	1409.69
494.92	1443.69
495.138	1438.69
495.355	1408.69
495.573	1434.69
495.79	1461.69
496.008	1478.69
496.225	1486.69
496.442	1500.69
496.66	1520.69
496.877	1508.69
497.094	1548.69
497.312	1552.69
497.529	1589.69
497.746	1581.69
497.963	1636.69
498.181	1682.69
498.398	1726.69
498.615	1785.69
498.832	1862.69
499.049	1936.69
499.267	1960.69
499.484	2119.69
499.701	2179.69
499.918	2286.69
500.135	2448.69
500.352	2524.69
500.569	2586.69
500.786	2566.69
501.003	2488.69
501.22	2405.69
501.437	2284.69
501.654	2161.69
501.871	2100.69
502.088	1986.69
502.305	1902.69
502.522	1852.69
502.739	1784.69
502.956	1732.69
503.172	1672.69
503.389	1673.69
503.606	1604.69
503.823	1584.69
504.04	1577.69
504.256	1586.69
504.473	1542.69
504.69	1506.69
504.907	1500.69
505.123	1439.69
505.34	1430.69
505.557	1424.69
505.773	1395.69
505.99	1362.69
506.207	1315.69
506.423	1304.69
506.64	1318.69
506.856	1302.69
507.073	1274.69
507.289	1276.69
507.506	1240.69
507.722	1284.69
507.939	1261.69
508.155	1234.69
508.372	1213.69
508.588	1233.69
508.805	1214.69
509.021	1182.69
509.238	1167.69
509.454	1180.69
509.67	1176.69
509.887	1140.69
510.103	1176.69
510.319	1156.69
510.536	1162.69
510.752	1119.69
510.968	1122.69
511.184	1107.69
511.401	1140.69
511.617	1148.69
511.833	1139.69
512.049	1121.69
512.265	1126.69
512.481	1139.69
512.698	1111.69
512.914	1145.69
513.13	1143.69
513.346	1136.69
513.562	1108.69
513.778	1129.69
513.994	1134.69
514.21	1150.69
514.426	1154.69
514.642	1145.69
514.858	1190.69
515.074	1146.69
515.29	1199.69
515.506	1156.69
515.721	1191.69
515.937	1210.69
516.153	1188.69
516.369	1202.69
516.585	1223.69
516.801	1253.69
517.016	1272.69
517.232	1241.69
517.448	1298.69
517.664	1305.69
517.879	1279.69
518.095	1276.69
518.311	1285.69
518.527	1247.69
518.742	1252.69
518.958	1238.69
519.173	1221.69
519.389	1174.69
519.605	1199.69
519.82	1186.69
520.036	1214.69
520.251	1160.69
520.467	1141.69
520.682	1146.69
520.898	1117.69
521.113	1113.69
521.329	1101.69
521.544	1104.69
521.76	1093.69
521.975	1082.69
522.19	1059.69
522.406	1066.69
522.621	1051.69
522.836	1073.69
523.052	1079.69
523.267	1045.69
523.482	1030.69
523.698	1056.69
523.913	1035.69
524.128	1028.69
524.343	1029.69
524.559	996.69
524.774	1017.69
524.989	1042.69
525.204	1062.69
525.419	1063.69
525.634	1032.69
525.849	1023.69
526.064	1024.69
526.28	1024.69
526.495	1026.69
526.71	1015.69
526.925	1006.69
527.14	993.69
527.355	993.69
527.57	999.69
527.785	1004.69
527.999	970.69
528.214	989.69
528.429	975.69
528.644	969.69
528.859	999.69
529.074	996.69
529.289	996.69
529.503	993.69
529.718	1009.69
529.933	975.69
530.148	969.69
530.363	980.69
530.577	1000.69
530.792	976.69
531.007	953.69
531.221	974.69
531.436	967.69
531.651	960.69
531.865	981.69
532.08	961.69
532.295	967.69
532.509	938.69
532.724	981.69
532.938	944.69
533.153	944.69
533.367	955.69
533.582	940.69
533.796	954.69
534.011	970.69
534.225	959.69
534.44	955.69
534.654	958.69
534.868	946.69
535.083	961.69
535.297	964.69
535.511	918.69
535.726	939.69
535.94	933.69
536.154	912.69
536.369	914.69
536.583	933.69
536.797	927.69
537.011	912.69
537.225	881.69
537.44	904.69
537.654	878.69
537.868	916.69
538.082	892.69
538.296	885.69
538.51	888.69
538.724	930.69
538.938	908.69
539.153	865.69
539.367	897.69
539.581	904.69
539.795	915.69
540.009	892.69
540.222	887.69
540.436	869.69
540.65	883.69
540.864	886.69
541.078	850.69
541.292	865.69
541.506	886.69
541.72	894.69
541.934	854.69
542.147	901.69
542.361	878.69
542.575	861.69
542.789	882.69
543.002	870.69
543.216	869.69
543.43	855.69
543.644	833.69
543.857	871.69
544.071	848.69
544.285	882.69
544.498	882.69
544.712	896.69
544.925	863.69
545.139	863.69
545.352	860.69
545.566	889.69
545.779	896.69
545.993	889.69
546.206	881.69
546.42	863.69
546.633	884.69
546.847	862.69
547.06	867.69
547.274	890.69
547.487	878.69
547.7	880.69
547.914	877.69
548.127	882.69
548.34	905.69
548.554	889.69
548.767	872.69
548.98	882.69
549.193	886.69
549.407	883.69
549.62	899.69
549.833	890.69
550.046	900.69
550.259	895.69
550.473	846.69
550.686	864.69
550.899	888.69
551.112	874.69
551.325	879.69
551.538	868.69
551.751	876.69
551.964	861.69
552.177	860.69
552.39	856.69
552.603	870.69
552.816	880.69
553.029	886.69
553.242	880.69
553.455	890.69
553.667	880.69
553.88	877.69
554.093	858.69
554.306	867.69
554.519	855.69
554.732	844.69
554.944	845.69
555.157	833.69
555.37	821.69
555.583	805.69
555.795	785.69
556.008	780.69
556.221	797.69
556.433	796.69
556.646	777.69
556.859	760.69
557.071	775.69
557.284	734.69
557.496	794.69
557.709	757.69
557.921	751.69
558.134	752.69
558.346	740.69
558.559	735.69
558.771	717.69
558.984	732.69
559.196	722.69
559.409	731.69
559.621	768.69
559.833	745.69
560.046	729.69
560.258	719.69
560.47	726.69
560.683	762.69
560.895	740.69
561.107	750.69
561.32	758.69
561.532	748.69
561.744	719.69
561.956	739.69
562.168	775.69
562.381	766.69
562.593	733.69
562.805	746.69
563.017	737.69
563.229	738.69
563.441	745.69
563.653	730.69
563.865	755.69
564.077	750.69
564.289	741.69
564.501	783.69
564.713	805.69
564.925	784.69
565.137	784.69
565.349	823.69
565.561	797.69
565.773	820.69
565.985	849.69
566.197	848.69
566.408	885.69
566.62	917.69
566.832	937.69
567.044	976.69
567.255	945.69
567.467	959.69
567.679	946.69
567.891	968.69
568.102	964.69
568.314	929.69
568.526	910.69
568.737	905.69
568.949	850.69
569.161	809.69
569.372	798.69
569.584	762.69
569.795	773.69
570.007	760.69
570.218	742.69
570.43	720.69
570.641	714.69
570.853	721.69
571.064	691.69
571.276	708.69
571.487	693.69
571.698	668.69
571.91	678.69
572.121	668.69
572.333	637.69
572.544	630.69
572.755	642.69
572.966	625.69
573.178	617.69
573.389	607.69
573.6	626.69
573.811	617.69
574.023	606.69
574.234	617.69
574.445	608.69
574.656	612.69
574.867	593.69
575.078	585.69
575.289	599.69
575.501	583.69
575.712	575.69
575.923	574.69
576.134	579.69
576.345	567.69
576.556	574.69
576.767	559.69
576.978	569.69
577.188	569.69
577.399	580.69
577.61	572.69
577.821	563.69
578.032	553.69
578.243	549.69
578.454	538.69
578.665	537.69
578.875	551.69
579.086	540.69
579.297	534.69
579.508	542.69
579.718	532.69
579.929	532.69
580.14	510.69
580.35	513.69
580.561	509.69
580.772	515.69
580.982	522.69
581.193	517.69
581.403	522.69
581.614	509.69
581.825	510.69
582.035	484.69
582.246	509.69
582.456	494.69
582.667	521.69
582.877	496.69
583.087	500.69
583.298	511.69
583.508	492.69
583.719	486.69
583.929	496.69
584.139	485.69
584.35	474.69
584.56	485.69
584.77	498.69
584.981	492.69
585.191	511.69
585.401	500.69
585.611	494.69
585.821	474.69
586.032	481.69
586.242	490.69
586.452	484.69
586.662	509.69
586.872	475.69
587.082	484.69
587.292	473.69
587.502	477.69
587.713	473.69
587.923	465.69
588.133	467.69
588.343	483.69
588.553	479.69
588.762	480.69
588.972	484.69
589.182	511.69
589.392	498.69
589.602	464.69
589.812	503.69
590.022	496.69
590.232	480.69
590.441	497.69
590.651	478.69
590.861	465.69
591.071	476.69
591.281	492.69
591.49	477.69
591.7	487.69
591.91	490.69
592.119	499.69
592.329	512.69
592.539	490.69
592.748	490.69
592.958	503.69
593.167	494.69
593.377	514.69
593.587	500.69
593.796	538.69
594.006	513.69
594.215	525.69
594.424	518.69
594.634	500.69
594.843	517.69
595.053	500.69
595.262	493.69
595.472	455.69
595.681	476.69
595.89	458.69
596.1	477.69
596.309	440.69
596.518	458.69
596.727	439.69
596.937	433.69
597.146	444.69
597.355	428.69
597.564	431.69
597.774	401.69
597.983	421.69
598.192	408.69
598.401	429.69
598.61	401.69
598.819	407.69
599.028	395.69
599.237	408.69
599.446	419.69
599.655	424.69
599.864	404.69
600.073	386.69
600.282	410.69
600.491	403.69
600.7	420.69
600.909	400.69
601.118	368.69
601.327	393.69
601.536	377.69
601.745	389.69
601.953	400.69
602.162	393.69
602.371	402.69
602.58	389.69
602.789	382.69
602.997	371.69
603.206	391.69
603.415	373.69
603.623	380.69
603.832	372.69
604.041	356.69
604.249	360.69
604.458	373.69
604.666	374.69
604.875	367.69
605.084	378.69
605.292	367.69
605.501	356.69
605.709	368.69
605.918	374.69
606.126	398.69
606.334	375.69
606.543	378.69
606.751	365.69
606.96	364.69
607.168	370.69
607.376	357.69
607.585	342.69
607.793	317.69
608.001	353.69
608.21	353.69
608.418	355.69
608.626	339.69
608.834	358.69
609.043	367.69
609.251	360.69
609.459	341.69
609.667	348.69
609.875	349.69
610.083	351.69
610.291	359.69
610.499	356.69
610.707	327.69
610.916	352.69
611.124	358.69
611.332	357.69
611.54	343.69
611.748	353.69
611.955	351.69
612.163	353.69
612.371	327.69
612.579	342.69
612.787	359.69
612.995	344.69
613.203	340.69
613.411	364.69
613.618	330.69
613.826	326.69
614.034	330.69
614.242	334.69
614.449	340.69
614.657	369.69
614.865	343.69
615.072	343.69
615.28	358.69
615.488	326.69
615.695	327.69
615.903	333.69
616.111	335.69
616.318	329.69
616.526	338.69
616.733	344.69
616.941	342.69
617.148	325.69
617.356	337.69
617.563	318.69
617.771	340.69
617.978	311.69
618.185	341.69
618.393	322.69
618.6	317.69
618.807	316.69
619.015	336.69
619.222	322.69
619.429	307.69
619.637	320.69
619.844	327.69
620.051	322.69
620.258	315.69
620.466	316.69
620.673	318.69
620.88	310.69
621.087	307.69
621.294	320.69
621.501	318.69
621.708	325.69
621.915	320.69
622.122	317.69
622.329	302.69
622.536	305.69
622.743	295.69
622.95	309.69
623.157	306.69
623.364	297.69
623.571	296.69
623.778	301.69
623.985	304.69
624.192	313.69
624.399	305.69
624.606	288.69
624.812	288.69
625.019	306.69
625.226	297.69
625.433	308.69
625.639	298.69
625.846	288.69
626.053	289.69
626.259	300.69
626.466	288.69
626.673	297.69
626.879	262.69
627.086	290.69
627.293	272.69
627.499	296.69
627.706	277.69
627.912	287.69
628.119	311.69
628.325	276.69
628.532	282.69
628.738	288.69
628.945	288.69
629.151	276.69
629.357	274.69
629.564	255.69
629.77	270.69
629.976	267.69
630.183	268.69
630.389	270.69
630.595	273.69
630.802	264.69
631.008	270.69
631.214	254.69
631.42	275.69
631.627	264.69
631.833	263.69
632.039	256.69
632.245	265.69
632.451	275.69
632.657	272.69
632.863	253.69
633.069	266.69
633.275	252.69
633.481	256.69
633.688	260.69
633.893	267.69
634.099	262.69
634.305	261.69
634.511	261.69
634.717	264.69
634.923	264.69
635.129	273.69
635.335	233.69
635.541	251.69
635.747	244.69
635.952	258.69
636.158	233.69
636.364	240.69
636.57	238.69
636.775	250.69
636.981	254.69
637.187	253.69
637.392	258.69
637.598	262.69
637.804	260.69
638.009	270.69
638.215	241.69
638.421	233.69
638.626	241.69
638.832	254.69
639.037	242.69
639.243	213.69
639.448	228.69
639.654	246.69
639.859	236.69
640.065	218.69
640.27	237.69
640.475	227.69
640.681	236.69
640.886	254.69
641.091	255.69
641.297	253.69
641.502	234.69
641.707	239.69
641.913	250.69
642.118	241.69
642.323	223.69
642.528	232.69
642.733	225.69
642.939	221.69
643.144	227.69
643.349	232.69
643.554	200.69
643.759	231.69
643.964	226.69
644.169	223.69
644.374	233.69
644.579	242.69
644.784	220.69
644.989	226.69
645.194	266.69
645.399	243.69
645.604	235.69
645.809	221.69
646.014	224.69
646.219	243.69
646.423	241.69
646.628	239.69
646.833	237.69
647.038	245.69
647.243	222.69
647.447	239.69
647.652	236.69
647.857	248.69
648.062	248.69
648.266	217.69
648.471	244.69
648.676	236.69
648.88	226.69
649.085	230.69
649.289	239.69
649.494	237.69
649.698	233.69
649.903	222.69
650.107	241.69
650.312	238.69
650.516	222.69
650.721	232.69
650.925	222.69
651.13	227.69
651.334	214.69
651.539	207.69
651.743	230.69
651.947	219.69
652.152	225.69
652.356	203.69
652.56	223.69
652.764	213.69
652.969	215.69
653.173	212.69
653.377	197.69
653.581	206.69
653.785	209.69
653.99	205.69
654.194	219.69
654.398	194.69
654.602	184.69
654.806	187.69
655.01	212.69
655.214	207.69
655.418	204.69
655.622	194.69
655.826	199.69
656.03	213.69
656.234	214.69
656.438	204.69
656.642	190.69
656.846	189.69
657.049	199.69
657.253	204.69
657.457	166.69
657.661	179.69
657.865	165.69
658.068	155.69
658.272	160.69
658.476	151.69
658.68	144.69
658.883	131.69
659.087	130.69
659.291	132.69
659.494	122.69
659.698	113.69
659.901	108.69
660.105	119.69
660.309	110.69
660.512	104.69
660.716	104.69
660.919	104.69
661.123	95.69
661.326	105.69
661.53	102.69
661.733	101.69
661.936	98.69
662.14	100.69
662.343	92.69
662.546	79.69
662.75	98.69
662.953	82.69
663.156	101.69
663.36	82.69
663.563	89.69
663.766	72.69
663.969	75.69
664.173	72.69
664.376	81.69
664.579	75.69
664.782	86.69
664.985	99.69
665.188	80.69
665.391	80.69
665.594	71.69
665.797	73.69
666	80.69
666.203	81.69
666.406	75.69
666.609	80.69
666.812	92.69
667.015	79.69
667.218	76.69
667.421	72.69
667.624	66.69
667.827	95.69
668.03	81.69
668.232	86.69
668.435	78.69
668.638	65.69
668.841	61.69
669.043	73.69
669.246	74.69
669.449	70.69
669.651	76.69
669.854	81.69
670.057	77.69
670.259	74.69
670.462	77.69
670.665	68.69
670.867	72.69
671.07	85.69
671.272	95.69
671.475	74.69
671.677	80.69
671.88	70.69
672.082	68.69
672.284	85.69
672.487	95.69
672.689	89.69
672.892	79.69
