Data from Fe(NO3)3@0.1M.TitratingCurve.Agarose3%dH2O.NegLispCup.LampEnergy10.LIBS07252019_HRD10591_16-37-29-331.txt Node
Date: Thu Jul 25 16:37:29 EDT 2019
User: cochatt
Spectrometer: HR+D1059
Trigger mode: 1
Integration Time (sec): 1.000000E-1
Scans to average: 1
Electric dark correction enabled: true
Nonlinearity correction enabled: false
Boxcar width: 0
XAxis mode: Wavelengths
Number of Pixels in Spectrum: 2048
>>>>>Begin Spectral Data<<<<<
223.165	-24.62
223.4	-24.62
223.635	-24.62
223.869	-12.62
224.104	-21.62
224.338	-13.62
224.573	-2.62
224.808	-13.62
225.042	-19.62
225.277	-1.62
225.511	9.38
225.746	0.38
225.98	15.38
226.215	10.38
226.449	4.38
226.683	9.38
226.918	22.38
227.152	38.38
227.387	37.38
227.621	33.38
227.856	33.38
228.09	45.38
228.324	48.38
228.559	47.38
228.793	61.38
229.027	64.38
229.262	71.38
229.496	71.38
229.73	67.38
229.964	71.38
230.199	84.38
230.433	76.38
230.667	77.38
230.901	74.38
231.136	85.38
231.37	76.38
231.604	93.38
231.838	86.38
232.072	71.38
232.306	79.38
232.541	84.38
232.775	89.38
233.009	87.38
233.243	92.38
233.477	102.38
233.711	93.38
233.945	94.38
234.179	82.38
234.413	96.38
234.647	90.38
234.881	78.38
235.115	68.38
235.349	92.38
235.583	75.38
235.817	102.38
236.051	70.38
236.285	93.38
236.519	77.38
236.753	70.38
236.987	84.38
237.221	81.38
237.455	81.38
237.689	84.38
237.922	85.38
238.156	87.38
238.39	85.38
238.624	95.38
238.858	78.38
239.091	65.38
239.325	79.38
239.559	82.38
239.793	79.38
240.027	74.38
240.26	88.38
240.494	74.38
240.728	82.38
240.961	85.38
241.195	82.38
241.429	85.38
241.662	89.38
241.896	79.38
242.13	105.38
242.363	93.38
242.597	78.38
242.83	79.38
243.064	70.38
243.298	89.38
243.531	72.38
243.765	85.38
243.998	73.38
244.232	103.38
244.465	91.38
244.699	86.38
244.932	87.38
245.166	75.38
245.399	77.38
245.633	72.38
245.866	87.38
246.099	79.38
246.333	84.38
246.566	89.38
246.8	65.38
247.033	88.38
247.266	97.38
247.5	73.38
247.733	97.38
247.966	101.38
248.2	96.38
248.433	98.38
248.666	98.38
248.899	99.38
249.133	89.38
249.366	90.38
249.599	72.38
249.832	81.38
250.066	85.38
250.299	97.38
250.532	101.38
250.765	92.38
250.998	83.38
251.231	98.38
251.465	79.38
251.698	98.38
251.931	84.38
252.164	78.38
252.397	91.38
252.63	100.38
252.863	97.38
253.096	80.38
253.329	103.38
253.562	91.38
253.795	91.38
254.028	97.38
254.261	97.38
254.494	100.38
254.727	105.38
254.96	91.38
255.193	91.38
255.426	114.38
255.659	93.38
255.892	98.38
256.124	97.38
256.357	95.38
256.59	103.38
256.823	85.38
257.056	90.38
257.289	85.38
257.521	80.38
257.754	97.38
257.987	95.38
258.22	85.38
258.452	95.38
258.685	95.38
258.918	97.38
259.151	90.38
259.383	81.38
259.616	90.38
259.849	94.38
260.081	110.38
260.314	94.38
260.547	93.38
260.779	90.38
261.012	93.38
261.244	87.38
261.477	107.38
261.71	93.38
261.942	105.38
262.175	101.38
262.407	87.38
262.64	85.38
262.872	94.38
263.105	105.38
263.337	87.38
263.57	93.38
263.802	89.38
264.035	92.38
264.267	97.38
264.499	100.38
264.732	118.38
264.964	87.38
265.197	102.38
265.429	90.38
265.661	110.38
265.894	101.38
266.126	108.38
266.358	102.38
266.591	103.38
266.823	115.38
267.055	92.38
267.287	103.38
267.52	98.38
267.752	81.38
267.984	117.38
268.216	100.38
268.448	99.38
268.681	90.38
268.913	97.38
269.145	93.38
269.377	118.38
269.609	99.38
269.841	92.38
270.073	99.38
270.306	106.38
270.538	98.38
270.77	109.38
271.002	94.38
271.234	110.38
271.466	98.38
271.698	114.38
271.93	101.38
272.162	95.38
272.394	88.38
272.626	94.38
272.858	105.38
273.09	94.38
273.322	113.38
273.553	120.38
273.785	119.38
274.017	108.38
274.249	102.38
274.481	117.38
274.713	106.38
274.945	119.38
275.176	122.38
275.408	106.38
275.64	115.38
275.872	105.38
276.104	105.38
276.335	88.38
276.567	102.38
276.799	107.38
277.031	109.38
277.262	93.38
277.494	94.38
277.726	94.38
277.957	123.38
278.189	113.38
278.421	107.38
278.652	105.38
278.884	117.38
279.115	120.38
279.347	101.38
279.579	94.38
279.81	95.38
280.042	97.38
280.273	110.38
280.505	107.38
280.736	110.38
280.968	107.38
281.199	110.38
281.431	99.38
281.662	102.38
281.894	112.38
282.125	121.38
282.356	87.38
282.588	117.38
282.819	114.38
283.051	127.38
283.282	118.38
283.513	115.38
283.745	108.38
283.976	107.38
284.207	101.38
284.439	117.38
284.67	117.38
284.901	118.38
285.132	104.38
285.364	101.38
285.595	108.38
285.826	102.38
286.057	120.38
286.288	115.38
286.52	108.38
286.751	125.38
286.982	120.38
287.213	109.38
287.444	123.38
287.675	114.38
287.906	110.38
288.138	115.38
288.369	119.38
288.6	107.38
288.831	125.38
289.062	113.38
289.293	117.38
289.524	120.38
289.755	109.38
289.986	91.38
290.217	109.38
290.448	107.38
290.679	116.38
290.91	111.38
291.141	133.38
291.371	119.38
291.602	119.38
291.833	113.38
292.064	109.38
292.295	115.38
292.526	103.38
292.757	114.38
292.987	104.38
293.218	107.38
293.449	116.38
293.68	115.38
293.91	124.38
294.141	119.38
294.372	109.38
294.603	110.38
294.833	120.38
295.064	111.38
295.295	125.38
295.525	121.38
295.756	108.38
295.987	126.38
296.217	107.38
296.448	108.38
296.679	122.38
296.909	106.38
297.14	119.38
297.37	119.38
297.601	108.38
297.831	104.38
298.062	131.38
298.292	103.38
298.523	114.38
298.753	129.38
298.984	118.38
299.214	107.38
299.445	121.38
299.675	122.38
299.905	122.38
300.136	127.38
300.366	122.38
300.597	114.38
300.827	111.38
301.057	123.38
301.288	116.38
301.518	120.38
301.748	123.38
301.979	118.38
302.209	115.38
302.439	125.38
302.669	127.38
302.9	109.38
303.13	120.38
303.36	115.38
303.59	119.38
303.82	127.38
304.051	125.38
304.281	127.38
304.511	123.38
304.741	119.38
304.971	119.38
305.201	122.38
305.431	113.38
305.661	109.38
305.891	119.38
306.121	114.38
306.352	120.38
306.582	116.38
306.812	122.38
307.042	125.38
307.272	121.38
307.502	116.38
307.731	133.38
307.961	127.38
308.191	124.38
308.421	127.38
308.651	125.38
308.881	118.38
309.111	134.38
309.341	129.38
309.571	110.38
309.8	123.38
310.03	118.38
310.26	113.38
310.49	125.38
310.72	120.38
310.949	131.38
311.179	128.38
311.409	129.38
311.639	121.38
311.868	114.38
312.098	116.38
312.328	133.38
312.557	132.38
312.787	127.38
313.017	123.38
313.246	117.38
313.476	122.38
313.706	128.38
313.935	118.38
314.165	122.38
314.394	125.38
314.624	139.38
314.853	130.38
315.083	117.38
315.312	139.38
315.542	121.38
315.771	110.38
316.001	120.38
316.23	115.38
316.46	113.38
316.689	122.38
316.919	122.38
317.148	134.38
317.377	110.38
317.607	131.38
317.836	131.38
318.065	123.38
318.295	129.38
318.524	113.38
318.753	135.38
318.983	122.38
319.212	133.38
319.441	143.38
319.67	135.38
319.9	141.38
320.129	132.38
320.358	113.38
320.587	112.38
320.816	118.38
321.046	129.38
321.275	137.38
321.504	122.38
321.733	128.38
321.962	135.38
322.191	131.38
322.42	122.38
322.649	129.38
322.878	126.38
323.108	126.38
323.337	133.38
323.566	131.38
323.795	124.38
324.024	129.38
324.253	125.38
324.482	130.38
324.71	119.38
324.939	140.38
325.168	136.38
325.397	140.38
325.626	143.38
325.855	136.38
326.084	128.38
326.313	116.38
326.542	129.38
326.77	139.38
326.999	116.38
327.228	115.38
327.457	130.38
327.686	133.38
327.914	120.38
328.143	134.38
328.372	124.38
328.6	118.38
328.829	126.38
329.058	129.38
329.287	127.38
329.515	123.38
329.744	122.38
329.972	142.38
330.201	124.38
330.43	120.38
330.658	131.38
330.887	137.38
331.115	127.38
331.344	118.38
331.572	129.38
331.801	133.38
332.03	139.38
332.258	141.38
332.486	142.38
332.715	143.38
332.943	133.38
333.172	154.38
333.4	143.38
333.629	154.38
333.857	143.38
334.085	146.38
334.314	127.38
334.542	123.38
334.771	149.38
334.999	124.38
335.227	138.38
335.455	137.38
335.684	136.38
335.912	144.38
336.14	138.38
336.369	149.38
336.597	126.38
336.825	150.38
337.053	135.38
337.281	141.38
337.51	135.38
337.738	137.38
337.966	133.38
338.194	128.38
338.422	128.38
338.65	130.38
338.878	132.38
339.106	129.38
339.334	125.38
339.562	139.38
339.79	137.38
340.018	150.38
340.246	120.38
340.474	126.38
340.702	137.38
340.93	132.38
341.158	122.38
341.386	134.38
341.614	137.38
341.842	126.38
342.07	132.38
342.298	144.38
342.526	135.38
342.754	130.38
342.981	139.38
343.209	141.38
343.437	140.38
343.665	141.38
343.893	145.38
344.12	151.38
344.348	136.38
344.576	136.38
344.804	125.38
345.031	129.38
345.259	132.38
345.487	117.38
345.714	117.38
345.942	129.38
346.17	118.38
346.397	125.38
346.625	133.38
346.853	124.38
347.08	139.38
347.308	126.38
347.535	121.38
347.763	127.38
347.99	122.38
348.218	134.38
348.445	138.38
348.673	125.38
348.9	121.38
349.128	130.38
349.355	135.38
349.583	126.38
349.81	144.38
350.037	129.38
350.265	126.38
350.492	128.38
350.72	146.38
350.947	129.38
351.174	124.38
351.402	138.38
351.629	129.38
351.856	131.38
352.083	139.38
352.311	144.38
352.538	131.38
352.765	146.38
352.992	125.38
353.22	125.38
353.447	137.38
353.674	135.38
353.901	126.38
354.128	143.38
354.355	133.38
354.583	131.38
354.81	126.38
355.037	125.38
355.264	132.38
355.491	139.38
355.718	132.38
355.945	131.38
356.172	127.38
356.399	140.38
356.626	135.38
356.853	118.38
357.08	134.38
357.307	134.38
357.534	131.38
357.761	138.38
357.988	125.38
358.215	143.38
358.441	149.38
358.668	115.38
358.895	149.38
359.122	125.38
359.349	127.38
359.576	135.38
359.802	126.38
360.029	134.38
360.256	123.38
360.483	130.38
360.709	133.38
360.936	124.38
361.163	131.38
361.39	125.38
361.616	137.38
361.843	141.38
362.07	134.38
362.296	121.38
362.523	137.38
362.749	137.38
362.976	146.38
363.203	139.38
363.429	125.38
363.656	137.38
363.882	120.38
364.109	140.38
364.335	129.38
364.562	135.38
364.788	137.38
365.015	136.38
365.241	143.38
365.468	134.38
365.694	123.38
365.92	133.38
366.147	129.38
366.373	128.38
366.599	138.38
366.826	135.38
367.052	129.38
367.278	135.38
367.505	157.38
367.731	137.38
367.957	142.38
368.184	143.38
368.41	127.38
368.636	143.38
368.862	147.38
369.089	137.38
369.315	136.38
369.541	131.38
369.767	134.38
369.993	133.38
370.219	149.38
370.445	135.38
370.672	134.38
370.898	148.38
371.124	132.38
371.35	133.38
371.576	145.38
371.802	122.38
372.028	142.38
372.254	146.38
372.48	143.38
372.706	152.38
372.932	164.38
373.158	148.38
373.384	158.38
373.61	149.38
373.835	149.38
374.061	150.38
374.287	144.38
374.513	147.38
374.739	150.38
374.965	166.38
375.191	153.38
375.416	148.38
375.642	154.38
375.868	157.38
376.094	159.38
376.319	154.38
376.545	165.38
376.771	149.38
376.997	146.38
377.222	141.38
377.448	147.38
377.674	151.38
377.899	155.38
378.125	137.38
378.35	142.38
378.576	142.38
378.802	127.38
379.027	146.38
379.253	143.38
379.478	143.38
379.704	146.38
379.929	157.38
380.155	147.38
380.38	150.38
380.606	155.38
380.831	157.38
381.057	177.38
381.282	171.38
381.507	157.38
381.733	155.38
381.958	152.38
382.184	152.38
382.409	166.38
382.634	164.38
382.86	156.38
383.085	160.38
383.31	162.38
383.535	172.38
383.761	181.38
383.986	196.38
384.211	164.38
384.436	161.38
384.662	184.38
384.887	187.38
385.112	161.38
385.337	187.38
385.562	185.38
385.787	165.38
386.013	179.38
386.238	177.38
386.463	170.38
386.688	174.38
386.913	169.38
387.138	179.38
387.363	175.38
387.588	147.38
387.813	174.38
388.038	180.38
388.263	170.38
388.488	186.38
388.713	178.38
388.938	192.38
389.163	180.38
389.387	173.38
389.612	176.38
389.837	193.38
390.062	185.38
390.287	187.38
390.512	206.38
390.736	202.38
390.961	188.38
391.186	197.38
391.411	169.38
391.636	182.38
391.86	175.38
392.085	205.38
392.31	181.38
392.534	177.38
392.759	192.38
392.984	187.38
393.208	200.38
393.433	188.38
393.658	186.38
393.882	175.38
394.107	193.38
394.331	198.38
394.556	185.38
394.78	181.38
395.005	192.38
395.229	197.38
395.454	198.38
395.678	186.38
395.903	205.38
396.127	198.38
396.352	187.38
396.576	191.38
396.801	197.38
397.025	194.38
397.249	190.38
397.474	204.38
397.698	198.38
397.922	207.38
398.147	216.38
398.371	201.38
398.595	205.38
398.82	215.38
399.044	258.38
399.268	248.38
399.492	270.38
399.717	285.38
399.941	284.38
400.165	259.38
400.389	218.38
400.613	222.38
400.837	235.38
401.062	207.38
401.286	213.38
401.51	228.38
401.734	232.38
401.958	215.38
402.182	204.38
402.406	221.38
402.63	225.38
402.854	236.38
403.078	238.38
403.302	235.38
403.526	223.38
403.75	234.38
403.974	229.38
404.198	243.38
404.422	239.38
404.645	238.38
404.869	225.38
405.093	235.38
405.317	229.38
405.541	227.38
405.765	249.38
405.988	218.38
406.212	230.38
406.436	254.38
406.66	238.38
406.883	262.38
407.107	253.38
407.331	265.38
407.555	264.38
407.778	254.38
408.002	241.38
408.226	255.38
408.449	253.38
408.673	254.38
408.896	257.38
409.12	233.38
409.344	227.38
409.567	244.38
409.791	241.38
410.014	246.38
410.238	228.38
410.461	247.38
410.685	244.38
410.908	224.38
411.132	239.38
411.355	233.38
411.578	225.38
411.802	216.38
412.025	237.38
412.249	231.38
412.472	238.38
412.695	224.38
412.919	209.38
413.142	220.38
413.365	233.38
413.589	204.38
413.812	229.38
414.035	221.38
414.258	226.38
414.482	213.38
414.705	249.38
414.928	219.38
415.151	226.38
415.374	237.38
415.597	213.38
415.821	234.38
416.044	227.38
416.267	231.38
416.49	221.38
416.713	230.38
416.936	220.38
417.159	218.38
417.382	225.38
417.605	220.38
417.828	224.38
418.051	227.38
418.274	241.38
418.497	236.38
418.72	230.38
418.943	231.38
419.166	238.38
419.389	250.38
419.611	238.38
419.834	211.38
420.057	252.38
420.28	217.38
420.503	217.38
420.726	232.38
420.948	224.38
421.171	233.38
421.394	235.38
421.617	238.38
421.839	237.38
422.062	222.38
422.285	229.38
422.507	229.38
422.73	228.38
422.953	232.38
423.175	230.38
423.398	234.38
423.621	234.38
423.843	216.38
424.066	210.38
424.288	225.38
424.511	236.38
424.733	252.38
424.956	224.38
425.178	226.38
425.401	208.38
425.623	230.38
425.846	219.38
426.068	224.38
426.291	221.38
426.513	221.38
426.735	226.38
426.958	218.38
427.18	221.38
427.402	214.38
427.625	218.38
427.847	208.38
428.069	222.38
428.292	228.38
428.514	210.38
428.736	217.38
428.958	230.38
429.181	225.38
429.403	216.38
429.625	221.38
429.847	212.38
430.069	213.38
430.292	202.38
430.514	218.38
430.736	214.38
430.958	213.38
431.18	214.38
431.402	215.38
431.624	223.38
431.846	199.38
432.068	196.38
432.29	199.38
432.512	237.38
432.734	232.38
432.956	227.38
433.178	214.38
433.4	225.38
433.622	212.38
433.844	223.38
434.066	230.38
434.287	229.38
434.509	210.38
434.731	220.38
434.953	231.38
435.175	230.38
435.397	212.38
435.618	220.38
435.84	228.38
436.062	228.38
436.284	217.38
436.505	205.38
436.727	211.38
436.949	229.38
437.17	207.38
437.392	203.38
437.614	220.38
437.835	198.38
438.057	209.38
438.278	208.38
438.5	207.38
438.721	209.38
438.943	224.38
439.165	201.38
439.386	202.38
439.608	205.38
439.829	215.38
440.05	236.38
440.272	226.38
440.493	202.38
440.715	203.38
440.936	218.38
441.158	222.38
441.379	228.38
441.6	242.38
441.822	239.38
442.043	237.38
442.264	216.38
442.486	234.38
442.707	230.38
442.928	227.38
443.149	238.38
443.371	232.38
443.592	233.38
443.813	229.38
444.034	220.38
444.255	245.38
444.476	248.38
444.698	258.38
444.919	259.38
445.14	387.38
445.361	297.38
445.582	243.38
445.803	246.38
446.024	226.38
446.245	247.38
446.466	226.38
446.687	227.38
446.908	237.38
447.129	216.38
447.35	220.38
447.571	225.38
447.792	206.38
448.013	235.38
448.234	226.38
448.455	222.38
448.675	211.38
448.896	219.38
449.117	203.38
449.338	190.38
449.559	209.38
449.779	198.38
450	204.38
450.221	225.38
450.442	189.38
450.662	210.38
450.883	205.38
451.104	203.38
451.324	216.38
451.545	207.38
451.766	204.38
451.986	211.38
452.207	215.38
452.428	205.38
452.648	223.38
452.869	211.38
453.089	196.38
453.31	206.38
453.53	203.38
453.751	184.38
453.971	220.38
454.192	197.38
454.412	190.38
454.633	180.38
454.853	218.38
455.073	200.38
455.294	189.38
455.514	203.38
455.734	199.38
455.955	196.38
456.175	208.38
456.395	183.38
456.616	187.38
456.836	204.38
457.056	186.38
457.276	205.38
457.497	207.38
457.717	207.38
457.937	193.38
458.157	221.38
458.377	195.38
458.598	205.38
458.818	194.38
459.038	198.38
459.258	210.38
459.478	230.38
459.698	220.38
459.918	228.38
460.138	236.38
460.358	224.38
460.578	239.38
460.798	245.38
461.018	237.38
461.238	238.38
461.458	245.38
461.678	264.38
461.898	249.38
462.118	241.38
462.338	266.38
462.558	269.38
462.777	261.38
462.997	290.38
463.217	302.38
463.437	293.38
463.657	283.38
463.876	259.38
464.096	273.38
464.316	269.38
464.536	251.38
464.755	273.38
464.975	267.38
465.195	242.38
465.414	234.38
465.634	231.38
465.854	234.38
466.073	230.38
466.293	241.38
466.512	211.38
466.732	226.38
466.951	219.38
467.171	230.38
467.391	229.38
467.61	231.38
467.829	221.38
468.049	237.38
468.268	200.38
468.488	233.38
468.707	216.38
468.927	205.38
469.146	226.38
469.365	217.38
469.585	219.38
469.804	208.38
470.023	221.38
470.243	227.38
470.462	223.38
470.681	238.38
470.901	205.38
471.12	231.38
471.339	214.38
471.558	218.38
471.777	209.38
471.997	218.38
472.216	232.38
472.435	214.38
472.654	213.38
472.873	218.38
473.092	220.38
473.311	203.38
473.53	217.38
473.749	200.38
473.968	225.38
474.187	206.38
474.406	228.38
474.625	229.38
474.844	222.38
475.063	213.38
475.282	223.38
475.501	206.38
475.72	211.38
475.939	206.38
476.158	219.38
476.377	227.38
476.596	211.38
476.814	218.38
477.033	223.38
477.252	222.38
477.471	245.38
477.69	243.38
477.908	233.38
478.127	230.38
478.346	238.38
478.564	240.38
478.783	261.38
479.002	257.38
479.22	246.38
479.439	250.38
479.658	248.38
479.876	241.38
480.095	239.38
480.313	268.38
480.532	270.38
480.751	237.38
480.969	238.38
481.188	238.38
481.406	247.38
481.624	253.38
481.843	236.38
482.061	262.38
482.28	233.38
482.498	237.38
482.717	221.38
482.935	230.38
483.153	230.38
483.372	236.38
483.59	237.38
483.808	245.38
484.027	244.38
484.245	246.38
484.463	236.38
484.681	238.38
484.9	229.38
485.118	248.38
485.336	234.38
485.554	271.38
485.772	243.38
485.99	247.38
486.209	252.38
486.427	233.38
486.645	255.38
486.863	260.38
487.081	243.38
487.299	230.38
487.517	257.38
487.735	240.38
487.953	261.38
488.171	240.38
488.389	246.38
488.607	226.38
488.825	252.38
489.043	242.38
489.261	248.38
489.479	238.38
489.696	227.38
489.914	253.38
490.132	254.38
490.35	259.38
490.568	251.38
490.786	246.38
491.003	257.38
491.221	244.38
491.439	261.38
491.657	254.38
491.874	275.38
492.092	275.38
492.31	289.38
492.527	279.38
492.745	262.38
492.963	272.38
493.18	259.38
493.398	272.38
493.615	260.38
493.833	258.38
494.05	259.38
494.268	260.38
494.485	267.38
494.703	278.38
494.92	260.38
495.138	256.38
495.355	265.38
495.573	268.38
495.79	248.38
496.008	278.38
496.225	257.38
496.442	253.38
496.66	284.38
496.877	267.38
497.094	287.38
497.312	265.38
497.529	293.38
497.746	293.38
497.963	295.38
498.181	285.38
498.398	309.38
498.615	317.38
498.832	333.38
499.049	330.38
499.267	359.38
499.484	387.38
499.701	409.38
499.918	455.38
500.135	499.38
500.352	539.38
500.569	550.38
500.786	535.38
501.003	526.38
501.22	459.38
501.437	445.38
501.654	379.38
501.871	360.38
502.088	354.38
502.305	351.38
502.522	325.38
502.739	315.38
502.956	311.38
503.172	300.38
503.389	287.38
503.606	293.38
503.823	309.38
504.04	294.38
504.256	286.38
504.473	287.38
504.69	281.38
504.907	307.38
505.123	277.38
505.34	268.38
505.557	265.38
505.773	250.38
505.99	249.38
506.207	262.38
506.423	221.38
506.64	234.38
506.856	237.38
507.073	241.38
507.289	235.38
507.506	229.38
507.722	226.38
507.939	234.38
508.155	232.38
508.372	236.38
508.588	228.38
508.805	221.38
509.021	231.38
509.238	229.38
509.454	218.38
509.67	216.38
509.887	234.38
510.103	230.38
510.319	233.38
510.536	223.38
510.752	214.38
510.968	228.38
511.184	233.38
511.401	235.38
511.617	218.38
511.833	217.38
512.049	228.38
512.265	219.38
512.481	220.38
512.698	206.38
512.914	201.38
513.13	232.38
513.346	205.38
513.562	214.38
513.778	218.38
513.994	243.38
514.21	233.38
514.426	248.38
514.642	231.38
514.858	218.38
515.074	239.38
515.29	228.38
515.506	253.38
515.721	235.38
515.937	250.38
516.153	241.38
516.369	250.38
516.585	243.38
516.801	249.38
517.016	270.38
517.232	282.38
517.448	278.38
517.664	274.38
517.879	248.38
518.095	283.38
518.311	269.38
518.527	250.38
518.742	258.38
518.958	255.38
519.173	245.38
519.389	261.38
519.605	235.38
519.82	234.38
520.036	216.38
520.251	236.38
520.467	215.38
520.682	228.38
520.898	219.38
521.113	227.38
521.329	223.38
521.544	238.38
521.76	211.38
521.975	227.38
522.19	220.38
522.406	215.38
522.621	218.38
522.836	226.38
523.052	222.38
523.267	227.38
523.482	220.38
523.698	227.38
523.913	229.38
524.128	230.38
524.343	217.38
524.559	206.38
524.774	232.38
524.989	220.38
525.204	234.38
525.419	209.38
525.634	206.38
525.849	203.38
526.064	233.38
526.28	225.38
526.495	215.38
526.71	203.38
526.925	198.38
527.14	222.38
527.355	209.38
527.57	214.38
527.785	231.38
527.999	231.38
528.214	225.38
528.429	217.38
528.644	242.38
528.859	209.38
529.074	217.38
529.289	205.38
529.503	217.38
529.718	227.38
529.933	221.38
530.148	205.38
530.363	214.38
530.577	220.38
530.792	212.38
531.007	225.38
531.221	215.38
531.436	202.38
531.651	196.38
531.865	219.38
532.08	204.38
532.295	219.38
532.509	207.38
532.724	216.38
532.938	218.38
533.153	203.38
533.367	197.38
533.582	207.38
533.796	215.38
534.011	233.38
534.225	214.38
534.44	204.38
534.654	198.38
534.868	193.38
535.083	219.38
535.297	209.38
535.511	213.38
535.726	195.38
535.94	210.38
536.154	206.38
536.369	203.38
536.583	211.38
536.797	194.38
537.011	201.38
537.225	217.38
537.44	209.38
537.654	211.38
537.868	211.38
538.082	200.38
538.296	203.38
538.51	201.38
538.724	197.38
538.938	210.38
539.153	237.38
539.367	202.38
539.581	228.38
539.795	204.38
540.009	208.38
540.222	210.38
540.436	193.38
540.65	190.38
540.864	214.38
541.078	220.38
541.292	211.38
541.506	213.38
541.72	222.38
541.934	227.38
542.147	223.38
542.361	214.38
542.575	203.38
542.789	207.38
543.002	211.38
543.216	204.38
543.43	210.38
543.644	201.38
543.857	196.38
544.071	186.38
544.285	222.38
544.498	205.38
544.712	212.38
544.925	206.38
545.139	217.38
545.352	209.38
545.566	217.38
545.779	211.38
545.993	210.38
546.206	210.38
546.42	201.38
546.633	199.38
546.847	215.38
547.06	212.38
547.274	213.38
547.487	207.38
547.7	214.38
547.914	222.38
548.127	214.38
548.34	198.38
548.554	210.38
548.767	211.38
548.98	216.38
549.193	214.38
549.407	214.38
549.62	218.38
549.833	235.38
550.046	221.38
550.259	230.38
550.473	217.38
550.686	211.38
550.899	203.38
551.112	219.38
551.325	212.38
551.538	206.38
551.751	199.38
551.964	208.38
552.177	204.38
552.39	218.38
552.603	204.38
552.816	207.38
553.029	221.38
553.242	225.38
553.455	213.38
553.667	213.38
553.88	200.38
554.093	210.38
554.306	212.38
554.519	212.38
554.732	205.38
554.944	191.38
555.157	204.38
555.37	185.38
555.583	185.38
555.795	193.38
556.008	186.38
556.221	197.38
556.433	209.38
556.646	195.38
556.859	189.38
557.071	193.38
557.284	189.38
557.496	193.38
557.709	198.38
557.921	191.38
558.134	182.38
558.346	189.38
558.559	180.38
558.771	195.38
558.984	197.38
559.196	195.38
559.409	182.38
559.621	193.38
559.833	194.38
560.046	193.38
560.258	189.38
560.47	175.38
560.683	196.38
560.895	169.38
561.107	169.38
561.32	181.38
561.532	196.38
561.744	190.38
561.956	186.38
562.168	182.38
562.381	191.38
562.593	187.38
562.805	183.38
563.017	190.38
563.229	197.38
563.441	182.38
563.653	183.38
563.865	198.38
564.077	177.38
564.289	173.38
564.501	206.38
564.713	189.38
564.925	205.38
565.137	202.38
565.349	196.38
565.561	199.38
565.773	202.38
565.985	206.38
566.197	199.38
566.408	220.38
566.62	230.38
566.832	236.38
567.044	238.38
567.255	236.38
567.467	250.38
567.679	251.38
567.891	272.38
568.102	260.38
568.314	258.38
568.526	250.38
568.737	225.38
568.949	211.38
569.161	217.38
569.372	172.38
569.584	193.38
569.795	192.38
570.007	187.38
570.218	172.38
570.43	180.38
570.641	179.38
570.853	203.38
571.064	182.38
571.276	172.38
571.487	182.38
571.698	169.38
571.91	177.38
572.121	170.38
572.333	182.38
572.544	177.38
572.755	175.38
572.966	163.38
573.178	149.38
573.389	151.38
573.6	169.38
573.811	155.38
574.023	167.38
574.234	165.38
574.445	165.38
574.656	151.38
574.867	163.38
575.078	162.38
575.289	162.38
575.501	166.38
575.712	169.38
575.923	183.38
576.134	162.38
576.345	147.38
576.556	174.38
576.767	162.38
576.978	154.38
577.188	154.38
577.399	162.38
577.61	169.38
577.821	160.38
578.032	151.38
578.243	165.38
578.454	160.38
578.665	161.38
578.875	150.38
579.086	150.38
579.297	160.38
579.508	169.38
579.718	143.38
579.929	153.38
580.14	161.38
580.35	142.38
580.561	149.38
580.772	136.38
580.982	157.38
581.193	158.38
581.403	155.38
581.614	153.38
581.825	145.38
582.035	142.38
582.246	151.38
582.456	141.38
582.667	144.38
582.877	135.38
583.087	129.38
583.298	148.38
583.508	137.38
583.719	155.38
583.929	153.38
584.139	142.38
584.35	149.38
584.56	149.38
584.77	151.38
584.981	143.38
585.191	132.38
585.401	153.38
585.611	156.38
585.821	142.38
586.032	141.38
586.242	126.38
586.452	149.38
586.662	155.38
586.872	150.38
587.082	143.38
587.292	150.38
587.502	144.38
587.713	149.38
587.923	137.38
588.133	138.38
588.343	150.38
588.553	138.38
588.762	147.38
588.972	144.38
589.182	151.38
589.392	148.38
589.602	144.38
589.812	141.38
590.022	152.38
590.232	149.38
590.441	156.38
590.651	142.38
590.861	134.38
591.071	133.38
591.281	149.38
591.49	145.38
591.7	143.38
591.91	150.38
592.119	149.38
592.329	149.38
592.539	165.38
592.748	159.38
592.958	161.38
593.167	149.38
593.377	165.38
593.587	198.38
593.796	161.38
594.006	159.38
594.215	141.38
594.424	151.38
594.634	155.38
594.843	160.38
595.053	149.38
595.262	151.38
595.472	146.38
595.681	167.38
595.89	148.38
596.1	144.38
596.309	138.38
596.518	138.38
596.727	136.38
596.937	149.38
597.146	137.38
597.355	146.38
597.564	126.38
597.774	136.38
597.983	126.38
598.192	134.38
598.401	135.38
598.61	135.38
598.819	135.38
599.028	145.38
599.237	132.38
599.446	140.38
599.655	136.38
599.864	129.38
600.073	116.38
600.282	132.38
600.491	139.38
600.7	121.38
600.909	143.38
601.118	142.38
601.327	125.38
601.536	145.38
601.745	136.38
601.953	133.38
602.162	134.38
602.371	131.38
602.58	136.38
602.789	122.38
602.997	121.38
603.206	138.38
603.415	142.38
603.623	137.38
603.832	148.38
604.041	125.38
604.249	127.38
604.458	149.38
604.666	129.38
604.875	143.38
605.084	120.38
605.292	135.38
605.501	134.38
605.709	145.38
605.918	141.38
606.126	137.38
606.334	138.38
606.543	130.38
606.751	134.38
606.96	149.38
607.168	135.38
607.376	131.38
607.585	140.38
607.793	127.38
608.001	142.38
608.21	133.38
608.418	129.38
608.626	134.38
608.834	121.38
609.043	136.38
609.251	130.38
609.459	117.38
609.667	129.38
609.875	132.38
610.083	134.38
610.291	130.38
610.499	134.38
610.707	143.38
610.916	135.38
611.124	121.38
611.332	115.38
611.54	127.38
611.748	143.38
611.955	133.38
612.163	134.38
612.371	130.38
612.579	122.38
612.787	120.38
612.995	124.38
613.203	133.38
613.411	122.38
613.618	120.38
613.826	133.38
614.034	122.38
614.242	126.38
614.449	126.38
614.657	132.38
614.865	141.38
615.072	140.38
615.28	117.38
615.488	131.38
615.695	124.38
615.903	129.38
616.111	139.38
616.318	133.38
616.526	124.38
616.733	140.38
616.941	119.38
617.148	109.38
617.356	121.38
617.563	134.38
617.771	133.38
617.978	136.38
618.185	120.38
618.393	127.38
618.6	119.38
618.807	108.38
619.015	140.38
619.222	133.38
619.429	134.38
619.637	132.38
619.844	128.38
620.051	117.38
620.258	113.38
620.466	121.38
620.673	124.38
620.88	121.38
621.087	107.38
621.294	111.38
621.501	133.38
621.708	117.38
621.915	129.38
622.122	132.38
622.329	132.38
622.536	116.38
622.743	135.38
622.95	129.38
623.157	134.38
623.364	129.38
623.571	127.38
623.778	121.38
623.985	123.38
624.192	129.38
624.399	129.38
624.606	121.38
624.812	110.38
625.019	113.38
625.226	129.38
625.433	135.38
625.639	119.38
625.846	110.38
626.053	122.38
626.259	113.38
626.466	124.38
626.673	122.38
626.879	118.38
627.086	121.38
627.293	121.38
627.499	119.38
627.706	117.38
627.912	119.38
628.119	125.38
628.325	123.38
628.532	123.38
628.738	116.38
628.945	119.38
629.151	115.38
629.357	117.38
629.564	122.38
629.77	115.38
629.976	130.38
630.183	116.38
630.389	106.38
630.595	106.38
630.802	124.38
631.008	121.38
631.214	109.38
631.42	118.38
631.627	119.38
631.833	122.38
632.039	115.38
632.245	126.38
632.451	123.38
632.657	117.38
632.863	103.38
633.069	108.38
633.275	108.38
633.481	117.38
633.688	118.38
633.893	117.38
634.099	119.38
634.305	110.38
634.511	114.38
634.717	115.38
634.923	107.38
635.129	126.38
635.335	93.38
635.541	109.38
635.747	120.38
635.952	108.38
636.158	102.38
636.364	105.38
636.57	94.38
636.775	106.38
636.981	99.38
637.187	105.38
637.392	108.38
637.598	119.38
637.804	103.38
638.009	113.38
638.215	109.38
638.421	120.38
638.626	117.38
638.832	109.38
639.037	113.38
639.243	108.38
639.448	104.38
639.654	117.38
639.859	111.38
640.065	119.38
640.27	114.38
640.475	116.38
640.681	113.38
640.886	122.38
641.091	86.38
641.297	114.38
641.502	119.38
641.707	106.38
641.913	115.38
642.118	109.38
642.323	99.38
642.528	106.38
642.733	121.38
642.939	104.38
643.144	108.38
643.349	120.38
643.554	95.38
643.759	117.38
643.964	114.38
644.169	118.38
644.374	108.38
644.579	114.38
644.784	115.38
644.989	123.38
645.194	118.38
645.399	106.38
645.604	123.38
645.809	110.38
646.014	121.38
646.219	102.38
646.423	114.38
646.628	94.38
646.833	108.38
647.038	120.38
647.243	105.38
647.447	119.38
647.652	113.38
647.857	99.38
648.062	104.38
648.266	119.38
648.471	111.38
648.676	112.38
648.88	100.38
649.085	121.38
649.289	123.38
649.494	130.38
649.698	108.38
649.903	113.38
650.107	118.38
650.312	128.38
650.516	104.38
650.721	113.38
650.925	97.38
651.13	105.38
651.334	115.38
651.539	117.38
651.743	106.38
651.947	106.38
652.152	106.38
652.356	109.38
652.56	106.38
652.764	96.38
652.969	104.38
653.173	111.38
653.377	108.38
653.581	105.38
653.785	115.38
653.99	98.38
654.194	106.38
654.398	115.38
654.602	99.38
654.806	104.38
655.01	100.38
655.214	125.38
655.418	106.38
655.622	100.38
655.826	107.38
656.03	114.38
656.234	101.38
656.438	99.38
656.642	97.38
656.846	102.38
657.049	99.38
657.253	103.38
657.457	106.38
657.661	90.38
657.865	91.38
658.068	99.38
658.272	85.38
658.476	92.38
658.68	94.38
658.883	87.38
659.087	94.38
659.291	93.38
659.494	97.38
659.698	95.38
659.901	97.38
660.105	78.38
660.309	87.38
660.512	84.38
660.716	79.38
660.919	74.38
661.123	94.38
661.326	82.38
661.53	69.38
661.733	84.38
661.936	93.38
662.14	85.38
662.343	81.38
662.546	91.38
662.75	85.38
662.953	94.38
663.156	86.38
663.36	91.38
663.563	86.38
663.766	66.38
663.969	81.38
664.173	98.38
664.376	87.38
664.579	75.38
664.782	78.38
664.985	81.38
665.188	73.38
665.391	79.38
665.594	91.38
665.797	79.38
666	85.38
666.203	73.38
666.406	70.38
666.609	87.38
666.812	83.38
667.015	79.38
667.218	83.38
667.421	97.38
667.624	97.38
667.827	91.38
668.03	106.38
668.232	94.38
668.435	85.38
668.638	86.38
668.841	86.38
669.043	94.38
669.246	80.38
669.449	78.38
669.651	84.38
669.854	91.38
670.057	75.38
670.259	90.38
670.462	77.38
670.665	83.38
670.867	69.38
671.07	75.38
671.272	83.38
671.475	81.38
671.677	88.38
671.88	68.38
672.082	72.38
672.284	80.38
672.487	99.38
672.689	69.38
672.892	71.38
