Data from Fe(NO3)3@0.0125M.TitratingCurve.Agarose3%dH2O.NegLispCup.LampEnergy10.LIBS07252019_HRD10591_16-58-57-337.txt Node
Date: Thu Jul 25 16:58:57 EDT 2019
User: cochatt
Spectrometer: HR+D1059
Trigger mode: 1
Integration Time (sec): 1.000000E-1
Scans to average: 1
Electric dark correction enabled: true
Nonlinearity correction enabled: false
Boxcar width: 0
XAxis mode: Wavelengths
Number of Pixels in Spectrum: 2048
>>>>>Begin Spectral Data<<<<<
223.165	-8.62
223.4	-8.62
223.635	-8.62
223.869	-1.62
224.104	-13.62
224.338	-18.62
224.573	-11.62
224.808	-21.62
225.042	-14.62
225.277	-13.62
225.511	1.38
225.746	-7.62
225.98	8.38
226.215	27.38
226.449	9.38
226.683	20.38
226.918	16.38
227.152	28.38
227.387	43.38
227.621	40.38
227.856	36.38
228.09	44.38
228.324	54.38
228.559	51.38
228.793	85.38
229.027	99.38
229.262	123.38
229.496	109.38
229.73	119.38
229.964	140.38
230.199	128.38
230.433	123.38
230.667	134.38
230.901	130.38
231.136	124.38
231.37	126.38
231.604	142.38
231.838	124.38
232.072	154.38
232.306	136.38
232.541	145.38
232.775	151.38
233.009	152.38
233.243	152.38
233.477	155.38
233.711	148.38
233.945	145.38
234.179	150.38
234.413	146.38
234.647	140.38
234.881	160.38
235.115	170.38
235.349	155.38
235.583	162.38
235.817	144.38
236.051	148.38
236.285	168.38
236.519	165.38
236.753	150.38
236.987	145.38
237.221	167.38
237.455	162.38
237.689	162.38
237.922	178.38
238.156	172.38
238.39	170.38
238.624	182.38
238.858	184.38
239.091	177.38
239.325	173.38
239.559	180.38
239.793	186.38
240.027	210.38
240.26	189.38
240.494	166.38
240.728	190.38
240.961	193.38
241.195	184.38
241.429	189.38
241.662	194.38
241.896	192.38
242.13	210.38
242.363	196.38
242.597	211.38
242.83	208.38
243.064	199.38
243.298	189.38
243.531	201.38
243.765	205.38
243.998	215.38
244.232	216.38
244.465	219.38
244.699	209.38
244.932	204.38
245.166	227.38
245.399	214.38
245.633	226.38
245.866	208.38
246.099	214.38
246.333	211.38
246.566	236.38
246.8	230.38
247.033	233.38
247.266	242.38
247.5	229.38
247.733	238.38
247.966	236.38
248.2	244.38
248.433	258.38
248.666	246.38
248.899	237.38
249.133	242.38
249.366	242.38
249.599	251.38
249.832	264.38
250.066	238.38
250.299	250.38
250.532	246.38
250.765	250.38
250.998	256.38
251.231	236.38
251.465	271.38
251.698	267.38
251.931	258.38
252.164	261.38
252.397	283.38
252.63	264.38
252.863	275.38
253.096	287.38
253.329	273.38
253.562	279.38
253.795	296.38
254.028	307.38
254.261	286.38
254.494	288.38
254.727	269.38
254.96	304.38
255.193	304.38
255.426	286.38
255.659	280.38
255.892	303.38
256.124	282.38
256.357	298.38
256.59	309.38
256.823	314.38
257.056	326.38
257.289	307.38
257.521	290.38
257.754	306.38
257.987	304.38
258.22	313.38
258.452	317.38
258.685	306.38
258.918	323.38
259.151	328.38
259.383	331.38
259.616	337.38
259.849	330.38
260.081	363.38
260.314	358.38
260.547	355.38
260.779	347.38
261.012	357.38
261.244	333.38
261.477	361.38
261.71	357.38
261.942	334.38
262.175	331.38
262.407	342.38
262.64	355.38
262.872	353.38
263.105	357.38
263.337	378.38
263.57	372.38
263.802	353.38
264.035	353.38
264.267	341.38
264.499	354.38
264.732	344.38
264.964	342.38
265.197	370.38
265.429	365.38
265.661	357.38
265.894	341.38
266.126	354.38
266.358	368.38
266.591	360.38
266.823	380.38
267.055	360.38
267.287	396.38
267.52	383.38
267.752	384.38
267.984	362.38
268.216	394.38
268.448	374.38
268.681	402.38
268.913	388.38
269.145	394.38
269.377	374.38
269.609	419.38
269.841	394.38
270.073	396.38
270.306	382.38
270.538	385.38
270.77	418.38
271.002	388.38
271.234	396.38
271.466	421.38
271.698	403.38
271.93	409.38
272.162	406.38
272.394	415.38
272.626	414.38
272.858	434.38
273.09	425.38
273.322	433.38
273.553	411.38
273.785	419.38
274.017	445.38
274.249	461.38
274.481	468.38
274.713	461.38
274.945	476.38
275.176	460.38
275.408	466.38
275.64	474.38
275.872	484.38
276.104	486.38
276.335	445.38
276.567	440.38
276.799	447.38
277.031	468.38
277.262	470.38
277.494	458.38
277.726	444.38
277.957	457.38
278.189	464.38
278.421	484.38
278.652	470.38
278.884	492.38
279.115	473.38
279.347	477.38
279.579	482.38
279.81	469.38
280.042	476.38
280.273	489.38
280.505	492.38
280.736	482.38
280.968	493.38
281.199	484.38
281.431	485.38
281.662	512.38
281.894	486.38
282.125	500.38
282.356	500.38
282.588	510.38
282.819	506.38
283.051	513.38
283.282	520.38
283.513	515.38
283.745	497.38
283.976	515.38
284.207	518.38
284.439	509.38
284.67	531.38
284.901	512.38
285.132	520.38
285.364	554.38
285.595	526.38
285.826	519.38
286.057	532.38
286.288	525.38
286.52	533.38
286.751	513.38
286.982	520.38
287.213	544.38
287.444	540.38
287.675	537.38
287.906	571.38
288.138	547.38
288.369	559.38
288.6	562.38
288.831	553.38
289.062	542.38
289.293	529.38
289.524	535.38
289.755	552.38
289.986	547.38
290.217	553.38
290.448	569.38
290.679	566.38
290.91	539.38
291.141	562.38
291.371	546.38
291.602	560.38
291.833	557.38
292.064	566.38
292.295	563.38
292.526	593.38
292.757	570.38
292.987	558.38
293.218	563.38
293.449	581.38
293.68	598.38
293.91	588.38
294.141	572.38
294.372	566.38
294.603	589.38
294.833	590.38
295.064	584.38
295.295	605.38
295.525	562.38
295.756	561.38
295.987	575.38
296.217	585.38
296.448	595.38
296.679	597.38
296.909	620.38
297.14	601.38
297.37	618.38
297.601	611.38
297.831	597.38
298.062	636.38
298.292	604.38
298.523	630.38
298.753	638.38
298.984	616.38
299.214	632.38
299.445	636.38
299.675	629.38
299.905	617.38
300.136	633.38
300.366	618.38
300.597	627.38
300.827	640.38
301.057	625.38
301.288	649.38
301.518	631.38
301.748	657.38
301.979	660.38
302.209	650.38
302.439	645.38
302.669	650.38
302.9	638.38
303.13	649.38
303.36	651.38
303.59	676.38
303.82	664.38
304.051	657.38
304.281	666.38
304.511	661.38
304.741	668.38
304.971	679.38
305.201	690.38
305.431	686.38
305.661	661.38
305.891	667.38
306.121	673.38
306.352	668.38
306.582	660.38
306.812	668.38
307.042	667.38
307.272	714.38
307.502	681.38
307.731	660.38
307.961	665.38
308.191	712.38
308.421	697.38
308.651	692.38
308.881	683.38
309.111	689.38
309.341	658.38
309.571	705.38
309.8	674.38
310.03	696.38
310.26	690.38
310.49	683.38
310.72	712.38
310.949	694.38
311.179	713.38
311.409	712.38
311.639	722.38
311.868	701.38
312.098	708.38
312.328	718.38
312.557	727.38
312.787	685.38
313.017	710.38
313.246	729.38
313.476	730.38
313.706	746.38
313.935	727.38
314.165	753.38
314.394	758.38
314.624	752.38
314.853	730.38
315.083	730.38
315.312	754.38
315.542	733.38
315.771	736.38
316.001	758.38
316.23	768.38
316.46	726.38
316.689	733.38
316.919	754.38
317.148	754.38
317.377	745.38
317.607	770.38
317.836	755.38
318.065	772.38
318.295	771.38
318.524	778.38
318.753	790.38
318.983	770.38
319.212	754.38
319.441	785.38
319.67	782.38
319.9	783.38
320.129	770.38
320.358	756.38
320.587	816.38
320.816	813.38
321.046	808.38
321.275	784.38
321.504	788.38
321.733	776.38
321.962	788.38
322.191	803.38
322.42	791.38
322.649	786.38
322.878	778.38
323.108	822.38
323.337	795.38
323.566	793.38
323.795	807.38
324.024	808.38
324.253	817.38
324.482	797.38
324.71	806.38
324.939	796.38
325.168	854.38
325.397	838.38
325.626	841.38
325.855	841.38
326.084	840.38
326.313	842.38
326.542	822.38
326.77	833.38
326.999	820.38
327.228	830.38
327.457	838.38
327.686	851.38
327.914	833.38
328.143	834.38
328.372	822.38
328.6	846.38
328.829	858.38
329.058	833.38
329.287	845.38
329.515	841.38
329.744	833.38
329.972	836.38
330.201	846.38
330.43	837.38
330.658	866.38
330.887	860.38
331.115	866.38
331.344	875.38
331.572	867.38
331.801	879.38
332.03	874.38
332.258	887.38
332.486	859.38
332.715	877.38
332.943	864.38
333.172	858.38
333.4	877.38
333.629	882.38
333.857	928.38
334.085	894.38
334.314	893.38
334.542	920.38
334.771	940.38
334.999	904.38
335.227	930.38
335.455	907.38
335.684	931.38
335.912	917.38
336.14	941.38
336.369	914.38
336.597	925.38
336.825	923.38
337.053	928.38
337.281	889.38
337.51	928.38
337.738	907.38
337.966	911.38
338.194	920.38
338.422	890.38
338.65	925.38
338.878	898.38
339.106	918.38
339.334	903.38
339.562	902.38
339.79	899.38
340.018	906.38
340.246	913.38
340.474	883.38
340.702	922.38
340.93	900.38
341.158	891.38
341.386	906.38
341.614	928.38
341.842	896.38
342.07	875.38
342.298	906.38
342.526	867.38
342.754	892.38
342.981	866.38
343.209	865.38
343.437	911.38
343.665	930.38
343.893	920.38
344.12	939.38
344.348	903.38
344.576	889.38
344.804	938.38
345.031	898.38
345.259	893.38
345.487	894.38
345.714	906.38
345.942	924.38
346.17	895.38
346.397	857.38
346.625	898.38
346.853	893.38
347.08	889.38
347.308	874.38
347.535	883.38
347.763	894.38
347.99	883.38
348.218	873.38
348.445	891.38
348.673	866.38
348.9	906.38
349.128	845.38
349.355	884.38
349.583	869.38
349.81	852.38
350.037	849.38
350.265	875.38
350.492	870.38
350.72	862.38
350.947	856.38
351.174	871.38
351.402	851.38
351.629	868.38
351.856	849.38
352.083	853.38
352.311	866.38
352.538	882.38
352.765	881.38
352.992	877.38
353.22	857.38
353.447	865.38
353.674	895.38
353.901	909.38
354.128	851.38
354.355	870.38
354.583	868.38
354.81	850.38
355.037	868.38
355.264	857.38
355.491	863.38
355.718	846.38
355.945	864.38
356.172	862.38
356.399	880.38
356.626	868.38
356.853	880.38
357.08	856.38
357.307	868.38
357.534	868.38
357.761	874.38
357.988	907.38
358.215	890.38
358.441	869.38
358.668	873.38
358.895	886.38
359.122	888.38
359.349	884.38
359.576	897.38
359.802	900.38
360.029	859.38
360.256	856.38
360.483	896.38
360.709	890.38
360.936	867.38
361.163	870.38
361.39	875.38
361.616	876.38
361.843	888.38
362.07	858.38
362.296	877.38
362.523	892.38
362.749	900.38
362.976	868.38
363.203	855.38
363.429	896.38
363.656	917.38
363.882	902.38
364.109	897.38
364.335	858.38
364.562	901.38
364.788	870.38
365.015	920.38
365.241	890.38
365.468	886.38
365.694	913.38
365.92	918.38
366.147	896.38
366.373	916.38
366.599	886.38
366.826	896.38
367.052	894.38
367.278	911.38
367.505	883.38
367.731	890.38
367.957	895.38
368.184	909.38
368.41	934.38
368.636	935.38
368.862	929.38
369.089	932.38
369.315	927.38
369.541	907.38
369.767	917.38
369.993	897.38
370.219	931.38
370.445	920.38
370.672	924.38
370.898	929.38
371.124	925.38
371.35	946.38
371.576	928.38
371.802	913.38
372.028	940.38
372.254	936.38
372.48	943.38
372.706	939.38
372.932	950.38
373.158	970.38
373.384	937.38
373.61	925.38
373.835	950.38
374.061	925.38
374.287	948.38
374.513	922.38
374.739	980.38
374.965	962.38
375.191	949.38
375.416	953.38
375.642	938.38
375.868	936.38
376.094	946.38
376.319	957.38
376.545	935.38
376.771	922.38
376.997	965.38
377.222	928.38
377.448	964.38
377.674	926.38
377.899	930.38
378.125	938.38
378.35	927.38
378.576	930.38
378.802	913.38
379.027	940.38
379.253	929.38
379.478	964.38
379.704	924.38
379.929	937.38
380.155	929.38
380.38	930.38
380.606	920.38
380.831	942.38
381.057	942.38
381.282	934.38
381.507	909.38
381.733	955.38
381.958	955.38
382.184	946.38
382.409	959.38
382.634	967.38
382.86	941.38
383.085	967.38
383.31	961.38
383.535	988.38
383.761	965.38
383.986	961.38
384.211	982.38
384.436	993.38
384.662	1000.38
384.887	981.38
385.112	997.38
385.337	984.38
385.562	996.38
385.787	965.38
386.013	981.38
386.238	1002.38
386.463	995.38
386.688	996.38
386.913	1003.38
387.138	1002.38
387.363	1008.38
387.588	998.38
387.813	1026.38
388.038	1034.38
388.263	981.38
388.488	1009.38
388.713	1043.38
388.938	1033.38
389.163	1009.38
389.387	994.38
389.612	1032.38
389.837	1010.38
390.062	1029.38
390.287	1058.38
390.512	1021.38
390.736	990.38
390.961	1034.38
391.186	1004.38
391.411	1039.38
391.636	1056.38
391.86	1050.38
392.085	1046.38
392.31	1047.38
392.534	1046.38
392.759	1059.38
392.984	1038.38
393.208	1050.38
393.433	1054.38
393.658	1030.38
393.882	1025.38
394.107	1039.38
394.331	1044.38
394.556	1033.38
394.78	1078.38
395.005	1049.38
395.229	1068.38
395.454	1057.38
395.678	1064.38
395.903	1038.38
396.127	1035.38
396.352	1051.38
396.576	1060.38
396.801	1073.38
397.025	1068.38
397.249	1079.38
397.474	1088.38
397.698	1090.38
397.922	1090.38
398.147	1126.38
398.371	1120.38
398.595	1121.38
398.82	1146.38
399.044	1125.38
399.268	1140.38
399.492	1162.38
399.717	1188.38
399.941	1161.38
400.165	1194.38
400.389	1193.38
400.613	1182.38
400.837	1146.38
401.062	1116.38
401.286	1125.38
401.51	1125.38
401.734	1129.38
401.958	1146.38
402.182	1115.38
402.406	1133.38
402.63	1106.38
402.854	1143.38
403.078	1131.38
403.302	1110.38
403.526	1114.38
403.75	1129.38
403.974	1137.38
404.198	1136.38
404.422	1157.38
404.645	1102.38
404.869	1114.38
405.093	1130.38
405.317	1120.38
405.541	1146.38
405.765	1174.38
405.988	1177.38
406.212	1147.38
406.436	1189.38
406.66	1187.38
406.883	1196.38
407.107	1218.38
407.331	1203.38
407.555	1224.38
407.778	1218.38
408.002	1247.38
408.226	1219.38
408.449	1237.38
408.673	1192.38
408.896	1170.38
409.12	1154.38
409.344	1176.38
409.567	1128.38
409.791	1177.38
410.014	1183.38
410.238	1148.38
410.461	1180.38
410.685	1131.38
410.908	1148.38
411.132	1140.38
411.355	1125.38
411.578	1145.38
411.802	1145.38
412.025	1131.38
412.249	1116.38
412.472	1153.38
412.695	1140.38
412.919	1102.38
413.142	1123.38
413.365	1132.38
413.589	1138.38
413.812	1117.38
414.035	1092.38
414.258	1094.38
414.482	1125.38
414.705	1117.38
414.928	1128.38
415.151	1112.38
415.374	1096.38
415.597	1114.38
415.821	1111.38
416.044	1089.38
416.267	1080.38
416.49	1076.38
416.713	1107.38
416.936	1108.38
417.159	1068.38
417.382	1028.38
417.605	1060.38
417.828	1093.38
418.051	1077.38
418.274	1072.38
418.497	1073.38
418.72	1051.38
418.943	1060.38
419.166	1101.38
419.389	1156.38
419.611	1120.38
419.834	1107.38
420.057	1107.38
420.28	1069.38
420.503	1024.38
420.726	1051.38
420.948	1029.38
421.171	1024.38
421.394	1056.38
421.617	1027.38
421.839	1060.38
422.062	1047.38
422.285	1015.38
422.507	1030.38
422.73	1038.38
422.953	1063.38
423.175	1040.38
423.398	1081.38
423.621	1031.38
423.843	1045.38
424.066	1055.38
424.288	1028.38
424.511	1031.38
424.733	1049.38
424.956	1028.38
425.178	1024.38
425.401	1045.38
425.623	1052.38
425.846	1028.38
426.068	1037.38
426.291	1035.38
426.513	1033.38
426.735	1036.38
426.958	1051.38
427.18	1003.38
427.402	1038.38
427.625	1049.38
427.847	1021.38
428.069	1024.38
428.292	1048.38
428.514	1004.38
428.736	1021.38
428.958	1072.38
429.181	1035.38
429.403	989.38
429.625	1011.38
429.847	1002.38
430.069	1025.38
430.292	1064.38
430.514	1021.38
430.736	1050.38
430.958	1044.38
431.18	1011.38
431.402	1015.38
431.624	1018.38
431.846	994.38
432.068	1019.38
432.29	996.38
432.512	1034.38
432.734	1026.38
432.956	1017.38
433.178	1014.38
433.4	1033.38
433.622	1051.38
433.844	1029.38
434.066	1015.38
434.287	1051.38
434.509	1043.38
434.731	1045.38
434.953	1042.38
435.175	1052.38
435.397	1043.38
435.618	1004.38
435.84	994.38
436.062	1003.38
436.284	1004.38
436.505	1033.38
436.727	1008.38
436.949	987.38
437.17	1016.38
437.392	1037.38
437.614	997.38
437.835	980.38
438.057	996.38
438.278	989.38
438.5	983.38
438.721	1000.38
438.943	1000.38
439.165	984.38
439.386	985.38
439.608	999.38
439.829	975.38
440.05	989.38
440.272	982.38
440.493	986.38
440.715	973.38
440.936	1016.38
441.158	980.38
441.379	1004.38
441.6	1015.38
441.822	1028.38
442.043	1001.38
442.264	1008.38
442.486	991.38
442.707	1006.38
442.928	1016.38
443.149	1012.38
443.371	1010.38
443.592	1018.38
443.813	1005.38
444.034	1001.38
444.255	1031.38
444.476	1041.38
444.698	1023.38
444.919	1026.38
445.14	1111.38
445.361	1032.38
445.582	995.38
445.803	1019.38
446.024	1001.38
446.245	1012.38
446.466	995.38
446.687	960.38
446.908	971.38
447.129	967.38
447.35	967.38
447.571	974.38
447.792	955.38
448.013	940.38
448.234	942.38
448.455	949.38
448.675	946.38
448.896	952.38
449.117	949.38
449.338	963.38
449.559	939.38
449.779	952.38
450	925.38
450.221	925.38
450.442	948.38
450.662	932.38
450.883	954.38
451.104	950.38
451.324	932.38
451.545	906.38
451.766	942.38
451.986	925.38
452.207	939.38
452.428	945.38
452.648	922.38
452.869	884.38
453.089	926.38
453.31	912.38
453.53	939.38
453.751	906.38
453.971	902.38
454.192	903.38
454.412	898.38
454.633	897.38
454.853	926.38
455.073	904.38
455.294	914.38
455.514	909.38
455.734	891.38
455.955	884.38
456.175	880.38
456.395	896.38
456.616	884.38
456.836	896.38
457.056	900.38
457.276	896.38
457.497	918.38
457.717	909.38
457.937	906.38
458.157	931.38
458.377	937.38
458.598	929.38
458.818	949.38
459.038	944.38
459.258	980.38
459.478	948.38
459.698	955.38
459.918	962.38
460.138	995.38
460.358	972.38
460.578	1004.38
460.798	1001.38
461.018	1024.38
461.238	1032.38
461.458	1011.38
461.678	987.38
461.898	1041.38
462.118	996.38
462.338	1064.38
462.558	1056.38
462.777	1062.38
462.997	1064.38
463.217	1063.38
463.437	1093.38
463.657	1097.38
463.876	1057.38
464.096	1058.38
464.316	1048.38
464.536	1068.38
464.755	1047.38
464.975	1053.38
465.195	1063.38
465.414	1031.38
465.634	1013.38
465.854	1011.38
466.073	1016.38
466.293	988.38
466.512	971.38
466.732	971.38
466.951	966.38
467.171	945.38
467.391	980.38
467.61	968.38
467.829	981.38
468.049	981.38
468.268	982.38
468.488	978.38
468.707	979.38
468.927	980.38
469.146	998.38
469.365	971.38
469.585	956.38
469.804	986.38
470.023	990.38
470.243	1002.38
470.462	984.38
470.681	985.38
470.901	1005.38
471.12	1017.38
471.339	996.38
471.558	995.38
471.777	981.38
471.997	972.38
472.216	992.38
472.435	1002.38
472.654	1004.38
472.873	970.38
473.092	979.38
473.311	1010.38
473.53	1002.38
473.749	1022.38
473.968	1028.38
474.187	1035.38
474.406	979.38
474.625	994.38
474.844	1024.38
475.063	1026.38
475.282	1026.38
475.501	1043.38
475.72	1072.38
475.939	1073.38
476.158	1066.38
476.377	1067.38
476.596	1081.38
476.814	1112.38
477.033	1061.38
477.252	1119.38
477.471	1102.38
477.69	1108.38
477.908	1130.38
478.127	1121.38
478.346	1144.38
478.564	1176.38
478.783	1112.38
479.002	1129.38
479.22	1163.38
479.439	1185.38
479.658	1142.38
479.876	1157.38
480.095	1205.38
480.313	1177.38
480.532	1189.38
480.751	1198.38
480.969	1179.38
481.188	1180.38
481.406	1172.38
481.624	1182.38
481.843	1156.38
482.061	1185.38
482.28	1208.38
482.498	1223.38
482.717	1199.38
482.935	1208.38
483.153	1187.38
483.372	1193.38
483.59	1210.38
483.808	1195.38
484.027	1211.38
484.245	1202.38
484.463	1188.38
484.681	1193.38
484.9	1225.38
485.118	1251.38
485.336	1210.38
485.554	1254.38
485.772	1227.38
485.99	1195.38
486.209	1246.38
486.427	1213.38
486.645	1218.38
486.863	1232.38
487.081	1244.38
487.299	1216.38
487.517	1243.38
487.735	1204.38
487.953	1206.38
488.171	1253.38
488.389	1240.38
488.607	1241.38
488.825	1259.38
489.043	1234.38
489.261	1248.38
489.479	1230.38
489.696	1224.38
489.914	1244.38
490.132	1256.38
490.35	1235.38
490.568	1261.38
490.786	1251.38
491.003	1266.38
491.221	1266.38
491.439	1271.38
491.657	1238.38
491.874	1269.38
492.092	1256.38
492.31	1282.38
492.527	1245.38
492.745	1280.38
492.963	1280.38
493.18	1243.38
493.398	1268.38
493.615	1271.38
493.833	1258.38
494.05	1257.38
494.268	1258.38
494.485	1280.38
494.703	1268.38
494.92	1312.38
495.138	1320.38
495.355	1266.38
495.573	1297.38
495.79	1337.38
496.008	1325.38
496.225	1304.38
496.442	1334.38
496.66	1314.38
496.877	1310.38
497.094	1339.38
497.312	1369.38
497.529	1381.38
497.746	1361.38
497.963	1383.38
498.181	1412.38
498.398	1385.38
498.615	1467.38
498.832	1496.38
499.049	1510.38
499.267	1510.38
499.484	1538.38
499.701	1598.38
499.918	1595.38
500.135	1600.38
500.352	1682.38
500.569	1677.38
500.786	1658.38
501.003	1656.38
501.22	1614.38
501.437	1592.38
501.654	1607.38
501.871	1541.38
502.088	1530.38
502.305	1464.38
502.522	1486.38
502.739	1441.38
502.956	1388.38
503.172	1418.38
503.389	1400.38
503.606	1368.38
503.823	1324.38
504.04	1288.38
504.256	1332.38
504.473	1289.38
504.69	1300.38
504.907	1302.38
505.123	1281.38
505.34	1274.38
505.557	1241.38
505.773	1244.38
505.99	1214.38
506.207	1208.38
506.423	1195.38
506.64	1195.38
506.856	1204.38
507.073	1158.38
507.289	1165.38
507.506	1170.38
507.722	1188.38
507.939	1145.38
508.155	1114.38
508.372	1107.38
508.588	1114.38
508.805	1142.38
509.021	1115.38
509.238	1136.38
509.454	1120.38
509.67	1092.38
509.887	1105.38
510.103	1104.38
510.319	1089.38
510.536	1083.38
510.752	1060.38
510.968	1096.38
511.184	1066.38
511.401	1106.38
511.617	1081.38
511.833	1053.38
512.049	1067.38
512.265	1080.38
512.481	1092.38
512.698	1066.38
512.914	1051.38
513.13	1072.38
513.346	1058.38
513.562	1061.38
513.778	1080.38
513.994	1064.38
514.21	1069.38
514.426	1047.38
514.642	1047.38
514.858	1111.38
515.074	1085.38
515.29	1067.38
515.506	1081.38
515.721	1070.38
515.937	1110.38
516.153	1081.38
516.369	1066.38
516.585	1092.38
516.801	1078.38
517.016	1102.38
517.232	1127.38
517.448	1104.38
517.664	1097.38
517.879	1113.38
518.095	1088.38
518.311	1100.38
518.527	1072.38
518.742	1092.38
518.958	1100.38
519.173	1100.38
519.389	1089.38
519.605	1068.38
519.82	1064.38
520.036	1072.38
520.251	1060.38
520.467	1038.38
520.682	1050.38
520.898	1038.38
521.113	1051.38
521.329	1028.38
521.544	1003.38
521.76	1045.38
521.975	1025.38
522.19	1014.38
522.406	990.38
522.621	984.38
522.836	1011.38
523.052	1029.38
523.267	988.38
523.482	1012.38
523.698	980.38
523.913	990.38
524.128	975.38
524.343	1001.38
524.559	1011.38
524.774	966.38
524.989	981.38
525.204	986.38
525.419	958.38
525.634	981.38
525.849	984.38
526.064	959.38
526.28	992.38
526.495	994.38
526.71	962.38
526.925	985.38
527.14	970.38
527.355	952.38
527.57	959.38
527.785	965.38
527.999	944.38
528.214	964.38
528.429	973.38
528.644	955.38
528.859	944.38
529.074	941.38
529.289	935.38
529.503	917.38
529.718	963.38
529.933	963.38
530.148	980.38
530.363	956.38
530.577	952.38
530.792	935.38
531.007	942.38
531.221	949.38
531.436	927.38
531.651	955.38
531.865	914.38
532.08	971.38
532.295	936.38
532.509	885.38
532.724	926.38
532.938	952.38
533.153	939.38
533.367	920.38
533.582	913.38
533.796	936.38
534.011	932.38
534.225	910.38
534.44	889.38
534.654	913.38
534.868	920.38
535.083	928.38
535.297	886.38
535.511	868.38
535.726	915.38
535.94	872.38
536.154	902.38
536.369	902.38
536.583	859.38
536.797	849.38
537.011	889.38
537.225	882.38
537.44	860.38
537.654	885.38
537.868	861.38
538.082	872.38
538.296	876.38
538.51	867.38
538.724	862.38
538.938	850.38
539.153	870.38
539.367	878.38
539.581	880.38
539.795	888.38
540.009	867.38
540.222	876.38
540.436	846.38
540.65	846.38
540.864	854.38
541.078	874.38
541.292	853.38
541.506	858.38
541.72	845.38
541.934	897.38
542.147	880.38
542.361	864.38
542.575	844.38
542.789	853.38
543.002	853.38
543.216	845.38
543.43	861.38
543.644	838.38
543.857	830.38
544.071	830.38
544.285	845.38
544.498	856.38
544.712	842.38
544.925	850.38
545.139	848.38
545.352	823.38
545.566	822.38
545.779	829.38
545.993	836.38
546.206	820.38
546.42	819.38
546.633	827.38
546.847	823.38
547.06	829.38
547.274	841.38
547.487	840.38
547.7	822.38
547.914	835.38
548.127	846.38
548.34	834.38
548.554	803.38
548.767	818.38
548.98	826.38
549.193	820.38
549.407	825.38
549.62	843.38
549.833	830.38
550.046	819.38
550.259	825.38
550.473	805.38
550.686	833.38
550.899	806.38
551.112	822.38
551.325	821.38
551.538	820.38
551.751	796.38
551.964	797.38
552.177	793.38
552.39	798.38
552.603	810.38
552.816	802.38
553.029	777.38
553.242	776.38
553.455	791.38
553.667	791.38
553.88	789.38
554.093	791.38
554.306	793.38
554.519	770.38
554.732	788.38
554.944	784.38
555.157	775.38
555.37	756.38
555.583	757.38
555.795	777.38
556.008	762.38
556.221	740.38
556.433	727.38
556.646	740.38
556.859	751.38
557.071	745.38
557.284	738.38
557.496	717.38
557.709	762.38
557.921	739.38
558.134	732.38
558.346	721.38
558.559	726.38
558.771	729.38
558.984	734.38
559.196	726.38
559.409	704.38
559.621	739.38
559.833	727.38
560.046	713.38
560.258	709.38
560.47	718.38
560.683	712.38
560.895	696.38
561.107	706.38
561.32	703.38
561.532	711.38
561.744	708.38
561.956	699.38
562.168	687.38
562.381	714.38
562.593	700.38
562.805	711.38
563.017	703.38
563.229	708.38
563.441	715.38
563.653	723.38
563.865	714.38
564.077	704.38
564.289	699.38
564.501	701.38
564.713	699.38
564.925	759.38
565.137	709.38
565.349	718.38
565.561	724.38
565.773	696.38
565.985	742.38
566.197	717.38
566.408	724.38
566.62	738.38
566.832	712.38
567.044	769.38
567.255	734.38
567.467	755.38
567.679	758.38
567.891	729.38
568.102	739.38
568.314	714.38
568.526	710.38
568.737	728.38
568.949	705.38
569.161	685.38
569.372	673.38
569.584	665.38
569.795	645.38
570.007	679.38
570.218	649.38
570.43	642.38
570.641	644.38
570.853	656.38
571.064	631.38
571.276	626.38
571.487	657.38
571.698	627.38
571.91	622.38
572.121	630.38
572.333	604.38
572.544	599.38
572.755	592.38
572.966	591.38
573.178	613.38
573.389	595.38
573.6	585.38
573.811	595.38
574.023	577.38
574.234	586.38
574.445	561.38
574.656	578.38
574.867	568.38
575.078	581.38
575.289	572.38
575.501	552.38
575.712	563.38
575.923	555.38
576.134	567.38
576.345	575.38
576.556	562.38
576.767	551.38
576.978	570.38
577.188	545.38
577.399	538.38
577.61	532.38
577.821	536.38
578.032	540.38
578.243	535.38
578.454	534.38
578.665	522.38
578.875	518.38
579.086	532.38
579.297	518.38
579.508	512.38
579.718	516.38
579.929	526.38
580.14	525.38
580.35	526.38
580.561	519.38
580.772	512.38
580.982	507.38
581.193	502.38
581.403	496.38
581.614	487.38
581.825	507.38
582.035	506.38
582.246	517.38
582.456	505.38
582.667	508.38
582.877	480.38
583.087	494.38
583.298	474.38
583.508	484.38
583.719	493.38
583.929	483.38
584.139	491.38
584.35	472.38
584.56	483.38
584.77	491.38
584.981	483.38
585.191	459.38
585.401	473.38
585.611	436.38
585.821	472.38
586.032	477.38
586.242	489.38
586.452	474.38
586.662	472.38
586.872	474.38
587.082	470.38
587.292	488.38
587.502	471.38
587.713	479.38
587.923	460.38
588.133	454.38
588.343	464.38
588.553	475.38
588.762	467.38
588.972	450.38
589.182	489.38
589.392	463.38
589.602	454.38
589.812	497.38
590.022	468.38
590.232	454.38
590.441	465.38
590.651	422.38
590.861	434.38
591.071	473.38
591.281	471.38
591.49	466.38
591.7	455.38
591.91	441.38
592.119	434.38
592.329	448.38
592.539	465.38
592.748	467.38
592.958	447.38
593.167	450.38
593.377	450.38
593.587	470.38
593.796	464.38
594.006	470.38
594.215	447.38
594.424	461.38
594.634	442.38
594.843	437.38
595.053	451.38
595.262	425.38
595.472	400.38
595.681	431.38
595.89	425.38
596.1	418.38
596.309	408.38
596.518	425.38
596.727	400.38
596.937	408.38
597.146	405.38
597.355	421.38
597.564	417.38
597.774	407.38
597.983	399.38
598.192	427.38
598.401	406.38
598.61	385.38
598.819	413.38
599.028	406.38
599.237	404.38
599.446	382.38
599.655	396.38
599.864	402.38
600.073	386.38
600.282	402.38
600.491	386.38
600.7	377.38
600.909	382.38
601.118	382.38
601.327	387.38
601.536	379.38
601.745	392.38
601.953	383.38
602.162	381.38
602.371	381.38
602.58	370.38
602.789	372.38
602.997	380.38
603.206	387.38
603.415	382.38
603.623	372.38
603.832	345.38
604.041	365.38
604.249	353.38
604.458	356.38
604.666	383.38
604.875	353.38
605.084	373.38
605.292	375.38
605.501	369.38
605.709	377.38
605.918	358.38
606.126	366.38
606.334	363.38
606.543	360.38
606.751	340.38
606.96	346.38
607.168	375.38
607.376	344.38
607.585	353.38
607.793	346.38
608.001	346.38
608.21	350.38
608.418	372.38
608.626	344.38
608.834	331.38
609.043	346.38
609.251	345.38
609.459	354.38
609.667	353.38
609.875	357.38
610.083	343.38
610.291	338.38
610.499	333.38
610.707	348.38
610.916	341.38
611.124	349.38
611.332	345.38
611.54	332.38
611.748	325.38
611.955	344.38
612.163	348.38
612.371	322.38
612.579	321.38
612.787	327.38
612.995	344.38
613.203	321.38
613.411	344.38
613.618	343.38
613.826	342.38
614.034	328.38
614.242	327.38
614.449	332.38
614.657	328.38
614.865	327.38
615.072	321.38
615.28	325.38
615.488	318.38
615.695	328.38
615.903	314.38
616.111	344.38
616.318	326.38
616.526	336.38
616.733	334.38
616.941	315.38
617.148	320.38
617.356	317.38
617.563	318.38
617.771	317.38
617.978	324.38
618.185	300.38
618.393	337.38
618.6	324.38
618.807	306.38
619.015	305.38
619.222	328.38
619.429	323.38
619.637	310.38
619.844	306.38
620.051	317.38
620.258	320.38
620.466	310.38
620.673	299.38
620.88	311.38
621.087	308.38
621.294	312.38
621.501	297.38
621.708	296.38
621.915	310.38
622.122	296.38
622.329	298.38
622.536	293.38
622.743	311.38
622.95	308.38
623.157	288.38
623.364	300.38
623.571	302.38
623.778	298.38
623.985	306.38
624.192	300.38
624.399	298.38
624.606	293.38
624.812	280.38
625.019	284.38
625.226	280.38
625.433	285.38
625.639	266.38
625.846	298.38
626.053	292.38
626.259	294.38
626.466	306.38
626.673	288.38
626.879	285.38
627.086	274.38
627.293	297.38
627.499	285.38
627.706	281.38
627.912	248.38
628.119	286.38
628.325	274.38
628.532	264.38
628.738	267.38
628.945	291.38
629.151	281.38
629.357	289.38
629.564	283.38
629.77	260.38
629.976	262.38
630.183	288.38
630.389	268.38
630.595	261.38
630.802	269.38
631.008	277.38
631.214	265.38
631.42	261.38
631.627	259.38
631.833	250.38
632.039	256.38
632.245	273.38
632.451	275.38
632.657	267.38
632.863	271.38
633.069	252.38
633.275	257.38
633.481	262.38
633.688	224.38
633.893	259.38
634.099	264.38
634.305	261.38
634.511	244.38
634.717	242.38
634.923	262.38
635.129	247.38
635.335	260.38
635.541	244.38
635.747	248.38
635.952	244.38
636.158	241.38
636.364	248.38
636.57	248.38
636.775	269.38
636.981	259.38
637.187	254.38
637.392	267.38
637.598	237.38
637.804	242.38
638.009	231.38
638.215	242.38
638.421	242.38
638.626	235.38
638.832	252.38
639.037	254.38
639.243	226.38
639.448	242.38
639.654	241.38
639.859	237.38
640.065	232.38
640.27	250.38
640.475	252.38
640.681	238.38
640.886	245.38
641.091	261.38
641.297	246.38
641.502	240.38
641.707	235.38
641.913	232.38
642.118	218.38
642.323	243.38
642.528	228.38
642.733	236.38
642.939	240.38
643.144	244.38
643.349	253.38
643.554	237.38
643.759	237.38
643.964	229.38
644.169	232.38
644.374	245.38
644.579	227.38
644.784	225.38
644.989	221.38
645.194	241.38
645.399	245.38
645.604	217.38
645.809	234.38
646.014	233.38
646.219	234.38
646.423	243.38
646.628	231.38
646.833	232.38
647.038	236.38
647.243	242.38
647.447	242.38
647.652	233.38
647.857	248.38
648.062	242.38
648.266	229.38
648.471	228.38
648.676	246.38
648.88	244.38
649.085	230.38
649.289	235.38
649.494	214.38
649.698	220.38
649.903	237.38
650.107	243.38
650.312	229.38
650.516	224.38
650.721	240.38
650.925	237.38
651.13	220.38
651.334	211.38
651.539	238.38
651.743	232.38
651.947	240.38
652.152	237.38
652.356	237.38
652.56	213.38
652.764	236.38
652.969	186.38
653.173	206.38
653.377	192.38
653.581	221.38
653.785	206.38
653.99	209.38
654.194	187.38
654.398	211.38
654.602	198.38
654.806	197.38
655.01	209.38
655.214	193.38
655.418	205.38
655.622	200.38
655.826	216.38
656.03	204.38
656.234	195.38
656.438	191.38
656.642	192.38
656.846	196.38
657.049	198.38
657.253	187.38
657.457	187.38
657.661	179.38
657.865	161.38
658.068	162.38
658.272	164.38
658.476	140.38
658.68	148.38
658.883	136.38
659.087	134.38
659.291	127.38
659.494	137.38
659.698	118.38
659.901	122.38
660.105	122.38
660.309	107.38
660.512	112.38
660.716	115.38
660.919	120.38
661.123	106.38
661.326	101.38
661.53	96.38
661.733	109.38
661.936	102.38
662.14	98.38
662.343	91.38
662.546	89.38
662.75	101.38
662.953	80.38
663.156	89.38
663.36	79.38
663.563	70.38
663.766	89.38
663.969	85.38
664.173	88.38
664.376	92.38
664.579	102.38
664.782	86.38
664.985	98.38
665.188	71.38
665.391	87.38
665.594	93.38
665.797	75.38
666	80.38
666.203	96.38
666.406	82.38
666.609	80.38
666.812	99.38
667.015	94.38
667.218	84.38
667.421	89.38
667.624	93.38
667.827	94.38
668.03	96.38
668.232	82.38
668.435	73.38
668.638	78.38
668.841	85.38
669.043	90.38
669.246	83.38
669.449	81.38
669.651	81.38
669.854	87.38
670.057	95.38
670.259	71.38
670.462	82.38
670.665	73.38
670.867	102.38
671.07	84.38
671.272	81.38
671.475	100.38
671.677	99.38
671.88	80.38
672.082	74.38
672.284	88.38
672.487	86.38
672.689	91.38
672.892	90.38
