Data from Fe(NO3)3@0.025M.TitratingCurve.Agarose3%dH2O.NegLispCup.LampEnergy10.LIBS07252019_HRD10591_16-53-53-335.txt Node
Date: Thu Jul 25 16:53:53 EDT 2019
User: cochatt
Spectrometer: HR+D1059
Trigger mode: 1
Integration Time (sec): 1.000000E-1
Scans to average: 1
Electric dark correction enabled: true
Nonlinearity correction enabled: false
Boxcar width: 0
XAxis mode: Wavelengths
Number of Pixels in Spectrum: 2048
>>>>>Begin Spectral Data<<<<<
223.165	-23.62
223.4	-23.62
223.635	-23.62
223.869	-23.62
224.104	-18.62
224.338	-0.62
224.573	-17.62
224.808	-15.62
225.042	-11.62
225.277	-7.62
225.511	4.38
225.746	5.38
225.98	1.38
226.215	13.38
226.449	17.38
226.683	19.38
226.918	23.38
227.152	34.38
227.387	41.38
227.621	41.38
227.856	41.38
228.09	50.38
228.324	48.38
228.559	58.38
228.793	55.38
229.027	80.38
229.262	70.38
229.496	77.38
229.73	81.38
229.964	85.38
230.199	100.38
230.433	92.38
230.667	84.38
230.901	104.38
231.136	87.38
231.37	82.38
231.604	100.38
231.838	97.38
232.072	107.38
232.306	99.38
232.541	100.38
232.775	101.38
233.009	94.38
233.243	89.38
233.477	102.38
233.711	103.38
233.945	97.38
234.179	92.38
234.413	109.38
234.647	97.38
234.881	104.38
235.115	82.38
235.349	89.38
235.583	102.38
235.817	97.38
236.051	101.38
236.285	94.38
236.519	99.38
236.753	105.38
236.987	99.38
237.221	96.38
237.455	102.38
237.689	102.38
237.922	98.38
238.156	108.38
238.39	116.38
238.624	99.38
238.858	92.38
239.091	117.38
239.325	106.38
239.559	99.38
239.793	101.38
240.027	106.38
240.26	96.38
240.494	114.38
240.728	112.38
240.961	115.38
241.195	112.38
241.429	121.38
241.662	109.38
241.896	115.38
242.13	101.38
242.363	110.38
242.597	123.38
242.83	124.38
243.064	112.38
243.298	112.38
243.531	91.38
243.765	117.38
243.998	121.38
244.232	119.38
244.465	108.38
244.699	113.38
244.932	106.38
245.166	110.38
245.399	94.38
245.633	107.38
245.866	119.38
246.099	115.38
246.333	134.38
246.566	110.38
246.8	109.38
247.033	110.38
247.266	124.38
247.5	116.38
247.733	118.38
247.966	123.38
248.2	110.38
248.433	124.38
248.666	129.38
248.899	140.38
249.133	132.38
249.366	140.38
249.599	107.38
249.832	121.38
250.066	134.38
250.299	130.38
250.532	131.38
250.765	138.38
250.998	125.38
251.231	150.38
251.465	135.38
251.698	130.38
251.931	130.38
252.164	130.38
252.397	130.38
252.63	127.38
252.863	124.38
253.096	146.38
253.329	126.38
253.562	128.38
253.795	148.38
254.028	136.38
254.261	139.38
254.494	133.38
254.727	139.38
254.96	142.38
255.193	132.38
255.426	119.38
255.659	132.38
255.892	132.38
256.124	132.38
256.357	140.38
256.59	146.38
256.823	140.38
257.056	140.38
257.289	142.38
257.521	143.38
257.754	141.38
257.987	128.38
258.22	145.38
258.452	148.38
258.685	142.38
258.918	132.38
259.151	161.38
259.383	146.38
259.616	139.38
259.849	127.38
260.081	140.38
260.314	151.38
260.547	132.38
260.779	155.38
261.012	156.38
261.244	149.38
261.477	140.38
261.71	163.38
261.942	160.38
262.175	144.38
262.407	162.38
262.64	155.38
262.872	160.38
263.105	164.38
263.337	173.38
263.57	149.38
263.802	164.38
264.035	166.38
264.267	173.38
264.499	167.38
264.732	151.38
264.964	143.38
265.197	147.38
265.429	162.38
265.661	149.38
265.894	156.38
266.126	167.38
266.358	170.38
266.591	153.38
266.823	165.38
267.055	168.38
267.287	170.38
267.52	185.38
267.752	164.38
267.984	172.38
268.216	165.38
268.448	166.38
268.681	170.38
268.913	182.38
269.145	180.38
269.377	177.38
269.609	165.38
269.841	179.38
270.073	161.38
270.306	194.38
270.538	167.38
270.77	173.38
271.002	186.38
271.234	184.38
271.466	181.38
271.698	173.38
271.93	183.38
272.162	172.38
272.394	194.38
272.626	179.38
272.858	187.38
273.09	188.38
273.322	184.38
273.553	183.38
273.785	177.38
274.017	188.38
274.249	188.38
274.481	192.38
274.713	205.38
274.945	196.38
275.176	201.38
275.408	201.38
275.64	180.38
275.872	200.38
276.104	204.38
276.335	183.38
276.567	224.38
276.799	204.38
277.031	220.38
277.262	213.38
277.494	185.38
277.726	208.38
277.957	178.38
278.189	205.38
278.421	199.38
278.652	199.38
278.884	198.38
279.115	219.38
279.347	217.38
279.579	209.38
279.81	214.38
280.042	190.38
280.273	201.38
280.505	216.38
280.736	225.38
280.968	221.38
281.199	245.38
281.431	224.38
281.662	224.38
281.894	213.38
282.125	226.38
282.356	220.38
282.588	214.38
282.819	231.38
283.051	219.38
283.282	212.38
283.513	227.38
283.745	223.38
283.976	221.38
284.207	225.38
284.439	228.38
284.67	243.38
284.901	247.38
285.132	230.38
285.364	246.38
285.595	217.38
285.826	231.38
286.057	222.38
286.288	221.38
286.52	219.38
286.751	235.38
286.982	241.38
287.213	226.38
287.444	240.38
287.675	238.38
287.906	225.38
288.138	251.38
288.369	247.38
288.6	238.38
288.831	244.38
289.062	232.38
289.293	256.38
289.524	246.38
289.755	240.38
289.986	248.38
290.217	235.38
290.448	247.38
290.679	245.38
290.91	257.38
291.141	257.38
291.371	252.38
291.602	260.38
291.833	268.38
292.064	248.38
292.295	260.38
292.526	252.38
292.757	261.38
292.987	246.38
293.218	234.38
293.449	267.38
293.68	256.38
293.91	268.38
294.141	232.38
294.372	254.38
294.603	255.38
294.833	269.38
295.064	261.38
295.295	268.38
295.525	253.38
295.756	254.38
295.987	256.38
296.217	266.38
296.448	267.38
296.679	260.38
296.909	285.38
297.14	262.38
297.37	274.38
297.601	262.38
297.831	280.38
298.062	271.38
298.292	257.38
298.523	292.38
298.753	277.38
298.984	286.38
299.214	278.38
299.445	286.38
299.675	282.38
299.905	293.38
300.136	288.38
300.366	282.38
300.597	283.38
300.827	293.38
301.057	268.38
301.288	290.38
301.518	265.38
301.748	280.38
301.979	265.38
302.209	297.38
302.439	265.38
302.669	303.38
302.9	292.38
303.13	296.38
303.36	309.38
303.59	289.38
303.82	280.38
304.051	310.38
304.281	319.38
304.511	288.38
304.741	291.38
304.971	302.38
305.201	300.38
305.431	324.38
305.661	299.38
305.891	303.38
306.121	305.38
306.352	308.38
306.582	310.38
306.812	303.38
307.042	295.38
307.272	294.38
307.502	315.38
307.731	295.38
307.961	300.38
308.191	282.38
308.421	294.38
308.651	307.38
308.881	316.38
309.111	291.38
309.341	300.38
309.571	296.38
309.8	290.38
310.03	302.38
310.26	289.38
310.49	322.38
310.72	300.38
310.949	311.38
311.179	303.38
311.409	296.38
311.639	340.38
311.868	328.38
312.098	332.38
312.328	324.38
312.557	299.38
312.787	311.38
313.017	328.38
313.246	307.38
313.476	316.38
313.706	318.38
313.935	330.38
314.165	311.38
314.394	342.38
314.624	314.38
314.853	328.38
315.083	331.38
315.312	335.38
315.542	322.38
315.771	346.38
316.001	336.38
316.23	340.38
316.46	324.38
316.689	341.38
316.919	346.38
317.148	323.38
317.377	341.38
317.607	339.38
317.836	361.38
318.065	338.38
318.295	342.38
318.524	353.38
318.753	353.38
318.983	341.38
319.212	341.38
319.441	329.38
319.67	348.38
319.9	358.38
320.129	354.38
320.358	332.38
320.587	356.38
320.816	347.38
321.046	342.38
321.275	355.38
321.504	354.38
321.733	359.38
321.962	354.38
322.191	356.38
322.42	359.38
322.649	364.38
322.878	336.38
323.108	359.38
323.337	362.38
323.566	363.38
323.795	358.38
324.024	354.38
324.253	366.38
324.482	357.38
324.71	356.38
324.939	376.38
325.168	349.38
325.397	355.38
325.626	345.38
325.855	355.38
326.084	362.38
326.313	363.38
326.542	369.38
326.77	375.38
326.999	370.38
327.228	387.38
327.457	386.38
327.686	375.38
327.914	374.38
328.143	386.38
328.372	374.38
328.6	384.38
328.829	356.38
329.058	380.38
329.287	375.38
329.515	378.38
329.744	385.38
329.972	363.38
330.201	380.38
330.43	390.38
330.658	373.38
330.887	394.38
331.115	388.38
331.344	402.38
331.572	372.38
331.801	386.38
332.03	384.38
332.258	393.38
332.486	407.38
332.715	387.38
332.943	404.38
333.172	413.38
333.4	412.38
333.629	386.38
333.857	410.38
334.085	439.38
334.314	401.38
334.542	420.38
334.771	398.38
334.999	406.38
335.227	405.38
335.455	402.38
335.684	429.38
335.912	414.38
336.14	426.38
336.369	419.38
336.597	414.38
336.825	411.38
337.053	406.38
337.281	425.38
337.51	412.38
337.738	426.38
337.966	413.38
338.194	409.38
338.422	402.38
338.65	388.38
338.878	410.38
339.106	402.38
339.334	418.38
339.562	395.38
339.79	410.38
340.018	417.38
340.246	402.38
340.474	405.38
340.702	420.38
340.93	411.38
341.158	402.38
341.386	379.38
341.614	404.38
341.842	400.38
342.07	396.38
342.298	413.38
342.526	410.38
342.754	412.38
342.981	383.38
343.209	410.38
343.437	408.38
343.665	401.38
343.893	425.38
344.12	421.38
344.348	427.38
344.576	444.38
344.804	429.38
345.031	411.38
345.259	422.38
345.487	424.38
345.714	440.38
345.942	425.38
346.17	409.38
346.397	391.38
346.625	401.38
346.853	398.38
347.08	409.38
347.308	389.38
347.535	378.38
347.763	393.38
347.99	392.38
348.218	418.38
348.445	408.38
348.673	412.38
348.9	421.38
349.128	420.38
349.355	401.38
349.583	411.38
349.81	390.38
350.037	408.38
350.265	396.38
350.492	392.38
350.72	388.38
350.947	401.38
351.174	395.38
351.402	396.38
351.629	395.38
351.856	385.38
352.083	401.38
352.311	398.38
352.538	394.38
352.765	394.38
352.992	402.38
353.22	396.38
353.447	409.38
353.674	400.38
353.901	413.38
354.128	386.38
354.355	406.38
354.583	410.38
354.81	390.38
355.037	390.38
355.264	389.38
355.491	392.38
355.718	379.38
355.945	392.38
356.172	401.38
356.399	402.38
356.626	408.38
356.853	387.38
357.08	393.38
357.307	390.38
357.534	393.38
357.761	398.38
357.988	390.38
358.215	396.38
358.441	406.38
358.668	406.38
358.895	382.38
359.122	398.38
359.349	393.38
359.576	382.38
359.802	413.38
360.029	401.38
360.256	402.38
360.483	393.38
360.709	398.38
360.936	391.38
361.163	392.38
361.39	414.38
361.616	419.38
361.843	411.38
362.07	420.38
362.296	414.38
362.523	408.38
362.749	404.38
362.976	406.38
363.203	390.38
363.429	406.38
363.656	417.38
363.882	409.38
364.109	394.38
364.335	413.38
364.562	425.38
364.788	425.38
365.015	393.38
365.241	379.38
365.468	392.38
365.694	404.38
365.92	424.38
366.147	425.38
366.373	410.38
366.599	415.38
366.826	411.38
367.052	424.38
367.278	415.38
367.505	432.38
367.731	445.38
367.957	416.38
368.184	442.38
368.41	426.38
368.636	429.38
368.862	440.38
369.089	422.38
369.315	428.38
369.541	416.38
369.767	424.38
369.993	420.38
370.219	429.38
370.445	438.38
370.672	416.38
370.898	425.38
371.124	451.38
371.35	444.38
371.576	420.38
371.802	440.38
372.028	431.38
372.254	435.38
372.48	453.38
372.706	436.38
372.932	429.38
373.158	441.38
373.384	440.38
373.61	434.38
373.835	446.38
374.061	436.38
374.287	426.38
374.513	440.38
374.739	427.38
374.965	429.38
375.191	426.38
375.416	454.38
375.642	453.38
375.868	450.38
376.094	424.38
376.319	454.38
376.545	438.38
376.771	433.38
376.997	426.38
377.222	417.38
377.448	426.38
377.674	438.38
377.899	434.38
378.125	412.38
378.35	443.38
378.576	416.38
378.802	440.38
379.027	435.38
379.253	444.38
379.478	435.38
379.704	426.38
379.929	425.38
380.155	418.38
380.38	430.38
380.606	434.38
380.831	454.38
381.057	436.38
381.282	433.38
381.507	453.38
381.733	446.38
381.958	456.38
382.184	449.38
382.409	464.38
382.634	452.38
382.86	459.38
383.085	421.38
383.31	469.38
383.535	456.38
383.761	449.38
383.986	463.38
384.211	455.38
384.436	462.38
384.662	464.38
384.887	443.38
385.112	473.38
385.337	491.38
385.562	462.38
385.787	466.38
386.013	502.38
386.238	498.38
386.463	492.38
386.688	481.38
386.913	486.38
387.138	478.38
387.363	467.38
387.588	488.38
387.813	492.38
388.038	486.38
388.263	490.38
388.488	517.38
388.713	509.38
388.938	493.38
389.163	499.38
389.387	492.38
389.612	489.38
389.837	480.38
390.062	496.38
390.287	493.38
390.512	504.38
390.736	520.38
390.961	484.38
391.186	491.38
391.411	512.38
391.636	494.38
391.86	519.38
392.085	503.38
392.31	540.38
392.534	504.38
392.759	530.38
392.984	522.38
393.208	537.38
393.433	530.38
393.658	545.38
393.882	522.38
394.107	494.38
394.331	532.38
394.556	536.38
394.78	525.38
395.005	510.38
395.229	505.38
395.454	536.38
395.678	536.38
395.903	518.38
396.127	524.38
396.352	545.38
396.576	547.38
396.801	545.38
397.025	531.38
397.249	540.38
397.474	538.38
397.698	540.38
397.922	572.38
398.147	552.38
398.371	533.38
398.595	560.38
398.82	568.38
399.044	564.38
399.268	601.38
399.492	589.38
399.717	602.38
399.941	613.38
400.165	587.38
400.389	611.38
400.613	600.38
400.837	588.38
401.062	561.38
401.286	564.38
401.51	574.38
401.734	575.38
401.958	592.38
402.182	578.38
402.406	578.38
402.63	569.38
402.854	576.38
403.078	556.38
403.302	571.38
403.526	587.38
403.75	570.38
403.974	566.38
404.198	601.38
404.422	562.38
404.645	582.38
404.869	563.38
405.093	560.38
405.317	561.38
405.541	577.38
405.765	594.38
405.988	575.38
406.212	594.38
406.436	596.38
406.66	591.38
406.883	578.38
407.107	609.38
407.331	593.38
407.555	627.38
407.778	629.38
408.002	630.38
408.226	618.38
408.449	629.38
408.673	617.38
408.896	611.38
409.12	606.38
409.344	628.38
409.567	578.38
409.791	582.38
410.014	577.38
410.238	586.38
410.461	589.38
410.685	604.38
410.908	585.38
411.132	572.38
411.355	608.38
411.578	584.38
411.802	586.38
412.025	590.38
412.249	574.38
412.472	585.38
412.695	574.38
412.919	553.38
413.142	595.38
413.365	583.38
413.589	574.38
413.812	607.38
414.035	595.38
414.258	584.38
414.482	542.38
414.705	556.38
414.928	565.38
415.151	550.38
415.374	573.38
415.597	549.38
415.821	573.38
416.044	562.38
416.267	537.38
416.49	568.38
416.713	544.38
416.936	570.38
417.159	565.38
417.382	563.38
417.605	525.38
417.828	538.38
418.051	545.38
418.274	567.38
418.497	528.38
418.72	550.38
418.943	523.38
419.166	573.38
419.389	572.38
419.611	572.38
419.834	568.38
420.057	588.38
420.28	534.38
420.503	524.38
420.726	528.38
420.948	536.38
421.171	525.38
421.394	532.38
421.617	534.38
421.839	556.38
422.062	538.38
422.285	502.38
422.507	529.38
422.73	526.38
422.953	543.38
423.175	520.38
423.398	543.38
423.621	536.38
423.843	537.38
424.066	548.38
424.288	520.38
424.511	548.38
424.733	535.38
424.956	530.38
425.178	517.38
425.401	542.38
425.623	537.38
425.846	522.38
426.068	534.38
426.291	526.38
426.513	518.38
426.735	530.38
426.958	522.38
427.18	525.38
427.402	527.38
427.625	541.38
427.847	517.38
428.069	533.38
428.292	537.38
428.514	525.38
428.736	549.38
428.958	516.38
429.181	524.38
429.403	518.38
429.625	536.38
429.847	519.38
430.069	516.38
430.292	517.38
430.514	524.38
430.736	529.38
430.958	531.38
431.18	512.38
431.402	540.38
431.624	518.38
431.846	517.38
432.068	533.38
432.29	502.38
432.512	518.38
432.734	531.38
432.956	531.38
433.178	527.38
433.4	507.38
433.622	504.38
433.844	530.38
434.066	534.38
434.287	524.38
434.509	522.38
434.731	526.38
434.953	534.38
435.175	534.38
435.397	540.38
435.618	524.38
435.84	504.38
436.062	523.38
436.284	533.38
436.505	522.38
436.727	546.38
436.949	516.38
437.17	531.38
437.392	490.38
437.614	528.38
437.835	508.38
438.057	519.38
438.278	496.38
438.5	499.38
438.721	507.38
438.943	518.38
439.165	507.38
439.386	514.38
439.608	526.38
439.829	512.38
440.05	531.38
440.272	523.38
440.493	500.38
440.715	518.38
440.936	535.38
441.158	520.38
441.379	527.38
441.6	554.38
441.822	514.38
442.043	510.38
442.264	519.38
442.486	517.38
442.707	525.38
442.928	528.38
443.149	517.38
443.371	525.38
443.592	527.38
443.813	526.38
444.034	496.38
444.255	510.38
444.476	525.38
444.698	541.38
444.919	539.38
445.14	652.38
445.361	577.38
445.582	521.38
445.803	535.38
446.024	518.38
446.245	538.38
446.466	529.38
446.687	512.38
446.908	516.38
447.129	507.38
447.35	502.38
447.571	520.38
447.792	514.38
448.013	485.38
448.234	512.38
448.455	486.38
448.675	493.38
448.896	485.38
449.117	489.38
449.338	482.38
449.559	481.38
449.779	462.38
450	474.38
450.221	486.38
450.442	473.38
450.662	463.38
450.883	470.38
451.104	480.38
451.324	468.38
451.545	487.38
451.766	467.38
451.986	477.38
452.207	447.38
452.428	465.38
452.648	483.38
452.869	464.38
453.089	453.38
453.31	480.38
453.53	465.38
453.751	451.38
453.971	483.38
454.192	467.38
454.412	463.38
454.633	471.38
454.853	467.38
455.073	460.38
455.294	484.38
455.514	461.38
455.734	467.38
455.955	472.38
456.175	455.38
456.395	453.38
456.616	450.38
456.836	474.38
457.056	505.38
457.276	456.38
457.497	486.38
457.717	470.38
457.937	468.38
458.157	477.38
458.377	482.38
458.598	468.38
458.818	497.38
459.038	491.38
459.258	486.38
459.478	499.38
459.698	519.38
459.918	520.38
460.138	516.38
460.358	508.38
460.578	540.38
460.798	531.38
461.018	553.38
461.238	560.38
461.458	535.38
461.678	547.38
461.898	525.38
462.118	548.38
462.338	568.38
462.558	553.38
462.777	546.38
462.997	579.38
463.217	575.38
463.437	560.38
463.657	572.38
463.876	562.38
464.096	573.38
464.316	557.38
464.536	567.38
464.755	557.38
464.975	552.38
465.195	577.38
465.414	545.38
465.634	545.38
465.854	534.38
466.073	527.38
466.293	517.38
466.512	504.38
466.732	504.38
466.951	517.38
467.171	514.38
467.391	498.38
467.61	489.38
467.829	481.38
468.049	498.38
468.268	499.38
468.488	519.38
468.707	509.38
468.927	504.38
469.146	520.38
469.365	508.38
469.585	509.38
469.804	506.38
470.023	521.38
470.243	506.38
470.462	491.38
470.681	514.38
470.901	522.38
471.12	485.38
471.339	521.38
471.558	512.38
471.777	518.38
471.997	521.38
472.216	505.38
472.435	529.38
472.654	538.38
472.873	519.38
473.092	503.38
473.311	523.38
473.53	526.38
473.749	506.38
473.968	509.38
474.187	525.38
474.406	514.38
474.625	540.38
474.844	542.38
475.063	533.38
475.282	531.38
475.501	542.38
475.72	555.38
475.939	530.38
476.158	543.38
476.377	560.38
476.596	554.38
476.814	580.38
477.033	558.38
477.252	551.38
477.471	547.38
477.69	564.38
477.908	580.38
478.127	561.38
478.346	558.38
478.564	571.38
478.783	566.38
479.002	585.38
479.22	568.38
479.439	595.38
479.658	602.38
479.876	594.38
480.095	604.38
480.313	584.38
480.532	592.38
480.751	611.38
480.969	605.38
481.188	601.38
481.406	581.38
481.624	594.38
481.843	589.38
482.061	599.38
482.28	582.38
482.498	608.38
482.717	617.38
482.935	610.38
483.153	613.38
483.372	604.38
483.59	618.38
483.808	601.38
484.027	591.38
484.245	598.38
484.463	615.38
484.681	615.38
484.9	628.38
485.118	604.38
485.336	576.38
485.554	604.38
485.772	610.38
485.99	602.38
486.209	619.38
486.427	590.38
486.645	620.38
486.863	624.38
487.081	611.38
487.299	620.38
487.517	598.38
487.735	604.38
487.953	610.38
488.171	600.38
488.389	591.38
488.607	626.38
488.825	638.38
489.043	636.38
489.261	632.38
489.479	626.38
489.696	624.38
489.914	626.38
490.132	626.38
490.35	625.38
490.568	647.38
490.786	613.38
491.003	632.38
491.221	624.38
491.439	648.38
491.657	655.38
491.874	634.38
492.092	637.38
492.31	646.38
492.527	642.38
492.745	637.38
492.963	646.38
493.18	661.38
493.398	660.38
493.615	650.38
493.833	670.38
494.05	678.38
494.268	650.38
494.485	651.38
494.703	654.38
494.92	684.38
495.138	669.38
495.355	679.38
495.573	684.38
495.79	681.38
496.008	704.38
496.225	712.38
496.442	683.38
496.66	709.38
496.877	705.38
497.094	722.38
497.312	713.38
497.529	744.38
497.746	738.38
497.963	739.38
498.181	760.38
498.398	786.38
498.615	776.38
498.832	779.38
499.049	807.38
499.267	817.38
499.484	847.38
499.701	862.38
499.918	865.38
500.135	870.38
500.352	882.38
500.569	901.38
500.786	907.38
501.003	876.38
501.22	886.38
501.437	891.38
501.654	856.38
501.871	823.38
502.088	830.38
502.305	806.38
502.522	787.38
502.739	799.38
502.956	782.38
503.172	755.38
503.389	759.38
503.606	726.38
503.823	737.38
504.04	738.38
504.256	707.38
504.473	718.38
504.69	718.38
504.907	689.38
505.123	673.38
505.34	685.38
505.557	685.38
505.773	661.38
505.99	655.38
506.207	650.38
506.423	639.38
506.64	642.38
506.856	625.38
507.073	624.38
507.289	637.38
507.506	608.38
507.722	602.38
507.939	591.38
508.155	596.38
508.372	609.38
508.588	604.38
508.805	591.38
509.021	587.38
509.238	599.38
509.454	604.38
509.67	592.38
509.887	592.38
510.103	583.38
510.319	577.38
510.536	582.38
510.752	591.38
510.968	574.38
511.184	582.38
511.401	550.38
511.617	546.38
511.833	565.38
512.049	589.38
512.265	549.38
512.481	575.38
512.698	580.38
512.914	561.38
513.13	563.38
513.346	538.38
513.562	555.38
513.778	571.38
513.994	573.38
514.21	563.38
514.426	571.38
514.642	552.38
514.858	576.38
515.074	571.38
515.29	580.38
515.506	562.38
515.721	576.38
515.937	580.38
516.153	581.38
516.369	582.38
516.585	587.38
516.801	603.38
517.016	604.38
517.232	574.38
517.448	602.38
517.664	585.38
517.879	585.38
518.095	607.38
518.311	607.38
518.527	596.38
518.742	600.38
518.958	582.38
519.173	607.38
519.389	614.38
519.605	566.38
519.82	555.38
520.036	559.38
520.251	559.38
520.467	560.38
520.682	549.38
520.898	556.38
521.113	553.38
521.329	532.38
521.544	550.38
521.76	528.38
521.975	543.38
522.19	546.38
522.406	552.38
522.621	542.38
522.836	531.38
523.052	533.38
523.267	525.38
523.482	537.38
523.698	556.38
523.913	532.38
524.128	540.38
524.343	540.38
524.559	515.38
524.774	509.38
524.989	520.38
525.204	508.38
525.419	526.38
525.634	501.38
525.849	536.38
526.064	526.38
526.28	534.38
526.495	530.38
526.71	526.38
526.925	513.38
527.14	505.38
527.355	513.38
527.57	501.38
527.785	513.38
527.999	517.38
528.214	496.38
528.429	488.38
528.644	514.38
528.859	519.38
529.074	505.38
529.289	506.38
529.503	496.38
529.718	508.38
529.933	508.38
530.148	499.38
530.363	501.38
530.577	498.38
530.792	504.38
531.007	502.38
531.221	494.38
531.436	488.38
531.651	499.38
531.865	510.38
532.08	511.38
532.295	510.38
532.509	483.38
532.724	502.38
532.938	506.38
533.153	516.38
533.367	491.38
533.582	513.38
533.796	501.38
534.011	492.38
534.225	481.38
534.44	474.38
534.654	486.38
534.868	519.38
535.083	500.38
535.297	482.38
535.511	486.38
535.726	499.38
535.94	506.38
536.154	491.38
536.369	476.38
536.583	493.38
536.797	478.38
537.011	484.38
537.225	480.38
537.44	459.38
537.654	482.38
537.868	477.38
538.082	485.38
538.296	474.38
538.51	446.38
538.724	475.38
538.938	471.38
539.153	475.38
539.367	492.38
539.581	475.38
539.795	498.38
540.009	486.38
540.222	459.38
540.436	462.38
540.65	459.38
540.864	476.38
541.078	465.38
541.292	452.38
541.506	447.38
541.72	465.38
541.934	465.38
542.147	451.38
542.361	455.38
542.575	449.38
542.789	453.38
543.002	451.38
543.216	466.38
543.43	472.38
543.644	500.38
543.857	475.38
544.071	471.38
544.285	481.38
544.498	472.38
544.712	455.38
544.925	484.38
545.139	471.38
545.352	478.38
545.566	461.38
545.779	468.38
545.993	482.38
546.206	444.38
546.42	459.38
546.633	482.38
546.847	467.38
547.06	440.38
547.274	460.38
547.487	473.38
547.7	465.38
547.914	442.38
548.127	466.38
548.34	450.38
548.554	474.38
548.767	476.38
548.98	473.38
549.193	470.38
549.407	462.38
549.62	463.38
549.833	466.38
550.046	450.38
550.259	450.38
550.473	463.38
550.686	468.38
550.899	436.38
551.112	463.38
551.325	453.38
551.538	468.38
551.751	456.38
551.964	452.38
552.177	454.38
552.39	458.38
552.603	468.38
552.816	454.38
553.029	466.38
553.242	468.38
553.455	468.38
553.667	469.38
553.88	456.38
554.093	460.38
554.306	477.38
554.519	452.38
554.732	454.38
554.944	430.38
555.157	439.38
555.37	446.38
555.583	426.38
555.795	450.38
556.008	434.38
556.221	417.38
556.433	428.38
556.646	442.38
556.859	424.38
557.071	442.38
557.284	448.38
557.496	418.38
557.709	428.38
557.921	412.38
558.134	416.38
558.346	414.38
558.559	412.38
558.771	404.38
558.984	413.38
559.196	400.38
559.409	405.38
559.621	414.38
559.833	395.38
560.046	408.38
560.258	409.38
560.47	429.38
560.683	398.38
560.895	411.38
561.107	426.38
561.32	407.38
561.532	425.38
561.744	399.38
561.956	402.38
562.168	398.38
562.381	406.38
562.593	402.38
562.805	405.38
563.017	421.38
563.229	427.38
563.441	439.38
563.653	418.38
563.865	421.38
564.077	424.38
564.289	450.38
564.501	413.38
564.713	424.38
564.925	419.38
565.137	425.38
565.349	451.38
565.561	441.38
565.773	438.38
565.985	444.38
566.197	450.38
566.408	441.38
566.62	450.38
566.832	475.38
567.044	461.38
567.255	434.38
567.467	449.38
567.679	457.38
567.891	433.38
568.102	451.38
568.314	437.38
568.526	427.38
568.737	411.38
568.949	418.38
569.161	396.38
569.372	425.38
569.584	430.38
569.795	409.38
570.007	429.38
570.218	433.38
570.43	381.38
570.641	386.38
570.853	384.38
571.064	392.38
571.276	397.38
571.487	379.38
571.698	364.38
571.91	343.38
572.121	361.38
572.333	363.38
572.544	365.38
572.755	360.38
572.966	383.38
573.178	349.38
573.389	335.38
573.6	353.38
573.811	354.38
574.023	343.38
574.234	347.38
574.445	350.38
574.656	357.38
574.867	348.38
575.078	361.38
575.289	337.38
575.501	330.38
575.712	331.38
575.923	331.38
576.134	325.38
576.345	339.38
576.556	336.38
576.767	333.38
576.978	324.38
577.188	320.38
577.399	345.38
577.61	345.38
577.821	324.38
578.032	310.38
578.243	320.38
578.454	312.38
578.665	322.38
578.875	311.38
579.086	323.38
579.297	308.38
579.508	320.38
579.718	331.38
579.929	317.38
580.14	316.38
580.35	302.38
580.561	315.38
580.772	337.38
580.982	298.38
581.193	309.38
581.403	315.38
581.614	317.38
581.825	328.38
582.035	321.38
582.246	314.38
582.456	316.38
582.667	315.38
582.877	324.38
583.087	320.38
583.298	295.38
583.508	302.38
583.719	306.38
583.929	299.38
584.139	311.38
584.35	290.38
584.56	299.38
584.77	292.38
584.981	283.38
585.191	300.38
585.401	316.38
585.611	296.38
585.821	297.38
586.032	294.38
586.242	301.38
586.452	304.38
586.662	305.38
586.872	293.38
587.082	285.38
587.292	292.38
587.502	283.38
587.713	277.38
587.923	283.38
588.133	294.38
588.343	279.38
588.553	298.38
588.762	293.38
588.972	283.38
589.182	290.38
589.392	274.38
589.602	272.38
589.812	287.38
590.022	308.38
590.232	291.38
590.441	286.38
590.651	294.38
590.861	279.38
591.071	280.38
591.281	278.38
591.49	297.38
591.7	301.38
591.91	294.38
592.119	284.38
592.329	298.38
592.539	278.38
592.748	271.38
592.958	293.38
593.167	288.38
593.377	290.38
593.587	289.38
593.796	282.38
594.006	296.38
594.215	298.38
594.424	304.38
594.634	295.38
594.843	293.38
595.053	284.38
595.262	283.38
595.472	274.38
595.681	265.38
595.89	288.38
596.1	270.38
596.309	279.38
596.518	246.38
596.727	262.38
596.937	259.38
597.146	277.38
597.355	282.38
597.564	266.38
597.774	256.38
597.983	255.38
598.192	273.38
598.401	256.38
598.61	265.38
598.819	262.38
599.028	270.38
599.237	269.38
599.446	253.38
599.655	263.38
599.864	268.38
600.073	237.38
600.282	244.38
600.491	244.38
600.7	262.38
600.909	262.38
601.118	263.38
601.327	263.38
601.536	250.38
601.745	235.38
601.953	245.38
602.162	249.38
602.371	254.38
602.58	237.38
602.789	237.38
602.997	246.38
603.206	242.38
603.415	245.38
603.623	237.38
603.832	246.38
604.041	244.38
604.249	255.38
604.458	251.38
604.666	235.38
604.875	238.38
605.084	253.38
605.292	218.38
605.501	251.38
605.709	235.38
605.918	241.38
606.126	234.38
606.334	220.38
606.543	246.38
606.751	242.38
606.96	233.38
607.168	233.38
607.376	233.38
607.585	237.38
607.793	248.38
608.001	226.38
608.21	240.38
608.418	240.38
608.626	234.38
608.834	247.38
609.043	242.38
609.251	227.38
609.459	235.38
609.667	237.38
609.875	233.38
610.083	242.38
610.291	223.38
610.499	224.38
610.707	235.38
610.916	238.38
611.124	227.38
611.332	231.38
611.54	216.38
611.748	244.38
611.955	234.38
612.163	230.38
612.371	217.38
612.579	225.38
612.787	214.38
612.995	210.38
613.203	222.38
613.411	219.38
613.618	217.38
613.826	232.38
614.034	231.38
614.242	231.38
614.449	211.38
614.657	237.38
614.865	232.38
615.072	229.38
615.28	228.38
615.488	256.38
615.695	219.38
615.903	225.38
616.111	224.38
616.318	250.38
616.526	217.38
616.733	233.38
616.941	221.38
617.148	222.38
617.356	217.38
617.563	241.38
617.771	226.38
617.978	212.38
618.185	237.38
618.393	229.38
618.6	241.38
618.807	225.38
619.015	216.38
619.222	215.38
619.429	208.38
619.637	224.38
619.844	225.38
620.051	208.38
620.258	227.38
620.466	188.38
620.673	205.38
620.88	197.38
621.087	211.38
621.294	216.38
621.501	220.38
621.708	209.38
621.915	197.38
622.122	207.38
622.329	212.38
622.536	212.38
622.743	197.38
622.95	211.38
623.157	210.38
623.364	214.38
623.571	209.38
623.778	212.38
623.985	218.38
624.192	214.38
624.399	208.38
624.606	212.38
624.812	224.38
625.019	211.38
625.226	195.38
625.433	197.38
625.639	202.38
625.846	207.38
626.053	197.38
626.259	185.38
626.466	181.38
626.673	188.38
626.879	209.38
627.086	210.38
627.293	180.38
627.499	198.38
627.706	194.38
627.912	205.38
628.119	202.38
628.325	205.38
628.532	186.38
628.738	192.38
628.945	203.38
629.151	185.38
629.357	204.38
629.564	209.38
629.77	196.38
629.976	197.38
630.183	177.38
630.389	200.38
630.595	196.38
630.802	206.38
631.008	189.38
631.214	183.38
631.42	178.38
631.627	194.38
631.833	206.38
632.039	182.38
632.245	193.38
632.451	196.38
632.657	202.38
632.863	184.38
633.069	196.38
633.275	187.38
633.481	189.38
633.688	197.38
633.893	189.38
634.099	188.38
634.305	187.38
634.511	184.38
634.717	184.38
634.923	182.38
635.129	202.38
635.335	186.38
635.541	192.38
635.747	172.38
635.952	181.38
636.158	173.38
636.364	180.38
636.57	192.38
636.775	196.38
636.981	185.38
637.187	188.38
637.392	177.38
637.598	193.38
637.804	180.38
638.009	179.38
638.215	180.38
638.421	176.38
638.626	185.38
638.832	171.38
639.037	181.38
639.243	185.38
639.448	175.38
639.654	171.38
639.859	176.38
640.065	184.38
640.27	172.38
640.475	172.38
640.681	183.38
640.886	179.38
641.091	169.38
641.297	195.38
641.502	167.38
641.707	179.38
641.913	179.38
642.118	165.38
642.323	166.38
642.528	159.38
642.733	157.38
642.939	180.38
643.144	184.38
643.349	176.38
643.554	184.38
643.759	177.38
643.964	160.38
644.169	170.38
644.374	193.38
644.579	188.38
644.784	184.38
644.989	182.38
645.194	171.38
645.399	165.38
645.604	177.38
645.809	169.38
646.014	177.38
646.219	170.38
646.423	174.38
646.628	161.38
646.833	168.38
647.038	171.38
647.243	184.38
647.447	165.38
647.652	166.38
647.857	169.38
648.062	168.38
648.266	173.38
648.471	195.38
648.676	176.38
648.88	171.38
649.085	165.38
649.289	170.38
649.494	169.38
649.698	164.38
649.903	148.38
650.107	171.38
650.312	144.38
650.516	149.38
650.721	169.38
650.925	157.38
651.13	165.38
651.334	153.38
651.539	170.38
651.743	160.38
651.947	161.38
652.152	164.38
652.356	154.38
652.56	164.38
652.764	153.38
652.969	160.38
653.173	157.38
653.377	130.38
653.581	133.38
653.785	154.38
653.99	140.38
654.194	156.38
654.398	152.38
654.602	138.38
654.806	141.38
655.01	136.38
655.214	149.38
655.418	147.38
655.622	143.38
655.826	147.38
656.03	141.38
656.234	141.38
656.438	146.38
656.642	140.38
656.846	127.38
657.049	131.38
657.253	132.38
657.457	133.38
657.661	130.38
657.865	130.38
658.068	137.38
658.272	120.38
658.476	114.38
658.68	102.38
658.883	112.38
659.087	118.38
659.291	93.38
659.494	112.38
659.698	95.38
659.901	105.38
660.105	108.38
660.309	108.38
660.512	91.38
660.716	91.38
660.919	100.38
661.123	106.38
661.326	98.38
661.53	86.38
661.733	85.38
661.936	97.38
662.14	90.38
662.343	91.38
662.546	82.38
662.75	79.38
662.953	76.38
663.156	85.38
663.36	98.38
663.563	101.38
663.766	88.38
663.969	72.38
664.173	75.38
664.376	76.38
664.579	80.38
664.782	82.38
664.985	82.38
665.188	92.38
665.391	99.38
665.594	83.38
665.797	81.38
666	76.38
666.203	90.38
666.406	84.38
666.609	99.38
666.812	97.38
667.015	87.38
667.218	78.38
667.421	80.38
667.624	83.38
667.827	86.38
668.03	77.38
668.232	81.38
668.435	82.38
668.638	78.38
668.841	77.38
669.043	92.38
669.246	86.38
669.449	81.38
669.651	81.38
669.854	96.38
670.057	77.38
670.259	91.38
670.462	95.38
670.665	83.38
670.867	87.38
671.07	85.38
671.272	90.38
671.475	92.38
671.677	86.38
671.88	73.38
672.082	89.38
672.284	80.38
672.487	75.38
672.689	87.38
672.892	77.38
