Data from Fe(NO3)3@0.025M.TitratingCurve.Agarose3%dH2O.NegLispCup.LampEnergy10.LIBS07252019_HRD10591_16-54-06-336.txt Node
Date: Thu Jul 25 16:54:06 EDT 2019
User: cochatt
Spectrometer: HR+D1059
Trigger mode: 1
Integration Time (sec): 1.000000E-1
Scans to average: 1
Electric dark correction enabled: true
Nonlinearity correction enabled: false
Boxcar width: 0
XAxis mode: Wavelengths
Number of Pixels in Spectrum: 2048
>>>>>Begin Spectral Data<<<<<
223.165	-11.94
223.4	-11.94
223.635	-11.94
223.869	-24.94
224.104	-12.94
224.338	-17.94
224.573	-22.94
224.808	-13.94
225.042	-9.94
225.277	-12.94
225.511	2.06
225.746	-0.94
225.98	0.06
226.215	10.06
226.449	29.06
226.683	40.06
226.918	30.06
227.152	17.06
227.387	36.06
227.621	22.06
227.856	51.06
228.09	57.06
228.324	49.06
228.559	51.06
228.793	63.06
229.027	81.06
229.262	82.06
229.496	92.06
229.73	103.06
229.964	104.06
230.199	92.06
230.433	102.06
230.667	110.06
230.901	94.06
231.136	102.06
231.37	112.06
231.604	103.06
231.838	116.06
232.072	107.06
232.306	112.06
232.541	122.06
232.775	115.06
233.009	120.06
233.243	119.06
233.477	108.06
233.711	126.06
233.945	124.06
234.179	120.06
234.413	114.06
234.647	128.06
234.881	128.06
235.115	137.06
235.349	123.06
235.583	117.06
235.817	114.06
236.051	118.06
236.285	122.06
236.519	121.06
236.753	126.06
236.987	124.06
237.221	119.06
237.455	128.06
237.689	133.06
237.922	134.06
238.156	145.06
238.39	135.06
238.624	138.06
238.858	148.06
239.091	132.06
239.325	140.06
239.559	126.06
239.793	127.06
240.027	143.06
240.26	128.06
240.494	136.06
240.728	140.06
240.961	160.06
241.195	151.06
241.429	134.06
241.662	130.06
241.896	137.06
242.13	150.06
242.363	149.06
242.597	139.06
242.83	135.06
243.064	135.06
243.298	141.06
243.531	145.06
243.765	135.06
243.998	154.06
244.232	134.06
244.465	135.06
244.699	141.06
244.932	140.06
245.166	131.06
245.399	152.06
245.633	135.06
245.866	144.06
246.099	148.06
246.333	162.06
246.566	150.06
246.8	166.06
247.033	142.06
247.266	149.06
247.5	158.06
247.733	156.06
247.966	171.06
248.2	181.06
248.433	176.06
248.666	161.06
248.899	164.06
249.133	175.06
249.366	167.06
249.599	177.06
249.832	151.06
250.066	178.06
250.299	170.06
250.532	163.06
250.765	173.06
250.998	166.06
251.231	169.06
251.465	164.06
251.698	162.06
251.931	166.06
252.164	168.06
252.397	177.06
252.63	184.06
252.863	190.06
253.096	188.06
253.329	186.06
253.562	189.06
253.795	200.06
254.028	209.06
254.261	190.06
254.494	195.06
254.727	199.06
254.96	194.06
255.193	184.06
255.426	194.06
255.659	189.06
255.892	202.06
256.124	170.06
256.357	182.06
256.59	191.06
256.823	177.06
257.056	209.06
257.289	193.06
257.521	187.06
257.754	190.06
257.987	192.06
258.22	198.06
258.452	185.06
258.685	222.06
258.918	206.06
259.151	188.06
259.383	220.06
259.616	200.06
259.849	227.06
260.081	234.06
260.314	240.06
260.547	232.06
260.779	206.06
261.012	231.06
261.244	212.06
261.477	233.06
261.71	236.06
261.942	213.06
262.175	216.06
262.407	214.06
262.64	219.06
262.872	215.06
263.105	238.06
263.337	244.06
263.57	232.06
263.802	215.06
264.035	199.06
264.267	217.06
264.499	226.06
264.732	209.06
264.964	222.06
265.197	198.06
265.429	203.06
265.661	226.06
265.894	217.06
266.126	210.06
266.358	235.06
266.591	223.06
266.823	226.06
267.055	225.06
267.287	230.06
267.52	217.06
267.752	216.06
267.984	218.06
268.216	224.06
268.448	230.06
268.681	228.06
268.913	231.06
269.145	225.06
269.377	240.06
269.609	236.06
269.841	233.06
270.073	207.06
270.306	218.06
270.538	240.06
270.77	240.06
271.002	247.06
271.234	234.06
271.466	238.06
271.698	241.06
271.93	260.06
272.162	258.06
272.394	219.06
272.626	246.06
272.858	243.06
273.09	258.06
273.322	266.06
273.553	255.06
273.785	262.06
274.017	267.06
274.249	274.06
274.481	305.06
274.713	311.06
274.945	304.06
275.176	306.06
275.408	298.06
275.64	280.06
275.872	280.06
276.104	268.06
276.335	261.06
276.567	282.06
276.799	266.06
277.031	277.06
277.262	266.06
277.494	272.06
277.726	274.06
277.957	279.06
278.189	258.06
278.421	260.06
278.652	267.06
278.884	270.06
279.115	250.06
279.347	271.06
279.579	264.06
279.81	268.06
280.042	289.06
280.273	268.06
280.505	266.06
280.736	292.06
280.968	268.06
281.199	264.06
281.431	284.06
281.662	284.06
281.894	285.06
282.125	286.06
282.356	262.06
282.588	284.06
282.819	287.06
283.051	290.06
283.282	273.06
283.513	295.06
283.745	294.06
283.976	297.06
284.207	309.06
284.439	276.06
284.67	289.06
284.901	283.06
285.132	313.06
285.364	305.06
285.595	295.06
285.826	298.06
286.057	304.06
286.288	293.06
286.52	292.06
286.751	296.06
286.982	308.06
287.213	297.06
287.444	314.06
287.675	298.06
287.906	302.06
288.138	315.06
288.369	309.06
288.6	304.06
288.831	293.06
289.062	311.06
289.293	314.06
289.524	309.06
289.755	300.06
289.986	300.06
290.217	300.06
290.448	304.06
290.679	310.06
290.91	306.06
291.141	311.06
291.371	325.06
291.602	313.06
291.833	312.06
292.064	320.06
292.295	318.06
292.526	324.06
292.757	307.06
292.987	339.06
293.218	299.06
293.449	306.06
293.68	311.06
293.91	314.06
294.141	328.06
294.372	313.06
294.603	294.06
294.833	308.06
295.064	324.06
295.295	311.06
295.525	343.06
295.756	322.06
295.987	316.06
296.217	305.06
296.448	326.06
296.679	315.06
296.909	316.06
297.14	305.06
297.37	320.06
297.601	349.06
297.831	329.06
298.062	336.06
298.292	334.06
298.523	328.06
298.753	343.06
298.984	339.06
299.214	335.06
299.445	328.06
299.675	327.06
299.905	329.06
300.136	337.06
300.366	326.06
300.597	326.06
300.827	348.06
301.057	338.06
301.288	343.06
301.518	349.06
301.748	345.06
301.979	354.06
302.209	363.06
302.439	382.06
302.669	347.06
302.9	361.06
303.13	342.06
303.36	351.06
303.59	369.06
303.82	354.06
304.051	369.06
304.281	364.06
304.511	353.06
304.741	336.06
304.971	342.06
305.201	370.06
305.431	376.06
305.661	358.06
305.891	341.06
306.121	347.06
306.352	369.06
306.582	356.06
306.812	368.06
307.042	370.06
307.272	366.06
307.502	373.06
307.731	355.06
307.961	380.06
308.191	376.06
308.421	349.06
308.651	328.06
308.881	361.06
309.111	353.06
309.341	371.06
309.571	358.06
309.8	373.06
310.03	373.06
310.26	368.06
310.49	350.06
310.72	358.06
310.949	363.06
311.179	371.06
311.409	371.06
311.639	355.06
311.868	365.06
312.098	360.06
312.328	376.06
312.557	372.06
312.787	377.06
313.017	372.06
313.246	381.06
313.476	401.06
313.706	386.06
313.935	397.06
314.165	384.06
314.394	384.06
314.624	381.06
314.853	374.06
315.083	375.06
315.312	394.06
315.542	376.06
315.771	387.06
316.001	395.06
316.23	387.06
316.46	391.06
316.689	384.06
316.919	394.06
317.148	385.06
317.377	409.06
317.607	391.06
317.836	389.06
318.065	403.06
318.295	403.06
318.524	388.06
318.753	391.06
318.983	395.06
319.212	389.06
319.441	405.06
319.67	417.06
319.9	376.06
320.129	391.06
320.358	402.06
320.587	400.06
320.816	408.06
321.046	410.06
321.275	393.06
321.504	401.06
321.733	402.06
321.962	405.06
322.191	417.06
322.42	386.06
322.649	383.06
322.878	395.06
323.108	390.06
323.337	416.06
323.566	410.06
323.795	399.06
324.024	417.06
324.253	391.06
324.482	414.06
324.71	418.06
324.939	420.06
325.168	415.06
325.397	412.06
325.626	424.06
325.855	407.06
326.084	422.06
326.313	422.06
326.542	431.06
326.77	438.06
326.999	410.06
327.228	420.06
327.457	434.06
327.686	423.06
327.914	432.06
328.143	442.06
328.372	452.06
328.6	403.06
328.829	433.06
329.058	431.06
329.287	448.06
329.515	446.06
329.744	424.06
329.972	434.06
330.201	447.06
330.43	430.06
330.658	440.06
330.887	434.06
331.115	414.06
331.344	444.06
331.572	449.06
331.801	440.06
332.03	438.06
332.258	449.06
332.486	461.06
332.715	444.06
332.943	467.06
333.172	484.06
333.4	458.06
333.629	498.06
333.857	483.06
334.085	474.06
334.314	485.06
334.542	487.06
334.771	478.06
334.999	484.06
335.227	461.06
335.455	487.06
335.684	527.06
335.912	512.06
336.14	503.06
336.369	508.06
336.597	483.06
336.825	477.06
337.053	478.06
337.281	482.06
337.51	473.06
337.738	480.06
337.966	462.06
338.194	486.06
338.422	473.06
338.65	464.06
338.878	464.06
339.106	479.06
339.334	465.06
339.562	459.06
339.79	472.06
340.018	457.06
340.246	457.06
340.474	464.06
340.702	442.06
340.93	447.06
341.158	456.06
341.386	449.06
341.614	460.06
341.842	436.06
342.07	457.06
342.298	447.06
342.526	466.06
342.754	466.06
342.981	464.06
343.209	459.06
343.437	469.06
343.665	481.06
343.893	477.06
344.12	497.06
344.348	512.06
344.576	462.06
344.804	479.06
345.031	474.06
345.259	472.06
345.487	463.06
345.714	487.06
345.942	457.06
346.17	447.06
346.397	466.06
346.625	460.06
346.853	443.06
347.08	437.06
347.308	447.06
347.535	450.06
347.763	447.06
347.99	466.06
348.218	456.06
348.445	443.06
348.673	468.06
348.9	459.06
349.128	442.06
349.355	439.06
349.583	458.06
349.81	458.06
350.037	447.06
350.265	445.06
350.492	428.06
350.72	432.06
350.947	447.06
351.174	438.06
351.402	430.06
351.629	441.06
351.856	442.06
352.083	426.06
352.311	435.06
352.538	416.06
352.765	447.06
352.992	434.06
353.22	456.06
353.447	444.06
353.674	417.06
353.901	418.06
354.128	431.06
354.355	434.06
354.583	428.06
354.81	449.06
355.037	439.06
355.264	448.06
355.491	446.06
355.718	433.06
355.945	440.06
356.172	455.06
356.399	437.06
356.626	440.06
356.853	445.06
357.08	442.06
357.307	438.06
357.534	438.06
357.761	435.06
357.988	467.06
358.215	464.06
358.441	439.06
358.668	438.06
358.895	463.06
359.122	440.06
359.349	437.06
359.576	443.06
359.802	426.06
360.029	443.06
360.256	456.06
360.483	445.06
360.709	445.06
360.936	440.06
361.163	461.06
361.39	436.06
361.616	443.06
361.843	443.06
362.07	443.06
362.296	467.06
362.523	454.06
362.749	444.06
362.976	449.06
363.203	445.06
363.429	445.06
363.656	441.06
363.882	420.06
364.109	458.06
364.335	456.06
364.562	425.06
364.788	448.06
365.015	449.06
365.241	433.06
365.468	458.06
365.694	450.06
365.92	446.06
366.147	456.06
366.373	444.06
366.599	454.06
366.826	445.06
367.052	453.06
367.278	454.06
367.505	450.06
367.731	465.06
367.957	457.06
368.184	448.06
368.41	458.06
368.636	450.06
368.862	459.06
369.089	470.06
369.315	460.06
369.541	473.06
369.767	470.06
369.993	458.06
370.219	461.06
370.445	462.06
370.672	463.06
370.898	473.06
371.124	464.06
371.35	478.06
371.576	491.06
371.802	492.06
372.028	468.06
372.254	487.06
372.48	487.06
372.706	459.06
372.932	480.06
373.158	480.06
373.384	517.06
373.61	498.06
373.835	495.06
374.061	487.06
374.287	491.06
374.513	485.06
374.739	500.06
374.965	478.06
375.191	479.06
375.416	493.06
375.642	520.06
375.868	491.06
376.094	506.06
376.319	494.06
376.545	473.06
376.771	515.06
376.997	472.06
377.222	473.06
377.448	484.06
377.674	475.06
377.899	478.06
378.125	478.06
378.35	478.06
378.576	499.06
378.802	495.06
379.027	458.06
379.253	462.06
379.478	460.06
379.704	471.06
379.929	471.06
380.155	471.06
380.38	479.06
380.606	494.06
380.831	478.06
381.057	496.06
381.282	480.06
381.507	512.06
381.733	489.06
381.958	495.06
382.184	492.06
382.409	506.06
382.634	492.06
382.86	497.06
383.085	524.06
383.31	538.06
383.535	498.06
383.761	516.06
383.986	516.06
384.211	523.06
384.436	503.06
384.662	517.06
384.887	511.06
385.112	530.06
385.337	525.06
385.562	540.06
385.787	544.06
386.013	571.06
386.238	571.06
386.463	538.06
386.688	549.06
386.913	558.06
387.138	547.06
387.363	538.06
387.588	566.06
387.813	562.06
388.038	568.06
388.263	523.06
388.488	535.06
388.713	550.06
388.938	552.06
389.163	550.06
389.387	547.06
389.612	552.06
389.837	562.06
390.062	550.06
390.287	533.06
390.512	554.06
390.736	543.06
390.961	553.06
391.186	559.06
391.411	558.06
391.636	582.06
391.86	566.06
392.085	576.06
392.31	588.06
392.534	598.06
392.759	579.06
392.984	582.06
393.208	546.06
393.433	594.06
393.658	580.06
393.882	571.06
394.107	564.06
394.331	566.06
394.556	574.06
394.78	620.06
395.005	571.06
395.229	572.06
395.454	593.06
395.678	582.06
395.903	598.06
396.127	605.06
396.352	617.06
396.576	607.06
396.801	595.06
397.025	586.06
397.249	616.06
397.474	612.06
397.698	625.06
397.922	632.06
398.147	613.06
398.371	628.06
398.595	621.06
398.82	667.06
399.044	665.06
399.268	718.06
399.492	724.06
399.717	718.06
399.941	754.06
400.165	716.06
400.389	704.06
400.613	704.06
400.837	708.06
401.062	662.06
401.286	664.06
401.51	655.06
401.734	662.06
401.958	648.06
402.182	655.06
402.406	662.06
402.63	651.06
402.854	651.06
403.078	649.06
403.302	656.06
403.526	683.06
403.75	659.06
403.974	638.06
404.198	649.06
404.422	640.06
404.645	658.06
404.869	640.06
405.093	634.06
405.317	653.06
405.541	656.06
405.765	667.06
405.988	699.06
406.212	701.06
406.436	668.06
406.66	683.06
406.883	694.06
407.107	700.06
407.331	726.06
407.555	727.06
407.778	703.06
408.002	714.06
408.226	721.06
408.449	741.06
408.673	686.06
408.896	682.06
409.12	707.06
409.344	700.06
409.567	696.06
409.791	674.06
410.014	688.06
410.238	651.06
410.461	671.06
410.685	696.06
410.908	677.06
411.132	678.06
411.355	675.06
411.578	659.06
411.802	664.06
412.025	673.06
412.249	663.06
412.472	684.06
412.695	660.06
412.919	670.06
413.142	676.06
413.365	670.06
413.589	679.06
413.812	642.06
414.035	650.06
414.258	661.06
414.482	645.06
414.705	638.06
414.928	657.06
415.151	648.06
415.374	644.06
415.597	632.06
415.821	630.06
416.044	630.06
416.267	634.06
416.49	624.06
416.713	607.06
416.936	647.06
417.159	636.06
417.382	612.06
417.605	619.06
417.828	607.06
418.051	598.06
418.274	626.06
418.497	606.06
418.72	616.06
418.943	614.06
419.166	635.06
419.389	668.06
419.611	652.06
419.834	672.06
420.057	658.06
420.28	615.06
420.503	614.06
420.726	619.06
420.948	612.06
421.171	630.06
421.394	615.06
421.617	607.06
421.839	604.06
422.062	602.06
422.285	606.06
422.507	610.06
422.73	600.06
422.953	594.06
423.175	633.06
423.398	615.06
423.621	582.06
423.843	614.06
424.066	629.06
424.288	595.06
424.511	596.06
424.733	611.06
424.956	596.06
425.178	596.06
425.401	606.06
425.623	597.06
425.846	609.06
426.068	588.06
426.291	604.06
426.513	583.06
426.735	588.06
426.958	577.06
427.18	582.06
427.402	582.06
427.625	610.06
427.847	558.06
428.069	606.06
428.292	593.06
428.514	570.06
428.736	585.06
428.958	594.06
429.181	581.06
429.403	585.06
429.625	584.06
429.847	574.06
430.069	566.06
430.292	575.06
430.514	586.06
430.736	587.06
430.958	611.06
431.18	614.06
431.402	574.06
431.624	565.06
431.846	570.06
432.068	591.06
432.29	606.06
432.512	573.06
432.734	589.06
432.956	600.06
433.178	563.06
433.4	562.06
433.622	596.06
433.844	564.06
434.066	577.06
434.287	596.06
434.509	598.06
434.731	586.06
434.953	603.06
435.175	587.06
435.397	610.06
435.618	626.06
435.84	580.06
436.062	617.06
436.284	600.06
436.505	583.06
436.727	572.06
436.949	600.06
437.17	610.06
437.392	585.06
437.614	570.06
437.835	579.06
438.057	558.06
438.278	578.06
438.5	579.06
438.721	560.06
438.943	558.06
439.165	543.06
439.386	570.06
439.608	539.06
439.829	569.06
440.05	579.06
440.272	573.06
440.493	572.06
440.715	596.06
440.936	602.06
441.158	573.06
441.379	567.06
441.6	588.06
441.822	597.06
442.043	596.06
442.264	598.06
442.486	582.06
442.707	606.06
442.928	574.06
443.149	577.06
443.371	590.06
443.592	570.06
443.813	607.06
444.034	598.06
444.255	602.06
444.476	608.06
444.698	598.06
444.919	602.06
445.14	739.06
445.361	679.06
445.582	615.06
445.803	587.06
446.024	581.06
446.245	588.06
446.466	586.06
446.687	559.06
446.908	587.06
447.129	560.06
447.35	536.06
447.571	584.06
447.792	559.06
448.013	544.06
448.234	543.06
448.455	529.06
448.675	541.06
448.896	538.06
449.117	516.06
449.338	548.06
449.559	545.06
449.779	532.06
450	536.06
450.221	552.06
450.442	528.06
450.662	526.06
450.883	554.06
451.104	527.06
451.324	510.06
451.545	542.06
451.766	496.06
451.986	506.06
452.207	494.06
452.428	533.06
452.648	518.06
452.869	497.06
453.089	501.06
453.31	519.06
453.53	523.06
453.751	512.06
453.971	517.06
454.192	512.06
454.412	533.06
454.633	504.06
454.853	529.06
455.073	501.06
455.294	491.06
455.514	487.06
455.734	517.06
455.955	515.06
456.175	518.06
456.395	519.06
456.616	495.06
456.836	507.06
457.056	512.06
457.276	479.06
457.497	489.06
457.717	502.06
457.937	512.06
458.157	514.06
458.377	531.06
458.598	524.06
458.818	538.06
459.038	541.06
459.258	563.06
459.478	572.06
459.698	565.06
459.918	588.06
460.138	605.06
460.358	588.06
460.578	609.06
460.798	599.06
461.018	608.06
461.238	603.06
461.458	604.06
461.678	623.06
461.898	624.06
462.118	618.06
462.338	656.06
462.558	683.06
462.777	670.06
462.997	658.06
463.217	708.06
463.437	678.06
463.657	679.06
463.876	688.06
464.096	658.06
464.316	656.06
464.536	650.06
464.755	625.06
464.975	638.06
465.195	607.06
465.414	605.06
465.634	578.06
465.854	615.06
466.073	576.06
466.293	585.06
466.512	580.06
466.732	557.06
466.951	574.06
467.171	567.06
467.391	550.06
467.61	569.06
467.829	554.06
468.049	547.06
468.268	543.06
468.488	558.06
468.707	550.06
468.927	571.06
469.146	559.06
469.365	567.06
469.585	547.06
469.804	564.06
470.023	551.06
470.243	555.06
470.462	561.06
470.681	556.06
470.901	562.06
471.12	560.06
471.339	543.06
471.558	548.06
471.777	578.06
471.997	577.06
472.216	578.06
472.435	581.06
472.654	562.06
472.873	551.06
473.092	583.06
473.311	559.06
473.53	569.06
473.749	577.06
473.968	567.06
474.187	560.06
474.406	577.06
474.625	569.06
474.844	561.06
475.063	579.06
475.282	586.06
475.501	583.06
475.72	580.06
475.939	570.06
476.158	581.06
476.377	591.06
476.596	589.06
476.814	619.06
477.033	602.06
477.252	582.06
477.471	610.06
477.69	628.06
477.908	623.06
478.127	624.06
478.346	634.06
478.564	640.06
478.783	631.06
479.002	646.06
479.22	654.06
479.439	680.06
479.658	647.06
479.876	656.06
480.095	663.06
480.313	683.06
480.532	692.06
480.751	683.06
480.969	663.06
481.188	676.06
481.406	698.06
481.624	671.06
481.843	672.06
482.061	645.06
482.28	662.06
482.498	693.06
482.717	671.06
482.935	678.06
483.153	666.06
483.372	675.06
483.59	674.06
483.808	667.06
484.027	655.06
484.245	659.06
484.463	663.06
484.681	681.06
484.9	715.06
485.118	709.06
485.336	682.06
485.554	692.06
485.772	686.06
485.99	671.06
486.209	674.06
486.427	689.06
486.645	678.06
486.863	704.06
487.081	704.06
487.299	689.06
487.517	700.06
487.735	676.06
487.953	684.06
488.171	692.06
488.389	715.06
488.607	692.06
488.825	698.06
489.043	696.06
489.261	711.06
489.479	703.06
489.696	697.06
489.914	666.06
490.132	705.06
490.35	672.06
490.568	670.06
490.786	697.06
491.003	680.06
491.221	695.06
491.439	688.06
491.657	683.06
491.874	719.06
492.092	705.06
492.31	702.06
492.527	706.06
492.745	706.06
492.963	704.06
493.18	709.06
493.398	704.06
493.615	676.06
493.833	706.06
494.05	719.06
494.268	716.06
494.485	712.06
494.703	712.06
494.92	715.06
495.138	692.06
495.355	713.06
495.573	697.06
495.79	719.06
496.008	755.06
496.225	758.06
496.442	754.06
496.66	740.06
496.877	747.06
497.094	771.06
497.312	773.06
497.529	787.06
497.746	786.06
497.963	835.06
498.181	836.06
498.398	857.06
498.615	879.06
498.832	898.06
499.049	949.06
499.267	964.06
499.484	1000.06
499.701	1045.06
499.918	1052.06
500.135	1085.06
500.352	1171.06
500.569	1136.06
500.786	1151.06
501.003	1135.06
501.22	1110.06
501.437	1071.06
501.654	1001.06
501.871	982.06
502.088	938.06
502.305	925.06
502.522	897.06
502.739	871.06
502.956	847.06
503.172	838.06
503.389	826.06
503.606	823.06
503.823	808.06
504.04	789.06
504.256	754.06
504.473	772.06
504.69	760.06
504.907	720.06
505.123	739.06
505.34	709.06
505.557	702.06
505.773	706.06
505.99	696.06
506.207	681.06
506.423	670.06
506.64	670.06
506.856	653.06
507.073	650.06
507.289	673.06
507.506	649.06
507.722	626.06
507.939	638.06
508.155	633.06
508.372	617.06
508.588	617.06
508.805	626.06
509.021	624.06
509.238	602.06
509.454	598.06
509.67	612.06
509.887	609.06
510.103	600.06
510.319	599.06
510.536	593.06
510.752	583.06
510.968	583.06
511.184	580.06
511.401	576.06
511.617	582.06
511.833	592.06
512.049	605.06
512.265	579.06
512.481	574.06
512.698	578.06
512.914	588.06
513.13	595.06
513.346	591.06
513.562	576.06
513.778	574.06
513.994	590.06
514.21	584.06
514.426	590.06
514.642	598.06
514.858	610.06
515.074	592.06
515.29	618.06
515.506	597.06
515.721	618.06
515.937	602.06
516.153	619.06
516.369	642.06
516.585	619.06
516.801	633.06
517.016	644.06
517.232	633.06
517.448	645.06
517.664	651.06
517.879	633.06
518.095	639.06
518.311	653.06
518.527	640.06
518.742	632.06
518.958	623.06
519.173	614.06
519.389	606.06
519.605	597.06
519.82	615.06
520.036	623.06
520.251	587.06
520.467	580.06
520.682	580.06
520.898	562.06
521.113	579.06
521.329	578.06
521.544	576.06
521.76	572.06
521.975	563.06
522.19	543.06
522.406	582.06
522.621	554.06
522.836	550.06
523.052	563.06
523.267	538.06
523.482	537.06
523.698	543.06
523.913	529.06
524.128	543.06
524.343	537.06
524.559	534.06
524.774	528.06
524.989	539.06
525.204	560.06
525.419	540.06
525.634	532.06
525.849	549.06
526.064	522.06
526.28	537.06
526.495	523.06
526.71	532.06
526.925	518.06
527.14	521.06
527.355	508.06
527.57	522.06
527.785	497.06
527.999	502.06
528.214	510.06
528.429	505.06
528.644	521.06
528.859	526.06
529.074	510.06
529.289	519.06
529.503	528.06
529.718	521.06
529.933	484.06
530.148	513.06
530.363	514.06
530.577	522.06
530.792	504.06
531.007	504.06
531.221	510.06
531.436	501.06
531.651	499.06
531.865	504.06
532.08	498.06
532.295	523.06
532.509	513.06
532.724	500.06
532.938	522.06
533.153	523.06
533.367	511.06
533.582	504.06
533.796	513.06
534.011	501.06
534.225	500.06
534.44	492.06
534.654	525.06
534.868	498.06
535.083	487.06
535.297	498.06
535.511	512.06
535.726	495.06
535.94	489.06
536.154	487.06
536.369	482.06
536.583	486.06
536.797	492.06
537.011	453.06
537.225	460.06
537.44	488.06
537.654	493.06
537.868	480.06
538.082	490.06
538.296	485.06
538.51	467.06
538.724	484.06
538.938	480.06
539.153	456.06
539.367	460.06
539.581	478.06
539.795	474.06
540.009	491.06
540.222	482.06
540.436	464.06
540.65	458.06
540.864	452.06
541.078	454.06
541.292	448.06
541.506	480.06
541.72	458.06
541.934	462.06
542.147	467.06
542.361	454.06
542.575	462.06
542.789	454.06
543.002	454.06
543.216	478.06
543.43	454.06
543.644	459.06
543.857	485.06
544.071	459.06
544.285	467.06
544.498	474.06
544.712	452.06
544.925	469.06
545.139	458.06
545.352	464.06
545.566	448.06
545.779	446.06
545.993	486.06
546.206	471.06
546.42	480.06
546.633	459.06
546.847	447.06
547.06	478.06
547.274	459.06
547.487	470.06
547.7	466.06
547.914	464.06
548.127	455.06
548.34	464.06
548.554	467.06
548.767	472.06
548.98	481.06
549.193	474.06
549.407	459.06
549.62	468.06
549.833	472.06
550.046	468.06
550.259	482.06
550.473	472.06
550.686	454.06
550.899	466.06
551.112	489.06
551.325	477.06
551.538	478.06
551.751	468.06
551.964	474.06
552.177	484.06
552.39	464.06
552.603	467.06
552.816	463.06
553.029	449.06
553.242	495.06
553.455	449.06
553.667	465.06
553.88	479.06
554.093	463.06
554.306	474.06
554.519	460.06
554.732	431.06
554.944	445.06
555.157	432.06
555.37	448.06
555.583	440.06
555.795	427.06
556.008	442.06
556.221	422.06
556.433	417.06
556.646	441.06
556.859	412.06
557.071	440.06
557.284	428.06
557.496	403.06
557.709	426.06
557.921	439.06
558.134	413.06
558.346	406.06
558.559	400.06
558.771	417.06
558.984	406.06
559.196	376.06
559.409	406.06
559.621	396.06
559.833	391.06
560.046	403.06
560.258	395.06
560.47	431.06
560.683	411.06
560.895	409.06
561.107	387.06
561.32	416.06
561.532	392.06
561.744	405.06
561.956	416.06
562.168	406.06
562.381	394.06
562.593	402.06
562.805	402.06
563.017	415.06
563.229	427.06
563.441	417.06
563.653	401.06
563.865	409.06
564.077	434.06
564.289	411.06
564.501	423.06
564.713	433.06
564.925	418.06
565.137	436.06
565.349	439.06
565.561	465.06
565.773	436.06
565.985	467.06
566.197	457.06
566.408	483.06
566.62	486.06
566.832	510.06
567.044	501.06
567.255	486.06
567.467	502.06
567.679	490.06
567.891	479.06
568.102	483.06
568.314	501.06
568.526	478.06
568.737	466.06
568.949	460.06
569.161	442.06
569.372	437.06
569.584	423.06
569.795	419.06
570.007	407.06
570.218	410.06
570.43	393.06
570.641	404.06
570.853	397.06
571.064	393.06
571.276	368.06
571.487	375.06
571.698	364.06
571.91	358.06
572.121	375.06
572.333	382.06
572.544	383.06
572.755	327.06
572.966	346.06
573.178	349.06
573.389	338.06
573.6	335.06
573.811	341.06
574.023	336.06
574.234	339.06
574.445	330.06
574.656	338.06
574.867	347.06
575.078	344.06
575.289	326.06
575.501	334.06
575.712	325.06
575.923	338.06
576.134	327.06
576.345	314.06
576.556	324.06
576.767	330.06
576.978	316.06
577.188	326.06
577.399	311.06
577.61	311.06
577.821	326.06
578.032	303.06
578.243	295.06
578.454	304.06
578.665	321.06
578.875	310.06
579.086	306.06
579.297	312.06
579.508	320.06
579.718	306.06
579.929	303.06
580.14	302.06
580.35	275.06
580.561	316.06
580.772	309.06
580.982	304.06
581.193	312.06
581.403	304.06
581.614	300.06
581.825	310.06
582.035	283.06
582.246	308.06
582.456	289.06
582.667	288.06
582.877	280.06
583.087	292.06
583.298	287.06
583.508	277.06
583.719	285.06
583.929	288.06
584.139	293.06
584.35	291.06
584.56	276.06
584.77	287.06
584.981	290.06
585.191	286.06
585.401	275.06
585.611	278.06
585.821	268.06
586.032	281.06
586.242	280.06
586.452	278.06
586.662	248.06
586.872	272.06
587.082	277.06
587.292	280.06
587.502	275.06
587.713	275.06
587.923	274.06
588.133	282.06
588.343	289.06
588.553	275.06
588.762	282.06
588.972	282.06
589.182	304.06
589.392	303.06
589.602	289.06
589.812	305.06
590.022	275.06
590.232	270.06
590.441	292.06
590.651	295.06
590.861	270.06
591.071	274.06
591.281	275.06
591.49	274.06
591.7	286.06
591.91	287.06
592.119	280.06
592.329	280.06
592.539	296.06
592.748	321.06
592.958	293.06
593.167	266.06
593.377	293.06
593.587	294.06
593.796	292.06
594.006	293.06
594.215	276.06
594.424	264.06
594.634	297.06
594.843	290.06
595.053	268.06
595.262	283.06
595.472	276.06
595.681	292.06
595.89	269.06
596.1	286.06
596.309	262.06
596.518	267.06
596.727	257.06
596.937	249.06
597.146	271.06
597.355	259.06
597.564	248.06
597.774	258.06
597.983	226.06
598.192	258.06
598.401	255.06
598.61	243.06
598.819	259.06
599.028	243.06
599.237	247.06
599.446	240.06
599.655	238.06
599.864	244.06
600.073	234.06
600.282	233.06
600.491	241.06
600.7	235.06
600.909	230.06
601.118	226.06
601.327	245.06
601.536	227.06
601.745	230.06
601.953	230.06
602.162	240.06
602.371	228.06
602.58	225.06
602.789	222.06
602.997	241.06
603.206	234.06
603.415	230.06
603.623	211.06
603.832	220.06
604.041	233.06
604.249	222.06
604.458	219.06
604.666	221.06
604.875	213.06
605.084	224.06
605.292	230.06
605.501	233.06
605.709	228.06
605.918	222.06
606.126	212.06
606.334	226.06
606.543	219.06
606.751	215.06
606.96	222.06
607.168	210.06
607.376	235.06
607.585	225.06
607.793	228.06
608.001	210.06
608.21	226.06
608.418	231.06
608.626	208.06
608.834	227.06
609.043	220.06
609.251	226.06
609.459	193.06
609.667	200.06
609.875	217.06
610.083	214.06
610.291	231.06
610.499	226.06
610.707	195.06
610.916	210.06
611.124	212.06
611.332	216.06
611.54	204.06
611.748	214.06
611.955	217.06
612.163	225.06
612.371	209.06
612.579	208.06
612.787	219.06
612.995	219.06
613.203	223.06
613.411	222.06
613.618	210.06
613.826	213.06
614.034	214.06
614.242	199.06
614.449	225.06
614.657	208.06
614.865	204.06
615.072	209.06
615.28	217.06
615.488	197.06
615.695	223.06
615.903	207.06
616.111	204.06
616.318	212.06
616.526	202.06
616.733	216.06
616.941	193.06
617.148	225.06
617.356	216.06
617.563	196.06
617.771	192.06
617.978	211.06
618.185	212.06
618.393	218.06
618.6	206.06
618.807	199.06
619.015	196.06
619.222	190.06
619.429	204.06
619.637	201.06
619.844	193.06
620.051	222.06
620.258	200.06
620.466	193.06
620.673	188.06
620.88	201.06
621.087	196.06
621.294	184.06
621.501	197.06
621.708	198.06
621.915	207.06
622.122	203.06
622.329	190.06
622.536	198.06
622.743	192.06
622.95	202.06
623.157	200.06
623.364	198.06
623.571	198.06
623.778	184.06
623.985	190.06
624.192	196.06
624.399	190.06
624.606	208.06
624.812	180.06
625.019	186.06
625.226	177.06
625.433	185.06
625.639	187.06
625.846	183.06
626.053	157.06
626.259	192.06
626.466	186.06
626.673	200.06
626.879	192.06
627.086	191.06
627.293	172.06
627.499	196.06
627.706	191.06
627.912	187.06
628.119	176.06
628.325	193.06
628.532	182.06
628.738	177.06
628.945	190.06
629.151	175.06
629.357	186.06
629.564	195.06
629.77	180.06
629.976	192.06
630.183	176.06
630.389	186.06
630.595	159.06
630.802	172.06
631.008	171.06
631.214	181.06
631.42	182.06
631.627	168.06
631.833	186.06
632.039	187.06
632.245	165.06
632.451	169.06
632.657	174.06
632.863	170.06
633.069	181.06
633.275	182.06
633.481	168.06
633.688	172.06
633.893	192.06
634.099	166.06
634.305	171.06
634.511	166.06
634.717	178.06
634.923	166.06
635.129	190.06
635.335	170.06
635.541	168.06
635.747	168.06
635.952	146.06
636.158	170.06
636.364	176.06
636.57	192.06
636.775	177.06
636.981	179.06
637.187	162.06
637.392	166.06
637.598	166.06
637.804	155.06
638.009	181.06
638.215	186.06
638.421	163.06
638.626	162.06
638.832	179.06
639.037	169.06
639.243	154.06
639.448	177.06
639.654	165.06
639.859	172.06
640.065	166.06
640.27	166.06
640.475	155.06
640.681	176.06
640.886	170.06
641.091	153.06
641.297	174.06
641.502	176.06
641.707	161.06
641.913	144.06
642.118	150.06
642.323	163.06
642.528	172.06
642.733	155.06
642.939	165.06
643.144	175.06
643.349	184.06
643.554	162.06
643.759	171.06
643.964	151.06
644.169	153.06
644.374	160.06
644.579	145.06
644.784	157.06
644.989	150.06
645.194	152.06
645.399	163.06
645.604	166.06
645.809	160.06
646.014	166.06
646.219	174.06
646.423	163.06
646.628	164.06
646.833	174.06
647.038	161.06
647.243	179.06
647.447	176.06
647.652	164.06
647.857	153.06
648.062	168.06
648.266	148.06
648.471	165.06
648.676	166.06
648.88	171.06
649.085	166.06
649.289	180.06
649.494	158.06
649.698	162.06
649.903	159.06
650.107	166.06
650.312	161.06
650.516	160.06
650.721	167.06
650.925	168.06
651.13	155.06
651.334	158.06
651.539	179.06
651.743	152.06
651.947	165.06
652.152	164.06
652.356	172.06
652.56	140.06
652.764	171.06
652.969	152.06
653.173	160.06
653.377	158.06
653.581	169.06
653.785	161.06
653.99	155.06
654.194	176.06
654.398	167.06
654.602	154.06
654.806	158.06
655.01	163.06
655.214	138.06
655.418	168.06
655.622	162.06
655.826	157.06
656.03	169.06
656.234	184.06
656.438	178.06
656.642	183.06
656.846	156.06
657.049	152.06
657.253	149.06
657.457	145.06
657.661	135.06
657.865	130.06
658.068	156.06
658.272	126.06
658.476	124.06
658.68	122.06
658.883	114.06
659.087	121.06
659.291	98.06
659.494	104.06
659.698	105.06
659.901	106.06
660.105	100.06
660.309	113.06
660.512	95.06
660.716	92.06
660.919	94.06
661.123	114.06
661.326	90.06
661.53	88.06
661.733	86.06
661.936	88.06
662.14	108.06
662.343	94.06
662.546	95.06
662.75	96.06
662.953	87.06
663.156	80.06
663.36	70.06
663.563	83.06
663.766	72.06
663.969	76.06
664.173	76.06
664.376	74.06
664.579	78.06
664.782	87.06
664.985	96.06
665.188	89.06
665.391	82.06
665.594	70.06
665.797	98.06
666	85.06
666.203	58.06
666.406	81.06
666.609	77.06
666.812	76.06
667.015	80.06
667.218	82.06
667.421	81.06
667.624	85.06
667.827	72.06
668.03	93.06
668.232	86.06
668.435	80.06
668.638	91.06
668.841	94.06
669.043	86.06
669.246	83.06
669.449	84.06
669.651	81.06
669.854	87.06
670.057	88.06
670.259	85.06
670.462	86.06
670.665	89.06
670.867	76.06
671.07	77.06
671.272	86.06
671.475	83.06
671.677	81.06
671.88	77.06
672.082	72.06
672.284	91.06
672.487	88.06
672.689	71.06
672.892	83.06
