Data from Fe(NO3)3@0.0125M.TitratingCurve.Agarose3%dH2O.NegLispCup.LampEnergy10.LIBS07252019_HRD10591_16-59-30-337.txt Node
Date: Thu Jul 25 16:59:30 EDT 2019
User: cochatt
Spectrometer: HR+D1059
Trigger mode: 1
Integration Time (sec): 1.000000E-1
Scans to average: 1
Electric dark correction enabled: true
Nonlinearity correction enabled: false
Boxcar width: 0
XAxis mode: Wavelengths
Number of Pixels in Spectrum: 2048
>>>>>Begin Spectral Data<<<<<
223.165	-22.19
223.4	-22.19
223.635	-22.19
223.869	-6.19
224.104	-30.19
224.338	-16.19
224.573	-15.19
224.808	-17.19
225.042	-10.19
225.277	-9.19
225.511	5.81
225.746	9.81
225.98	7.81
226.215	13.81
226.449	16.81
226.683	15.81
226.918	32.81
227.152	23.81
227.387	31.81
227.621	25.81
227.856	38.81
228.09	44.81
228.324	37.81
228.559	56.81
228.793	66.81
229.027	77.81
229.262	85.81
229.496	89.81
229.73	83.81
229.964	88.81
230.199	88.81
230.433	93.81
230.667	102.81
230.901	97.81
231.136	96.81
231.37	95.81
231.604	107.81
231.838	108.81
232.072	100.81
232.306	103.81
232.541	93.81
232.775	105.81
233.009	101.81
233.243	95.81
233.477	101.81
233.711	124.81
233.945	115.81
234.179	112.81
234.413	110.81
234.647	118.81
234.881	105.81
235.115	104.81
235.349	106.81
235.583	108.81
235.817	103.81
236.051	110.81
236.285	121.81
236.519	108.81
236.753	116.81
236.987	117.81
237.221	99.81
237.455	105.81
237.689	97.81
237.922	102.81
238.156	106.81
238.39	110.81
238.624	110.81
238.858	113.81
239.091	113.81
239.325	113.81
239.559	120.81
239.793	112.81
240.027	135.81
240.26	121.81
240.494	117.81
240.728	128.81
240.961	118.81
241.195	130.81
241.429	109.81
241.662	126.81
241.896	133.81
242.13	128.81
242.363	115.81
242.597	119.81
242.83	126.81
243.064	117.81
243.298	116.81
243.531	124.81
243.765	144.81
243.998	122.81
244.232	130.81
244.465	124.81
244.699	129.81
244.932	132.81
245.166	122.81
245.399	152.81
245.633	116.81
245.866	150.81
246.099	131.81
246.333	144.81
246.566	132.81
246.8	137.81
247.033	140.81
247.266	142.81
247.5	143.81
247.733	136.81
247.966	152.81
248.2	141.81
248.433	149.81
248.666	157.81
248.899	136.81
249.133	149.81
249.366	142.81
249.599	148.81
249.832	137.81
250.066	145.81
250.299	158.81
250.532	156.81
250.765	151.81
250.998	158.81
251.231	159.81
251.465	152.81
251.698	153.81
251.931	148.81
252.164	158.81
252.397	175.81
252.63	156.81
252.863	158.81
253.096	164.81
253.329	162.81
253.562	150.81
253.795	170.81
254.028	173.81
254.261	166.81
254.494	182.81
254.727	174.81
254.96	161.81
255.193	167.81
255.426	163.81
255.659	168.81
255.892	175.81
256.124	180.81
256.357	174.81
256.59	178.81
256.823	162.81
257.056	173.81
257.289	159.81
257.521	156.81
257.754	170.81
257.987	173.81
258.22	178.81
258.452	186.81
258.685	196.81
258.918	183.81
259.151	189.81
259.383	176.81
259.616	168.81
259.849	195.81
260.081	208.81
260.314	188.81
260.547	194.81
260.779	197.81
261.012	201.81
261.244	189.81
261.477	204.81
261.71	190.81
261.942	192.81
262.175	175.81
262.407	198.81
262.64	185.81
262.872	207.81
263.105	210.81
263.337	217.81
263.57	210.81
263.802	205.81
264.035	201.81
264.267	201.81
264.499	205.81
264.732	204.81
264.964	201.81
265.197	208.81
265.429	203.81
265.661	205.81
265.894	213.81
266.126	236.81
266.358	216.81
266.591	204.81
266.823	223.81
267.055	221.81
267.287	213.81
267.52	213.81
267.752	217.81
267.984	232.81
268.216	227.81
268.448	205.81
268.681	221.81
268.913	228.81
269.145	228.81
269.377	214.81
269.609	228.81
269.841	223.81
270.073	222.81
270.306	231.81
270.538	225.81
270.77	232.81
271.002	233.81
271.234	232.81
271.466	249.81
271.698	248.81
271.93	235.81
272.162	245.81
272.394	229.81
272.626	228.81
272.858	238.81
273.09	251.81
273.322	236.81
273.553	237.81
273.785	249.81
274.017	255.81
274.249	239.81
274.481	248.81
274.713	263.81
274.945	254.81
275.176	289.81
275.408	264.81
275.64	264.81
275.872	283.81
276.104	279.81
276.335	242.81
276.567	283.81
276.799	270.81
277.031	249.81
277.262	248.81
277.494	252.81
277.726	259.81
277.957	274.81
278.189	263.81
278.421	272.81
278.652	281.81
278.884	279.81
279.115	274.81
279.347	274.81
279.579	289.81
279.81	309.81
280.042	298.81
280.273	290.81
280.505	290.81
280.736	294.81
280.968	302.81
281.199	284.81
281.431	291.81
281.662	283.81
281.894	285.81
282.125	290.81
282.356	305.81
282.588	301.81
282.819	300.81
283.051	312.81
283.282	286.81
283.513	318.81
283.745	302.81
283.976	298.81
284.207	334.81
284.439	312.81
284.67	314.81
284.901	303.81
285.132	307.81
285.364	320.81
285.595	318.81
285.826	325.81
286.057	331.81
286.288	324.81
286.52	326.81
286.751	319.81
286.982	328.81
287.213	342.81
287.444	322.81
287.675	332.81
287.906	322.81
288.138	318.81
288.369	340.81
288.6	330.81
288.831	329.81
289.062	333.81
289.293	365.81
289.524	336.81
289.755	336.81
289.986	330.81
290.217	326.81
290.448	346.81
290.679	328.81
290.91	350.81
291.141	341.81
291.371	361.81
291.602	324.81
291.833	340.81
292.064	339.81
292.295	348.81
292.526	360.81
292.757	330.81
292.987	364.81
293.218	334.81
293.449	344.81
293.68	367.81
293.91	346.81
294.141	342.81
294.372	345.81
294.603	365.81
294.833	378.81
295.064	381.81
295.295	364.81
295.525	371.81
295.756	370.81
295.987	359.81
296.217	370.81
296.448	366.81
296.679	369.81
296.909	384.81
297.14	378.81
297.37	381.81
297.601	380.81
297.831	367.81
298.062	387.81
298.292	382.81
298.523	388.81
298.753	394.81
298.984	403.81
299.214	385.81
299.445	390.81
299.675	381.81
299.905	406.81
300.136	386.81
300.366	394.81
300.597	380.81
300.827	392.81
301.057	394.81
301.288	403.81
301.518	412.81
301.748	420.81
301.979	401.81
302.209	416.81
302.439	413.81
302.669	404.81
302.9	416.81
303.13	427.81
303.36	430.81
303.59	408.81
303.82	409.81
304.051	435.81
304.281	414.81
304.511	411.81
304.741	423.81
304.971	435.81
305.201	411.81
305.431	416.81
305.661	422.81
305.891	419.81
306.121	441.81
306.352	424.81
306.582	416.81
306.812	420.81
307.042	430.81
307.272	416.81
307.502	414.81
307.731	450.81
307.961	440.81
308.191	440.81
308.421	417.81
308.651	424.81
308.881	412.81
309.111	429.81
309.341	444.81
309.571	450.81
309.8	438.81
310.03	444.81
310.26	448.81
310.49	446.81
310.72	445.81
310.949	458.81
311.179	458.81
311.409	452.81
311.639	440.81
311.868	453.81
312.098	451.81
312.328	478.81
312.557	465.81
312.787	458.81
313.017	489.81
313.246	473.81
313.476	487.81
313.706	482.81
313.935	470.81
314.165	473.81
314.394	466.81
314.624	471.81
314.853	477.81
315.083	478.81
315.312	499.81
315.542	494.81
315.771	476.81
316.001	490.81
316.23	506.81
316.46	499.81
316.689	489.81
316.919	503.81
317.148	457.81
317.377	498.81
317.607	505.81
317.836	491.81
318.065	514.81
318.295	496.81
318.524	502.81
318.753	484.81
318.983	482.81
319.212	494.81
319.441	499.81
319.67	509.81
319.9	516.81
320.129	514.81
320.358	489.81
320.587	506.81
320.816	522.81
321.046	492.81
321.275	510.81
321.504	520.81
321.733	534.81
321.962	519.81
322.191	522.81
322.42	529.81
322.649	531.81
322.878	489.81
323.108	495.81
323.337	522.81
323.566	533.81
323.795	522.81
324.024	538.81
324.253	537.81
324.482	539.81
324.71	531.81
324.939	547.81
325.168	545.81
325.397	521.81
325.626	529.81
325.855	558.81
326.084	551.81
326.313	548.81
326.542	537.81
326.77	554.81
326.999	541.81
327.228	549.81
327.457	557.81
327.686	555.81
327.914	565.81
328.143	560.81
328.372	557.81
328.6	545.81
328.829	546.81
329.058	579.81
329.287	558.81
329.515	541.81
329.744	571.81
329.972	550.81
330.201	542.81
330.43	562.81
330.658	553.81
330.887	572.81
331.115	573.81
331.344	537.81
331.572	559.81
331.801	557.81
332.03	563.81
332.258	573.81
332.486	586.81
332.715	573.81
332.943	597.81
333.172	582.81
333.4	586.81
333.629	581.81
333.857	631.81
334.085	623.81
334.314	607.81
334.542	607.81
334.771	600.81
334.999	622.81
335.227	606.81
335.455	627.81
335.684	605.81
335.912	590.81
336.14	599.81
336.369	590.81
336.597	593.81
336.825	597.81
337.053	600.81
337.281	606.81
337.51	581.81
337.738	597.81
337.966	607.81
338.194	589.81
338.422	614.81
338.65	613.81
338.878	596.81
339.106	599.81
339.334	607.81
339.562	592.81
339.79	589.81
340.018	570.81
340.246	576.81
340.474	585.81
340.702	593.81
340.93	578.81
341.158	595.81
341.386	600.81
341.614	587.81
341.842	601.81
342.07	594.81
342.298	606.81
342.526	594.81
342.754	578.81
342.981	578.81
343.209	602.81
343.437	585.81
343.665	600.81
343.893	620.81
344.12	623.81
344.348	605.81
344.576	620.81
344.804	627.81
345.031	600.81
345.259	600.81
345.487	590.81
345.714	618.81
345.942	581.81
346.17	595.81
346.397	595.81
346.625	580.81
346.853	579.81
347.08	597.81
347.308	592.81
347.535	578.81
347.763	573.81
347.99	576.81
348.218	608.81
348.445	612.81
348.673	584.81
348.9	589.81
349.128	598.81
349.355	589.81
349.583	615.81
349.81	584.81
350.037	603.81
350.265	578.81
350.492	593.81
350.72	587.81
350.947	580.81
351.174	604.81
351.402	597.81
351.629	595.81
351.856	591.81
352.083	604.81
352.311	604.81
352.538	589.81
352.765	591.81
352.992	598.81
353.22	588.81
353.447	616.81
353.674	576.81
353.901	604.81
354.128	590.81
354.355	600.81
354.583	618.81
354.81	600.81
355.037	590.81
355.264	593.81
355.491	600.81
355.718	601.81
355.945	592.81
356.172	578.81
356.399	605.81
356.626	607.81
356.853	603.81
357.08	613.81
357.307	591.81
357.534	585.81
357.761	601.81
357.988	607.81
358.215	580.81
358.441	593.81
358.668	586.81
358.895	607.81
359.122	610.81
359.349	608.81
359.576	580.81
359.802	607.81
360.029	605.81
360.256	594.81
360.483	589.81
360.709	603.81
360.936	586.81
361.163	610.81
361.39	608.81
361.616	597.81
361.843	626.81
362.07	593.81
362.296	593.81
362.523	584.81
362.749	597.81
362.976	613.81
363.203	617.81
363.429	608.81
363.656	632.81
363.882	595.81
364.109	642.81
364.335	608.81
364.562	641.81
364.788	635.81
365.015	598.81
365.241	615.81
365.468	630.81
365.694	601.81
365.92	637.81
366.147	593.81
366.373	630.81
366.599	596.81
366.826	629.81
367.052	633.81
367.278	631.81
367.505	609.81
367.731	631.81
367.957	638.81
368.184	636.81
368.41	626.81
368.636	633.81
368.862	651.81
369.089	656.81
369.315	643.81
369.541	647.81
369.767	649.81
369.993	648.81
370.219	628.81
370.445	638.81
370.672	648.81
370.898	658.81
371.124	634.81
371.35	665.81
371.576	632.81
371.802	620.81
372.028	639.81
372.254	648.81
372.48	645.81
372.706	662.81
372.932	665.81
373.158	666.81
373.384	650.81
373.61	648.81
373.835	648.81
374.061	658.81
374.287	636.81
374.513	636.81
374.739	670.81
374.965	680.81
375.191	678.81
375.416	656.81
375.642	662.81
375.868	688.81
376.094	659.81
376.319	650.81
376.545	652.81
376.771	642.81
376.997	648.81
377.222	661.81
377.448	651.81
377.674	661.81
377.899	643.81
378.125	643.81
378.35	658.81
378.576	636.81
378.802	648.81
379.027	630.81
379.253	662.81
379.478	642.81
379.704	662.81
379.929	651.81
380.155	660.81
380.38	650.81
380.606	642.81
380.831	649.81
381.057	663.81
381.282	650.81
381.507	653.81
381.733	672.81
381.958	647.81
382.184	659.81
382.409	670.81
382.634	665.81
382.86	664.81
383.085	659.81
383.31	660.81
383.535	686.81
383.761	688.81
383.986	671.81
384.211	686.81
384.436	672.81
384.662	687.81
384.887	696.81
385.112	677.81
385.337	688.81
385.562	660.81
385.787	684.81
386.013	708.81
386.238	700.81
386.463	713.81
386.688	721.81
386.913	694.81
387.138	695.81
387.363	712.81
387.588	706.81
387.813	697.81
388.038	696.81
388.263	678.81
388.488	704.81
388.713	703.81
388.938	698.81
389.163	694.81
389.387	691.81
389.612	680.81
389.837	700.81
390.062	713.81
390.287	718.81
390.512	700.81
390.736	712.81
390.961	690.81
391.186	708.81
391.411	726.81
391.636	720.81
391.86	735.81
392.085	719.81
392.31	738.81
392.534	696.81
392.759	728.81
392.984	743.81
393.208	736.81
393.433	742.81
393.658	743.81
393.882	700.81
394.107	718.81
394.331	705.81
394.556	731.81
394.78	728.81
395.005	711.81
395.229	726.81
395.454	753.81
395.678	721.81
395.903	747.81
396.127	744.81
396.352	741.81
396.576	770.81
396.801	733.81
397.025	737.81
397.249	757.81
397.474	750.81
397.698	751.81
397.922	761.81
398.147	723.81
398.371	768.81
398.595	772.81
398.82	757.81
399.044	791.81
399.268	782.81
399.492	793.81
399.717	817.81
399.941	813.81
400.165	840.81
400.389	785.81
400.613	792.81
400.837	790.81
401.062	813.81
401.286	792.81
401.51	787.81
401.734	765.81
401.958	772.81
402.182	773.81
402.406	792.81
402.63	802.81
402.854	783.81
403.078	791.81
403.302	787.81
403.526	768.81
403.75	782.81
403.974	798.81
404.198	821.81
404.422	791.81
404.645	806.81
404.869	767.81
405.093	818.81
405.317	794.81
405.541	813.81
405.765	804.81
405.988	812.81
406.212	816.81
406.436	829.81
406.66	837.81
406.883	810.81
407.107	831.81
407.331	838.81
407.555	844.81
407.778	846.81
408.002	857.81
408.226	841.81
408.449	870.81
408.673	835.81
408.896	824.81
409.12	844.81
409.344	848.81
409.567	807.81
409.791	848.81
410.014	840.81
410.238	832.81
410.461	802.81
410.685	813.81
410.908	805.81
411.132	797.81
411.355	802.81
411.578	808.81
411.802	789.81
412.025	823.81
412.249	828.81
412.472	795.81
412.695	810.81
412.919	795.81
413.142	796.81
413.365	807.81
413.589	799.81
413.812	766.81
414.035	801.81
414.258	800.81
414.482	816.81
414.705	793.81
414.928	777.81
415.151	786.81
415.374	787.81
415.597	783.81
415.821	749.81
416.044	786.81
416.267	740.81
416.49	788.81
416.713	782.81
416.936	781.81
417.159	753.81
417.382	745.81
417.605	766.81
417.828	756.81
418.051	750.81
418.274	755.81
418.497	748.81
418.72	739.81
418.943	748.81
419.166	796.81
419.389	808.81
419.611	841.81
419.834	793.81
420.057	778.81
420.28	759.81
420.503	719.81
420.726	749.81
420.948	717.81
421.171	748.81
421.394	739.81
421.617	735.81
421.839	747.81
422.062	760.81
422.285	717.81
422.507	774.81
422.73	753.81
422.953	755.81
423.175	737.81
423.398	751.81
423.621	727.81
423.843	767.81
424.066	768.81
424.288	724.81
424.511	743.81
424.733	737.81
424.956	742.81
425.178	733.81
425.401	759.81
425.623	760.81
425.846	755.81
426.068	756.81
426.291	765.81
426.513	768.81
426.735	743.81
426.958	758.81
427.18	730.81
427.402	766.81
427.625	743.81
427.847	736.81
428.069	713.81
428.292	753.81
428.514	731.81
428.736	740.81
428.958	744.81
429.181	727.81
429.403	749.81
429.625	732.81
429.847	748.81
430.069	740.81
430.292	737.81
430.514	724.81
430.736	736.81
430.958	742.81
431.18	718.81
431.402	736.81
431.624	734.81
431.846	736.81
432.068	727.81
432.29	729.81
432.512	753.81
432.734	736.81
432.956	710.81
433.178	739.81
433.4	739.81
433.622	730.81
433.844	745.81
434.066	739.81
434.287	754.81
434.509	738.81
434.731	728.81
434.953	762.81
435.175	742.81
435.397	756.81
435.618	744.81
435.84	736.81
436.062	724.81
436.284	730.81
436.505	720.81
436.727	736.81
436.949	732.81
437.17	743.81
437.392	728.81
437.614	707.81
437.835	722.81
438.057	708.81
438.278	695.81
438.5	717.81
438.721	736.81
438.943	729.81
439.165	712.81
439.386	709.81
439.608	722.81
439.829	720.81
440.05	715.81
440.272	750.81
440.493	714.81
440.715	734.81
440.936	731.81
441.158	721.81
441.379	719.81
441.6	730.81
441.822	708.81
442.043	739.81
442.264	743.81
442.486	744.81
442.707	738.81
442.928	726.81
443.149	732.81
443.371	742.81
443.592	751.81
443.813	732.81
444.034	741.81
444.255	764.81
444.476	734.81
444.698	741.81
444.919	754.81
445.14	844.81
445.361	785.81
445.582	737.81
445.803	728.81
446.024	721.81
446.245	717.81
446.466	741.81
446.687	715.81
446.908	748.81
447.129	675.81
447.35	707.81
447.571	712.81
447.792	696.81
448.013	698.81
448.234	693.81
448.455	708.81
448.675	697.81
448.896	711.81
449.117	702.81
449.338	674.81
449.559	705.81
449.779	674.81
450	677.81
450.221	697.81
450.442	677.81
450.662	698.81
450.883	691.81
451.104	710.81
451.324	677.81
451.545	688.81
451.766	696.81
451.986	682.81
452.207	694.81
452.428	691.81
452.648	718.81
452.869	675.81
453.089	656.81
453.31	668.81
453.53	681.81
453.751	653.81
453.971	661.81
454.192	678.81
454.412	667.81
454.633	678.81
454.853	660.81
455.073	667.81
455.294	666.81
455.514	646.81
455.734	666.81
455.955	657.81
456.175	682.81
456.395	655.81
456.616	678.81
456.836	676.81
457.056	683.81
457.276	657.81
457.497	672.81
457.717	668.81
457.937	702.81
458.157	690.81
458.377	677.81
458.598	711.81
458.818	672.81
459.038	728.81
459.258	719.81
459.478	708.81
459.698	700.81
459.918	708.81
460.138	716.81
460.358	749.81
460.578	741.81
460.798	739.81
461.018	742.81
461.238	736.81
461.458	770.81
461.678	735.81
461.898	728.81
462.118	724.81
462.338	768.81
462.558	761.81
462.777	748.81
462.997	793.81
463.217	783.81
463.437	796.81
463.657	790.81
463.876	785.81
464.096	779.81
464.316	768.81
464.536	772.81
464.755	781.81
464.975	798.81
465.195	756.81
465.414	760.81
465.634	752.81
465.854	744.81
466.073	737.81
466.293	701.81
466.512	710.81
466.732	720.81
466.951	694.81
467.171	714.81
467.391	710.81
467.61	708.81
467.829	689.81
468.049	705.81
468.268	717.81
468.488	713.81
468.707	713.81
468.927	709.81
469.146	714.81
469.365	713.81
469.585	728.81
469.804	740.81
470.023	701.81
470.243	745.81
470.462	728.81
470.681	724.81
470.901	735.81
471.12	741.81
471.339	739.81
471.558	738.81
471.777	752.81
471.997	741.81
472.216	754.81
472.435	745.81
472.654	741.81
472.873	743.81
473.092	743.81
473.311	741.81
473.53	750.81
473.749	759.81
473.968	748.81
474.187	764.81
474.406	755.81
474.625	764.81
474.844	766.81
475.063	756.81
475.282	742.81
475.501	766.81
475.72	794.81
475.939	782.81
476.158	778.81
476.377	812.81
476.596	809.81
476.814	809.81
477.033	821.81
477.252	793.81
477.471	817.81
477.69	822.81
477.908	853.81
478.127	837.81
478.346	854.81
478.564	862.81
478.783	814.81
479.002	848.81
479.22	878.81
479.439	890.81
479.658	886.81
479.876	872.81
480.095	855.81
480.313	885.81
480.532	868.81
480.751	892.81
480.969	854.81
481.188	869.81
481.406	869.81
481.624	873.81
481.843	877.81
482.061	863.81
482.28	870.81
482.498	904.81
482.717	892.81
482.935	888.81
483.153	912.81
483.372	911.81
483.59	904.81
483.808	893.81
484.027	883.81
484.245	890.81
484.463	896.81
484.681	939.81
484.9	950.81
485.118	952.81
485.336	904.81
485.554	932.81
485.772	927.81
485.99	938.81
486.209	951.81
486.427	928.81
486.645	920.81
486.863	930.81
487.081	901.81
487.299	922.81
487.517	914.81
487.735	953.81
487.953	920.81
488.171	940.81
488.389	964.81
488.607	953.81
488.825	921.81
489.043	916.81
489.261	930.81
489.479	949.81
489.696	935.81
489.914	952.81
490.132	954.81
490.35	943.81
490.568	941.81
490.786	943.81
491.003	941.81
491.221	962.81
491.439	947.81
491.657	946.81
491.874	940.81
492.092	992.81
492.31	935.81
492.527	927.81
492.745	948.81
492.963	949.81
493.18	982.81
493.398	970.81
493.615	963.81
493.833	956.81
494.05	975.81
494.268	959.81
494.485	972.81
494.703	958.81
494.92	977.81
495.138	945.81
495.355	971.81
495.573	998.81
495.79	1010.81
496.008	984.81
496.225	968.81
496.442	1005.81
496.66	990.81
496.877	1013.81
497.094	996.81
497.312	1015.81
497.529	1010.81
497.746	1016.81
497.963	1052.81
498.181	1055.81
498.398	1035.81
498.615	1080.81
498.832	1097.81
499.049	1072.81
499.267	1087.81
499.484	1159.81
499.701	1121.81
499.918	1173.81
500.135	1240.81
500.352	1225.81
500.569	1253.81
500.786	1244.81
501.003	1231.81
501.22	1211.81
501.437	1192.81
501.654	1122.81
501.871	1126.81
502.088	1100.81
502.305	1078.81
502.522	1072.81
502.739	1052.81
502.956	1053.81
503.172	1011.81
503.389	1010.81
503.606	989.81
503.823	1004.81
504.04	996.81
504.256	960.81
504.473	970.81
504.69	973.81
504.907	971.81
505.123	946.81
505.34	941.81
505.557	940.81
505.773	930.81
505.99	926.81
506.207	917.81
506.423	912.81
506.64	920.81
506.856	905.81
507.073	900.81
507.289	889.81
507.506	878.81
507.722	876.81
507.939	888.81
508.155	855.81
508.372	870.81
508.588	866.81
508.805	873.81
509.021	871.81
509.238	855.81
509.454	847.81
509.67	865.81
509.887	821.81
510.103	848.81
510.319	848.81
510.536	822.81
510.752	828.81
510.968	825.81
511.184	821.81
511.401	808.81
511.617	826.81
511.833	827.81
512.049	851.81
512.265	846.81
512.481	835.81
512.698	829.81
512.914	816.81
513.13	826.81
513.346	818.81
513.562	819.81
513.778	825.81
513.994	825.81
514.21	836.81
514.426	817.81
514.642	838.81
514.858	819.81
515.074	839.81
515.29	850.81
515.506	834.81
515.721	842.81
515.937	860.81
516.153	832.81
516.369	837.81
516.585	836.81
516.801	872.81
517.016	847.81
517.232	860.81
517.448	858.81
517.664	888.81
517.879	867.81
518.095	841.81
518.311	854.81
518.527	839.81
518.742	832.81
518.958	840.81
519.173	847.81
519.389	854.81
519.605	832.81
519.82	839.81
520.036	832.81
520.251	829.81
520.467	803.81
520.682	817.81
520.898	785.81
521.113	814.81
521.329	789.81
521.544	786.81
521.76	793.81
521.975	800.81
522.19	801.81
522.406	801.81
522.621	789.81
522.836	813.81
523.052	799.81
523.267	807.81
523.482	793.81
523.698	782.81
523.913	775.81
524.128	772.81
524.343	779.81
524.559	786.81
524.774	784.81
524.989	778.81
525.204	797.81
525.419	789.81
525.634	772.81
525.849	786.81
526.064	783.81
526.28	774.81
526.495	764.81
526.71	781.81
526.925	776.81
527.14	770.81
527.355	738.81
527.57	753.81
527.785	741.81
527.999	762.81
528.214	762.81
528.429	797.81
528.644	782.81
528.859	750.81
529.074	772.81
529.289	779.81
529.503	755.81
529.718	787.81
529.933	746.81
530.148	736.81
530.363	753.81
530.577	768.81
530.792	762.81
531.007	735.81
531.221	725.81
531.436	754.81
531.651	751.81
531.865	732.81
532.08	744.81
532.295	742.81
532.509	746.81
532.724	739.81
532.938	748.81
533.153	756.81
533.367	731.81
533.582	705.81
533.796	736.81
534.011	758.81
534.225	737.81
534.44	729.81
534.654	738.81
534.868	732.81
535.083	720.81
535.297	729.81
535.511	706.81
535.726	710.81
535.94	698.81
536.154	702.81
536.369	712.81
536.583	727.81
536.797	713.81
537.011	711.81
537.225	703.81
537.44	720.81
537.654	704.81
537.868	700.81
538.082	697.81
538.296	701.81
538.51	670.81
538.724	720.81
538.938	667.81
539.153	695.81
539.367	689.81
539.581	705.81
539.795	677.81
540.009	677.81
540.222	682.81
540.436	715.81
540.65	693.81
540.864	691.81
541.078	701.81
541.292	696.81
541.506	684.81
541.72	690.81
541.934	694.81
542.147	700.81
542.361	687.81
542.575	687.81
542.789	678.81
543.002	676.81
543.216	695.81
543.43	677.81
543.644	677.81
543.857	685.81
544.071	684.81
544.285	688.81
544.498	674.81
544.712	631.81
544.925	693.81
545.139	686.81
545.352	688.81
545.566	691.81
545.779	680.81
545.993	678.81
546.206	707.81
546.42	662.81
546.633	679.81
546.847	669.81
547.06	679.81
547.274	685.81
547.487	665.81
547.7	671.81
547.914	681.81
548.127	675.81
548.34	681.81
548.554	653.81
548.767	650.81
548.98	674.81
549.193	681.81
549.407	688.81
549.62	674.81
549.833	670.81
550.046	667.81
550.259	630.81
550.473	674.81
550.686	673.81
550.899	666.81
551.112	655.81
551.325	669.81
551.538	632.81
551.751	656.81
551.964	641.81
552.177	647.81
552.39	665.81
552.603	650.81
552.816	654.81
553.029	647.81
553.242	658.81
553.455	654.81
553.667	646.81
553.88	658.81
554.093	627.81
554.306	648.81
554.519	630.81
554.732	623.81
554.944	668.81
555.157	652.81
555.37	631.81
555.583	627.81
555.795	636.81
556.008	610.81
556.221	589.81
556.433	611.81
556.646	601.81
556.859	607.81
557.071	600.81
557.284	621.81
557.496	617.81
557.709	605.81
557.921	587.81
558.134	604.81
558.346	604.81
558.559	591.81
558.771	608.81
558.984	606.81
559.196	580.81
559.409	581.81
559.621	595.81
559.833	573.81
560.046	584.81
560.258	561.81
560.47	596.81
560.683	598.81
560.895	582.81
561.107	545.81
561.32	582.81
561.532	576.81
561.744	568.81
561.956	566.81
562.168	586.81
562.381	605.81
562.593	586.81
562.805	594.81
563.017	577.81
563.229	578.81
563.441	561.81
563.653	553.81
563.865	566.81
564.077	592.81
564.289	574.81
564.501	580.81
564.713	598.81
564.925	596.81
565.137	589.81
565.349	582.81
565.561	579.81
565.773	580.81
565.985	590.81
566.197	597.81
566.408	600.81
566.62	597.81
566.832	597.81
567.044	603.81
567.255	615.81
567.467	632.81
567.679	599.81
567.891	610.81
568.102	612.81
568.314	611.81
568.526	589.81
568.737	557.81
568.949	572.81
569.161	579.81
569.372	547.81
569.584	548.81
569.795	547.81
570.007	539.81
570.218	530.81
570.43	541.81
570.641	544.81
570.853	526.81
571.064	530.81
571.276	526.81
571.487	517.81
571.698	511.81
571.91	515.81
572.121	497.81
572.333	486.81
572.544	504.81
572.755	496.81
572.966	497.81
573.178	478.81
573.389	490.81
573.6	487.81
573.811	511.81
574.023	503.81
574.234	488.81
574.445	474.81
574.656	482.81
574.867	455.81
575.078	481.81
575.289	452.81
575.501	470.81
575.712	476.81
575.923	459.81
576.134	497.81
576.345	463.81
576.556	440.81
576.767	458.81
576.978	466.81
577.188	457.81
577.399	468.81
577.61	449.81
577.821	424.81
578.032	446.81
578.243	438.81
578.454	444.81
578.665	467.81
578.875	454.81
579.086	439.81
579.297	460.81
579.508	437.81
579.718	445.81
579.929	455.81
580.14	428.81
580.35	430.81
580.561	433.81
580.772	412.81
580.982	432.81
581.193	436.81
581.403	445.81
581.614	425.81
581.825	437.81
582.035	450.81
582.246	420.81
582.456	412.81
582.667	449.81
582.877	422.81
583.087	418.81
583.298	398.81
583.508	405.81
583.719	401.81
583.929	421.81
584.139	406.81
584.35	416.81
584.56	410.81
584.77	416.81
584.981	419.81
585.191	408.81
585.401	405.81
585.611	410.81
585.821	390.81
586.032	404.81
586.242	400.81
586.452	382.81
586.662	389.81
586.872	394.81
587.082	384.81
587.292	388.81
587.502	374.81
587.713	388.81
587.923	390.81
588.133	401.81
588.343	389.81
588.553	430.81
588.762	407.81
588.972	388.81
589.182	432.81
589.392	388.81
589.602	418.81
589.812	421.81
590.022	406.81
590.232	398.81
590.441	397.81
590.651	375.81
590.861	390.81
591.071	383.81
591.281	404.81
591.49	384.81
591.7	385.81
591.91	371.81
592.119	375.81
592.329	375.81
592.539	389.81
592.748	389.81
592.958	392.81
593.167	369.81
593.377	395.81
593.587	391.81
593.796	395.81
594.006	382.81
594.215	380.81
594.424	374.81
594.634	383.81
594.843	398.81
595.053	377.81
595.262	374.81
595.472	391.81
595.681	362.81
595.89	384.81
596.1	372.81
596.309	357.81
596.518	362.81
596.727	357.81
596.937	382.81
597.146	374.81
597.355	365.81
597.564	369.81
597.774	382.81
597.983	357.81
598.192	346.81
598.401	338.81
598.61	348.81
598.819	342.81
599.028	350.81
599.237	342.81
599.446	349.81
599.655	335.81
599.864	350.81
600.073	350.81
600.282	316.81
600.491	329.81
600.7	319.81
600.909	341.81
601.118	344.81
601.327	327.81
601.536	312.81
601.745	323.81
601.953	341.81
602.162	345.81
602.371	323.81
602.58	317.81
602.789	317.81
602.997	328.81
603.206	318.81
603.415	307.81
603.623	334.81
603.832	342.81
604.041	319.81
604.249	325.81
604.458	306.81
604.666	336.81
604.875	318.81
605.084	318.81
605.292	324.81
605.501	324.81
605.709	329.81
605.918	308.81
606.126	314.81
606.334	322.81
606.543	316.81
606.751	326.81
606.96	308.81
607.168	309.81
607.376	323.81
607.585	304.81
607.793	313.81
608.001	317.81
608.21	291.81
608.418	315.81
608.626	325.81
608.834	303.81
609.043	317.81
609.251	309.81
609.459	283.81
609.667	287.81
609.875	313.81
610.083	308.81
610.291	297.81
610.499	303.81
610.707	325.81
610.916	305.81
611.124	297.81
611.332	289.81
611.54	310.81
611.748	304.81
611.955	310.81
612.163	306.81
612.371	299.81
612.579	298.81
612.787	290.81
612.995	301.81
613.203	313.81
613.411	292.81
613.618	284.81
613.826	289.81
614.034	293.81
614.242	297.81
614.449	296.81
614.657	300.81
614.865	306.81
615.072	287.81
615.28	300.81
615.488	308.81
615.695	291.81
615.903	287.81
616.111	284.81
616.318	306.81
616.526	291.81
616.733	285.81
616.941	293.81
617.148	278.81
617.356	289.81
617.563	278.81
617.771	284.81
617.978	291.81
618.185	277.81
618.393	279.81
618.6	277.81
618.807	285.81
619.015	287.81
619.222	284.81
619.429	281.81
619.637	280.81
619.844	279.81
620.051	277.81
620.258	276.81
620.466	265.81
620.673	280.81
620.88	264.81
621.087	263.81
621.294	265.81
621.501	287.81
621.708	279.81
621.915	281.81
622.122	254.81
622.329	259.81
622.536	281.81
622.743	275.81
622.95	272.81
623.157	270.81
623.364	281.81
623.571	265.81
623.778	264.81
623.985	275.81
624.192	261.81
624.399	256.81
624.606	254.81
624.812	276.81
625.019	261.81
625.226	257.81
625.433	272.81
625.639	271.81
625.846	242.81
626.053	250.81
626.259	253.81
626.466	257.81
626.673	257.81
626.879	253.81
627.086	257.81
627.293	266.81
627.499	258.81
627.706	247.81
627.912	237.81
628.119	233.81
628.325	239.81
628.532	225.81
628.738	260.81
628.945	250.81
629.151	247.81
629.357	245.81
629.564	249.81
629.77	253.81
629.976	249.81
630.183	240.81
630.389	238.81
630.595	250.81
630.802	259.81
631.008	250.81
631.214	236.81
631.42	246.81
631.627	252.81
631.833	226.81
632.039	230.81
632.245	239.81
632.451	248.81
632.657	234.81
632.863	244.81
633.069	231.81
633.275	234.81
633.481	222.81
633.688	241.81
633.893	230.81
634.099	238.81
634.305	220.81
634.511	215.81
634.717	232.81
634.923	224.81
635.129	216.81
635.335	225.81
635.541	226.81
635.747	231.81
635.952	221.81
636.158	240.81
636.364	232.81
636.57	227.81
636.775	228.81
636.981	222.81
637.187	248.81
637.392	209.81
637.598	219.81
637.804	225.81
638.009	232.81
638.215	222.81
638.421	229.81
638.626	234.81
638.832	231.81
639.037	224.81
639.243	230.81
639.448	222.81
639.654	220.81
639.859	220.81
640.065	215.81
640.27	236.81
640.475	213.81
640.681	224.81
640.886	220.81
641.091	216.81
641.297	220.81
641.502	217.81
641.707	231.81
641.913	216.81
642.118	215.81
642.323	208.81
642.528	216.81
642.733	209.81
642.939	223.81
643.144	187.81
643.349	211.81
643.554	227.81
643.759	213.81
643.964	212.81
644.169	204.81
644.374	207.81
644.579	232.81
644.784	214.81
644.989	217.81
645.194	214.81
645.399	217.81
645.604	206.81
645.809	217.81
646.014	187.81
646.219	213.81
646.423	210.81
646.628	181.81
646.833	225.81
647.038	223.81
647.243	213.81
647.447	206.81
647.652	226.81
647.857	214.81
648.062	199.81
648.266	212.81
648.471	207.81
648.676	230.81
648.88	215.81
649.085	210.81
649.289	198.81
649.494	195.81
649.698	202.81
649.903	222.81
650.107	229.81
650.312	220.81
650.516	210.81
650.721	224.81
650.925	199.81
651.13	194.81
651.334	206.81
651.539	214.81
651.743	217.81
651.947	200.81
652.152	178.81
652.356	195.81
652.56	207.81
652.764	188.81
652.969	174.81
653.173	202.81
653.377	181.81
653.581	188.81
653.785	194.81
653.99	180.81
654.194	181.81
654.398	186.81
654.602	182.81
654.806	174.81
655.01	181.81
655.214	164.81
655.418	178.81
655.622	170.81
655.826	186.81
656.03	171.81
656.234	193.81
656.438	172.81
656.642	152.81
656.846	164.81
657.049	151.81
657.253	168.81
657.457	148.81
657.661	127.81
657.865	139.81
658.068	134.81
658.272	136.81
658.476	125.81
658.68	128.81
658.883	136.81
659.087	99.81
659.291	110.81
659.494	102.81
659.698	117.81
659.901	110.81
660.105	108.81
660.309	108.81
660.512	109.81
660.716	100.81
660.919	120.81
661.123	101.81
661.326	102.81
661.53	99.81
661.733	101.81
661.936	92.81
662.14	82.81
662.343	73.81
662.546	80.81
662.75	74.81
662.953	92.81
663.156	81.81
663.36	87.81
663.563	79.81
663.766	78.81
663.969	78.81
664.173	83.81
664.376	82.81
664.579	77.81
664.782	82.81
664.985	77.81
665.188	79.81
665.391	80.81
665.594	78.81
665.797	63.81
666	69.81
666.203	72.81
666.406	75.81
666.609	77.81
666.812	85.81
667.015	76.81
667.218	80.81
667.421	91.81
667.624	82.81
667.827	93.81
668.03	73.81
668.232	73.81
668.435	71.81
668.638	83.81
668.841	82.81
669.043	77.81
669.246	97.81
669.449	84.81
669.651	64.81
669.854	68.81
670.057	79.81
670.259	83.81
670.462	88.81
670.665	70.81
670.867	74.81
671.07	79.81
671.272	77.81
671.475	75.81
671.677	68.81
671.88	69.81
672.082	75.81
672.284	84.81
672.487	82.81
672.689	91.81
672.892	87.81
