Data from Fe(NO3)3@0.1M.TitratingCurve.Agarose3%dH2O.NegLispCup.LampEnergy10.LIBS07252019_HRD10591_16-39-17-332.txt Node
Date: Thu Jul 25 16:39:17 EDT 2019
User: cochatt
Spectrometer: HR+D1059
Trigger mode: 1
Integration Time (sec): 1.000000E-1
Scans to average: 1
Electric dark correction enabled: true
Nonlinearity correction enabled: false
Boxcar width: 0
XAxis mode: Wavelengths
Number of Pixels in Spectrum: 2048
>>>>>Begin Spectral Data<<<<<
223.165	-13.25
223.4	-13.25
223.635	-13.25
223.869	-19.25
224.104	-21.25
224.338	-11.25
224.573	-13.25
224.808	-14.25
225.042	-20.25
225.277	-6.25
225.511	-4.25
225.746	5.75
225.98	9.75
226.215	22.75
226.449	4.75
226.683	27.75
226.918	23.75
227.152	28.75
227.387	44.75
227.621	33.75
227.856	51.75
228.09	43.75
228.324	52.75
228.559	69.75
228.793	76.75
229.027	95.75
229.262	84.75
229.496	82.75
229.73	98.75
229.964	97.75
230.199	107.75
230.433	102.75
230.667	103.75
230.901	87.75
231.136	113.75
231.37	116.75
231.604	103.75
231.838	112.75
232.072	117.75
232.306	128.75
232.541	130.75
232.775	118.75
233.009	108.75
233.243	122.75
233.477	118.75
233.711	122.75
233.945	126.75
234.179	122.75
234.413	123.75
234.647	139.75
234.881	121.75
235.115	117.75
235.349	130.75
235.583	140.75
235.817	135.75
236.051	125.75
236.285	135.75
236.519	120.75
236.753	134.75
236.987	135.75
237.221	103.75
237.455	128.75
237.689	123.75
237.922	134.75
238.156	118.75
238.39	123.75
238.624	130.75
238.858	142.75
239.091	134.75
239.325	128.75
239.559	134.75
239.793	139.75
240.027	131.75
240.26	149.75
240.494	144.75
240.728	132.75
240.961	143.75
241.195	141.75
241.429	145.75
241.662	144.75
241.896	154.75
242.13	144.75
242.363	145.75
242.597	141.75
242.83	154.75
243.064	155.75
243.298	167.75
243.531	141.75
243.765	144.75
243.998	142.75
244.232	150.75
244.465	144.75
244.699	162.75
244.932	144.75
245.166	156.75
245.399	150.75
245.633	165.75
245.866	164.75
246.099	165.75
246.333	136.75
246.566	154.75
246.8	162.75
247.033	147.75
247.266	159.75
247.5	158.75
247.733	152.75
247.966	155.75
248.2	168.75
248.433	174.75
248.666	171.75
248.899	167.75
249.133	166.75
249.366	179.75
249.599	156.75
249.832	155.75
250.066	174.75
250.299	185.75
250.532	180.75
250.765	177.75
250.998	190.75
251.231	189.75
251.465	181.75
251.698	180.75
251.931	178.75
252.164	185.75
252.397	179.75
252.63	189.75
252.863	172.75
253.096	190.75
253.329	191.75
253.562	190.75
253.795	188.75
254.028	182.75
254.261	190.75
254.494	203.75
254.727	189.75
254.96	195.75
255.193	206.75
255.426	200.75
255.659	174.75
255.892	206.75
256.124	188.75
256.357	198.75
256.59	194.75
256.823	213.75
257.056	205.75
257.289	211.75
257.521	204.75
257.754	191.75
257.987	199.75
258.22	215.75
258.452	208.75
258.685	212.75
258.918	228.75
259.151	204.75
259.383	215.75
259.616	207.75
259.849	214.75
260.081	217.75
260.314	221.75
260.547	216.75
260.779	223.75
261.012	225.75
261.244	226.75
261.477	236.75
261.71	220.75
261.942	225.75
262.175	214.75
262.407	216.75
262.64	205.75
262.872	216.75
263.105	218.75
263.337	233.75
263.57	220.75
263.802	232.75
264.035	228.75
264.267	239.75
264.499	232.75
264.732	232.75
264.964	224.75
265.197	229.75
265.429	229.75
265.661	237.75
265.894	199.75
266.126	230.75
266.358	234.75
266.591	230.75
266.823	230.75
267.055	239.75
267.287	226.75
267.52	231.75
267.752	254.75
267.984	240.75
268.216	245.75
268.448	260.75
268.681	244.75
268.913	264.75
269.145	258.75
269.377	248.75
269.609	262.75
269.841	265.75
270.073	260.75
270.306	239.75
270.538	246.75
270.77	274.75
271.002	253.75
271.234	230.75
271.466	269.75
271.698	254.75
271.93	255.75
272.162	251.75
272.394	260.75
272.626	258.75
272.858	258.75
273.09	264.75
273.322	248.75
273.553	270.75
273.785	290.75
274.017	270.75
274.249	262.75
274.481	268.75
274.713	269.75
274.945	291.75
275.176	300.75
275.408	280.75
275.64	295.75
275.872	267.75
276.104	281.75
276.335	272.75
276.567	286.75
276.799	294.75
277.031	287.75
277.262	290.75
277.494	276.75
277.726	284.75
277.957	300.75
278.189	290.75
278.421	291.75
278.652	286.75
278.884	271.75
279.115	292.75
279.347	276.75
279.579	273.75
279.81	297.75
280.042	301.75
280.273	293.75
280.505	295.75
280.736	301.75
280.968	295.75
281.199	321.75
281.431	298.75
281.662	300.75
281.894	317.75
282.125	312.75
282.356	300.75
282.588	299.75
282.819	272.75
283.051	318.75
283.282	306.75
283.513	314.75
283.745	302.75
283.976	286.75
284.207	319.75
284.439	307.75
284.67	311.75
284.901	307.75
285.132	317.75
285.364	317.75
285.595	317.75
285.826	315.75
286.057	313.75
286.288	308.75
286.52	318.75
286.751	328.75
286.982	319.75
287.213	322.75
287.444	324.75
287.675	329.75
287.906	339.75
288.138	322.75
288.369	345.75
288.6	338.75
288.831	344.75
289.062	332.75
289.293	332.75
289.524	320.75
289.755	324.75
289.986	333.75
290.217	325.75
290.448	323.75
290.679	336.75
290.91	328.75
291.141	328.75
291.371	348.75
291.602	320.75
291.833	351.75
292.064	346.75
292.295	320.75
292.526	339.75
292.757	324.75
292.987	330.75
293.218	335.75
293.449	316.75
293.68	338.75
293.91	326.75
294.141	343.75
294.372	340.75
294.603	326.75
294.833	337.75
295.064	326.75
295.295	336.75
295.525	332.75
295.756	366.75
295.987	339.75
296.217	356.75
296.448	345.75
296.679	343.75
296.909	342.75
297.14	366.75
297.37	347.75
297.601	366.75
297.831	349.75
298.062	344.75
298.292	342.75
298.523	364.75
298.753	348.75
298.984	342.75
299.214	357.75
299.445	360.75
299.675	354.75
299.905	344.75
300.136	356.75
300.366	365.75
300.597	365.75
300.827	347.75
301.057	376.75
301.288	374.75
301.518	388.75
301.748	398.75
301.979	381.75
302.209	376.75
302.439	367.75
302.669	367.75
302.9	362.75
303.13	366.75
303.36	385.75
303.59	392.75
303.82	371.75
304.051	371.75
304.281	364.75
304.511	363.75
304.741	385.75
304.971	389.75
305.201	376.75
305.431	359.75
305.661	386.75
305.891	362.75
306.121	370.75
306.352	362.75
306.582	366.75
306.812	373.75
307.042	374.75
307.272	367.75
307.502	366.75
307.731	367.75
307.961	359.75
308.191	366.75
308.421	368.75
308.651	371.75
308.881	362.75
309.111	392.75
309.341	376.75
309.571	384.75
309.8	390.75
310.03	378.75
310.26	378.75
310.49	380.75
310.72	368.75
310.949	359.75
311.179	379.75
311.409	382.75
311.639	386.75
311.868	402.75
312.098	394.75
312.328	384.75
312.557	382.75
312.787	380.75
313.017	404.75
313.246	404.75
313.476	395.75
313.706	392.75
313.935	415.75
314.165	415.75
314.394	381.75
314.624	400.75
314.853	395.75
315.083	398.75
315.312	416.75
315.542	420.75
315.771	390.75
316.001	400.75
316.23	400.75
316.46	415.75
316.689	397.75
316.919	392.75
317.148	412.75
317.377	394.75
317.607	401.75
317.836	399.75
318.065	405.75
318.295	394.75
318.524	400.75
318.753	406.75
318.983	396.75
319.212	388.75
319.441	392.75
319.67	396.75
319.9	385.75
320.129	401.75
320.358	390.75
320.587	426.75
320.816	407.75
321.046	392.75
321.275	390.75
321.504	399.75
321.733	395.75
321.962	399.75
322.191	413.75
322.42	416.75
322.649	411.75
322.878	400.75
323.108	395.75
323.337	427.75
323.566	382.75
323.795	410.75
324.024	404.75
324.253	414.75
324.482	425.75
324.71	418.75
324.939	411.75
325.168	404.75
325.397	398.75
325.626	434.75
325.855	440.75
326.084	410.75
326.313	424.75
326.542	443.75
326.77	436.75
326.999	437.75
327.228	450.75
327.457	423.75
327.686	428.75
327.914	430.75
328.143	429.75
328.372	433.75
328.6	429.75
328.829	435.75
329.058	430.75
329.287	430.75
329.515	435.75
329.744	441.75
329.972	451.75
330.201	463.75
330.43	439.75
330.658	435.75
330.887	448.75
331.115	465.75
331.344	449.75
331.572	448.75
331.801	442.75
332.03	462.75
332.258	472.75
332.486	484.75
332.715	510.75
332.943	488.75
333.172	515.75
333.4	550.75
333.629	551.75
333.857	549.75
334.085	546.75
334.314	536.75
334.542	563.75
334.771	536.75
334.999	556.75
335.227	548.75
335.455	525.75
335.684	538.75
335.912	522.75
336.14	503.75
336.369	518.75
336.597	543.75
336.825	492.75
337.053	493.75
337.281	470.75
337.51	490.75
337.738	488.75
337.966	487.75
338.194	478.75
338.422	484.75
338.65	477.75
338.878	479.75
339.106	480.75
339.334	469.75
339.562	475.75
339.79	463.75
340.018	463.75
340.246	464.75
340.474	471.75
340.702	479.75
340.93	468.75
341.158	462.75
341.386	468.75
341.614	458.75
341.842	454.75
342.07	472.75
342.298	445.75
342.526	458.75
342.754	449.75
342.981	472.75
343.209	472.75
343.437	478.75
343.665	482.75
343.893	527.75
344.12	524.75
344.348	532.75
344.576	477.75
344.804	512.75
345.031	495.75
345.259	484.75
345.487	444.75
345.714	461.75
345.942	450.75
346.17	460.75
346.397	452.75
346.625	458.75
346.853	446.75
347.08	436.75
347.308	448.75
347.535	445.75
347.763	460.75
347.99	441.75
348.218	461.75
348.445	439.75
348.673	434.75
348.9	443.75
349.128	425.75
349.355	440.75
349.583	422.75
349.81	406.75
350.037	452.75
350.265	430.75
350.492	436.75
350.72	447.75
350.947	430.75
351.174	434.75
351.402	450.75
351.629	440.75
351.856	438.75
352.083	412.75
352.311	426.75
352.538	431.75
352.765	454.75
352.992	450.75
353.22	428.75
353.447	420.75
353.674	420.75
353.901	445.75
354.128	430.75
354.355	410.75
354.583	405.75
354.81	425.75
355.037	440.75
355.264	431.75
355.491	418.75
355.718	420.75
355.945	443.75
356.172	442.75
356.399	418.75
356.626	423.75
356.853	452.75
357.08	437.75
357.307	444.75
357.534	446.75
357.761	437.75
357.988	438.75
358.215	426.75
358.441	450.75
358.668	438.75
358.895	438.75
359.122	435.75
359.349	416.75
359.576	430.75
359.802	427.75
360.029	443.75
360.256	448.75
360.483	435.75
360.709	438.75
360.936	450.75
361.163	427.75
361.39	441.75
361.616	436.75
361.843	443.75
362.07	422.75
362.296	436.75
362.523	447.75
362.749	438.75
362.976	446.75
363.203	444.75
363.429	423.75
363.656	433.75
363.882	438.75
364.109	448.75
364.335	437.75
364.562	436.75
364.788	438.75
365.015	443.75
365.241	456.75
365.468	430.75
365.694	434.75
365.92	422.75
366.147	412.75
366.373	446.75
366.599	442.75
366.826	438.75
367.052	436.75
367.278	443.75
367.505	440.75
367.731	426.75
367.957	433.75
368.184	440.75
368.41	428.75
368.636	429.75
368.862	463.75
369.089	481.75
369.315	472.75
369.541	457.75
369.767	476.75
369.993	456.75
370.219	450.75
370.445	470.75
370.672	472.75
370.898	473.75
371.124	488.75
371.35	498.75
371.576	460.75
371.802	470.75
372.028	467.75
372.254	485.75
372.48	492.75
372.706	502.75
372.932	496.75
373.158	487.75
373.384	488.75
373.61	512.75
373.835	510.75
374.061	502.75
374.287	499.75
374.513	486.75
374.739	532.75
374.965	505.75
375.191	542.75
375.416	536.75
375.642	510.75
375.868	499.75
376.094	489.75
376.319	477.75
376.545	486.75
376.771	488.75
376.997	492.75
377.222	470.75
377.448	487.75
377.674	467.75
377.899	490.75
378.125	487.75
378.35	482.75
378.576	484.75
378.802	476.75
379.027	476.75
379.253	489.75
379.478	487.75
379.704	485.75
379.929	485.75
380.155	485.75
380.38	486.75
380.606	463.75
380.831	492.75
381.057	496.75
381.282	498.75
381.507	471.75
381.733	493.75
381.958	510.75
382.184	491.75
382.409	538.75
382.634	519.75
382.86	499.75
383.085	519.75
383.31	518.75
383.535	522.75
383.761	533.75
383.986	556.75
384.211	537.75
384.436	548.75
384.662	570.75
384.887	553.75
385.112	538.75
385.337	572.75
385.562	564.75
385.787	567.75
386.013	579.75
386.238	581.75
386.463	587.75
386.688	584.75
386.913	576.75
387.138	580.75
387.363	570.75
387.588	568.75
387.813	596.75
388.038	585.75
388.263	580.75
388.488	580.75
388.713	583.75
388.938	567.75
389.163	537.75
389.387	561.75
389.612	579.75
389.837	572.75
390.062	591.75
390.287	573.75
390.512	565.75
390.736	590.75
390.961	590.75
391.186	582.75
391.411	604.75
391.636	628.75
391.86	632.75
392.085	626.75
392.31	631.75
392.534	629.75
392.759	597.75
392.984	614.75
393.208	613.75
393.433	613.75
393.658	600.75
393.882	615.75
394.107	612.75
394.331	605.75
394.556	621.75
394.78	601.75
395.005	620.75
395.229	643.75
395.454	650.75
395.678	644.75
395.903	647.75
396.127	632.75
396.352	605.75
396.576	630.75
396.801	636.75
397.025	630.75
397.249	635.75
397.474	650.75
397.698	662.75
397.922	636.75
398.147	669.75
398.371	663.75
398.595	686.75
398.82	695.75
399.044	735.75
399.268	823.75
399.492	884.75
399.717	975.75
399.941	985.75
400.165	918.75
400.389	832.75
400.613	775.75
400.837	749.75
401.062	743.75
401.286	706.75
401.51	725.75
401.734	709.75
401.958	698.75
402.182	723.75
402.406	733.75
402.63	760.75
402.854	737.75
403.078	748.75
403.302	756.75
403.526	790.75
403.75	782.75
403.974	793.75
404.198	785.75
404.422	776.75
404.645	766.75
404.869	784.75
405.093	788.75
405.317	781.75
405.541	756.75
405.765	778.75
405.988	779.75
406.212	766.75
406.436	790.75
406.66	792.75
406.883	781.75
407.107	834.75
407.331	852.75
407.555	875.75
407.778	882.75
408.002	852.75
408.226	863.75
408.449	829.75
408.673	796.75
408.896	808.75
409.12	784.75
409.344	819.75
409.567	783.75
409.791	809.75
410.014	796.75
410.238	794.75
410.461	810.75
410.685	783.75
410.908	780.75
411.132	743.75
411.355	750.75
411.578	770.75
411.802	746.75
412.025	751.75
412.249	791.75
412.472	742.75
412.695	726.75
412.919	731.75
413.142	742.75
413.365	739.75
413.589	751.75
413.812	728.75
414.035	728.75
414.258	739.75
414.482	732.75
414.705	743.75
414.928	734.75
415.151	717.75
415.374	738.75
415.597	738.75
415.821	710.75
416.044	724.75
416.267	714.75
416.49	689.75
416.713	697.75
416.936	733.75
417.159	714.75
417.382	692.75
417.605	699.75
417.828	682.75
418.051	712.75
418.274	720.75
418.497	718.75
418.72	734.75
418.943	723.75
419.166	723.75
419.389	774.75
419.611	762.75
419.834	763.75
420.057	737.75
420.28	738.75
420.503	700.75
420.726	696.75
420.948	694.75
421.171	697.75
421.394	704.75
421.617	728.75
421.839	716.75
422.062	732.75
422.285	706.75
422.507	716.75
422.73	751.75
422.953	723.75
423.175	717.75
423.398	734.75
423.621	722.75
423.843	733.75
424.066	736.75
424.288	708.75
424.511	719.75
424.733	736.75
424.956	700.75
425.178	738.75
425.401	742.75
425.623	734.75
425.846	684.75
426.068	702.75
426.291	682.75
426.513	701.75
426.735	684.75
426.958	661.75
427.18	656.75
427.402	664.75
427.625	660.75
427.847	656.75
428.069	658.75
428.292	679.75
428.514	677.75
428.736	649.75
428.958	643.75
429.181	655.75
429.403	628.75
429.625	652.75
429.847	652.75
430.069	646.75
430.292	662.75
430.514	628.75
430.736	626.75
430.958	654.75
431.18	642.75
431.402	645.75
431.624	643.75
431.846	644.75
432.068	663.75
432.29	685.75
432.512	637.75
432.734	640.75
432.956	672.75
433.178	656.75
433.4	685.75
433.622	678.75
433.844	668.75
434.066	664.75
434.287	658.75
434.509	675.75
434.731	696.75
434.953	706.75
435.175	709.75
435.397	734.75
435.618	690.75
435.84	678.75
436.062	651.75
436.284	672.75
436.505	667.75
436.727	660.75
436.949	649.75
437.17	633.75
437.392	628.75
437.614	664.75
437.835	635.75
438.057	642.75
438.278	626.75
438.5	632.75
438.721	612.75
438.943	642.75
439.165	607.75
439.386	634.75
439.608	639.75
439.829	637.75
440.05	648.75
440.272	652.75
440.493	664.75
440.715	670.75
440.936	687.75
441.158	690.75
441.379	672.75
441.6	717.75
441.822	711.75
442.043	715.75
442.264	690.75
442.486	683.75
442.707	718.75
442.928	704.75
443.149	719.75
443.371	705.75
443.592	723.75
443.813	715.75
444.034	719.75
444.255	723.75
444.476	790.75
444.698	790.75
444.919	802.75
445.14	909.75
445.361	830.75
445.582	730.75
445.803	728.75
446.024	710.75
446.245	680.75
446.466	677.75
446.687	682.75
446.908	661.75
447.129	652.75
447.35	671.75
447.571	622.75
447.792	628.75
448.013	626.75
448.234	613.75
448.455	606.75
448.675	641.75
448.896	624.75
449.117	616.75
449.338	621.75
449.559	621.75
449.779	605.75
450	597.75
450.221	605.75
450.442	624.75
450.662	588.75
450.883	591.75
451.104	614.75
451.324	616.75
451.545	614.75
451.766	605.75
451.986	621.75
452.207	595.75
452.428	606.75
452.648	600.75
452.869	590.75
453.089	591.75
453.31	566.75
453.53	576.75
453.751	595.75
453.971	602.75
454.192	565.75
454.412	582.75
454.633	573.75
454.853	570.75
455.073	586.75
455.294	602.75
455.514	574.75
455.734	596.75
455.955	550.75
456.175	573.75
456.395	551.75
456.616	558.75
456.836	566.75
457.056	559.75
457.276	573.75
457.497	573.75
457.717	554.75
457.937	585.75
458.157	580.75
458.377	586.75
458.598	589.75
458.818	611.75
459.038	623.75
459.258	649.75
459.478	656.75
459.698	696.75
459.918	682.75
460.138	709.75
460.358	756.75
460.578	738.75
460.798	720.75
461.018	775.75
461.238	740.75
461.458	741.75
461.678	736.75
461.898	758.75
462.118	766.75
462.338	799.75
462.558	786.75
462.777	804.75
462.997	884.75
463.217	932.75
463.437	933.75
463.657	893.75
463.876	856.75
464.096	857.75
464.316	830.75
464.536	832.75
464.755	810.75
464.975	797.75
465.195	756.75
465.414	739.75
465.634	695.75
465.854	679.75
466.073	691.75
466.293	660.75
466.512	623.75
466.732	644.75
466.951	649.75
467.171	624.75
467.391	629.75
467.61	646.75
467.829	631.75
468.049	618.75
468.268	596.75
468.488	613.75
468.707	628.75
468.927	614.75
469.146	618.75
469.365	596.75
469.585	589.75
469.804	647.75
470.023	621.75
470.243	652.75
470.462	640.75
470.681	647.75
470.901	616.75
471.12	635.75
471.339	632.75
471.558	608.75
471.777	602.75
471.997	621.75
472.216	591.75
472.435	607.75
472.654	608.75
472.873	586.75
473.092	602.75
473.311	581.75
473.53	609.75
473.749	596.75
473.968	592.75
474.187	591.75
474.406	558.75
474.625	626.75
474.844	615.75
475.063	593.75
475.282	608.75
475.501	606.75
475.72	618.75
475.939	610.75
476.158	623.75
476.377	634.75
476.596	628.75
476.814	653.75
477.033	614.75
477.252	636.75
477.471	640.75
477.69	653.75
477.908	648.75
478.127	679.75
478.346	702.75
478.564	701.75
478.783	715.75
479.002	724.75
479.22	724.75
479.439	731.75
479.658	744.75
479.876	725.75
480.095	740.75
480.313	759.75
480.532	743.75
480.751	748.75
480.969	715.75
481.188	713.75
481.406	728.75
481.624	704.75
481.843	700.75
482.061	695.75
482.28	684.75
482.498	676.75
482.717	671.75
482.935	684.75
483.153	677.75
483.372	702.75
483.59	690.75
483.808	686.75
484.027	706.75
484.245	697.75
484.463	696.75
484.681	690.75
484.9	709.75
485.118	694.75
485.336	684.75
485.554	718.75
485.772	694.75
485.99	692.75
486.209	698.75
486.427	710.75
486.645	711.75
486.863	723.75
487.081	728.75
487.299	710.75
487.517	701.75
487.735	732.75
487.953	711.75
488.171	687.75
488.389	702.75
488.607	686.75
488.825	723.75
489.043	695.75
489.261	697.75
489.479	696.75
489.696	706.75
489.914	696.75
490.132	717.75
490.35	716.75
490.568	713.75
490.786	715.75
491.003	722.75
491.221	720.75
491.439	742.75
491.657	717.75
491.874	730.75
492.092	719.75
492.31	741.75
492.527	738.75
492.745	734.75
492.963	749.75
493.18	745.75
493.398	739.75
493.615	730.75
493.833	755.75
494.05	772.75
494.268	736.75
494.485	738.75
494.703	728.75
494.92	770.75
495.138	737.75
495.355	756.75
495.573	738.75
495.79	733.75
496.008	766.75
496.225	791.75
496.442	758.75
496.66	793.75
496.877	789.75
497.094	819.75
497.312	818.75
497.529	828.75
497.746	845.75
497.963	871.75
498.181	908.75
498.398	919.75
498.615	977.75
498.832	1030.75
499.049	1091.75
499.267	1116.75
499.484	1189.75
499.701	1321.75
499.918	1442.75
500.135	1588.75
500.352	1736.75
500.569	1782.75
500.786	1790.75
501.003	1702.75
501.22	1571.75
501.437	1432.75
501.654	1293.75
501.871	1182.75
502.088	1149.75
502.305	1052.75
502.522	1002.75
502.739	982.75
502.956	940.75
503.172	909.75
503.389	884.75
503.606	879.75
503.823	868.75
504.04	862.75
504.256	851.75
504.473	839.75
504.69	834.75
504.907	871.75
505.123	783.75
505.34	760.75
505.557	732.75
505.773	735.75
505.99	720.75
506.207	716.75
506.423	687.75
506.64	683.75
506.856	659.75
507.073	672.75
507.289	670.75
507.506	644.75
507.722	660.75
507.939	672.75
508.155	637.75
508.372	649.75
508.588	623.75
508.805	640.75
509.021	633.75
509.238	614.75
509.454	624.75
509.67	636.75
509.887	610.75
510.103	610.75
510.319	587.75
510.536	622.75
510.752	646.75
510.968	612.75
511.184	610.75
511.401	623.75
511.617	605.75
511.833	595.75
512.049	600.75
512.265	600.75
512.481	605.75
512.698	604.75
512.914	590.75
513.13	615.75
513.346	605.75
513.562	620.75
513.778	599.75
513.994	619.75
514.21	611.75
514.426	578.75
514.642	614.75
514.858	612.75
515.074	619.75
515.29	621.75
515.506	636.75
515.721	624.75
515.937	637.75
516.153	639.75
516.369	670.75
516.585	684.75
516.801	668.75
517.016	705.75
517.232	755.75
517.448	755.75
517.664	782.75
517.879	750.75
518.095	764.75
518.311	774.75
518.527	738.75
518.742	726.75
518.958	683.75
519.173	669.75
519.389	666.75
519.605	647.75
519.82	640.75
520.036	633.75
520.251	644.75
520.467	628.75
520.682	617.75
520.898	602.75
521.113	585.75
521.329	582.75
521.544	601.75
521.76	578.75
521.975	592.75
522.19	558.75
522.406	586.75
522.621	578.75
522.836	567.75
523.052	570.75
523.267	556.75
523.482	557.75
523.698	566.75
523.913	543.75
524.128	571.75
524.343	557.75
524.559	557.75
524.774	562.75
524.989	560.75
525.204	554.75
525.419	532.75
525.634	553.75
525.849	553.75
526.064	557.75
526.28	559.75
526.495	535.75
526.71	563.75
526.925	572.75
527.14	526.75
527.355	543.75
527.57	525.75
527.785	544.75
527.999	559.75
528.214	562.75
528.429	548.75
528.644	547.75
528.859	539.75
529.074	551.75
529.289	544.75
529.503	530.75
529.718	533.75
529.933	532.75
530.148	551.75
530.363	544.75
530.577	558.75
530.792	564.75
531.007	550.75
531.221	527.75
531.436	552.75
531.651	544.75
531.865	527.75
532.08	551.75
532.295	524.75
532.509	541.75
532.724	533.75
532.938	536.75
533.153	530.75
533.367	555.75
533.582	516.75
533.796	515.75
534.011	522.75
534.225	536.75
534.44	518.75
534.654	520.75
534.868	529.75
535.083	544.75
535.297	534.75
535.511	538.75
535.726	536.75
535.94	523.75
536.154	508.75
536.369	540.75
536.583	495.75
536.797	524.75
537.011	488.75
537.225	478.75
537.44	508.75
537.654	512.75
537.868	489.75
538.082	490.75
538.296	493.75
538.51	510.75
538.724	499.75
538.938	470.75
539.153	500.75
539.367	507.75
539.581	492.75
539.795	500.75
540.009	502.75
540.222	488.75
540.436	459.75
540.65	482.75
540.864	488.75
541.078	499.75
541.292	510.75
541.506	495.75
541.72	511.75
541.934	481.75
542.147	487.75
542.361	486.75
542.575	488.75
542.789	490.75
543.002	473.75
543.216	475.75
543.43	490.75
543.644	476.75
543.857	505.75
544.071	499.75
544.285	490.75
544.498	477.75
544.712	478.75
544.925	474.75
545.139	477.75
545.352	491.75
545.566	520.75
545.779	501.75
545.993	497.75
546.206	476.75
546.42	495.75
546.633	501.75
546.847	482.75
547.06	494.75
547.274	500.75
547.487	488.75
547.7	510.75
547.914	478.75
548.127	484.75
548.34	493.75
548.554	490.75
548.767	493.75
548.98	511.75
549.193	493.75
549.407	502.75
549.62	508.75
549.833	506.75
550.046	513.75
550.259	494.75
550.473	463.75
550.686	499.75
550.899	504.75
551.112	494.75
551.325	479.75
551.538	508.75
551.751	489.75
551.964	494.75
552.177	500.75
552.39	495.75
552.603	501.75
552.816	518.75
553.029	532.75
553.242	515.75
553.455	520.75
553.667	534.75
553.88	520.75
554.093	517.75
554.306	526.75
554.519	482.75
554.732	482.75
554.944	486.75
555.157	485.75
555.37	468.75
555.583	465.75
555.795	468.75
556.008	449.75
556.221	441.75
556.433	446.75
556.646	442.75
556.859	456.75
557.071	459.75
557.284	448.75
557.496	460.75
557.709	428.75
557.921	442.75
558.134	423.75
558.346	433.75
558.559	422.75
558.771	436.75
558.984	410.75
559.196	420.75
559.409	424.75
559.621	419.75
559.833	421.75
560.046	426.75
560.258	424.75
560.47	410.75
560.683	420.75
560.895	419.75
561.107	430.75
561.32	430.75
561.532	418.75
561.744	404.75
561.956	444.75
562.168	425.75
562.381	414.75
562.593	431.75
562.805	435.75
563.017	401.75
563.229	410.75
563.441	410.75
563.653	425.75
563.865	419.75
564.077	420.75
564.289	445.75
564.501	438.75
564.713	429.75
564.925	438.75
565.137	459.75
565.349	480.75
565.561	504.75
565.773	500.75
565.985	503.75
566.197	519.75
566.408	549.75
566.62	579.75
566.832	605.75
567.044	602.75
567.255	606.75
567.467	626.75
567.679	662.75
567.891	670.75
568.102	686.75
568.314	652.75
568.526	607.75
568.737	592.75
568.949	550.75
569.161	515.75
569.372	490.75
569.584	476.75
569.795	445.75
570.007	416.75
570.218	423.75
570.43	438.75
570.641	408.75
570.853	427.75
571.064	429.75
571.276	424.75
571.487	398.75
571.698	405.75
571.91	390.75
572.121	405.75
572.333	382.75
572.544	349.75
572.755	363.75
572.966	377.75
573.178	358.75
573.389	371.75
573.6	362.75
573.811	352.75
574.023	353.75
574.234	364.75
574.445	347.75
574.656	386.75
574.867	351.75
575.078	353.75
575.289	364.75
575.501	342.75
575.712	329.75
575.923	342.75
576.134	342.75
576.345	340.75
576.556	339.75
576.767	344.75
576.978	315.75
577.188	342.75
577.399	321.75
577.61	317.75
577.821	323.75
578.032	326.75
578.243	330.75
578.454	335.75
578.665	332.75
578.875	307.75
579.086	317.75
579.297	313.75
579.508	318.75
579.718	320.75
579.929	311.75
580.14	326.75
580.35	310.75
580.561	328.75
580.772	323.75
580.982	319.75
581.193	312.75
581.403	323.75
581.614	319.75
581.825	300.75
582.035	306.75
582.246	295.75
582.456	292.75
582.667	318.75
582.877	304.75
583.087	303.75
583.298	313.75
583.508	294.75
583.719	285.75
583.929	308.75
584.139	315.75
584.35	300.75
584.56	308.75
584.77	276.75
584.981	307.75
585.191	292.75
585.401	294.75
585.611	281.75
585.821	284.75
586.032	285.75
586.242	296.75
586.452	297.75
586.662	289.75
586.872	284.75
587.082	278.75
587.292	269.75
587.502	292.75
587.713	286.75
587.923	306.75
588.133	298.75
588.343	301.75
588.553	277.75
588.762	295.75
588.972	272.75
589.182	290.75
589.392	296.75
589.602	308.75
589.812	310.75
590.022	293.75
590.232	297.75
590.441	316.75
590.651	298.75
590.861	295.75
591.071	306.75
591.281	289.75
591.49	310.75
591.7	302.75
591.91	294.75
592.119	315.75
592.329	297.75
592.539	306.75
592.748	326.75
592.958	320.75
593.167	316.75
593.377	319.75
593.587	343.75
593.796	344.75
594.006	358.75
594.215	331.75
594.424	344.75
594.634	329.75
594.843	318.75
595.053	299.75
595.262	316.75
595.472	290.75
595.681	294.75
595.89	306.75
596.1	294.75
596.309	289.75
596.518	285.75
596.727	279.75
596.937	272.75
597.146	276.75
597.355	293.75
597.564	279.75
597.774	277.75
597.983	254.75
598.192	261.75
598.401	264.75
598.61	260.75
598.819	261.75
599.028	265.75
599.237	259.75
599.446	251.75
599.655	274.75
599.864	264.75
600.073	267.75
600.282	286.75
600.491	237.75
600.7	241.75
600.909	248.75
601.118	258.75
601.327	250.75
601.536	246.75
601.745	236.75
601.953	237.75
602.162	254.75
602.371	260.75
602.58	238.75
602.789	250.75
602.997	225.75
603.206	242.75
603.415	251.75
603.623	247.75
603.832	244.75
604.041	226.75
604.249	229.75
604.458	235.75
604.666	230.75
604.875	248.75
605.084	218.75
605.292	247.75
605.501	242.75
605.709	230.75
605.918	242.75
606.126	232.75
606.334	235.75
606.543	242.75
606.751	237.75
606.96	227.75
607.168	239.75
607.376	224.75
607.585	218.75
607.793	247.75
608.001	239.75
608.21	232.75
608.418	225.75
608.626	243.75
608.834	241.75
609.043	226.75
609.251	219.75
609.459	230.75
609.667	245.75
609.875	223.75
610.083	204.75
610.291	233.75
610.499	235.75
610.707	224.75
610.916	222.75
611.124	232.75
611.332	220.75
611.54	221.75
611.748	223.75
611.955	214.75
612.163	210.75
612.371	219.75
612.579	218.75
612.787	236.75
612.995	220.75
613.203	220.75
613.411	220.75
613.618	215.75
613.826	231.75
614.034	232.75
614.242	233.75
614.449	215.75
614.657	210.75
614.865	200.75
615.072	224.75
615.28	229.75
615.488	232.75
615.695	232.75
615.903	223.75
616.111	226.75
616.318	217.75
616.526	221.75
616.733	216.75
616.941	212.75
617.148	215.75
617.356	218.75
617.563	226.75
617.771	222.75
617.978	235.75
618.185	226.75
618.393	211.75
618.6	226.75
618.807	214.75
619.015	202.75
619.222	210.75
619.429	215.75
619.637	204.75
619.844	211.75
620.051	198.75
620.258	222.75
620.466	196.75
620.673	208.75
620.88	219.75
621.087	195.75
621.294	220.75
621.501	226.75
621.708	204.75
621.915	214.75
622.122	203.75
622.329	200.75
622.536	220.75
622.743	215.75
622.95	210.75
623.157	223.75
623.364	210.75
623.571	214.75
623.778	194.75
623.985	203.75
624.192	199.75
624.399	210.75
624.606	203.75
624.812	188.75
625.019	181.75
625.226	191.75
625.433	186.75
625.639	200.75
625.846	188.75
626.053	192.75
626.259	199.75
626.466	200.75
626.673	188.75
626.879	185.75
627.086	197.75
627.293	193.75
627.499	186.75
627.706	182.75
627.912	185.75
628.119	176.75
628.325	198.75
628.532	195.75
628.738	175.75
628.945	182.75
629.151	182.75
629.357	179.75
629.564	164.75
629.77	196.75
629.976	182.75
630.183	187.75
630.389	175.75
630.595	178.75
630.802	183.75
631.008	181.75
631.214	174.75
631.42	173.75
631.627	184.75
631.833	171.75
632.039	168.75
632.245	174.75
632.451	181.75
632.657	170.75
632.863	166.75
633.069	159.75
633.275	159.75
633.481	174.75
633.688	174.75
633.893	171.75
634.099	185.75
634.305	186.75
634.511	173.75
634.717	172.75
634.923	162.75
635.129	174.75
635.335	183.75
635.541	183.75
635.747	176.75
635.952	180.75
636.158	142.75
636.364	158.75
636.57	176.75
636.775	164.75
636.981	168.75
637.187	151.75
637.392	169.75
637.598	176.75
637.804	167.75
638.009	165.75
638.215	169.75
638.421	158.75
638.626	166.75
638.832	183.75
639.037	158.75
639.243	159.75
639.448	155.75
639.654	175.75
639.859	167.75
640.065	170.75
640.27	168.75
640.475	166.75
640.681	154.75
640.886	171.75
641.091	170.75
641.297	156.75
641.502	168.75
641.707	164.75
641.913	166.75
642.118	143.75
642.323	160.75
642.528	157.75
642.733	138.75
642.939	154.75
643.144	152.75
643.349	164.75
643.554	154.75
643.759	162.75
643.964	158.75
644.169	160.75
644.374	168.75
644.579	169.75
644.784	158.75
644.989	164.75
645.194	162.75
645.399	189.75
645.604	164.75
645.809	162.75
646.014	159.75
646.219	166.75
646.423	162.75
646.628	151.75
646.833	157.75
647.038	164.75
647.243	171.75
647.447	155.75
647.652	139.75
647.857	167.75
648.062	157.75
648.266	151.75
648.471	178.75
648.676	160.75
648.88	170.75
649.085	166.75
649.289	159.75
649.494	156.75
649.698	163.75
649.903	155.75
650.107	158.75
650.312	164.75
650.516	147.75
650.721	155.75
650.925	147.75
651.13	143.75
651.334	120.75
651.539	156.75
651.743	154.75
651.947	147.75
652.152	148.75
652.356	127.75
652.56	137.75
652.764	138.75
652.969	145.75
653.173	134.75
653.377	141.75
653.581	142.75
653.785	148.75
653.99	136.75
654.194	129.75
654.398	135.75
654.602	155.75
654.806	134.75
655.01	147.75
655.214	143.75
655.418	144.75
655.622	137.75
655.826	136.75
656.03	136.75
656.234	144.75
656.438	135.75
656.642	142.75
656.846	144.75
657.049	137.75
657.253	130.75
657.457	127.75
657.661	126.75
657.865	115.75
658.068	136.75
658.272	115.75
658.476	128.75
658.68	107.75
658.883	104.75
659.087	99.75
659.291	108.75
659.494	91.75
659.698	101.75
659.901	106.75
660.105	99.75
660.309	107.75
660.512	105.75
660.716	100.75
660.919	90.75
661.123	97.75
661.326	91.75
661.53	99.75
661.733	90.75
661.936	86.75
662.14	105.75
662.343	88.75
662.546	79.75
662.75	87.75
662.953	94.75
663.156	83.75
663.36	85.75
663.563	85.75
663.766	85.75
663.969	83.75
664.173	73.75
664.376	84.75
664.579	79.75
664.782	80.75
664.985	89.75
665.188	83.75
665.391	89.75
665.594	81.75
665.797	92.75
666	92.75
666.203	70.75
666.406	76.75
666.609	81.75
666.812	85.75
667.015	102.75
667.218	104.75
667.421	70.75
667.624	95.75
667.827	91.75
668.03	90.75
668.232	83.75
668.435	94.75
668.638	77.75
668.841	92.75
669.043	76.75
669.246	96.75
669.449	90.75
669.651	87.75
669.854	81.75
670.057	79.75
670.259	93.75
670.462	78.75
670.665	92.75
670.867	87.75
671.07	71.75
671.272	93.75
671.475	94.75
671.677	89.75
671.88	86.75
672.082	74.75
672.284	72.75
672.487	82.75
672.689	80.75
672.892	79.75
