Data from Fe(NO3)3@0.05M.TitratingCurve.Agarose3%dH2O.NegLispCup.LampEnergy10.LIBS07252019_HRD10591_16-45-47-334.txt Node
Date: Thu Jul 25 16:45:47 EDT 2019
User: cochatt
Spectrometer: HR+D1059
Trigger mode: 1
Integration Time (sec): 1.000000E-1
Scans to average: 1
Electric dark correction enabled: true
Nonlinearity correction enabled: false
Boxcar width: 0
XAxis mode: Wavelengths
Number of Pixels in Spectrum: 2048
>>>>>Begin Spectral Data<<<<<
223.165	-14.06
223.4	-14.06
223.635	-14.06
223.869	-21.06
224.104	-21.06
224.338	-1.06
224.573	-12.06
224.808	-3.06
225.042	-6.06
225.277	-1.06
225.511	-3.06
225.746	7.94
225.98	1.94
226.215	1.94
226.449	4.94
226.683	27.94
226.918	22.94
227.152	14.94
227.387	28.94
227.621	29.94
227.856	47.94
228.09	56.94
228.324	45.94
228.559	67.94
228.793	74.94
229.027	127.94
229.262	133.94
229.496	125.94
229.73	128.94
229.964	125.94
230.199	118.94
230.433	143.94
230.667	131.94
230.901	125.94
231.136	128.94
231.37	147.94
231.604	147.94
231.838	170.94
232.072	161.94
232.306	165.94
232.541	144.94
232.775	145.94
233.009	155.94
233.243	168.94
233.477	171.94
233.711	187.94
233.945	181.94
234.179	159.94
234.413	184.94
234.647	189.94
234.881	174.94
235.115	151.94
235.349	197.94
235.583	189.94
235.817	167.94
236.051	186.94
236.285	189.94
236.519	185.94
236.753	187.94
236.987	182.94
237.221	197.94
237.455	191.94
237.689	183.94
237.922	207.94
238.156	218.94
238.39	212.94
238.624	232.94
238.858	241.94
239.091	226.94
239.325	200.94
239.559	201.94
239.793	217.94
240.027	249.94
240.26	237.94
240.494	227.94
240.728	228.94
240.961	258.94
241.195	242.94
241.429	231.94
241.662	256.94
241.896	217.94
242.13	215.94
242.363	220.94
242.597	221.94
242.83	237.94
243.064	239.94
243.298	235.94
243.531	238.94
243.765	244.94
243.998	248.94
244.232	256.94
244.465	256.94
244.699	247.94
244.932	239.94
245.166	234.94
245.399	245.94
245.633	249.94
245.866	270.94
246.099	250.94
246.333	271.94
246.566	281.94
246.8	263.94
247.033	281.94
247.266	257.94
247.5	282.94
247.733	281.94
247.966	259.94
248.2	290.94
248.433	301.94
248.666	289.94
248.899	293.94
249.133	291.94
249.366	308.94
249.599	313.94
249.832	307.94
250.066	283.94
250.299	300.94
250.532	289.94
250.765	294.94
250.998	291.94
251.231	318.94
251.465	311.94
251.698	285.94
251.931	319.94
252.164	307.94
252.397	334.94
252.63	335.94
252.863	346.94
253.096	373.94
253.329	334.94
253.562	337.94
253.795	351.94
254.028	371.94
254.261	371.94
254.494	360.94
254.727	357.94
254.96	339.94
255.193	354.94
255.426	362.94
255.659	328.94
255.892	328.94
256.124	338.94
256.357	343.94
256.59	374.94
256.823	367.94
257.056	356.94
257.289	332.94
257.521	346.94
257.754	328.94
257.987	362.94
258.22	372.94
258.452	353.94
258.685	365.94
258.918	371.94
259.151	378.94
259.383	385.94
259.616	409.94
259.849	397.94
260.081	467.94
260.314	512.94
260.547	431.94
260.779	402.94
261.012	426.94
261.244	425.94
261.477	465.94
261.71	423.94
261.942	405.94
262.175	407.94
262.407	412.94
262.64	399.94
262.872	412.94
263.105	443.94
263.337	463.94
263.57	438.94
263.802	407.94
264.035	370.94
264.267	377.94
264.499	390.94
264.732	375.94
264.964	394.94
265.197	390.94
265.429	401.94
265.661	402.94
265.894	407.94
266.126	401.94
266.358	406.94
266.591	410.94
266.823	418.94
267.055	412.94
267.287	392.94
267.52	377.94
267.752	412.94
267.984	413.94
268.216	402.94
268.448	424.94
268.681	399.94
268.913	413.94
269.145	420.94
269.377	437.94
269.609	434.94
269.841	410.94
270.073	430.94
270.306	417.94
270.538	437.94
270.77	445.94
271.002	447.94
271.234	449.94
271.466	449.94
271.698	455.94
271.93	457.94
272.162	471.94
272.394	466.94
272.626	472.94
272.858	478.94
273.09	485.94
273.322	452.94
273.553	501.94
273.785	507.94
274.017	538.94
274.249	581.94
274.481	575.94
274.713	592.94
274.945	655.94
275.176	659.94
275.408	607.94
275.64	578.94
275.872	591.94
276.104	565.94
276.335	512.94
276.567	507.94
276.799	517.94
277.031	501.94
277.262	510.94
277.494	490.94
277.726	505.94
277.957	509.94
278.189	488.94
278.421	493.94
278.652	498.94
278.884	494.94
279.115	470.94
279.347	483.94
279.579	518.94
279.81	501.94
280.042	491.94
280.273	507.94
280.505	512.94
280.736	521.94
280.968	522.94
281.199	513.94
281.431	514.94
281.662	517.94
281.894	510.94
282.125	498.94
282.356	521.94
282.588	534.94
282.819	513.94
283.051	521.94
283.282	531.94
283.513	565.94
283.745	528.94
283.976	539.94
284.207	559.94
284.439	544.94
284.67	532.94
284.901	563.94
285.132	554.94
285.364	559.94
285.595	546.94
285.826	547.94
286.057	542.94
286.288	561.94
286.52	555.94
286.751	549.94
286.982	560.94
287.213	559.94
287.444	574.94
287.675	590.94
287.906	555.94
288.138	572.94
288.369	557.94
288.6	566.94
288.831	559.94
289.062	550.94
289.293	576.94
289.524	592.94
289.755	570.94
289.986	566.94
290.217	566.94
290.448	574.94
290.679	557.94
290.91	570.94
291.141	579.94
291.371	567.94
291.602	570.94
291.833	583.94
292.064	578.94
292.295	590.94
292.526	585.94
292.757	565.94
292.987	590.94
293.218	587.94
293.449	589.94
293.68	587.94
293.91	589.94
294.141	573.94
294.372	567.94
294.603	566.94
294.833	569.94
295.064	621.94
295.295	591.94
295.525	579.94
295.756	601.94
295.987	581.94
296.217	593.94
296.448	602.94
296.679	623.94
296.909	619.94
297.14	640.94
297.37	618.94
297.601	647.94
297.831	608.94
298.062	607.94
298.292	628.94
298.523	627.94
298.753	639.94
298.984	630.94
299.214	634.94
299.445	626.94
299.675	611.94
299.905	633.94
300.136	620.94
300.366	609.94
300.597	623.94
300.827	641.94
301.057	637.94
301.288	622.94
301.518	609.94
301.748	614.94
301.979	659.94
302.209	682.94
302.439	673.94
302.669	676.94
302.9	668.94
303.13	610.94
303.36	653.94
303.59	643.94
303.82	645.94
304.051	669.94
304.281	655.94
304.511	656.94
304.741	647.94
304.971	671.94
305.201	642.94
305.431	655.94
305.661	649.94
305.891	634.94
306.121	635.94
306.352	658.94
306.582	664.94
306.812	646.94
307.042	658.94
307.272	657.94
307.502	646.94
307.731	676.94
307.961	644.94
308.191	665.94
308.421	648.94
308.651	689.94
308.881	677.94
309.111	665.94
309.341	663.94
309.571	669.94
309.8	667.94
310.03	667.94
310.26	703.94
310.49	666.94
310.72	665.94
310.949	676.94
311.179	676.94
311.409	671.94
311.639	657.94
311.868	692.94
312.098	674.94
312.328	683.94
312.557	707.94
312.787	711.94
313.017	677.94
313.246	713.94
313.476	702.94
313.706	692.94
313.935	702.94
314.165	685.94
314.394	713.94
314.624	683.94
314.853	700.94
315.083	715.94
315.312	710.94
315.542	717.94
315.771	731.94
316.001	716.94
316.23	705.94
316.46	706.94
316.689	707.94
316.919	692.94
317.148	735.94
317.377	715.94
317.607	729.94
317.836	721.94
318.065	729.94
318.295	739.94
318.524	728.94
318.753	709.94
318.983	738.94
319.212	711.94
319.441	742.94
319.67	734.94
319.9	702.94
320.129	729.94
320.358	716.94
320.587	728.94
320.816	739.94
321.046	738.94
321.275	737.94
321.504	742.94
321.733	717.94
321.962	735.94
322.191	733.94
322.42	736.94
322.649	739.94
322.878	745.94
323.108	749.94
323.337	752.94
323.566	742.94
323.795	757.94
324.024	749.94
324.253	776.94
324.482	753.94
324.71	767.94
324.939	768.94
325.168	762.94
325.397	787.94
325.626	772.94
325.855	771.94
326.084	766.94
326.313	773.94
326.542	790.94
326.77	799.94
326.999	786.94
327.228	771.94
327.457	782.94
327.686	807.94
327.914	768.94
328.143	779.94
328.372	800.94
328.6	790.94
328.829	771.94
329.058	779.94
329.287	805.94
329.515	805.94
329.744	775.94
329.972	819.94
330.201	810.94
330.43	804.94
330.658	803.94
330.887	803.94
331.115	813.94
331.344	825.94
331.572	827.94
331.801	839.94
332.03	818.94
332.258	843.94
332.486	831.94
332.715	846.94
332.943	843.94
333.172	855.94
333.4	878.94
333.629	899.94
333.857	894.94
334.085	906.94
334.314	931.94
334.542	919.94
334.771	939.94
334.999	922.94
335.227	933.94
335.455	901.94
335.684	930.94
335.912	932.94
336.14	931.94
336.369	925.94
336.597	901.94
336.825	894.94
337.053	909.94
337.281	880.94
337.51	895.94
337.738	882.94
337.966	866.94
338.194	889.94
338.422	881.94
338.65	868.94
338.878	881.94
339.106	857.94
339.334	889.94
339.562	863.94
339.79	834.94
340.018	831.94
340.246	841.94
340.474	850.94
340.702	829.94
340.93	830.94
341.158	851.94
341.386	831.94
341.614	853.94
341.842	829.94
342.07	869.94
342.298	848.94
342.526	866.94
342.754	833.94
342.981	835.94
343.209	851.94
343.437	850.94
343.665	884.94
343.893	879.94
344.12	943.94
344.348	906.94
344.576	883.94
344.804	897.94
345.031	868.94
345.259	872.94
345.487	849.94
345.714	833.94
345.942	827.94
346.17	837.94
346.397	823.94
346.625	839.94
346.853	836.94
347.08	828.94
347.308	814.94
347.535	805.94
347.763	820.94
347.99	814.94
348.218	792.94
348.445	802.94
348.673	809.94
348.9	806.94
349.128	808.94
349.355	822.94
349.583	804.94
349.81	810.94
350.037	787.94
350.265	796.94
350.492	830.94
350.72	803.94
350.947	815.94
351.174	786.94
351.402	793.94
351.629	773.94
351.856	772.94
352.083	775.94
352.311	787.94
352.538	799.94
352.765	773.94
352.992	799.94
353.22	776.94
353.447	790.94
353.674	777.94
353.901	775.94
354.128	798.94
354.355	789.94
354.583	793.94
354.81	810.94
355.037	808.94
355.264	774.94
355.491	813.94
355.718	806.94
355.945	795.94
356.172	826.94
356.399	808.94
356.626	818.94
356.853	833.94
357.08	840.94
357.307	833.94
357.534	807.94
357.761	813.94
357.988	823.94
358.215	834.94
358.441	856.94
358.668	840.94
358.895	836.94
359.122	831.94
359.349	835.94
359.576	803.94
359.802	808.94
360.029	782.94
360.256	800.94
360.483	810.94
360.709	806.94
360.936	851.94
361.163	817.94
361.39	824.94
361.616	802.94
361.843	838.94
362.07	819.94
362.296	845.94
362.523	803.94
362.749	821.94
362.976	815.94
363.203	821.94
363.429	807.94
363.656	821.94
363.882	802.94
364.109	805.94
364.335	801.94
364.562	806.94
364.788	822.94
365.015	834.94
365.241	826.94
365.468	863.94
365.694	830.94
365.92	821.94
366.147	813.94
366.373	822.94
366.599	819.94
366.826	829.94
367.052	829.94
367.278	827.94
367.505	836.94
367.731	848.94
367.957	833.94
368.184	825.94
368.41	850.94
368.636	837.94
368.862	863.94
369.089	848.94
369.315	866.94
369.541	838.94
369.767	872.94
369.993	841.94
370.219	849.94
370.445	859.94
370.672	856.94
370.898	891.94
371.124	889.94
371.35	891.94
371.576	865.94
371.802	907.94
372.028	907.94
372.254	959.94
372.48	913.94
372.706	901.94
372.932	904.94
373.158	927.94
373.384	921.94
373.61	954.94
373.835	984.94
374.061	929.94
374.287	918.94
374.513	917.94
374.739	943.94
374.965	972.94
375.191	986.94
375.416	960.94
375.642	962.94
375.868	942.94
376.094	938.94
376.319	930.94
376.545	920.94
376.771	911.94
376.997	913.94
377.222	917.94
377.448	896.94
377.674	911.94
377.899	900.94
378.125	903.94
378.35	854.94
378.576	886.94
378.802	894.94
379.027	891.94
379.253	892.94
379.478	902.94
379.704	919.94
379.929	918.94
380.155	917.94
380.38	890.94
380.606	902.94
380.831	928.94
381.057	908.94
381.282	908.94
381.507	913.94
381.733	952.94
381.958	949.94
382.184	964.94
382.409	958.94
382.634	982.94
382.86	1012.94
383.085	963.94
383.31	986.94
383.535	982.94
383.761	938.94
383.986	964.94
384.211	985.94
384.436	982.94
384.662	982.94
384.887	1006.94
385.112	1039.94
385.337	1025.94
385.562	1024.94
385.787	1029.94
386.013	1048.94
386.238	1049.94
386.463	1033.94
386.688	1023.94
386.913	1030.94
387.138	1054.94
387.363	1035.94
387.588	1025.94
387.813	1053.94
388.038	1063.94
388.263	1056.94
388.488	1050.94
388.713	1044.94
388.938	1092.94
389.163	1060.94
389.387	1025.94
389.612	1029.94
389.837	1067.94
390.062	1036.94
390.287	1068.94
390.512	1035.94
390.736	1068.94
390.961	1066.94
391.186	1094.94
391.411	1077.94
391.636	1114.94
391.86	1120.94
392.085	1121.94
392.31	1137.94
392.534	1096.94
392.759	1133.94
392.984	1091.94
393.208	1115.94
393.433	1084.94
393.658	1137.94
393.882	1094.94
394.107	1101.94
394.331	1113.94
394.556	1102.94
394.78	1115.94
395.005	1111.94
395.229	1116.94
395.454	1153.94
395.678	1133.94
395.903	1125.94
396.127	1183.94
396.352	1119.94
396.576	1141.94
396.801	1114.94
397.025	1153.94
397.249	1169.94
397.474	1166.94
397.698	1168.94
397.922	1209.94
398.147	1197.94
398.371	1220.94
398.595	1233.94
398.82	1270.94
399.044	1336.94
399.268	1341.94
399.492	1426.94
399.717	1425.94
399.941	1499.94
400.165	1432.94
400.389	1413.94
400.613	1356.94
400.837	1288.94
401.062	1330.94
401.286	1314.94
401.51	1296.94
401.734	1283.94
401.958	1287.94
402.182	1248.94
402.406	1258.94
402.63	1290.94
402.854	1278.94
403.078	1275.94
403.302	1291.94
403.526	1291.94
403.75	1309.94
403.974	1303.94
404.198	1257.94
404.422	1285.94
404.645	1318.94
404.869	1348.94
405.093	1298.94
405.317	1306.94
405.541	1313.94
405.765	1337.94
405.988	1348.94
406.212	1361.94
406.436	1353.94
406.66	1407.94
406.883	1384.94
407.107	1429.94
407.331	1465.94
407.555	1473.94
407.778	1464.94
408.002	1459.94
408.226	1459.94
408.449	1463.94
408.673	1463.94
408.896	1438.94
409.12	1422.94
409.344	1436.94
409.567	1414.94
409.791	1369.94
410.014	1371.94
410.238	1360.94
410.461	1373.94
410.685	1359.94
410.908	1355.94
411.132	1369.94
411.355	1360.94
411.578	1368.94
411.802	1341.94
412.025	1357.94
412.249	1342.94
412.472	1368.94
412.695	1327.94
412.919	1313.94
413.142	1320.94
413.365	1327.94
413.589	1289.94
413.812	1309.94
414.035	1312.94
414.258	1265.94
414.482	1319.94
414.705	1266.94
414.928	1305.94
415.151	1281.94
415.374	1296.94
415.597	1253.94
415.821	1291.94
416.044	1265.94
416.267	1240.94
416.49	1261.94
416.713	1257.94
416.936	1275.94
417.159	1225.94
417.382	1249.94
417.605	1230.94
417.828	1220.94
418.051	1247.94
418.274	1237.94
418.497	1228.94
418.72	1257.94
418.943	1242.94
419.166	1289.94
419.389	1359.94
419.611	1346.94
419.834	1304.94
420.057	1295.94
420.28	1283.94
420.503	1206.94
420.726	1231.94
420.948	1247.94
421.171	1213.94
421.394	1220.94
421.617	1214.94
421.839	1225.94
422.062	1245.94
422.285	1223.94
422.507	1232.94
422.73	1235.94
422.953	1241.94
423.175	1234.94
423.398	1201.94
423.621	1253.94
423.843	1238.94
424.066	1245.94
424.288	1218.94
424.511	1249.94
424.733	1227.94
424.956	1254.94
425.178	1214.94
425.401	1203.94
425.623	1247.94
425.846	1225.94
426.068	1199.94
426.291	1251.94
426.513	1233.94
426.735	1224.94
426.958	1199.94
427.18	1212.94
427.402	1246.94
427.625	1199.94
427.847	1173.94
428.069	1208.94
428.292	1187.94
428.514	1207.94
428.736	1156.94
428.958	1187.94
429.181	1173.94
429.403	1183.94
429.625	1189.94
429.847	1137.94
430.069	1181.94
430.292	1154.94
430.514	1129.94
430.736	1188.94
430.958	1201.94
431.18	1185.94
431.402	1175.94
431.624	1171.94
431.846	1208.94
432.068	1171.94
432.29	1233.94
432.512	1164.94
432.734	1220.94
432.956	1203.94
433.178	1186.94
433.4	1176.94
433.622	1193.94
433.844	1210.94
434.066	1201.94
434.287	1175.94
434.509	1213.94
434.731	1227.94
434.953	1259.94
435.175	1245.94
435.397	1257.94
435.618	1217.94
435.84	1203.94
436.062	1232.94
436.284	1191.94
436.505	1163.94
436.727	1192.94
436.949	1177.94
437.17	1182.94
437.392	1189.94
437.614	1165.94
437.835	1145.94
438.057	1140.94
438.278	1152.94
438.5	1179.94
438.721	1172.94
438.943	1162.94
439.165	1151.94
439.386	1189.94
439.608	1157.94
439.829	1181.94
440.05	1166.94
440.272	1182.94
440.493	1194.94
440.715	1177.94
440.936	1197.94
441.158	1197.94
441.379	1232.94
441.6	1258.94
441.822	1214.94
442.043	1235.94
442.264	1197.94
442.486	1185.94
442.707	1233.94
442.928	1219.94
443.149	1230.94
443.371	1216.94
443.592	1232.94
443.813	1278.94
444.034	1249.94
444.255	1269.94
444.476	1263.94
444.698	1283.94
444.919	1294.94
445.14	1356.94
445.361	1299.94
445.582	1279.94
445.803	1217.94
446.024	1210.94
446.245	1204.94
446.466	1219.94
446.687	1206.94
446.908	1191.94
447.129	1142.94
447.35	1162.94
447.571	1122.94
447.792	1113.94
448.013	1149.94
448.234	1123.94
448.455	1116.94
448.675	1111.94
448.896	1103.94
449.117	1092.94
449.338	1079.94
449.559	1077.94
449.779	1075.94
450	1062.94
450.221	1117.94
450.442	1098.94
450.662	1085.94
450.883	1107.94
451.104	1087.94
451.324	1080.94
451.545	1105.94
451.766	1103.94
451.986	1060.94
452.207	1077.94
452.428	1079.94
452.648	1056.94
452.869	1089.94
453.089	1039.94
453.31	1085.94
453.53	1009.94
453.751	1035.94
453.971	1053.94
454.192	1055.94
454.412	1009.94
454.633	1066.94
454.853	1046.94
455.073	1032.94
455.294	1029.94
455.514	1079.94
455.734	1063.94
455.955	1019.94
456.175	1042.94
456.395	1035.94
456.616	1019.94
456.836	1012.94
457.056	1052.94
457.276	1042.94
457.497	1064.94
457.717	1035.94
457.937	1059.94
458.157	1055.94
458.377	1076.94
458.598	1105.94
458.818	1099.94
459.038	1098.94
459.258	1149.94
459.478	1150.94
459.698	1160.94
459.918	1173.94
460.138	1213.94
460.358	1248.94
460.578	1244.94
460.798	1258.94
461.018	1288.94
461.238	1258.94
461.458	1279.94
461.678	1268.94
461.898	1309.94
462.118	1279.94
462.338	1334.94
462.558	1395.94
462.777	1370.94
462.997	1425.94
463.217	1435.94
463.437	1463.94
463.657	1417.94
463.876	1432.94
464.096	1432.94
464.316	1380.94
464.536	1393.94
464.755	1357.94
464.975	1341.94
465.195	1291.94
465.414	1288.94
465.634	1257.94
465.854	1215.94
466.073	1217.94
466.293	1192.94
466.512	1153.94
466.732	1174.94
466.951	1199.94
467.171	1199.94
467.391	1161.94
467.61	1115.94
467.829	1128.94
468.049	1125.94
468.268	1130.94
468.488	1149.94
468.707	1145.94
468.927	1151.94
469.146	1136.94
469.365	1145.94
469.585	1129.94
469.804	1175.94
470.023	1193.94
470.243	1159.94
470.462	1144.94
470.681	1162.94
470.901	1172.94
471.12	1151.94
471.339	1179.94
471.558	1155.94
471.777	1161.94
471.997	1158.94
472.216	1167.94
472.435	1154.94
472.654	1131.94
472.873	1136.94
473.092	1143.94
473.311	1145.94
473.53	1131.94
473.749	1133.94
473.968	1124.94
474.187	1139.94
474.406	1161.94
474.625	1164.94
474.844	1169.94
475.063	1166.94
475.282	1186.94
475.501	1188.94
475.72	1169.94
475.939	1162.94
476.158	1183.94
476.377	1241.94
476.596	1241.94
476.814	1310.94
477.033	1248.94
477.252	1225.94
477.471	1257.94
477.69	1244.94
477.908	1239.94
478.127	1296.94
478.346	1284.94
478.564	1318.94
478.783	1330.94
479.002	1359.94
479.22	1350.94
479.439	1425.94
479.658	1372.94
479.876	1344.94
480.095	1357.94
480.313	1441.94
480.532	1388.94
480.751	1396.94
480.969	1405.94
481.188	1408.94
481.406	1391.94
481.624	1356.94
481.843	1334.94
482.061	1374.94
482.28	1321.94
482.498	1375.94
482.717	1335.94
482.935	1342.94
483.153	1318.94
483.372	1365.94
483.59	1359.94
483.808	1359.94
484.027	1367.94
484.245	1351.94
484.463	1377.94
484.681	1389.94
484.9	1363.94
485.118	1383.94
485.336	1344.94
485.554	1377.94
485.772	1392.94
485.99	1383.94
486.209	1403.94
486.427	1399.94
486.645	1365.94
486.863	1382.94
487.081	1384.94
487.299	1415.94
487.517	1405.94
487.735	1419.94
487.953	1419.94
488.171	1434.94
488.389	1410.94
488.607	1402.94
488.825	1381.94
489.043	1373.94
489.261	1399.94
489.479	1393.94
489.696	1414.94
489.914	1414.94
490.132	1414.94
490.35	1376.94
490.568	1423.94
490.786	1446.94
491.003	1390.94
491.221	1428.94
491.439	1428.94
491.657	1415.94
491.874	1435.94
492.092	1449.94
492.31	1472.94
492.527	1462.94
492.745	1481.94
492.963	1450.94
493.18	1413.94
493.398	1424.94
493.615	1453.94
493.833	1401.94
494.05	1412.94
494.268	1464.94
494.485	1419.94
494.703	1456.94
494.92	1457.94
495.138	1464.94
495.355	1447.94
495.573	1489.94
495.79	1485.94
496.008	1551.94
496.225	1542.94
496.442	1507.94
496.66	1518.94
496.877	1564.94
497.094	1574.94
497.312	1603.94
497.529	1590.94
497.746	1636.94
497.963	1649.94
498.181	1685.94
498.398	1769.94
498.615	1790.94
498.832	1838.94
499.049	1959.94
499.267	1972.94
499.484	2101.94
499.701	2183.94
499.918	2282.94
500.135	2420.94
500.352	2477.94
500.569	2504.94
500.786	2540.94
501.003	2498.94
501.22	2372.94
501.437	2295.94
501.654	2130.94
501.871	2060.94
502.088	2015.94
502.305	1915.94
502.522	1838.94
502.739	1812.94
502.956	1769.94
503.172	1651.94
503.389	1619.94
503.606	1624.94
503.823	1581.94
504.04	1566.94
504.256	1562.94
504.473	1523.94
504.69	1495.94
504.907	1519.94
505.123	1482.94
505.34	1469.94
505.557	1400.94
505.773	1374.94
505.99	1373.94
506.207	1364.94
506.423	1344.94
506.64	1327.94
506.856	1311.94
507.073	1319.94
507.289	1290.94
507.506	1282.94
507.722	1285.94
507.939	1256.94
508.155	1241.94
508.372	1255.94
508.588	1213.94
508.805	1222.94
509.021	1219.94
509.238	1214.94
509.454	1199.94
509.67	1207.94
509.887	1185.94
510.103	1177.94
510.319	1176.94
510.536	1182.94
510.752	1163.94
510.968	1130.94
511.184	1120.94
511.401	1129.94
511.617	1132.94
511.833	1118.94
512.049	1127.94
512.265	1150.94
512.481	1113.94
512.698	1167.94
512.914	1147.94
513.13	1154.94
513.346	1121.94
513.562	1133.94
513.778	1139.94
513.994	1122.94
514.21	1119.94
514.426	1128.94
514.642	1133.94
514.858	1152.94
515.074	1193.94
515.29	1177.94
515.506	1199.94
515.721	1205.94
515.937	1198.94
516.153	1181.94
516.369	1191.94
516.585	1188.94
516.801	1254.94
517.016	1267.94
517.232	1258.94
517.448	1306.94
517.664	1326.94
517.879	1277.94
518.095	1290.94
518.311	1286.94
518.527	1272.94
518.742	1283.94
518.958	1279.94
519.173	1220.94
519.389	1211.94
519.605	1208.94
519.82	1192.94
520.036	1234.94
520.251	1215.94
520.467	1153.94
520.682	1130.94
520.898	1117.94
521.113	1097.94
521.329	1102.94
521.544	1106.94
521.76	1113.94
521.975	1105.94
522.19	1085.94
522.406	1069.94
522.621	1095.94
522.836	1089.94
523.052	1087.94
523.267	1101.94
523.482	1051.94
523.698	1065.94
523.913	1059.94
524.128	1060.94
524.343	1040.94
524.559	1054.94
524.774	1044.94
524.989	1017.94
525.204	1014.94
525.419	1066.94
525.634	1008.94
525.849	1030.94
526.064	1042.94
526.28	1020.94
526.495	1084.94
526.71	1052.94
526.925	1035.94
527.14	1008.94
527.355	1001.94
527.57	979.94
527.785	987.94
527.999	1000.94
528.214	1035.94
528.429	1005.94
528.644	1025.94
528.859	1013.94
529.074	995.94
529.289	994.94
529.503	1013.94
529.718	984.94
529.933	991.94
530.148	978.94
530.363	963.94
530.577	945.94
530.792	941.94
531.007	970.94
531.221	948.94
531.436	984.94
531.651	969.94
531.865	989.94
532.08	958.94
532.295	996.94
532.509	945.94
532.724	941.94
532.938	949.94
533.153	943.94
533.367	963.94
533.582	966.94
533.796	974.94
534.011	963.94
534.225	934.94
534.44	953.94
534.654	933.94
534.868	938.94
535.083	953.94
535.297	933.94
535.511	931.94
535.726	910.94
535.94	921.94
536.154	943.94
536.369	943.94
536.583	937.94
536.797	932.94
537.011	914.94
537.225	917.94
537.44	924.94
537.654	913.94
537.868	899.94
538.082	894.94
538.296	919.94
538.51	910.94
538.724	902.94
538.938	887.94
539.153	906.94
539.367	889.94
539.581	902.94
539.795	877.94
540.009	873.94
540.222	873.94
540.436	888.94
540.65	863.94
540.864	859.94
541.078	897.94
541.292	902.94
541.506	896.94
541.72	902.94
541.934	882.94
542.147	894.94
542.361	891.94
542.575	874.94
542.789	889.94
543.002	889.94
543.216	871.94
543.43	870.94
543.644	863.94
543.857	881.94
544.071	898.94
544.285	895.94
544.498	891.94
544.712	867.94
544.925	849.94
545.139	901.94
545.352	860.94
545.566	866.94
545.779	897.94
545.993	907.94
546.206	885.94
546.42	881.94
546.633	873.94
546.847	863.94
547.06	859.94
547.274	888.94
547.487	875.94
547.7	893.94
547.914	881.94
548.127	897.94
548.34	878.94
548.554	891.94
548.767	871.94
548.98	887.94
549.193	872.94
549.407	874.94
549.62	910.94
549.833	907.94
550.046	896.94
550.259	911.94
550.473	885.94
550.686	870.94
550.899	850.94
551.112	872.94
551.325	886.94
551.538	874.94
551.751	867.94
551.964	862.94
552.177	845.94
552.39	853.94
552.603	881.94
552.816	877.94
553.029	913.94
553.242	895.94
553.455	895.94
553.667	878.94
553.88	877.94
554.093	872.94
554.306	885.94
554.519	864.94
554.732	859.94
554.944	818.94
555.157	830.94
555.37	830.94
555.583	800.94
555.795	793.94
556.008	792.94
556.221	757.94
556.433	778.94
556.646	777.94
556.859	790.94
557.071	778.94
557.284	779.94
557.496	778.94
557.709	781.94
557.921	745.94
558.134	745.94
558.346	759.94
558.559	769.94
558.771	773.94
558.984	742.94
559.196	755.94
559.409	751.94
559.621	757.94
559.833	747.94
560.046	751.94
560.258	730.94
560.47	745.94
560.683	729.94
560.895	725.94
561.107	754.94
561.32	749.94
561.532	725.94
561.744	720.94
561.956	730.94
562.168	742.94
562.381	746.94
562.593	749.94
562.805	741.94
563.017	743.94
563.229	752.94
563.441	769.94
563.653	763.94
563.865	746.94
564.077	755.94
564.289	729.94
564.501	765.94
564.713	769.94
564.925	770.94
565.137	804.94
565.349	779.94
565.561	813.94
565.773	821.94
565.985	865.94
566.197	851.94
566.408	871.94
566.62	913.94
566.832	899.94
567.044	951.94
567.255	944.94
567.467	942.94
567.679	949.94
567.891	966.94
568.102	929.94
568.314	948.94
568.526	926.94
568.737	899.94
568.949	877.94
569.161	813.94
569.372	818.94
569.584	784.94
569.795	771.94
570.007	742.94
570.218	724.94
570.43	749.94
570.641	705.94
570.853	710.94
571.064	687.94
571.276	697.94
571.487	693.94
571.698	681.94
571.91	688.94
572.121	652.94
572.333	640.94
572.544	657.94
572.755	650.94
572.966	627.94
573.178	621.94
573.389	601.94
573.6	611.94
573.811	598.94
574.023	598.94
574.234	580.94
574.445	586.94
574.656	587.94
574.867	573.94
575.078	578.94
575.289	572.94
575.501	561.94
575.712	566.94
575.923	570.94
576.134	583.94
576.345	563.94
576.556	558.94
576.767	586.94
576.978	558.94
577.188	552.94
577.399	570.94
577.61	581.94
577.821	567.94
578.032	553.94
578.243	544.94
578.454	543.94
578.665	527.94
578.875	530.94
579.086	539.94
579.297	522.94
579.508	521.94
579.718	529.94
579.929	507.94
580.14	526.94
580.35	521.94
580.561	528.94
580.772	510.94
580.982	511.94
581.193	511.94
581.403	517.94
581.614	490.94
581.825	506.94
582.035	521.94
582.246	488.94
582.456	510.94
582.667	511.94
582.877	482.94
583.087	503.94
583.298	502.94
583.508	513.94
583.719	490.94
583.929	495.94
584.139	490.94
584.35	496.94
584.56	505.94
584.77	488.94
584.981	497.94
585.191	497.94
585.401	493.94
585.611	483.94
585.821	476.94
586.032	489.94
586.242	480.94
586.452	487.94
586.662	480.94
586.872	471.94
587.082	480.94
587.292	478.94
587.502	484.94
587.713	468.94
587.923	487.94
588.133	497.94
588.343	471.94
588.553	467.94
588.762	486.94
588.972	486.94
589.182	529.94
589.392	516.94
589.602	487.94
589.812	511.94
590.022	495.94
590.232	492.94
590.441	477.94
590.651	454.94
590.861	476.94
591.071	479.94
591.281	490.94
591.49	470.94
591.7	479.94
591.91	483.94
592.119	463.94
592.329	493.94
592.539	506.94
592.748	515.94
592.958	518.94
593.167	516.94
593.377	507.94
593.587	533.94
593.796	498.94
594.006	504.94
594.215	513.94
594.424	516.94
594.634	497.94
594.843	511.94
595.053	507.94
595.262	496.94
595.472	501.94
595.681	489.94
595.89	473.94
596.1	466.94
596.309	459.94
596.518	459.94
596.727	464.94
596.937	433.94
597.146	443.94
597.355	457.94
597.564	435.94
597.774	426.94
597.983	422.94
598.192	413.94
598.401	419.94
598.61	415.94
598.819	428.94
599.028	416.94
599.237	407.94
599.446	394.94
599.655	408.94
599.864	410.94
600.073	383.94
600.282	399.94
600.491	432.94
600.7	397.94
600.909	384.94
601.118	400.94
601.327	384.94
601.536	372.94
601.745	394.94
601.953	398.94
602.162	386.94
602.371	407.94
602.58	399.94
602.789	397.94
602.997	390.94
603.206	377.94
603.415	382.94
603.623	379.94
603.832	365.94
604.041	389.94
604.249	373.94
604.458	382.94
604.666	360.94
604.875	378.94
605.084	379.94
605.292	366.94
605.501	370.94
605.709	374.94
605.918	353.94
606.126	362.94
606.334	362.94
606.543	374.94
606.751	375.94
606.96	362.94
607.168	367.94
607.376	361.94
607.585	369.94
607.793	355.94
608.001	355.94
608.21	378.94
608.418	365.94
608.626	358.94
608.834	368.94
609.043	367.94
609.251	369.94
609.459	365.94
609.667	375.94
609.875	348.94
610.083	351.94
610.291	365.94
610.499	343.94
610.707	366.94
610.916	344.94
611.124	346.94
611.332	342.94
611.54	338.94
611.748	350.94
611.955	351.94
612.163	340.94
612.371	340.94
612.579	343.94
612.787	337.94
612.995	344.94
613.203	345.94
613.411	356.94
613.618	337.94
613.826	338.94
614.034	338.94
614.242	338.94
614.449	343.94
614.657	325.94
614.865	349.94
615.072	325.94
615.28	361.94
615.488	334.94
615.695	340.94
615.903	313.94
616.111	349.94
616.318	352.94
616.526	364.94
616.733	346.94
616.941	335.94
617.148	315.94
617.356	337.94
617.563	335.94
617.771	328.94
617.978	314.94
618.185	320.94
618.393	331.94
618.6	312.94
618.807	331.94
619.015	331.94
619.222	319.94
619.429	326.94
619.637	328.94
619.844	327.94
620.051	300.94
620.258	309.94
620.466	306.94
620.673	314.94
620.88	298.94
621.087	306.94
621.294	311.94
621.501	293.94
621.708	305.94
621.915	323.94
622.122	333.94
622.329	307.94
622.536	316.94
622.743	337.94
622.95	316.94
623.157	301.94
623.364	308.94
623.571	331.94
623.778	298.94
623.985	321.94
624.192	302.94
624.399	303.94
624.606	312.94
624.812	293.94
625.019	313.94
625.226	305.94
625.433	304.94
625.639	300.94
625.846	308.94
626.053	288.94
626.259	292.94
626.466	281.94
626.673	297.94
626.879	286.94
627.086	285.94
627.293	295.94
627.499	283.94
627.706	309.94
627.912	287.94
628.119	299.94
628.325	310.94
628.532	280.94
628.738	304.94
628.945	266.94
629.151	278.94
629.357	262.94
629.564	283.94
629.77	277.94
629.976	265.94
630.183	273.94
630.389	288.94
630.595	291.94
630.802	255.94
631.008	263.94
631.214	277.94
631.42	280.94
631.627	292.94
631.833	257.94
632.039	283.94
632.245	271.94
632.451	274.94
632.657	254.94
632.863	265.94
633.069	275.94
633.275	277.94
633.481	269.94
633.688	273.94
633.893	267.94
634.099	268.94
634.305	263.94
634.511	263.94
634.717	266.94
634.923	252.94
635.129	241.94
635.335	258.94
635.541	273.94
635.747	241.94
635.952	255.94
636.158	238.94
636.364	264.94
636.57	259.94
636.775	264.94
636.981	263.94
637.187	259.94
637.392	237.94
637.598	241.94
637.804	242.94
638.009	253.94
638.215	257.94
638.421	239.94
638.626	234.94
638.832	241.94
639.037	255.94
639.243	240.94
639.448	254.94
639.654	257.94
639.859	246.94
640.065	255.94
640.27	240.94
640.475	228.94
640.681	251.94
640.886	254.94
641.091	251.94
641.297	255.94
641.502	239.94
641.707	251.94
641.913	257.94
642.118	229.94
642.323	248.94
642.528	251.94
642.733	240.94
642.939	237.94
643.144	238.94
643.349	248.94
643.554	246.94
643.759	257.94
643.964	253.94
644.169	237.94
644.374	247.94
644.579	248.94
644.784	244.94
644.989	246.94
645.194	247.94
645.399	246.94
645.604	232.94
645.809	255.94
646.014	257.94
646.219	244.94
646.423	250.94
646.628	253.94
646.833	250.94
647.038	241.94
647.243	238.94
647.447	267.94
647.652	255.94
647.857	250.94
648.062	265.94
648.266	238.94
648.471	236.94
648.676	261.94
648.88	262.94
649.085	253.94
649.289	254.94
649.494	243.94
649.698	254.94
649.903	222.94
650.107	256.94
650.312	247.94
650.516	246.94
650.721	253.94
650.925	223.94
651.13	259.94
651.334	244.94
651.539	252.94
651.743	239.94
651.947	236.94
652.152	236.94
652.356	230.94
652.56	235.94
652.764	230.94
652.969	223.94
653.173	221.94
653.377	243.94
653.581	225.94
653.785	223.94
653.99	217.94
654.194	207.94
654.398	235.94
654.602	236.94
654.806	218.94
655.01	210.94
655.214	219.94
655.418	241.94
655.622	247.94
655.826	240.94
656.03	231.94
656.234	220.94
656.438	227.94
656.642	253.94
656.846	224.94
657.049	216.94
657.253	200.94
657.457	213.94
657.661	189.94
657.865	183.94
658.068	161.94
658.272	157.94
658.476	150.94
658.68	149.94
658.883	125.94
659.087	139.94
659.291	126.94
659.494	139.94
659.698	128.94
659.901	126.94
660.105	103.94
660.309	103.94
660.512	114.94
660.716	104.94
660.919	96.94
661.123	105.94
661.326	123.94
661.53	109.94
661.733	93.94
661.936	118.94
662.14	103.94
662.343	88.94
662.546	90.94
662.75	98.94
662.953	82.94
663.156	78.94
663.36	69.94
663.563	97.94
663.766	95.94
663.969	84.94
664.173	92.94
664.376	77.94
664.579	69.94
664.782	68.94
664.985	91.94
665.188	81.94
665.391	68.94
665.594	106.94
665.797	76.94
666	89.94
666.203	79.94
666.406	73.94
666.609	85.94
666.812	74.94
667.015	76.94
667.218	78.94
667.421	75.94
667.624	85.94
667.827	68.94
668.03	90.94
668.232	63.94
668.435	91.94
668.638	79.94
668.841	94.94
669.043	78.94
669.246	82.94
669.449	75.94
669.651	85.94
669.854	79.94
670.057	81.94
670.259	91.94
670.462	86.94
670.665	66.94
670.867	80.94
671.07	87.94
671.272	81.94
671.475	83.94
671.677	75.94
671.88	81.94
672.082	86.94
672.284	88.94
672.487	86.94
672.689	86.94
672.892	89.94
