Data from Fe(NO3)3@0.1M.TitratingCurve.Agarose3%dH2O.NegLispCup.LampEnergy10.LIBS07252019_HRD10591_16-38-05-332.txt Node
Date: Thu Jul 25 16:38:05 EDT 2019
User: cochatt
Spectrometer: HR+D1059
Trigger mode: 1
Integration Time (sec): 1.000000E-1
Scans to average: 1
Electric dark correction enabled: true
Nonlinearity correction enabled: false
Boxcar width: 0
XAxis mode: Wavelengths
Number of Pixels in Spectrum: 2048
>>>>>Begin Spectral Data<<<<<
223.165	0.06
223.4	0.06
223.635	0.06
223.869	-20.94
224.104	-14.94
224.338	-24.94
224.573	-5.94
224.808	-7.94
225.042	-11.94
225.277	3.06
225.511	-9.94
225.746	12.06
225.98	8.06
226.215	2.06
226.449	16.06
226.683	12.06
226.918	25.06
227.152	18.06
227.387	32.06
227.621	37.06
227.856	34.06
228.09	44.06
228.324	54.06
228.559	57.06
228.793	60.06
229.027	58.06
229.262	77.06
229.496	66.06
229.73	90.06
229.964	75.06
230.199	81.06
230.433	85.06
230.667	82.06
230.901	94.06
231.136	84.06
231.37	87.06
231.604	83.06
231.838	82.06
232.072	106.06
232.306	90.06
232.541	88.06
232.775	99.06
233.009	91.06
233.243	84.06
233.477	87.06
233.711	89.06
233.945	78.06
234.179	87.06
234.413	95.06
234.647	103.06
234.881	87.06
235.115	96.06
235.349	91.06
235.583	103.06
235.817	89.06
236.051	96.06
236.285	89.06
236.519	89.06
236.753	94.06
236.987	85.06
237.221	91.06
237.455	84.06
237.689	89.06
237.922	94.06
238.156	85.06
238.39	84.06
238.624	99.06
238.858	75.06
239.091	92.06
239.325	83.06
239.559	99.06
239.793	104.06
240.027	104.06
240.26	88.06
240.494	102.06
240.728	72.06
240.961	93.06
241.195	86.06
241.429	81.06
241.662	91.06
241.896	96.06
242.13	94.06
242.363	101.06
242.597	92.06
242.83	89.06
243.064	84.06
243.298	104.06
243.531	87.06
243.765	110.06
243.998	96.06
244.232	91.06
244.465	94.06
244.699	105.06
244.932	109.06
245.166	107.06
245.399	91.06
245.633	111.06
245.866	110.06
246.099	100.06
246.333	105.06
246.566	95.06
246.8	95.06
247.033	118.06
247.266	93.06
247.5	99.06
247.733	105.06
247.966	106.06
248.2	107.06
248.433	112.06
248.666	100.06
248.899	106.06
249.133	110.06
249.366	110.06
249.599	115.06
249.832	120.06
250.066	108.06
250.299	95.06
250.532	108.06
250.765	95.06
250.998	122.06
251.231	95.06
251.465	102.06
251.698	106.06
251.931	111.06
252.164	110.06
252.397	116.06
252.63	104.06
252.863	105.06
253.096	101.06
253.329	119.06
253.562	122.06
253.795	105.06
254.028	114.06
254.261	107.06
254.494	114.06
254.727	120.06
254.96	121.06
255.193	119.06
255.426	124.06
255.659	107.06
255.892	114.06
256.124	115.06
256.357	119.06
256.59	105.06
256.823	118.06
257.056	119.06
257.289	109.06
257.521	112.06
257.754	118.06
257.987	103.06
258.22	114.06
258.452	111.06
258.685	117.06
258.918	120.06
259.151	108.06
259.383	126.06
259.616	116.06
259.849	123.06
260.081	113.06
260.314	124.06
260.547	120.06
260.779	135.06
261.012	133.06
261.244	125.06
261.477	137.06
261.71	124.06
261.942	123.06
262.175	119.06
262.407	127.06
262.64	129.06
262.872	135.06
263.105	142.06
263.337	116.06
263.57	124.06
263.802	126.06
264.035	123.06
264.267	117.06
264.499	122.06
264.732	126.06
264.964	116.06
265.197	128.06
265.429	127.06
265.661	129.06
265.894	117.06
266.126	130.06
266.358	130.06
266.591	135.06
266.823	141.06
267.055	125.06
267.287	124.06
267.52	138.06
267.752	123.06
267.984	138.06
268.216	127.06
268.448	130.06
268.681	121.06
268.913	119.06
269.145	137.06
269.377	121.06
269.609	131.06
269.841	128.06
270.073	133.06
270.306	122.06
270.538	125.06
270.77	140.06
271.002	114.06
271.234	131.06
271.466	112.06
271.698	127.06
271.93	146.06
272.162	148.06
272.394	132.06
272.626	135.06
272.858	150.06
273.09	148.06
273.322	138.06
273.553	128.06
273.785	142.06
274.017	145.06
274.249	156.06
274.481	140.06
274.713	140.06
274.945	141.06
275.176	139.06
275.408	132.06
275.64	127.06
275.872	139.06
276.104	143.06
276.335	135.06
276.567	130.06
276.799	145.06
277.031	140.06
277.262	134.06
277.494	152.06
277.726	130.06
277.957	135.06
278.189	146.06
278.421	130.06
278.652	132.06
278.884	137.06
279.115	151.06
279.347	146.06
279.579	140.06
279.81	149.06
280.042	135.06
280.273	147.06
280.505	146.06
280.736	155.06
280.968	147.06
281.199	137.06
281.431	137.06
281.662	145.06
281.894	140.06
282.125	138.06
282.356	146.06
282.588	154.06
282.819	158.06
283.051	159.06
283.282	155.06
283.513	144.06
283.745	166.06
283.976	147.06
284.207	147.06
284.439	138.06
284.67	151.06
284.901	160.06
285.132	165.06
285.364	148.06
285.595	146.06
285.826	152.06
286.057	142.06
286.288	164.06
286.52	146.06
286.751	161.06
286.982	162.06
287.213	158.06
287.444	163.06
287.675	164.06
287.906	152.06
288.138	153.06
288.369	164.06
288.6	154.06
288.831	146.06
289.062	178.06
289.293	157.06
289.524	149.06
289.755	156.06
289.986	157.06
290.217	167.06
290.448	155.06
290.679	167.06
290.91	159.06
291.141	167.06
291.371	180.06
291.602	157.06
291.833	181.06
292.064	162.06
292.295	170.06
292.526	165.06
292.757	170.06
292.987	154.06
293.218	164.06
293.449	162.06
293.68	156.06
293.91	174.06
294.141	161.06
294.372	166.06
294.603	154.06
294.833	166.06
295.064	162.06
295.295	155.06
295.525	155.06
295.756	164.06
295.987	146.06
296.217	168.06
296.448	163.06
296.679	168.06
296.909	160.06
297.14	165.06
297.37	176.06
297.601	174.06
297.831	173.06
298.062	171.06
298.292	171.06
298.523	156.06
298.753	165.06
298.984	157.06
299.214	168.06
299.445	159.06
299.675	158.06
299.905	176.06
300.136	168.06
300.366	153.06
300.597	176.06
300.827	168.06
301.057	188.06
301.288	186.06
301.518	180.06
301.748	188.06
301.979	179.06
302.209	172.06
302.439	176.06
302.669	177.06
302.9	173.06
303.13	179.06
303.36	179.06
303.59	174.06
303.82	179.06
304.051	176.06
304.281	182.06
304.511	172.06
304.741	188.06
304.971	176.06
305.201	177.06
305.431	178.06
305.661	177.06
305.891	184.06
306.121	181.06
306.352	161.06
306.582	187.06
306.812	170.06
307.042	174.06
307.272	170.06
307.502	191.06
307.731	165.06
307.961	171.06
308.191	176.06
308.421	178.06
308.651	179.06
308.881	168.06
309.111	169.06
309.341	174.06
309.571	178.06
309.8	182.06
310.03	162.06
310.26	182.06
310.49	180.06
310.72	171.06
310.949	164.06
311.179	176.06
311.409	192.06
311.639	188.06
311.868	179.06
312.098	154.06
312.328	191.06
312.557	168.06
312.787	159.06
313.017	174.06
313.246	183.06
313.476	196.06
313.706	192.06
313.935	178.06
314.165	178.06
314.394	185.06
314.624	196.06
314.853	187.06
315.083	164.06
315.312	197.06
315.542	187.06
315.771	189.06
316.001	171.06
316.23	193.06
316.46	180.06
316.689	176.06
316.919	188.06
317.148	194.06
317.377	195.06
317.607	193.06
317.836	177.06
318.065	184.06
318.295	176.06
318.524	177.06
318.753	191.06
318.983	181.06
319.212	169.06
319.441	180.06
319.67	178.06
319.9	177.06
320.129	200.06
320.358	180.06
320.587	191.06
320.816	196.06
321.046	198.06
321.275	196.06
321.504	176.06
321.733	184.06
321.962	175.06
322.191	177.06
322.42	190.06
322.649	169.06
322.878	185.06
323.108	172.06
323.337	183.06
323.566	190.06
323.795	212.06
324.024	190.06
324.253	191.06
324.482	193.06
324.71	185.06
324.939	182.06
325.168	198.06
325.397	203.06
325.626	187.06
325.855	187.06
326.084	200.06
326.313	190.06
326.542	187.06
326.77	200.06
326.999	196.06
327.228	204.06
327.457	205.06
327.686	209.06
327.914	219.06
328.143	199.06
328.372	192.06
328.6	205.06
328.829	216.06
329.058	210.06
329.287	194.06
329.515	195.06
329.744	197.06
329.972	205.06
330.201	184.06
330.43	194.06
330.658	211.06
330.887	189.06
331.115	210.06
331.344	203.06
331.572	215.06
331.801	198.06
332.03	208.06
332.258	216.06
332.486	233.06
332.715	238.06
332.943	221.06
333.172	240.06
333.4	243.06
333.629	263.06
333.857	243.06
334.085	254.06
334.314	211.06
334.542	241.06
334.771	238.06
334.999	244.06
335.227	242.06
335.455	230.06
335.684	234.06
335.912	241.06
336.14	222.06
336.369	230.06
336.597	236.06
336.825	236.06
337.053	211.06
337.281	218.06
337.51	205.06
337.738	198.06
337.966	198.06
338.194	209.06
338.422	212.06
338.65	185.06
338.878	199.06
339.106	215.06
339.334	203.06
339.562	221.06
339.79	214.06
340.018	212.06
340.246	217.06
340.474	207.06
340.702	210.06
340.93	209.06
341.158	192.06
341.386	216.06
341.614	212.06
341.842	200.06
342.07	212.06
342.298	201.06
342.526	201.06
342.754	212.06
342.981	192.06
343.209	219.06
343.437	225.06
343.665	220.06
343.893	225.06
344.12	240.06
344.348	230.06
344.576	224.06
344.804	221.06
345.031	217.06
345.259	208.06
345.487	209.06
345.714	212.06
345.942	210.06
346.17	201.06
346.397	207.06
346.625	194.06
346.853	194.06
347.08	209.06
347.308	196.06
347.535	217.06
347.763	198.06
347.99	206.06
348.218	201.06
348.445	205.06
348.673	204.06
348.9	198.06
349.128	202.06
349.355	213.06
349.583	177.06
349.81	180.06
350.037	204.06
350.265	205.06
350.492	200.06
350.72	206.06
350.947	203.06
351.174	203.06
351.402	194.06
351.629	194.06
351.856	207.06
352.083	190.06
352.311	194.06
352.538	167.06
352.765	196.06
352.992	190.06
353.22	209.06
353.447	196.06
353.674	202.06
353.901	195.06
354.128	181.06
354.355	194.06
354.583	204.06
354.81	210.06
355.037	190.06
355.264	203.06
355.491	217.06
355.718	186.06
355.945	201.06
356.172	201.06
356.399	189.06
356.626	194.06
356.853	208.06
357.08	210.06
357.307	196.06
357.534	203.06
357.761	193.06
357.988	207.06
358.215	198.06
358.441	209.06
358.668	190.06
358.895	199.06
359.122	194.06
359.349	192.06
359.576	210.06
359.802	199.06
360.029	213.06
360.256	206.06
360.483	166.06
360.709	179.06
360.936	195.06
361.163	182.06
361.39	189.06
361.616	198.06
361.843	203.06
362.07	182.06
362.296	204.06
362.523	201.06
362.749	191.06
362.976	201.06
363.203	200.06
363.429	206.06
363.656	220.06
363.882	182.06
364.109	187.06
364.335	204.06
364.562	197.06
364.788	205.06
365.015	200.06
365.241	203.06
365.468	201.06
365.694	191.06
365.92	201.06
366.147	193.06
366.373	193.06
366.599	200.06
366.826	199.06
367.052	196.06
367.278	204.06
367.505	197.06
367.731	206.06
367.957	194.06
368.184	204.06
368.41	204.06
368.636	204.06
368.862	203.06
369.089	209.06
369.315	198.06
369.541	204.06
369.767	210.06
369.993	193.06
370.219	213.06
370.445	203.06
370.672	195.06
370.898	210.06
371.124	207.06
371.35	218.06
371.576	217.06
371.802	229.06
372.028	194.06
372.254	216.06
372.48	216.06
372.706	218.06
372.932	231.06
373.158	207.06
373.384	223.06
373.61	219.06
373.835	212.06
374.061	212.06
374.287	207.06
374.513	213.06
374.739	223.06
374.965	238.06
375.191	256.06
375.416	242.06
375.642	226.06
375.868	211.06
376.094	221.06
376.319	212.06
376.545	220.06
376.771	224.06
376.997	200.06
377.222	210.06
377.448	225.06
377.674	219.06
377.899	204.06
378.125	217.06
378.35	210.06
378.576	206.06
378.802	223.06
379.027	215.06
379.253	210.06
379.478	210.06
379.704	212.06
379.929	221.06
380.155	214.06
380.38	219.06
380.606	219.06
380.831	219.06
381.057	226.06
381.282	233.06
381.507	220.06
381.733	212.06
381.958	217.06
382.184	229.06
382.409	223.06
382.634	227.06
382.86	227.06
383.085	242.06
383.31	226.06
383.535	232.06
383.761	241.06
383.986	235.06
384.211	242.06
384.436	238.06
384.662	255.06
384.887	245.06
385.112	236.06
385.337	264.06
385.562	252.06
385.787	264.06
386.013	255.06
386.238	258.06
386.463	248.06
386.688	231.06
386.913	248.06
387.138	256.06
387.363	253.06
387.588	252.06
387.813	264.06
388.038	254.06
388.263	251.06
388.488	248.06
388.713	249.06
388.938	252.06
389.163	245.06
389.387	242.06
389.612	254.06
389.837	245.06
390.062	247.06
390.287	245.06
390.512	239.06
390.736	262.06
390.961	257.06
391.186	239.06
391.411	246.06
391.636	256.06
391.86	276.06
392.085	264.06
392.31	271.06
392.534	281.06
392.759	268.06
392.984	258.06
393.208	262.06
393.433	272.06
393.658	254.06
393.882	258.06
394.107	273.06
394.331	284.06
394.556	255.06
394.78	266.06
395.005	270.06
395.229	288.06
395.454	272.06
395.678	280.06
395.903	282.06
396.127	294.06
396.352	266.06
396.576	284.06
396.801	295.06
397.025	279.06
397.249	276.06
397.474	293.06
397.698	278.06
397.922	265.06
398.147	279.06
398.371	274.06
398.595	290.06
398.82	307.06
399.044	326.06
399.268	336.06
399.492	400.06
399.717	428.06
399.941	415.06
400.165	385.06
400.389	351.06
400.613	341.06
400.837	306.06
401.062	306.06
401.286	309.06
401.51	321.06
401.734	320.06
401.958	301.06
402.182	306.06
402.406	299.06
402.63	310.06
402.854	328.06
403.078	311.06
403.302	322.06
403.526	334.06
403.75	328.06
403.974	337.06
404.198	343.06
404.422	334.06
404.645	337.06
404.869	325.06
405.093	335.06
405.317	330.06
405.541	328.06
405.765	317.06
405.988	338.06
406.212	350.06
406.436	329.06
406.66	341.06
406.883	331.06
407.107	364.06
407.331	366.06
407.555	356.06
407.778	360.06
408.002	384.06
408.226	373.06
408.449	333.06
408.673	333.06
408.896	347.06
409.12	339.06
409.344	337.06
409.567	344.06
409.791	338.06
410.014	331.06
410.238	337.06
410.461	354.06
410.685	354.06
410.908	340.06
411.132	323.06
411.355	316.06
411.578	342.06
411.802	340.06
412.025	330.06
412.249	337.06
412.472	325.06
412.695	318.06
412.919	327.06
413.142	321.06
413.365	329.06
413.589	325.06
413.812	300.06
414.035	306.06
414.258	319.06
414.482	314.06
414.705	304.06
414.928	315.06
415.151	307.06
415.374	298.06
415.597	308.06
415.821	313.06
416.044	322.06
416.267	310.06
416.49	299.06
416.713	302.06
416.936	308.06
417.159	293.06
417.382	315.06
417.605	320.06
417.828	313.06
418.051	321.06
418.274	326.06
418.497	307.06
418.72	334.06
418.943	309.06
419.166	322.06
419.389	325.06
419.611	347.06
419.834	321.06
420.057	322.06
420.28	307.06
420.503	318.06
420.726	317.06
420.948	308.06
421.171	319.06
421.394	322.06
421.617	323.06
421.839	307.06
422.062	310.06
422.285	314.06
422.507	324.06
422.73	312.06
422.953	312.06
423.175	323.06
423.398	309.06
423.621	326.06
423.843	309.06
424.066	323.06
424.288	331.06
424.511	321.06
424.733	309.06
424.956	305.06
425.178	311.06
425.401	308.06
425.623	311.06
425.846	312.06
426.068	297.06
426.291	318.06
426.513	296.06
426.735	291.06
426.958	282.06
427.18	310.06
427.402	306.06
427.625	302.06
427.847	284.06
428.069	284.06
428.292	282.06
428.514	269.06
428.736	295.06
428.958	283.06
429.181	272.06
429.403	267.06
429.625	295.06
429.847	264.06
430.069	266.06
430.292	283.06
430.514	278.06
430.736	286.06
430.958	275.06
431.18	274.06
431.402	281.06
431.624	283.06
431.846	272.06
432.068	282.06
432.29	293.06
432.512	285.06
432.734	297.06
432.956	270.06
433.178	285.06
433.4	271.06
433.622	293.06
433.844	289.06
434.066	291.06
434.287	297.06
434.509	299.06
434.731	315.06
434.953	300.06
435.175	303.06
435.397	298.06
435.618	313.06
435.84	298.06
436.062	292.06
436.284	282.06
436.505	291.06
436.727	290.06
436.949	277.06
437.17	274.06
437.392	266.06
437.614	283.06
437.835	285.06
438.057	268.06
438.278	276.06
438.5	283.06
438.721	301.06
438.943	286.06
439.165	271.06
439.386	282.06
439.608	306.06
439.829	275.06
440.05	284.06
440.272	292.06
440.493	283.06
440.715	287.06
440.936	292.06
441.158	284.06
441.379	303.06
441.6	316.06
441.822	307.06
442.043	310.06
442.264	305.06
442.486	302.06
442.707	292.06
442.928	321.06
443.149	304.06
443.371	322.06
443.592	310.06
443.813	304.06
444.034	313.06
444.255	328.06
444.476	329.06
444.698	355.06
444.919	345.06
445.14	440.06
445.361	392.06
445.582	329.06
445.803	315.06
446.024	313.06
446.245	307.06
446.466	311.06
446.687	296.06
446.908	286.06
447.129	303.06
447.35	286.06
447.571	278.06
447.792	265.06
448.013	285.06
448.234	275.06
448.455	267.06
448.675	287.06
448.896	275.06
449.117	286.06
449.338	262.06
449.559	260.06
449.779	274.06
450	273.06
450.221	272.06
450.442	285.06
450.662	269.06
450.883	273.06
451.104	281.06
451.324	262.06
451.545	257.06
451.766	282.06
451.986	274.06
452.207	276.06
452.428	283.06
452.648	271.06
452.869	260.06
453.089	263.06
453.31	251.06
453.53	246.06
453.751	271.06
453.971	271.06
454.192	264.06
454.412	242.06
454.633	264.06
454.853	258.06
455.073	264.06
455.294	260.06
455.514	272.06
455.734	242.06
455.955	267.06
456.175	263.06
456.395	248.06
456.616	265.06
456.836	257.06
457.056	258.06
457.276	252.06
457.497	264.06
457.717	246.06
457.937	264.06
458.157	268.06
458.377	250.06
458.598	262.06
458.818	246.06
459.038	286.06
459.258	288.06
459.478	289.06
459.698	288.06
459.918	296.06
460.138	341.06
460.358	320.06
460.578	328.06
460.798	327.06
461.018	318.06
461.238	321.06
461.458	312.06
461.678	330.06
461.898	332.06
462.118	340.06
462.338	332.06
462.558	334.06
462.777	357.06
462.997	395.06
463.217	431.06
463.437	425.06
463.657	381.06
463.876	368.06
464.096	350.06
464.316	351.06
464.536	360.06
464.755	351.06
464.975	350.06
465.195	340.06
465.414	310.06
465.634	311.06
465.854	298.06
466.073	299.06
466.293	271.06
466.512	264.06
466.732	283.06
466.951	283.06
467.171	272.06
467.391	272.06
467.61	280.06
467.829	283.06
468.049	277.06
468.268	286.06
468.488	259.06
468.707	258.06
468.927	250.06
469.146	272.06
469.365	284.06
469.585	291.06
469.804	260.06
470.023	297.06
470.243	276.06
470.462	272.06
470.681	287.06
470.901	291.06
471.12	264.06
471.339	292.06
471.558	264.06
471.777	277.06
471.997	260.06
472.216	280.06
472.435	275.06
472.654	251.06
472.873	278.06
473.092	266.06
473.311	268.06
473.53	282.06
473.749	274.06
473.968	279.06
474.187	271.06
474.406	253.06
474.625	281.06
474.844	277.06
475.063	269.06
475.282	258.06
475.501	276.06
475.72	280.06
475.939	279.06
476.158	271.06
476.377	266.06
476.596	282.06
476.814	272.06
477.033	262.06
477.252	276.06
477.471	308.06
477.69	290.06
477.908	298.06
478.127	315.06
478.346	309.06
478.564	311.06
478.783	297.06
479.002	318.06
479.22	314.06
479.439	323.06
479.658	324.06
479.876	324.06
480.095	325.06
480.313	330.06
480.532	342.06
480.751	347.06
480.969	323.06
481.188	315.06
481.406	305.06
481.624	303.06
481.843	300.06
482.061	299.06
482.28	292.06
482.498	302.06
482.717	303.06
482.935	305.06
483.153	309.06
483.372	290.06
483.59	314.06
483.808	291.06
484.027	310.06
484.245	310.06
484.463	322.06
484.681	321.06
484.9	295.06
485.118	302.06
485.336	313.06
485.554	298.06
485.772	325.06
485.99	300.06
486.209	321.06
486.427	297.06
486.645	318.06
486.863	314.06
487.081	296.06
487.299	304.06
487.517	299.06
487.735	313.06
487.953	312.06
488.171	306.06
488.389	315.06
488.607	318.06
488.825	308.06
489.043	308.06
489.261	311.06
489.479	303.06
489.696	309.06
489.914	318.06
490.132	297.06
490.35	312.06
490.568	302.06
490.786	311.06
491.003	306.06
491.221	320.06
491.439	355.06
491.657	328.06
491.874	315.06
492.092	332.06
492.31	310.06
492.527	314.06
492.745	318.06
492.963	313.06
493.18	333.06
493.398	324.06
493.615	310.06
493.833	316.06
494.05	334.06
494.268	336.06
494.485	342.06
494.703	326.06
494.92	325.06
495.138	314.06
495.355	327.06
495.573	324.06
495.79	334.06
496.008	328.06
496.225	322.06
496.442	346.06
496.66	351.06
496.877	340.06
497.094	342.06
497.312	344.06
497.529	350.06
497.746	360.06
497.963	359.06
498.181	377.06
498.398	396.06
498.615	405.06
498.832	427.06
499.049	467.06
499.267	495.06
499.484	496.06
499.701	583.06
499.918	610.06
500.135	692.06
500.352	759.06
500.569	779.06
500.786	787.06
501.003	722.06
501.22	670.06
501.437	588.06
501.654	542.06
501.871	503.06
502.088	462.06
502.305	419.06
502.522	423.06
502.739	406.06
502.956	419.06
503.172	416.06
503.389	368.06
503.606	365.06
503.823	359.06
504.04	350.06
504.256	364.06
504.473	371.06
504.69	386.06
504.907	378.06
505.123	341.06
505.34	320.06
505.557	339.06
505.773	326.06
505.99	306.06
506.207	309.06
506.423	299.06
506.64	307.06
506.856	304.06
507.073	283.06
507.289	301.06
507.506	289.06
507.722	286.06
507.939	307.06
508.155	301.06
508.372	289.06
508.588	285.06
508.805	270.06
509.021	277.06
509.238	274.06
509.454	275.06
509.67	280.06
509.887	275.06
510.103	277.06
510.319	292.06
510.536	273.06
510.752	272.06
510.968	283.06
511.184	272.06
511.401	271.06
511.617	272.06
511.833	285.06
512.049	280.06
512.265	286.06
512.481	282.06
512.698	266.06
512.914	282.06
513.13	287.06
513.346	266.06
513.562	263.06
513.778	257.06
513.994	272.06
514.21	288.06
514.426	270.06
514.642	289.06
514.858	263.06
515.074	283.06
515.29	297.06
515.506	276.06
515.721	285.06
515.937	292.06
516.153	305.06
516.369	289.06
516.585	314.06
516.801	315.06
517.016	332.06
517.232	338.06
517.448	344.06
517.664	353.06
517.879	340.06
518.095	352.06
518.311	335.06
518.527	334.06
518.742	323.06
518.958	323.06
519.173	300.06
519.389	296.06
519.605	278.06
519.82	299.06
520.036	284.06
520.251	290.06
520.467	290.06
520.682	268.06
520.898	277.06
521.113	262.06
521.329	276.06
521.544	275.06
521.76	276.06
521.975	278.06
522.19	271.06
522.406	259.06
522.621	256.06
522.836	269.06
523.052	273.06
523.267	267.06
523.482	251.06
523.698	272.06
523.913	248.06
524.128	257.06
524.343	272.06
524.559	265.06
524.774	278.06
524.989	262.06
525.204	254.06
525.419	259.06
525.634	250.06
525.849	261.06
526.064	273.06
526.28	260.06
526.495	252.06
526.71	265.06
526.925	245.06
527.14	242.06
527.355	252.06
527.57	246.06
527.785	278.06
527.999	257.06
528.214	267.06
528.429	260.06
528.644	263.06
528.859	270.06
529.074	258.06
529.289	273.06
529.503	256.06
529.718	263.06
529.933	276.06
530.148	262.06
530.363	251.06
530.577	241.06
530.792	241.06
531.007	243.06
531.221	256.06
531.436	250.06
531.651	252.06
531.865	266.06
532.08	248.06
532.295	259.06
532.509	257.06
532.724	264.06
532.938	276.06
533.153	262.06
533.367	262.06
533.582	249.06
533.796	250.06
534.011	257.06
534.225	238.06
534.44	236.06
534.654	262.06
534.868	241.06
535.083	255.06
535.297	253.06
535.511	244.06
535.726	252.06
535.94	242.06
536.154	250.06
536.369	231.06
536.583	255.06
536.797	246.06
537.011	239.06
537.225	241.06
537.44	259.06
537.654	235.06
537.868	230.06
538.082	250.06
538.296	243.06
538.51	240.06
538.724	240.06
538.938	240.06
539.153	241.06
539.367	251.06
539.581	257.06
539.795	231.06
540.009	220.06
540.222	236.06
540.436	231.06
540.65	240.06
540.864	246.06
541.078	231.06
541.292	256.06
541.506	244.06
541.72	260.06
541.934	243.06
542.147	258.06
542.361	252.06
542.575	239.06
542.789	243.06
543.002	257.06
543.216	246.06
543.43	215.06
543.644	240.06
543.857	231.06
544.071	256.06
544.285	262.06
544.498	251.06
544.712	247.06
544.925	247.06
545.139	228.06
545.352	242.06
545.566	246.06
545.779	228.06
545.993	264.06
546.206	255.06
546.42	243.06
546.633	232.06
546.847	245.06
547.06	243.06
547.274	258.06
547.487	244.06
547.7	240.06
547.914	239.06
548.127	250.06
548.34	250.06
548.554	251.06
548.767	240.06
548.98	242.06
549.193	229.06
549.407	243.06
549.62	238.06
549.833	248.06
550.046	224.06
550.259	254.06
550.473	250.06
550.686	232.06
550.899	249.06
551.112	240.06
551.325	240.06
551.538	226.06
551.751	242.06
551.964	232.06
552.177	231.06
552.39	248.06
552.603	240.06
552.816	252.06
553.029	253.06
553.242	274.06
553.455	241.06
553.667	250.06
553.88	262.06
554.093	254.06
554.306	248.06
554.519	230.06
554.732	243.06
554.944	256.06
555.157	222.06
555.37	225.06
555.583	230.06
555.795	227.06
556.008	229.06
556.221	213.06
556.433	216.06
556.646	223.06
556.859	209.06
557.071	224.06
557.284	217.06
557.496	215.06
557.709	223.06
557.921	217.06
558.134	210.06
558.346	218.06
558.559	220.06
558.771	224.06
558.984	213.06
559.196	204.06
559.409	205.06
559.621	218.06
559.833	201.06
560.046	211.06
560.258	216.06
560.47	226.06
560.683	211.06
560.895	202.06
561.107	208.06
561.32	212.06
561.532	205.06
561.744	223.06
561.956	222.06
562.168	211.06
562.381	206.06
562.593	202.06
562.805	216.06
563.017	206.06
563.229	210.06
563.441	186.06
563.653	201.06
563.865	217.06
564.077	208.06
564.289	222.06
564.501	210.06
564.713	219.06
564.925	216.06
565.137	224.06
565.349	222.06
565.561	223.06
565.773	230.06
565.985	249.06
566.197	263.06
566.408	250.06
566.62	271.06
566.832	294.06
567.044	306.06
567.255	306.06
567.467	312.06
567.679	308.06
567.891	329.06
568.102	323.06
568.314	312.06
568.526	286.06
568.737	249.06
568.949	254.06
569.161	238.06
569.372	240.06
569.584	228.06
569.795	232.06
570.007	223.06
570.218	205.06
570.43	203.06
570.641	203.06
570.853	200.06
571.064	204.06
571.276	206.06
571.487	209.06
571.698	222.06
571.91	193.06
572.121	184.06
572.333	192.06
572.544	184.06
572.755	187.06
572.966	185.06
573.178	189.06
573.389	180.06
573.6	177.06
573.811	166.06
574.023	186.06
574.234	172.06
574.445	180.06
574.656	193.06
574.867	187.06
575.078	171.06
575.289	176.06
575.501	174.06
575.712	167.06
575.923	170.06
576.134	182.06
576.345	166.06
576.556	186.06
576.767	174.06
576.978	189.06
577.188	169.06
577.399	183.06
577.61	174.06
577.821	175.06
578.032	170.06
578.243	186.06
578.454	172.06
578.665	180.06
578.875	177.06
579.086	178.06
579.297	181.06
579.508	163.06
579.718	180.06
579.929	169.06
580.14	164.06
580.35	199.06
580.561	164.06
580.772	157.06
580.982	180.06
581.193	154.06
581.403	152.06
581.614	172.06
581.825	165.06
582.035	168.06
582.246	157.06
582.456	151.06
582.667	156.06
582.877	152.06
583.087	147.06
583.298	166.06
583.508	185.06
583.719	158.06
583.929	168.06
584.139	171.06
584.35	159.06
584.56	178.06
584.77	147.06
584.981	161.06
585.191	172.06
585.401	171.06
585.611	162.06
585.821	165.06
586.032	167.06
586.242	156.06
586.452	158.06
586.662	164.06
586.872	160.06
587.082	151.06
587.292	155.06
587.502	164.06
587.713	167.06
587.923	164.06
588.133	171.06
588.343	179.06
588.553	174.06
588.762	153.06
588.972	152.06
589.182	159.06
589.392	155.06
589.602	155.06
589.812	171.06
590.022	165.06
590.232	160.06
590.441	143.06
590.651	159.06
590.861	157.06
591.071	158.06
591.281	158.06
591.49	161.06
591.7	161.06
591.91	172.06
592.119	170.06
592.329	186.06
592.539	185.06
592.748	180.06
592.958	172.06
593.167	184.06
593.377	194.06
593.587	188.06
593.796	182.06
594.006	174.06
594.215	192.06
594.424	184.06
594.634	190.06
594.843	170.06
595.053	172.06
595.262	170.06
595.472	163.06
595.681	162.06
595.89	165.06
596.1	161.06
596.309	163.06
596.518	166.06
596.727	142.06
596.937	158.06
597.146	163.06
597.355	165.06
597.564	157.06
597.774	144.06
597.983	148.06
598.192	162.06
598.401	130.06
598.61	151.06
598.819	160.06
599.028	149.06
599.237	161.06
599.446	136.06
599.655	158.06
599.864	150.06
600.073	146.06
600.282	139.06
600.491	137.06
600.7	135.06
600.909	137.06
601.118	159.06
601.327	151.06
601.536	134.06
601.745	145.06
601.953	142.06
602.162	136.06
602.371	147.06
602.58	146.06
602.789	147.06
602.997	145.06
603.206	166.06
603.415	152.06
603.623	152.06
603.832	156.06
604.041	123.06
604.249	143.06
604.458	144.06
604.666	148.06
604.875	140.06
605.084	148.06
605.292	146.06
605.501	140.06
605.709	146.06
605.918	131.06
606.126	154.06
606.334	139.06
606.543	127.06
606.751	153.06
606.96	130.06
607.168	136.06
607.376	143.06
607.585	162.06
607.793	145.06
608.001	139.06
608.21	132.06
608.418	124.06
608.626	131.06
608.834	128.06
609.043	124.06
609.251	134.06
609.459	135.06
609.667	128.06
609.875	144.06
610.083	148.06
610.291	121.06
610.499	138.06
610.707	142.06
610.916	150.06
611.124	139.06
611.332	122.06
611.54	138.06
611.748	131.06
611.955	137.06
612.163	137.06
612.371	138.06
612.579	133.06
612.787	124.06
612.995	139.06
613.203	150.06
613.411	154.06
613.618	129.06
613.826	128.06
614.034	146.06
614.242	126.06
614.449	136.06
614.657	140.06
614.865	145.06
615.072	138.06
615.28	140.06
615.488	145.06
615.695	137.06
615.903	135.06
616.111	128.06
616.318	139.06
616.526	126.06
616.733	141.06
616.941	132.06
617.148	131.06
617.356	128.06
617.563	135.06
617.771	146.06
617.978	139.06
618.185	148.06
618.393	132.06
618.6	133.06
618.807	141.06
619.015	132.06
619.222	122.06
619.429	132.06
619.637	122.06
619.844	129.06
620.051	130.06
620.258	139.06
620.466	139.06
620.673	139.06
620.88	123.06
621.087	143.06
621.294	128.06
621.501	131.06
621.708	119.06
621.915	135.06
622.122	129.06
622.329	130.06
622.536	144.06
622.743	126.06
622.95	149.06
623.157	115.06
623.364	124.06
623.571	131.06
623.778	131.06
623.985	124.06
624.192	122.06
624.399	122.06
624.606	117.06
624.812	139.06
625.019	128.06
625.226	129.06
625.433	132.06
625.639	114.06
625.846	135.06
626.053	119.06
626.259	131.06
626.466	130.06
626.673	117.06
626.879	126.06
627.086	115.06
627.293	112.06
627.499	121.06
627.706	115.06
627.912	132.06
628.119	102.06
628.325	120.06
628.532	119.06
628.738	130.06
628.945	134.06
629.151	119.06
629.357	119.06
629.564	125.06
629.77	126.06
629.976	116.06
630.183	125.06
630.389	118.06
630.595	120.06
630.802	122.06
631.008	126.06
631.214	122.06
631.42	129.06
631.627	118.06
631.833	110.06
632.039	126.06
632.245	120.06
632.451	111.06
632.657	120.06
632.863	116.06
633.069	123.06
633.275	119.06
633.481	103.06
633.688	115.06
633.893	121.06
634.099	106.06
634.305	109.06
634.511	90.06
634.717	118.06
634.923	118.06
635.129	118.06
635.335	121.06
635.541	122.06
635.747	91.06
635.952	123.06
636.158	105.06
636.364	122.06
636.57	114.06
636.775	124.06
636.981	130.06
637.187	120.06
637.392	125.06
637.598	111.06
637.804	132.06
638.009	118.06
638.215	137.06
638.421	122.06
638.626	112.06
638.832	122.06
639.037	120.06
639.243	122.06
639.448	104.06
639.654	115.06
639.859	105.06
640.065	109.06
640.27	120.06
640.475	112.06
640.681	108.06
640.886	121.06
641.091	115.06
641.297	119.06
641.502	107.06
641.707	112.06
641.913	123.06
642.118	116.06
642.323	122.06
642.528	128.06
642.733	130.06
642.939	117.06
643.144	107.06
643.349	114.06
643.554	121.06
643.759	106.06
643.964	110.06
644.169	124.06
644.374	105.06
644.579	122.06
644.784	122.06
644.989	117.06
645.194	111.06
645.399	118.06
645.604	117.06
645.809	101.06
646.014	100.06
646.219	124.06
646.423	117.06
646.628	112.06
646.833	119.06
647.038	91.06
647.243	109.06
647.447	112.06
647.652	108.06
647.857	126.06
648.062	126.06
648.266	113.06
648.471	108.06
648.676	118.06
648.88	109.06
649.085	104.06
649.289	100.06
649.494	101.06
649.698	120.06
649.903	104.06
650.107	121.06
650.312	99.06
650.516	97.06
650.721	87.06
650.925	112.06
651.13	107.06
651.334	130.06
651.539	102.06
651.743	112.06
651.947	102.06
652.152	112.06
652.356	95.06
652.56	98.06
652.764	104.06
652.969	97.06
653.173	102.06
653.377	103.06
653.581	114.06
653.785	95.06
653.99	97.06
654.194	87.06
654.398	107.06
654.602	104.06
654.806	92.06
655.01	99.06
655.214	98.06
655.418	107.06
655.622	103.06
655.826	107.06
656.03	105.06
656.234	90.06
656.438	106.06
656.642	98.06
656.846	99.06
657.049	94.06
657.253	94.06
657.457	101.06
657.661	100.06
657.865	93.06
658.068	87.06
658.272	100.06
658.476	86.06
658.68	95.06
658.883	110.06
659.087	93.06
659.291	88.06
659.494	70.06
659.698	95.06
659.901	75.06
660.105	80.06
660.309	75.06
660.512	81.06
660.716	90.06
660.919	87.06
661.123	90.06
661.326	86.06
661.53	89.06
661.733	96.06
661.936	88.06
662.14	81.06
662.343	90.06
662.546	77.06
662.75	83.06
662.953	74.06
663.156	73.06
663.36	82.06
663.563	83.06
663.766	83.06
663.969	74.06
664.173	96.06
664.376	79.06
664.579	82.06
664.782	77.06
664.985	85.06
665.188	85.06
665.391	90.06
665.594	75.06
665.797	84.06
666	78.06
666.203	85.06
666.406	76.06
666.609	75.06
666.812	76.06
667.015	90.06
667.218	79.06
667.421	80.06
667.624	77.06
667.827	80.06
668.03	84.06
668.232	74.06
668.435	98.06
668.638	78.06
668.841	84.06
669.043	85.06
669.246	86.06
669.449	71.06
669.651	93.06
669.854	85.06
670.057	80.06
670.259	74.06
670.462	94.06
670.665	74.06
670.867	64.06
671.07	72.06
671.272	68.06
671.475	100.06
671.677	83.06
671.88	73.06
672.082	77.06
672.284	73.06
672.487	89.06
672.689	75.06
672.892	88.06
