Data from Fe(NO3)3@0.05M.TitratingCurve.Agarose3%dH2O.NegLispCup.LampEnergy10.LIBS07252019_HRD10591_16-47-34-334.txt Node
Date: Thu Jul 25 16:47:34 EDT 2019
User: cochatt
Spectrometer: HR+D1059
Trigger mode: 1
Integration Time (sec): 1.000000E-1
Scans to average: 1
Electric dark correction enabled: true
Nonlinearity correction enabled: false
Boxcar width: 0
XAxis mode: Wavelengths
Number of Pixels in Spectrum: 2048
>>>>>Begin Spectral Data<<<<<
223.165	-17.62
223.4	-17.62
223.635	-17.62
223.869	-17.62
224.104	-27.62
224.338	-19.62
224.573	-11.62
224.808	-12.62
225.042	-5.62
225.277	-1.62
225.511	5.38
225.746	-1.62
225.98	12.38
226.215	20.38
226.449	6.38
226.683	22.38
226.918	34.38
227.152	14.38
227.387	46.38
227.621	40.38
227.856	32.38
228.09	29.38
228.324	31.38
228.559	49.38
228.793	63.38
229.027	72.38
229.262	80.38
229.496	82.38
229.73	88.38
229.964	103.38
230.199	88.38
230.433	97.38
230.667	82.38
230.901	98.38
231.136	104.38
231.37	104.38
231.604	108.38
231.838	105.38
232.072	89.38
232.306	103.38
232.541	113.38
232.775	110.38
233.009	103.38
233.243	105.38
233.477	116.38
233.711	110.38
233.945	102.38
234.179	105.38
234.413	124.38
234.647	118.38
234.881	134.38
235.115	106.38
235.349	107.38
235.583	112.38
235.817	100.38
236.051	98.38
236.285	119.38
236.519	111.38
236.753	116.38
236.987	113.38
237.221	110.38
237.455	104.38
237.689	103.38
237.922	98.38
238.156	103.38
238.39	121.38
238.624	119.38
238.858	125.38
239.091	120.38
239.325	132.38
239.559	125.38
239.793	127.38
240.027	124.38
240.26	117.38
240.494	130.38
240.728	118.38
240.961	121.38
241.195	133.38
241.429	133.38
241.662	124.38
241.896	119.38
242.13	134.38
242.363	120.38
242.597	122.38
242.83	123.38
243.064	138.38
243.298	131.38
243.531	124.38
243.765	117.38
243.998	111.38
244.232	126.38
244.465	134.38
244.699	138.38
244.932	136.38
245.166	144.38
245.399	145.38
245.633	144.38
245.866	142.38
246.099	137.38
246.333	130.38
246.566	142.38
246.8	142.38
247.033	138.38
247.266	146.38
247.5	133.38
247.733	133.38
247.966	142.38
248.2	145.38
248.433	138.38
248.666	148.38
248.899	148.38
249.133	150.38
249.366	138.38
249.599	154.38
249.832	144.38
250.066	129.38
250.299	143.38
250.532	136.38
250.765	144.38
250.998	149.38
251.231	140.38
251.465	136.38
251.698	150.38
251.931	145.38
252.164	154.38
252.397	156.38
252.63	160.38
252.863	167.38
253.096	166.38
253.329	164.38
253.562	163.38
253.795	159.38
254.028	169.38
254.261	164.38
254.494	161.38
254.727	167.38
254.96	150.38
255.193	168.38
255.426	157.38
255.659	156.38
255.892	162.38
256.124	158.38
256.357	148.38
256.59	170.38
256.823	174.38
257.056	168.38
257.289	168.38
257.521	176.38
257.754	162.38
257.987	158.38
258.22	157.38
258.452	172.38
258.685	156.38
258.918	180.38
259.151	185.38
259.383	177.38
259.616	175.38
259.849	174.38
260.081	202.38
260.314	200.38
260.547	185.38
260.779	177.38
261.012	183.38
261.244	179.38
261.477	194.38
261.71	192.38
261.942	190.38
262.175	174.38
262.407	184.38
262.64	170.38
262.872	186.38
263.105	196.38
263.337	189.38
263.57	191.38
263.802	181.38
264.035	185.38
264.267	179.38
264.499	180.38
264.732	178.38
264.964	199.38
265.197	173.38
265.429	185.38
265.661	209.38
265.894	191.38
266.126	190.38
266.358	206.38
266.591	194.38
266.823	198.38
267.055	192.38
267.287	185.38
267.52	176.38
267.752	191.38
267.984	205.38
268.216	193.38
268.448	213.38
268.681	198.38
268.913	194.38
269.145	194.38
269.377	199.38
269.609	209.38
269.841	192.38
270.073	200.38
270.306	190.38
270.538	199.38
270.77	212.38
271.002	202.38
271.234	201.38
271.466	212.38
271.698	221.38
271.93	216.38
272.162	208.38
272.394	197.38
272.626	205.38
272.858	209.38
273.09	196.38
273.322	218.38
273.553	211.38
273.785	206.38
274.017	225.38
274.249	245.38
274.481	230.38
274.713	226.38
274.945	246.38
275.176	252.38
275.408	226.38
275.64	230.38
275.872	229.38
276.104	222.38
276.335	229.38
276.567	229.38
276.799	224.38
277.031	226.38
277.262	202.38
277.494	246.38
277.726	213.38
277.957	231.38
278.189	223.38
278.421	247.38
278.652	219.38
278.884	200.38
279.115	243.38
279.347	230.38
279.579	232.38
279.81	239.38
280.042	224.38
280.273	250.38
280.505	231.38
280.736	222.38
280.968	245.38
281.199	270.38
281.431	255.38
281.662	214.38
281.894	234.38
282.125	228.38
282.356	233.38
282.588	247.38
282.819	250.38
283.051	253.38
283.282	239.38
283.513	245.38
283.745	236.38
283.976	236.38
284.207	259.38
284.439	273.38
284.67	242.38
284.901	252.38
285.132	247.38
285.364	238.38
285.595	257.38
285.826	254.38
286.057	242.38
286.288	260.38
286.52	233.38
286.751	275.38
286.982	256.38
287.213	261.38
287.444	279.38
287.675	257.38
287.906	256.38
288.138	242.38
288.369	265.38
288.6	252.38
288.831	277.38
289.062	256.38
289.293	247.38
289.524	252.38
289.755	250.38
289.986	260.38
290.217	261.38
290.448	257.38
290.679	272.38
290.91	276.38
291.141	266.38
291.371	259.38
291.602	277.38
291.833	278.38
292.064	262.38
292.295	270.38
292.526	270.38
292.757	258.38
292.987	277.38
293.218	258.38
293.449	287.38
293.68	272.38
293.91	278.38
294.141	253.38
294.372	293.38
294.603	262.38
294.833	273.38
295.064	277.38
295.295	284.38
295.525	260.38
295.756	287.38
295.987	281.38
296.217	281.38
296.448	286.38
296.679	285.38
296.909	288.38
297.14	277.38
297.37	287.38
297.601	280.38
297.831	273.38
298.062	294.38
298.292	280.38
298.523	285.38
298.753	293.38
298.984	276.38
299.214	302.38
299.445	287.38
299.675	284.38
299.905	295.38
300.136	285.38
300.366	293.38
300.597	287.38
300.827	292.38
301.057	286.38
301.288	283.38
301.518	285.38
301.748	293.38
301.979	300.38
302.209	312.38
302.439	307.38
302.669	313.38
302.9	301.38
303.13	316.38
303.36	289.38
303.59	301.38
303.82	316.38
304.051	293.38
304.281	305.38
304.511	296.38
304.741	308.38
304.971	291.38
305.201	298.38
305.431	294.38
305.661	296.38
305.891	306.38
306.121	284.38
306.352	304.38
306.582	288.38
306.812	291.38
307.042	293.38
307.272	282.38
307.502	307.38
307.731	301.38
307.961	300.38
308.191	292.38
308.421	305.38
308.651	294.38
308.881	311.38
309.111	292.38
309.341	302.38
309.571	320.38
309.8	318.38
310.03	304.38
310.26	301.38
310.49	310.38
310.72	293.38
310.949	319.38
311.179	316.38
311.409	317.38
311.639	297.38
311.868	310.38
312.098	305.38
312.328	292.38
312.557	310.38
312.787	304.38
313.017	321.38
313.246	302.38
313.476	308.38
313.706	328.38
313.935	334.38
314.165	326.38
314.394	306.38
314.624	323.38
314.853	317.38
315.083	328.38
315.312	327.38
315.542	322.38
315.771	334.38
316.001	308.38
316.23	317.38
316.46	312.38
316.689	324.38
316.919	318.38
317.148	325.38
317.377	314.38
317.607	320.38
317.836	314.38
318.065	321.38
318.295	320.38
318.524	322.38
318.753	322.38
318.983	320.38
319.212	321.38
319.441	324.38
319.67	324.38
319.9	323.38
320.129	318.38
320.358	312.38
320.587	316.38
320.816	323.38
321.046	328.38
321.275	328.38
321.504	338.38
321.733	334.38
321.962	323.38
322.191	332.38
322.42	314.38
322.649	327.38
322.878	329.38
323.108	321.38
323.337	336.38
323.566	320.38
323.795	332.38
324.024	340.38
324.253	348.38
324.482	348.38
324.71	334.38
324.939	327.38
325.168	329.38
325.397	331.38
325.626	344.38
325.855	327.38
326.084	334.38
326.313	337.38
326.542	348.38
326.77	353.38
326.999	344.38
327.228	354.38
327.457	340.38
327.686	339.38
327.914	352.38
328.143	350.38
328.372	355.38
328.6	370.38
328.829	356.38
329.058	341.38
329.287	339.38
329.515	351.38
329.744	360.38
329.972	352.38
330.201	350.38
330.43	359.38
330.658	377.38
330.887	356.38
331.115	345.38
331.344	380.38
331.572	368.38
331.801	371.38
332.03	374.38
332.258	388.38
332.486	365.38
332.715	380.38
332.943	388.38
333.172	416.38
333.4	415.38
333.629	419.38
333.857	422.38
334.085	454.38
334.314	431.38
334.542	412.38
334.771	452.38
334.999	441.38
335.227	434.38
335.455	420.38
335.684	418.38
335.912	424.38
336.14	389.38
336.369	409.38
336.597	406.38
336.825	391.38
337.053	387.38
337.281	410.38
337.51	392.38
337.738	400.38
337.966	389.38
338.194	400.38
338.422	378.38
338.65	383.38
338.878	394.38
339.106	371.38
339.334	379.38
339.562	372.38
339.79	376.38
340.018	372.38
340.246	367.38
340.474	367.38
340.702	360.38
340.93	364.38
341.158	358.38
341.386	368.38
341.614	366.38
341.842	390.38
342.07	390.38
342.298	361.38
342.526	363.38
342.754	365.38
342.981	391.38
343.209	383.38
343.437	404.38
343.665	392.38
343.893	410.38
344.12	422.38
344.348	445.38
344.576	419.38
344.804	400.38
345.031	390.38
345.259	381.38
345.487	376.38
345.714	373.38
345.942	362.38
346.17	349.38
346.397	365.38
346.625	366.38
346.853	380.38
347.08	366.38
347.308	357.38
347.535	362.38
347.763	356.38
347.99	356.38
348.218	363.38
348.445	368.38
348.673	366.38
348.9	352.38
349.128	361.38
349.355	373.38
349.583	359.38
349.81	364.38
350.037	355.38
350.265	350.38
350.492	354.38
350.72	346.38
350.947	345.38
351.174	341.38
351.402	348.38
351.629	358.38
351.856	367.38
352.083	344.38
352.311	357.38
352.538	334.38
352.765	351.38
352.992	355.38
353.22	353.38
353.447	324.38
353.674	354.38
353.901	350.38
354.128	365.38
354.355	337.38
354.583	355.38
354.81	353.38
355.037	334.38
355.264	368.38
355.491	359.38
355.718	359.38
355.945	368.38
356.172	356.38
356.399	350.38
356.626	380.38
356.853	365.38
357.08	361.38
357.307	372.38
357.534	357.38
357.761	364.38
357.988	376.38
358.215	383.38
358.441	369.38
358.668	351.38
358.895	337.38
359.122	335.38
359.349	348.38
359.576	368.38
359.802	365.38
360.029	359.38
360.256	368.38
360.483	352.38
360.709	369.38
360.936	361.38
361.163	358.38
361.39	366.38
361.616	361.38
361.843	361.38
362.07	370.38
362.296	357.38
362.523	366.38
362.749	357.38
362.976	375.38
363.203	382.38
363.429	373.38
363.656	356.38
363.882	350.38
364.109	380.38
364.335	358.38
364.562	351.38
364.788	367.38
365.015	356.38
365.241	357.38
365.468	373.38
365.694	350.38
365.92	343.38
366.147	366.38
366.373	343.38
366.599	364.38
366.826	368.38
367.052	362.38
367.278	361.38
367.505	350.38
367.731	377.38
367.957	361.38
368.184	368.38
368.41	365.38
368.636	362.38
368.862	376.38
369.089	376.38
369.315	366.38
369.541	394.38
369.767	381.38
369.993	388.38
370.219	369.38
370.445	373.38
370.672	384.38
370.898	390.38
371.124	385.38
371.35	366.38
371.576	399.38
371.802	397.38
372.028	399.38
372.254	398.38
372.48	392.38
372.706	392.38
372.932	417.38
373.158	387.38
373.384	400.38
373.61	389.38
373.835	405.38
374.061	400.38
374.287	375.38
374.513	394.38
374.739	417.38
374.965	434.38
375.191	424.38
375.416	442.38
375.642	397.38
375.868	411.38
376.094	421.38
376.319	407.38
376.545	398.38
376.771	408.38
376.997	416.38
377.222	397.38
377.448	401.38
377.674	404.38
377.899	399.38
378.125	404.38
378.35	372.38
378.576	374.38
378.802	403.38
379.027	402.38
379.253	386.38
379.478	399.38
379.704	402.38
379.929	413.38
380.155	385.38
380.38	390.38
380.606	404.38
380.831	394.38
381.057	388.38
381.282	402.38
381.507	404.38
381.733	419.38
381.958	417.38
382.184	423.38
382.409	406.38
382.634	427.38
382.86	416.38
383.085	441.38
383.31	440.38
383.535	461.38
383.761	428.38
383.986	446.38
384.211	432.38
384.436	475.38
384.662	470.38
384.887	465.38
385.112	459.38
385.337	471.38
385.562	487.38
385.787	482.38
386.013	479.38
386.238	487.38
386.463	467.38
386.688	440.38
386.913	470.38
387.138	461.38
387.363	482.38
387.588	499.38
387.813	454.38
388.038	478.38
388.263	464.38
388.488	466.38
388.713	483.38
388.938	473.38
389.163	462.38
389.387	465.38
389.612	483.38
389.837	480.38
390.062	457.38
390.287	484.38
390.512	473.38
390.736	462.38
390.961	487.38
391.186	465.38
391.411	501.38
391.636	513.38
391.86	512.38
392.085	511.38
392.31	514.38
392.534	513.38
392.759	492.38
392.984	504.38
393.208	496.38
393.433	503.38
393.658	501.38
393.882	478.38
394.107	519.38
394.331	497.38
394.556	500.38
394.78	515.38
395.005	484.38
395.229	512.38
395.454	537.38
395.678	530.38
395.903	515.38
396.127	519.38
396.352	501.38
396.576	514.38
396.801	501.38
397.025	531.38
397.249	532.38
397.474	550.38
397.698	539.38
397.922	544.38
398.147	546.38
398.371	547.38
398.595	575.38
398.82	592.38
399.044	624.38
399.268	638.38
399.492	735.38
399.717	770.38
399.941	799.38
400.165	736.38
400.389	679.38
400.613	653.38
400.837	620.38
401.062	594.38
401.286	598.38
401.51	604.38
401.734	595.38
401.958	605.38
402.182	602.38
402.406	611.38
402.63	612.38
402.854	633.38
403.078	611.38
403.302	596.38
403.526	650.38
403.75	609.38
403.974	638.38
404.198	628.38
404.422	613.38
404.645	627.38
404.869	662.38
405.093	641.38
405.317	649.38
405.541	646.38
405.765	615.38
405.988	615.38
406.212	641.38
406.436	636.38
406.66	641.38
406.883	640.38
407.107	659.38
407.331	686.38
407.555	684.38
407.778	708.38
408.002	702.38
408.226	675.38
408.449	690.38
408.673	663.38
408.896	644.38
409.12	644.38
409.344	660.38
409.567	638.38
409.791	619.38
410.014	654.38
410.238	604.38
410.461	638.38
410.685	615.38
410.908	636.38
411.132	628.38
411.355	623.38
411.578	612.38
411.802	589.38
412.025	614.38
412.249	626.38
412.472	597.38
412.695	607.38
412.919	587.38
413.142	600.38
413.365	593.38
413.589	598.38
413.812	590.38
414.035	596.38
414.258	585.38
414.482	588.38
414.705	613.38
414.928	588.38
415.151	595.38
415.374	592.38
415.597	612.38
415.821	576.38
416.044	603.38
416.267	577.38
416.49	576.38
416.713	582.38
416.936	596.38
417.159	558.38
417.382	588.38
417.605	569.38
417.828	591.38
418.051	590.38
418.274	578.38
418.497	580.38
418.72	596.38
418.943	572.38
419.166	605.38
419.389	647.38
419.611	644.38
419.834	613.38
420.057	598.38
420.28	606.38
420.503	611.38
420.726	579.38
420.948	583.38
421.171	585.38
421.394	568.38
421.617	609.38
421.839	588.38
422.062	587.38
422.285	564.38
422.507	609.38
422.73	586.38
422.953	578.38
423.175	611.38
423.398	585.38
423.621	598.38
423.843	604.38
424.066	638.38
424.288	608.38
424.511	600.38
424.733	582.38
424.956	565.38
425.178	576.38
425.401	591.38
425.623	575.38
425.846	559.38
426.068	578.38
426.291	544.38
426.513	562.38
426.735	556.38
426.958	556.38
427.18	548.38
427.402	554.38
427.625	546.38
427.847	529.38
428.069	540.38
428.292	540.38
428.514	542.38
428.736	552.38
428.958	535.38
429.181	548.38
429.403	536.38
429.625	534.38
429.847	529.38
430.069	541.38
430.292	559.38
430.514	528.38
430.736	551.38
430.958	528.38
431.18	518.38
431.402	537.38
431.624	532.38
431.846	534.38
432.068	529.38
432.29	522.38
432.512	538.38
432.734	536.38
432.956	533.38
433.178	546.38
433.4	513.38
433.622	557.38
433.844	562.38
434.066	548.38
434.287	564.38
434.509	557.38
434.731	577.38
434.953	579.38
435.175	598.38
435.397	596.38
435.618	576.38
435.84	568.38
436.062	554.38
436.284	538.38
436.505	550.38
436.727	552.38
436.949	526.38
437.17	537.38
437.392	548.38
437.614	528.38
437.835	513.38
438.057	536.38
438.278	526.38
438.5	520.38
438.721	532.38
438.943	533.38
439.165	534.38
439.386	538.38
439.608	569.38
439.829	537.38
440.05	554.38
440.272	556.38
440.493	559.38
440.715	566.38
440.936	557.38
441.158	567.38
441.379	565.38
441.6	595.38
441.822	585.38
442.043	582.38
442.264	566.38
442.486	569.38
442.707	579.38
442.928	608.38
443.149	608.38
443.371	579.38
443.592	628.38
443.813	591.38
444.034	596.38
444.255	600.38
444.476	619.38
444.698	640.38
444.919	683.38
445.14	728.38
445.361	681.38
445.582	646.38
445.803	574.38
446.024	599.38
446.245	566.38
446.466	572.38
446.687	569.38
446.908	551.38
447.129	567.38
447.35	559.38
447.571	548.38
447.792	510.38
448.013	541.38
448.234	534.38
448.455	517.38
448.675	510.38
448.896	516.38
449.117	501.38
449.338	523.38
449.559	540.38
449.779	484.38
450	503.38
450.221	474.38
450.442	485.38
450.662	503.38
450.883	494.38
451.104	533.38
451.324	515.38
451.545	505.38
451.766	535.38
451.986	512.38
452.207	493.38
452.428	482.38
452.648	504.38
452.869	485.38
453.089	501.38
453.31	521.38
453.53	488.38
453.751	488.38
453.971	489.38
454.192	502.38
454.412	472.38
454.633	511.38
454.853	488.38
455.073	477.38
455.294	492.38
455.514	491.38
455.734	485.38
455.955	490.38
456.175	483.38
456.395	478.38
456.616	481.38
456.836	486.38
457.056	465.38
457.276	465.38
457.497	494.38
457.717	467.38
457.937	487.38
458.157	507.38
458.377	481.38
458.598	501.38
458.818	498.38
459.038	520.38
459.258	521.38
459.478	563.38
459.698	520.38
459.918	570.38
460.138	597.38
460.358	599.38
460.578	626.38
460.798	628.38
461.018	650.38
461.238	616.38
461.458	629.38
461.678	624.38
461.898	632.38
462.118	633.38
462.338	639.38
462.558	652.38
462.777	677.38
462.997	714.38
463.217	759.38
463.437	755.38
463.657	730.38
463.876	713.38
464.096	668.38
464.316	678.38
464.536	684.38
464.755	662.38
464.975	651.38
465.195	634.38
465.414	618.38
465.634	590.38
465.854	573.38
466.073	569.38
466.293	549.38
466.512	545.38
466.732	562.38
466.951	529.38
467.171	542.38
467.391	522.38
467.61	548.38
467.829	521.38
468.049	526.38
468.268	542.38
468.488	526.38
468.707	504.38
468.927	516.38
469.146	530.38
469.365	515.38
469.585	517.38
469.804	523.38
470.023	567.38
470.243	556.38
470.462	541.38
470.681	538.38
470.901	568.38
471.12	549.38
471.339	534.38
471.558	548.38
471.777	529.38
471.997	516.38
472.216	520.38
472.435	519.38
472.654	501.38
472.873	486.38
473.092	516.38
473.311	523.38
473.53	496.38
473.749	509.38
473.968	508.38
474.187	506.38
474.406	520.38
474.625	522.38
474.844	522.38
475.063	510.38
475.282	503.38
475.501	508.38
475.72	524.38
475.939	540.38
476.158	522.38
476.377	533.38
476.596	521.38
476.814	572.38
477.033	539.38
477.252	550.38
477.471	538.38
477.69	572.38
477.908	584.38
478.127	599.38
478.346	582.38
478.564	615.38
478.783	615.38
479.002	605.38
479.22	615.38
479.439	628.38
479.658	625.38
479.876	614.38
480.095	597.38
480.313	629.38
480.532	654.38
480.751	641.38
480.969	652.38
481.188	625.38
481.406	592.38
481.624	583.38
481.843	557.38
482.061	593.38
482.28	607.38
482.498	580.38
482.717	561.38
482.935	616.38
483.153	600.38
483.372	598.38
483.59	575.38
483.808	570.38
484.027	578.38
484.245	569.38
484.463	575.38
484.681	615.38
484.9	602.38
485.118	601.38
485.336	610.38
485.554	613.38
485.772	601.38
485.99	599.38
486.209	616.38
486.427	599.38
486.645	598.38
486.863	608.38
487.081	600.38
487.299	598.38
487.517	622.38
487.735	613.38
487.953	607.38
488.171	596.38
488.389	594.38
488.607	598.38
488.825	596.38
489.043	593.38
489.261	609.38
489.479	582.38
489.696	582.38
489.914	598.38
490.132	599.38
490.35	600.38
490.568	628.38
490.786	590.38
491.003	622.38
491.221	604.38
491.439	635.38
491.657	625.38
491.874	630.38
492.092	626.38
492.31	642.38
492.527	640.38
492.745	653.38
492.963	634.38
493.18	636.38
493.398	628.38
493.615	628.38
493.833	622.38
494.05	640.38
494.268	656.38
494.485	653.38
494.703	616.38
494.92	654.38
495.138	658.38
495.355	654.38
495.573	678.38
495.79	653.38
496.008	672.38
496.225	627.38
496.442	672.38
496.66	685.38
496.877	707.38
497.094	673.38
497.312	702.38
497.529	721.38
497.746	727.38
497.963	737.38
498.181	741.38
498.398	791.38
498.615	869.38
498.832	849.38
499.049	904.38
499.267	942.38
499.484	1044.38
499.701	1115.38
499.918	1183.38
500.135	1305.38
500.352	1424.38
500.569	1464.38
500.786	1394.38
501.003	1368.38
501.22	1282.38
501.437	1166.38
501.654	1051.38
501.871	985.38
502.088	933.38
502.305	889.38
502.522	840.38
502.739	847.38
502.956	807.38
503.172	780.38
503.389	766.38
503.606	727.38
503.823	720.38
504.04	732.38
504.256	724.38
504.473	738.38
504.69	717.38
504.907	729.38
505.123	687.38
505.34	641.38
505.557	643.38
505.773	647.38
505.99	622.38
506.207	629.38
506.423	605.38
506.64	602.38
506.856	594.38
507.073	583.38
507.289	592.38
507.506	585.38
507.722	555.38
507.939	558.38
508.155	552.38
508.372	552.38
508.588	563.38
508.805	551.38
509.021	540.38
509.238	548.38
509.454	541.38
509.67	569.38
509.887	542.38
510.103	549.38
510.319	512.38
510.536	526.38
510.752	508.38
510.968	515.38
511.184	524.38
511.401	525.38
511.617	525.38
511.833	543.38
512.049	498.38
512.265	521.38
512.481	517.38
512.698	531.38
512.914	543.38
513.13	543.38
513.346	531.38
513.562	526.38
513.778	513.38
513.994	508.38
514.21	533.38
514.426	511.38
514.642	553.38
514.858	532.38
515.074	537.38
515.29	545.38
515.506	558.38
515.721	520.38
515.937	550.38
516.153	574.38
516.369	574.38
516.585	581.38
516.801	606.38
517.016	601.38
517.232	621.38
517.448	625.38
517.664	650.38
517.879	650.38
518.095	645.38
518.311	602.38
518.527	629.38
518.742	621.38
518.958	601.38
519.173	576.38
519.389	574.38
519.605	558.38
519.82	532.38
520.036	534.38
520.251	534.38
520.467	522.38
520.682	534.38
520.898	522.38
521.113	512.38
521.329	508.38
521.544	503.38
521.76	527.38
521.975	496.38
522.19	513.38
522.406	508.38
522.621	487.38
522.836	502.38
523.052	502.38
523.267	519.38
523.482	510.38
523.698	493.38
523.913	495.38
524.128	493.38
524.343	507.38
524.559	488.38
524.774	499.38
524.989	478.38
525.204	489.38
525.419	506.38
525.634	483.38
525.849	471.38
526.064	495.38
526.28	476.38
526.495	461.38
526.71	477.38
526.925	466.38
527.14	473.38
527.355	462.38
527.57	477.38
527.785	476.38
527.999	452.38
528.214	456.38
528.429	480.38
528.644	474.38
528.859	471.38
529.074	471.38
529.289	456.38
529.503	470.38
529.718	471.38
529.933	486.38
530.148	476.38
530.363	467.38
530.577	476.38
530.792	465.38
531.007	470.38
531.221	476.38
531.436	466.38
531.651	454.38
531.865	448.38
532.08	468.38
532.295	478.38
532.509	467.38
532.724	452.38
532.938	478.38
533.153	472.38
533.367	476.38
533.582	460.38
533.796	465.38
534.011	460.38
534.225	453.38
534.44	439.38
534.654	476.38
534.868	451.38
535.083	447.38
535.297	450.38
535.511	448.38
535.726	466.38
535.94	469.38
536.154	449.38
536.369	443.38
536.583	432.38
536.797	447.38
537.011	449.38
537.225	436.38
537.44	460.38
537.654	452.38
537.868	429.38
538.082	428.38
538.296	435.38
538.51	446.38
538.724	428.38
538.938	450.38
539.153	417.38
539.367	434.38
539.581	433.38
539.795	424.38
540.009	418.38
540.222	432.38
540.436	415.38
540.65	439.38
540.864	422.38
541.078	434.38
541.292	439.38
541.506	432.38
541.72	450.38
541.934	458.38
542.147	452.38
542.361	431.38
542.575	422.38
542.789	439.38
543.002	425.38
543.216	425.38
543.43	441.38
543.644	413.38
543.857	422.38
544.071	435.38
544.285	428.38
544.498	438.38
544.712	454.38
544.925	415.38
545.139	444.38
545.352	444.38
545.566	448.38
545.779	457.38
545.993	452.38
546.206	432.38
546.42	460.38
546.633	406.38
546.847	403.38
547.06	449.38
547.274	439.38
547.487	425.38
547.7	440.38
547.914	450.38
548.127	453.38
548.34	447.38
548.554	442.38
548.767	437.38
548.98	422.38
549.193	439.38
549.407	452.38
549.62	438.38
549.833	449.38
550.046	476.38
550.259	436.38
550.473	433.38
550.686	441.38
550.899	430.38
551.112	419.38
551.325	432.38
551.538	430.38
551.751	443.38
551.964	440.38
552.177	438.38
552.39	449.38
552.603	448.38
552.816	435.38
553.029	464.38
553.242	460.38
553.455	463.38
553.667	471.38
553.88	469.38
554.093	461.38
554.306	430.38
554.519	420.38
554.732	438.38
554.944	431.38
555.157	426.38
555.37	431.38
555.583	415.38
555.795	410.38
556.008	401.38
556.221	408.38
556.433	402.38
556.646	392.38
556.859	397.38
557.071	387.38
557.284	374.38
557.496	387.38
557.709	378.38
557.921	401.38
558.134	383.38
558.346	380.38
558.559	377.38
558.771	375.38
558.984	366.38
559.196	380.38
559.409	387.38
559.621	373.38
559.833	353.38
560.046	366.38
560.258	345.38
560.47	378.38
560.683	382.38
560.895	366.38
561.107	368.38
561.32	360.38
561.532	378.38
561.744	366.38
561.956	367.38
562.168	382.38
562.381	385.38
562.593	370.38
562.805	388.38
563.017	401.38
563.229	369.38
563.441	362.38
563.653	376.38
563.865	366.38
564.077	402.38
564.289	389.38
564.501	392.38
564.713	378.38
564.925	399.38
565.137	412.38
565.349	407.38
565.561	418.38
565.773	442.38
565.985	415.38
566.197	448.38
566.408	454.38
566.62	479.38
566.832	513.38
567.044	536.38
567.255	540.38
567.467	562.38
567.679	560.38
567.891	578.38
568.102	549.38
568.314	557.38
568.526	532.38
568.737	503.38
568.949	480.38
569.161	445.38
569.372	420.38
569.584	417.38
569.795	410.38
570.007	395.38
570.218	378.38
570.43	375.38
570.641	388.38
570.853	368.38
571.064	378.38
571.276	377.38
571.487	370.38
571.698	364.38
571.91	345.38
572.121	345.38
572.333	342.38
572.544	330.38
572.755	332.38
572.966	337.38
573.178	306.38
573.389	316.38
573.6	317.38
573.811	329.38
574.023	322.38
574.234	312.38
574.445	315.38
574.656	323.38
574.867	304.38
575.078	317.38
575.289	305.38
575.501	306.38
575.712	301.38
575.923	296.38
576.134	307.38
576.345	296.38
576.556	307.38
576.767	297.38
576.978	297.38
577.188	308.38
577.399	288.38
577.61	291.38
577.821	291.38
578.032	262.38
578.243	297.38
578.454	294.38
578.665	281.38
578.875	275.38
579.086	293.38
579.297	264.38
579.508	287.38
579.718	290.38
579.929	289.38
580.14	288.38
580.35	277.38
580.561	281.38
580.772	264.38
580.982	288.38
581.193	288.38
581.403	281.38
581.614	278.38
581.825	286.38
582.035	273.38
582.246	277.38
582.456	281.38
582.667	286.38
582.877	285.38
583.087	269.38
583.298	273.38
583.508	273.38
583.719	271.38
583.929	264.38
584.139	274.38
584.35	273.38
584.56	287.38
584.77	244.38
584.981	248.38
585.191	261.38
585.401	270.38
585.611	264.38
585.821	261.38
586.032	232.38
586.242	258.38
586.452	252.38
586.662	274.38
586.872	282.38
587.082	262.38
587.292	264.38
587.502	264.38
587.713	262.38
587.923	257.38
588.133	269.38
588.343	254.38
588.553	259.38
588.762	256.38
588.972	266.38
589.182	276.38
589.392	281.38
589.602	259.38
589.812	252.38
590.022	274.38
590.232	257.38
590.441	248.38
590.651	273.38
590.861	267.38
591.071	260.38
591.281	270.38
591.49	256.38
591.7	276.38
591.91	280.38
592.119	267.38
592.329	280.38
592.539	272.38
592.748	280.38
592.958	280.38
593.167	282.38
593.377	300.38
593.587	304.38
593.796	303.38
594.006	293.38
594.215	280.38
594.424	295.38
594.634	302.38
594.843	297.38
595.053	284.38
595.262	294.38
595.472	282.38
595.681	266.38
595.89	268.38
596.1	254.38
596.309	253.38
596.518	272.38
596.727	233.38
596.937	237.38
597.146	256.38
597.355	242.38
597.564	240.38
597.774	236.38
597.983	221.38
598.192	236.38
598.401	233.38
598.61	232.38
598.819	240.38
599.028	229.38
599.237	234.38
599.446	244.38
599.655	231.38
599.864	216.38
600.073	223.38
600.282	237.38
600.491	238.38
600.7	230.38
600.909	236.38
601.118	223.38
601.327	231.38
601.536	224.38
601.745	236.38
601.953	215.38
602.162	231.38
602.371	229.38
602.58	231.38
602.789	223.38
602.997	215.38
603.206	222.38
603.415	208.38
603.623	204.38
603.832	216.38
604.041	211.38
604.249	209.38
604.458	213.38
604.666	215.38
604.875	213.38
605.084	202.38
605.292	217.38
605.501	202.38
605.709	233.38
605.918	211.38
606.126	221.38
606.334	229.38
606.543	221.38
606.751	201.38
606.96	204.38
607.168	195.38
607.376	204.38
607.585	195.38
607.793	204.38
608.001	192.38
608.21	202.38
608.418	214.38
608.626	215.38
608.834	208.38
609.043	223.38
609.251	190.38
609.459	192.38
609.667	222.38
609.875	193.38
610.083	207.38
610.291	217.38
610.499	203.38
610.707	183.38
610.916	203.38
611.124	192.38
611.332	198.38
611.54	199.38
611.748	187.38
611.955	217.38
612.163	215.38
612.371	201.38
612.579	199.38
612.787	205.38
612.995	218.38
613.203	220.38
613.411	191.38
613.618	205.38
613.826	195.38
614.034	203.38
614.242	199.38
614.449	199.38
614.657	201.38
614.865	210.38
615.072	196.38
615.28	187.38
615.488	178.38
615.695	197.38
615.903	202.38
616.111	207.38
616.318	198.38
616.526	198.38
616.733	200.38
616.941	194.38
617.148	190.38
617.356	197.38
617.563	181.38
617.771	185.38
617.978	188.38
618.185	197.38
618.393	180.38
618.6	180.38
618.807	184.38
619.015	186.38
619.222	194.38
619.429	198.38
619.637	183.38
619.844	191.38
620.051	193.38
620.258	181.38
620.466	191.38
620.673	184.38
620.88	177.38
621.087	169.38
621.294	203.38
621.501	190.38
621.708	180.38
621.915	205.38
622.122	182.38
622.329	199.38
622.536	181.38
622.743	188.38
622.95	180.38
623.157	174.38
623.364	216.38
623.571	184.38
623.778	188.38
623.985	193.38
624.192	197.38
624.399	180.38
624.606	187.38
624.812	193.38
625.019	178.38
625.226	179.38
625.433	181.38
625.639	169.38
625.846	162.38
626.053	181.38
626.259	172.38
626.466	164.38
626.673	155.38
626.879	168.38
627.086	166.38
627.293	168.38
627.499	176.38
627.706	184.38
627.912	176.38
628.119	174.38
628.325	160.38
628.532	166.38
628.738	171.38
628.945	176.38
629.151	161.38
629.357	168.38
629.564	185.38
629.77	180.38
629.976	180.38
630.183	157.38
630.389	162.38
630.595	178.38
630.802	172.38
631.008	179.38
631.214	173.38
631.42	180.38
631.627	182.38
631.833	152.38
632.039	162.38
632.245	173.38
632.451	157.38
632.657	169.38
632.863	164.38
633.069	164.38
633.275	152.38
633.481	146.38
633.688	161.38
633.893	169.38
634.099	160.38
634.305	142.38
634.511	148.38
634.717	152.38
634.923	150.38
635.129	143.38
635.335	160.38
635.541	142.38
635.747	159.38
635.952	159.38
636.158	158.38
636.364	173.38
636.57	144.38
636.775	172.38
636.981	153.38
637.187	164.38
637.392	156.38
637.598	167.38
637.804	159.38
638.009	158.38
638.215	169.38
638.421	143.38
638.626	137.38
638.832	139.38
639.037	160.38
639.243	156.38
639.448	167.38
639.654	161.38
639.859	148.38
640.065	148.38
640.27	152.38
640.475	131.38
640.681	144.38
640.886	149.38
641.091	156.38
641.297	153.38
641.502	164.38
641.707	159.38
641.913	151.38
642.118	141.38
642.323	165.38
642.528	152.38
642.733	158.38
642.939	136.38
643.144	141.38
643.349	146.38
643.554	157.38
643.759	143.38
643.964	133.38
644.169	139.38
644.374	158.38
644.579	159.38
644.784	136.38
644.989	144.38
645.194	148.38
645.399	151.38
645.604	139.38
645.809	140.38
646.014	147.38
646.219	146.38
646.423	148.38
646.628	134.38
646.833	141.38
647.038	164.38
647.243	163.38
647.447	143.38
647.652	154.38
647.857	166.38
648.062	153.38
648.266	159.38
648.471	154.38
648.676	167.38
648.88	134.38
649.085	144.38
649.289	138.38
649.494	143.38
649.698	146.38
649.903	143.38
650.107	141.38
650.312	158.38
650.516	136.38
650.721	151.38
650.925	147.38
651.13	150.38
651.334	134.38
651.539	144.38
651.743	128.38
651.947	122.38
652.152	155.38
652.356	130.38
652.56	128.38
652.764	117.38
652.969	150.38
653.173	142.38
653.377	133.38
653.581	152.38
653.785	133.38
653.99	136.38
654.194	124.38
654.398	125.38
654.602	134.38
654.806	142.38
655.01	120.38
655.214	121.38
655.418	133.38
655.622	144.38
655.826	126.38
656.03	114.38
656.234	128.38
656.438	122.38
656.642	131.38
656.846	131.38
657.049	119.38
657.253	113.38
657.457	106.38
657.661	117.38
657.865	102.38
658.068	114.38
658.272	116.38
658.476	95.38
658.68	104.38
658.883	110.38
659.087	94.38
659.291	109.38
659.494	105.38
659.698	98.38
659.901	86.38
660.105	94.38
660.309	89.38
660.512	76.38
660.716	89.38
660.919	86.38
661.123	95.38
661.326	94.38
661.53	102.38
661.733	90.38
661.936	89.38
662.14	79.38
662.343	78.38
662.546	95.38
662.75	74.38
662.953	78.38
663.156	77.38
663.36	87.38
663.563	85.38
663.766	83.38
663.969	77.38
664.173	71.38
664.376	82.38
664.579	66.38
664.782	97.38
664.985	78.38
665.188	85.38
665.391	75.38
665.594	72.38
665.797	84.38
666	80.38
666.203	78.38
666.406	61.38
666.609	73.38
666.812	83.38
667.015	77.38
667.218	98.38
667.421	73.38
667.624	81.38
667.827	69.38
668.03	80.38
668.232	81.38
668.435	71.38
668.638	83.38
668.841	72.38
669.043	71.38
669.246	88.38
669.449	84.38
669.651	87.38
669.854	74.38
670.057	72.38
670.259	84.38
670.462	77.38
670.665	81.38
670.867	86.38
671.07	79.38
671.272	85.38
671.475	78.38
671.677	71.38
671.88	82.38
672.082	82.38
672.284	71.38
672.487	61.38
672.689	68.38
672.892	77.38
