Data from Fe(NO3)3@0.05M.TitratingCurve.Agarose3%dH2O.NegLispCup.LampEnergy10.LIBS07252019_HRD10591_16-46-16-333.txt Node
Date: Thu Jul 25 16:46:16 EDT 2019
User: cochatt
Spectrometer: HR+D1059
Trigger mode: 1
Integration Time (sec): 1.000000E-1
Scans to average: 1
Electric dark correction enabled: true
Nonlinearity correction enabled: false
Boxcar width: 0
XAxis mode: Wavelengths
Number of Pixels in Spectrum: 2048
>>>>>Begin Spectral Data<<<<<
223.165	-14.25
223.4	-14.25
223.635	-14.25
223.869	-8.25
224.104	-25.25
224.338	-26.25
224.573	-20.25
224.808	-16.25
225.042	-0.25
225.277	-1.25
225.511	-13.25
225.746	-0.25
225.98	8.75
226.215	12.75
226.449	14.75
226.683	13.75
226.918	37.75
227.152	37.75
227.387	22.75
227.621	28.75
227.856	51.75
228.09	55.75
228.324	40.75
228.559	54.75
228.793	66.75
229.027	105.75
229.262	126.75
229.496	112.75
229.73	128.75
229.964	114.75
230.199	122.75
230.433	129.75
230.667	136.75
230.901	133.75
231.136	158.75
231.37	145.75
231.604	142.75
231.838	148.75
232.072	151.75
232.306	137.75
232.541	146.75
232.775	155.75
233.009	168.75
233.243	159.75
233.477	167.75
233.711	179.75
233.945	165.75
234.179	150.75
234.413	166.75
234.647	170.75
234.881	175.75
235.115	164.75
235.349	185.75
235.583	168.75
235.817	175.75
236.051	166.75
236.285	166.75
236.519	166.75
236.753	183.75
236.987	171.75
237.221	186.75
237.455	181.75
237.689	169.75
237.922	172.75
238.156	188.75
238.39	193.75
238.624	229.75
238.858	226.75
239.091	200.75
239.325	207.75
239.559	206.75
239.793	227.75
240.027	228.75
240.26	221.75
240.494	218.75
240.728	229.75
240.961	214.75
241.195	224.75
241.429	225.75
241.662	224.75
241.896	236.75
242.13	214.75
242.363	201.75
242.597	219.75
242.83	232.75
243.064	230.75
243.298	224.75
243.531	226.75
243.765	255.75
243.998	229.75
244.232	237.75
244.465	239.75
244.699	253.75
244.932	236.75
245.166	225.75
245.399	244.75
245.633	238.75
245.866	221.75
246.099	260.75
246.333	236.75
246.566	263.75
246.8	263.75
247.033	248.75
247.266	248.75
247.5	248.75
247.733	266.75
247.966	262.75
248.2	255.75
248.433	288.75
248.666	266.75
248.899	299.75
249.133	273.75
249.366	294.75
249.599	285.75
249.832	287.75
250.066	298.75
250.299	285.75
250.532	279.75
250.765	279.75
250.998	271.75
251.231	298.75
251.465	298.75
251.698	308.75
251.931	293.75
252.164	298.75
252.397	299.75
252.63	329.75
252.863	330.75
253.096	325.75
253.329	295.75
253.562	325.75
253.795	322.75
254.028	353.75
254.261	347.75
254.494	330.75
254.727	325.75
254.96	343.75
255.193	331.75
255.426	335.75
255.659	317.75
255.892	326.75
256.124	305.75
256.357	318.75
256.59	357.75
256.823	361.75
257.056	323.75
257.289	336.75
257.521	352.75
257.754	339.75
257.987	348.75
258.22	346.75
258.452	336.75
258.685	357.75
258.918	379.75
259.151	362.75
259.383	366.75
259.616	380.75
259.849	370.75
260.081	427.75
260.314	457.75
260.547	399.75
260.779	378.75
261.012	400.75
261.244	393.75
261.477	426.75
261.71	410.75
261.942	399.75
262.175	386.75
262.407	410.75
262.64	388.75
262.872	421.75
263.105	429.75
263.337	422.75
263.57	423.75
263.802	387.75
264.035	384.75
264.267	376.75
264.499	370.75
264.732	356.75
264.964	388.75
265.197	394.75
265.429	374.75
265.661	388.75
265.894	379.75
266.126	393.75
266.358	396.75
266.591	396.75
266.823	416.75
267.055	411.75
267.287	402.75
267.52	392.75
267.752	389.75
267.984	399.75
268.216	430.75
268.448	434.75
268.681	406.75
268.913	425.75
269.145	429.75
269.377	415.75
269.609	415.75
269.841	421.75
270.073	421.75
270.306	387.75
270.538	433.75
270.77	430.75
271.002	436.75
271.234	429.75
271.466	446.75
271.698	438.75
271.93	460.75
272.162	454.75
272.394	436.75
272.626	448.75
272.858	469.75
273.09	434.75
273.322	464.75
273.553	464.75
273.785	477.75
274.017	534.75
274.249	539.75
274.481	545.75
274.713	536.75
274.945	582.75
275.176	603.75
275.408	568.75
275.64	549.75
275.872	536.75
276.104	505.75
276.335	480.75
276.567	492.75
276.799	463.75
277.031	502.75
277.262	510.75
277.494	487.75
277.726	473.75
277.957	486.75
278.189	482.75
278.421	491.75
278.652	494.75
278.884	501.75
279.115	493.75
279.347	502.75
279.579	496.75
279.81	493.75
280.042	490.75
280.273	493.75
280.505	494.75
280.736	518.75
280.968	518.75
281.199	488.75
281.431	496.75
281.662	517.75
281.894	516.75
282.125	512.75
282.356	520.75
282.588	503.75
282.819	492.75
283.051	518.75
283.282	518.75
283.513	547.75
283.745	518.75
283.976	538.75
284.207	527.75
284.439	551.75
284.67	559.75
284.901	528.75
285.132	548.75
285.364	544.75
285.595	536.75
285.826	534.75
286.057	529.75
286.288	547.75
286.52	557.75
286.751	549.75
286.982	540.75
287.213	557.75
287.444	537.75
287.675	560.75
287.906	556.75
288.138	548.75
288.369	558.75
288.6	542.75
288.831	563.75
289.062	560.75
289.293	562.75
289.524	550.75
289.755	545.75
289.986	534.75
290.217	558.75
290.448	558.75
290.679	571.75
290.91	553.75
291.141	552.75
291.371	596.75
291.602	560.75
291.833	578.75
292.064	569.75
292.295	579.75
292.526	588.75
292.757	580.75
292.987	571.75
293.218	571.75
293.449	591.75
293.68	586.75
293.91	562.75
294.141	552.75
294.372	575.75
294.603	592.75
294.833	581.75
295.064	604.75
295.295	591.75
295.525	575.75
295.756	580.75
295.987	566.75
296.217	591.75
296.448	572.75
296.679	589.75
296.909	602.75
297.14	604.75
297.37	618.75
297.601	599.75
297.831	621.75
298.062	596.75
298.292	606.75
298.523	605.75
298.753	607.75
298.984	615.75
299.214	629.75
299.445	620.75
299.675	617.75
299.905	616.75
300.136	619.75
300.366	605.75
300.597	623.75
300.827	627.75
301.057	642.75
301.288	621.75
301.518	652.75
301.748	634.75
301.979	631.75
302.209	648.75
302.439	649.75
302.669	661.75
302.9	666.75
303.13	664.75
303.36	635.75
303.59	658.75
303.82	660.75
304.051	652.75
304.281	626.75
304.511	643.75
304.741	631.75
304.971	629.75
305.201	664.75
305.431	644.75
305.661	645.75
305.891	661.75
306.121	647.75
306.352	659.75
306.582	668.75
306.812	638.75
307.042	644.75
307.272	635.75
307.502	678.75
307.731	639.75
307.961	656.75
308.191	660.75
308.421	644.75
308.651	631.75
308.881	660.75
309.111	662.75
309.341	662.75
309.571	646.75
309.8	653.75
310.03	660.75
310.26	648.75
310.49	664.75
310.72	660.75
310.949	658.75
311.179	676.75
311.409	674.75
311.639	683.75
311.868	692.75
312.098	674.75
312.328	698.75
312.557	709.75
312.787	686.75
313.017	707.75
313.246	683.75
313.476	696.75
313.706	702.75
313.935	706.75
314.165	707.75
314.394	698.75
314.624	705.75
314.853	684.75
315.083	703.75
315.312	709.75
315.542	694.75
315.771	695.75
316.001	708.75
316.23	682.75
316.46	694.75
316.689	741.75
316.919	727.75
317.148	713.75
317.377	704.75
317.607	708.75
317.836	710.75
318.065	726.75
318.295	733.75
318.524	710.75
318.753	724.75
318.983	732.75
319.212	706.75
319.441	708.75
319.67	742.75
319.9	736.75
320.129	731.75
320.358	718.75
320.587	732.75
320.816	709.75
321.046	743.75
321.275	733.75
321.504	743.75
321.733	760.75
321.962	742.75
322.191	746.75
322.42	720.75
322.649	728.75
322.878	736.75
323.108	743.75
323.337	754.75
323.566	732.75
323.795	743.75
324.024	727.75
324.253	747.75
324.482	746.75
324.71	750.75
324.939	736.75
325.168	732.75
325.397	780.75
325.626	749.75
325.855	759.75
326.084	785.75
326.313	786.75
326.542	764.75
326.77	818.75
326.999	799.75
327.228	761.75
327.457	764.75
327.686	768.75
327.914	762.75
328.143	771.75
328.372	772.75
328.6	776.75
328.829	790.75
329.058	799.75
329.287	779.75
329.515	775.75
329.744	793.75
329.972	790.75
330.201	790.75
330.43	787.75
330.658	814.75
330.887	811.75
331.115	809.75
331.344	803.75
331.572	815.75
331.801	831.75
332.03	815.75
332.258	818.75
332.486	840.75
332.715	840.75
332.943	823.75
333.172	866.75
333.4	855.75
333.629	856.75
333.857	878.75
334.085	894.75
334.314	866.75
334.542	878.75
334.771	904.75
334.999	888.75
335.227	890.75
335.455	911.75
335.684	898.75
335.912	906.75
336.14	887.75
336.369	920.75
336.597	879.75
336.825	892.75
337.053	876.75
337.281	893.75
337.51	884.75
337.738	889.75
337.966	872.75
338.194	877.75
338.422	875.75
338.65	851.75
338.878	871.75
339.106	871.75
339.334	846.75
339.562	843.75
339.79	858.75
340.018	871.75
340.246	830.75
340.474	854.75
340.702	829.75
340.93	826.75
341.158	836.75
341.386	825.75
341.614	839.75
341.842	822.75
342.07	835.75
342.298	842.75
342.526	856.75
342.754	840.75
342.981	824.75
343.209	857.75
343.437	860.75
343.665	868.75
343.893	886.75
344.12	908.75
344.348	910.75
344.576	927.75
344.804	891.75
345.031	860.75
345.259	854.75
345.487	862.75
345.714	836.75
345.942	832.75
346.17	834.75
346.397	814.75
346.625	828.75
346.853	784.75
347.08	788.75
347.308	811.75
347.535	828.75
347.763	824.75
347.99	802.75
348.218	811.75
348.445	783.75
348.673	802.75
348.9	802.75
349.128	816.75
349.355	796.75
349.583	796.75
349.81	796.75
350.037	793.75
350.265	795.75
350.492	803.75
350.72	778.75
350.947	792.75
351.174	774.75
351.402	773.75
351.629	792.75
351.856	781.75
352.083	768.75
352.311	790.75
352.538	789.75
352.765	802.75
352.992	790.75
353.22	787.75
353.447	782.75
353.674	790.75
353.901	805.75
354.128	769.75
354.355	782.75
354.583	785.75
354.81	768.75
355.037	780.75
355.264	797.75
355.491	800.75
355.718	791.75
355.945	794.75
356.172	810.75
356.399	806.75
356.626	810.75
356.853	831.75
357.08	815.75
357.307	822.75
357.534	788.75
357.761	807.75
357.988	809.75
358.215	837.75
358.441	832.75
358.668	796.75
358.895	774.75
359.122	800.75
359.349	787.75
359.576	765.75
359.802	797.75
360.029	807.75
360.256	823.75
360.483	822.75
360.709	799.75
360.936	834.75
361.163	827.75
361.39	825.75
361.616	800.75
361.843	792.75
362.07	820.75
362.296	852.75
362.523	808.75
362.749	827.75
362.976	820.75
363.203	821.75
363.429	844.75
363.656	831.75
363.882	803.75
364.109	826.75
364.335	807.75
364.562	826.75
364.788	834.75
365.015	819.75
365.241	820.75
365.468	820.75
365.694	812.75
365.92	833.75
366.147	830.75
366.373	852.75
366.599	805.75
366.826	812.75
367.052	815.75
367.278	827.75
367.505	818.75
367.731	844.75
367.957	832.75
368.184	851.75
368.41	843.75
368.636	862.75
368.862	867.75
369.089	827.75
369.315	861.75
369.541	862.75
369.767	848.75
369.993	856.75
370.219	869.75
370.445	848.75
370.672	860.75
370.898	893.75
371.124	884.75
371.35	889.75
371.576	883.75
371.802	892.75
372.028	907.75
372.254	906.75
372.48	898.75
372.706	905.75
372.932	888.75
373.158	900.75
373.384	903.75
373.61	947.75
373.835	903.75
374.061	891.75
374.287	867.75
374.513	917.75
374.739	932.75
374.965	936.75
375.191	957.75
375.416	940.75
375.642	923.75
375.868	944.75
376.094	929.75
376.319	891.75
376.545	918.75
376.771	911.75
376.997	877.75
377.222	876.75
377.448	891.75
377.674	890.75
377.899	872.75
378.125	912.75
378.35	871.75
378.576	892.75
378.802	862.75
379.027	863.75
379.253	885.75
379.478	876.75
379.704	898.75
379.929	910.75
380.155	900.75
380.38	885.75
380.606	904.75
380.831	878.75
381.057	890.75
381.282	894.75
381.507	913.75
381.733	895.75
381.958	941.75
382.184	953.75
382.409	960.75
382.634	968.75
382.86	942.75
383.085	951.75
383.31	930.75
383.535	952.75
383.761	941.75
383.986	956.75
384.211	982.75
384.436	986.75
384.662	975.75
384.887	989.75
385.112	978.75
385.337	983.75
385.562	981.75
385.787	983.75
386.013	999.75
386.238	1034.75
386.463	1028.75
386.688	1012.75
386.913	1025.75
387.138	1015.75
387.363	1014.75
387.588	1031.75
387.813	1030.75
388.038	1021.75
388.263	1039.75
388.488	1070.75
388.713	1053.75
388.938	1041.75
389.163	1034.75
389.387	1015.75
389.612	1016.75
389.837	1070.75
390.062	1022.75
390.287	1022.75
390.512	1055.75
390.736	1054.75
390.961	1061.75
391.186	1053.75
391.411	1084.75
391.636	1080.75
391.86	1092.75
392.085	1099.75
392.31	1123.75
392.534	1093.75
392.759	1113.75
392.984	1084.75
393.208	1102.75
393.433	1101.75
393.658	1098.75
393.882	1078.75
394.107	1098.75
394.331	1072.75
394.556	1112.75
394.78	1071.75
395.005	1079.75
395.229	1116.75
395.454	1118.75
395.678	1120.75
395.903	1121.75
396.127	1158.75
396.352	1155.75
396.576	1094.75
396.801	1130.75
397.025	1144.75
397.249	1120.75
397.474	1147.75
397.698	1145.75
397.922	1173.75
398.147	1187.75
398.371	1159.75
398.595	1220.75
398.82	1213.75
399.044	1248.75
399.268	1315.75
399.492	1359.75
399.717	1365.75
399.941	1387.75
400.165	1396.75
400.389	1366.75
400.613	1332.75
400.837	1285.75
401.062	1272.75
401.286	1243.75
401.51	1250.75
401.734	1241.75
401.958	1252.75
402.182	1255.75
402.406	1221.75
402.63	1205.75
402.854	1244.75
403.078	1237.75
403.302	1257.75
403.526	1257.75
403.75	1255.75
403.974	1260.75
404.198	1233.75
404.422	1282.75
404.645	1273.75
404.869	1275.75
405.093	1281.75
405.317	1276.75
405.541	1268.75
405.765	1307.75
405.988	1318.75
406.212	1308.75
406.436	1308.75
406.66	1349.75
406.883	1328.75
407.107	1368.75
407.331	1387.75
407.555	1412.75
407.778	1422.75
408.002	1401.75
408.226	1374.75
408.449	1430.75
408.673	1373.75
408.896	1334.75
409.12	1335.75
409.344	1324.75
409.567	1337.75
409.791	1307.75
410.014	1309.75
410.238	1304.75
410.461	1311.75
410.685	1306.75
410.908	1290.75
411.132	1307.75
411.355	1264.75
411.578	1279.75
411.802	1303.75
412.025	1252.75
412.249	1273.75
412.472	1284.75
412.695	1302.75
412.919	1232.75
413.142	1282.75
413.365	1250.75
413.589	1248.75
413.812	1271.75
414.035	1264.75
414.258	1222.75
414.482	1238.75
414.705	1252.75
414.928	1253.75
415.151	1243.75
415.374	1243.75
415.597	1222.75
415.821	1197.75
416.044	1205.75
416.267	1203.75
416.49	1198.75
416.713	1247.75
416.936	1197.75
417.159	1165.75
417.382	1169.75
417.605	1198.75
417.828	1193.75
418.051	1182.75
418.274	1189.75
418.497	1175.75
418.72	1184.75
418.943	1190.75
419.166	1221.75
419.389	1334.75
419.611	1276.75
419.834	1282.75
420.057	1260.75
420.28	1226.75
420.503	1155.75
420.726	1188.75
420.948	1180.75
421.171	1165.75
421.394	1203.75
421.617	1170.75
421.839	1156.75
422.062	1163.75
422.285	1164.75
422.507	1203.75
422.73	1175.75
422.953	1165.75
423.175	1182.75
423.398	1176.75
423.621	1182.75
423.843	1207.75
424.066	1192.75
424.288	1187.75
424.511	1187.75
424.733	1196.75
424.956	1162.75
425.178	1162.75
425.401	1177.75
425.623	1169.75
425.846	1168.75
426.068	1204.75
426.291	1152.75
426.513	1184.75
426.735	1148.75
426.958	1173.75
427.18	1139.75
427.402	1192.75
427.625	1155.75
427.847	1121.75
428.069	1150.75
428.292	1121.75
428.514	1148.75
428.736	1132.75
428.958	1174.75
429.181	1112.75
429.403	1147.75
429.625	1122.75
429.847	1150.75
430.069	1125.75
430.292	1149.75
430.514	1110.75
430.736	1138.75
430.958	1131.75
431.18	1145.75
431.402	1135.75
431.624	1115.75
431.846	1112.75
432.068	1095.75
432.29	1172.75
432.512	1129.75
432.734	1148.75
432.956	1136.75
433.178	1163.75
433.4	1157.75
433.622	1158.75
433.844	1157.75
434.066	1167.75
434.287	1188.75
434.509	1175.75
434.731	1190.75
434.953	1160.75
435.175	1183.75
435.397	1187.75
435.618	1170.75
435.84	1168.75
436.062	1170.75
436.284	1151.75
436.505	1139.75
436.727	1114.75
436.949	1110.75
437.17	1151.75
437.392	1143.75
437.614	1117.75
437.835	1086.75
438.057	1091.75
438.278	1106.75
438.5	1148.75
438.721	1124.75
438.943	1130.75
439.165	1064.75
439.386	1114.75
439.608	1132.75
439.829	1146.75
440.05	1108.75
440.272	1145.75
440.493	1142.75
440.715	1149.75
440.936	1141.75
441.158	1189.75
441.379	1189.75
441.6	1165.75
441.822	1179.75
442.043	1182.75
442.264	1161.75
442.486	1156.75
442.707	1171.75
442.928	1164.75
443.149	1189.75
443.371	1169.75
443.592	1172.75
443.813	1174.75
444.034	1179.75
444.255	1204.75
444.476	1194.75
444.698	1259.75
444.919	1228.75
445.14	1365.75
445.361	1266.75
445.582	1177.75
445.803	1154.75
446.024	1159.75
446.245	1172.75
446.466	1174.75
446.687	1149.75
446.908	1142.75
447.129	1076.75
447.35	1101.75
447.571	1115.75
447.792	1117.75
448.013	1086.75
448.234	1088.75
448.455	1069.75
448.675	1047.75
448.896	1026.75
449.117	1060.75
449.338	1066.75
449.559	1050.75
449.779	1016.75
450	1022.75
450.221	1058.75
450.442	1052.75
450.662	1039.75
450.883	1044.75
451.104	1028.75
451.324	1046.75
451.545	1037.75
451.766	1038.75
451.986	1016.75
452.207	1015.75
452.428	1042.75
452.648	1038.75
452.869	992.75
453.089	1019.75
453.31	988.75
453.53	981.75
453.751	986.75
453.971	990.75
454.192	1006.75
454.412	963.75
454.633	990.75
454.853	1002.75
455.073	982.75
455.294	983.75
455.514	993.75
455.734	1003.75
455.955	995.75
456.175	980.75
456.395	982.75
456.616	980.75
456.836	992.75
457.056	1034.75
457.276	1006.75
457.497	1026.75
457.717	998.75
457.937	1002.75
458.157	1021.75
458.377	1018.75
458.598	1046.75
458.818	1043.75
459.038	1044.75
459.258	1091.75
459.478	1103.75
459.698	1117.75
459.918	1143.75
460.138	1154.75
460.358	1146.75
460.578	1166.75
460.798	1192.75
461.018	1174.75
461.238	1185.75
461.458	1197.75
461.678	1244.75
461.898	1223.75
462.118	1208.75
462.338	1247.75
462.558	1279.75
462.777	1295.75
462.997	1309.75
463.217	1334.75
463.437	1379.75
463.657	1340.75
463.876	1334.75
464.096	1319.75
464.316	1278.75
464.536	1305.75
464.755	1321.75
464.975	1245.75
465.195	1243.75
465.414	1235.75
465.634	1195.75
465.854	1152.75
466.073	1182.75
466.293	1151.75
466.512	1118.75
466.732	1092.75
466.951	1140.75
467.171	1128.75
467.391	1096.75
467.61	1095.75
467.829	1094.75
468.049	1123.75
468.268	1074.75
468.488	1097.75
468.707	1091.75
468.927	1096.75
469.146	1132.75
469.365	1101.75
469.585	1087.75
469.804	1093.75
470.023	1102.75
470.243	1094.75
470.462	1101.75
470.681	1109.75
470.901	1111.75
471.12	1094.75
471.339	1112.75
471.558	1112.75
471.777	1133.75
471.997	1112.75
472.216	1111.75
472.435	1105.75
472.654	1071.75
472.873	1107.75
473.092	1110.75
473.311	1105.75
473.53	1108.75
473.749	1100.75
473.968	1134.75
474.187	1082.75
474.406	1135.75
474.625	1117.75
474.844	1093.75
475.063	1126.75
475.282	1143.75
475.501	1135.75
475.72	1143.75
475.939	1156.75
476.158	1177.75
476.377	1198.75
476.596	1208.75
476.814	1232.75
477.033	1203.75
477.252	1179.75
477.471	1213.75
477.69	1164.75
477.908	1228.75
478.127	1246.75
478.346	1251.75
478.564	1248.75
478.783	1257.75
479.002	1270.75
479.22	1341.75
479.439	1360.75
479.658	1303.75
479.876	1342.75
480.095	1302.75
480.313	1368.75
480.532	1349.75
480.751	1322.75
480.969	1359.75
481.188	1338.75
481.406	1352.75
481.624	1334.75
481.843	1312.75
482.061	1316.75
482.28	1310.75
482.498	1324.75
482.717	1336.75
482.935	1335.75
483.153	1342.75
483.372	1319.75
483.59	1324.75
483.808	1324.75
484.027	1297.75
484.245	1375.75
484.463	1354.75
484.681	1338.75
484.9	1363.75
485.118	1354.75
485.336	1371.75
485.554	1389.75
485.772	1371.75
485.99	1352.75
486.209	1360.75
486.427	1352.75
486.645	1333.75
486.863	1348.75
487.081	1376.75
487.299	1370.75
487.517	1351.75
487.735	1383.75
487.953	1373.75
488.171	1379.75
488.389	1380.75
488.607	1362.75
488.825	1383.75
489.043	1356.75
489.261	1351.75
489.479	1356.75
489.696	1418.75
489.914	1360.75
490.132	1380.75
490.35	1379.75
490.568	1360.75
490.786	1362.75
491.003	1364.75
491.221	1389.75
491.439	1398.75
491.657	1400.75
491.874	1374.75
492.092	1359.75
492.31	1394.75
492.527	1374.75
492.745	1400.75
492.963	1394.75
493.18	1389.75
493.398	1410.75
493.615	1381.75
493.833	1396.75
494.05	1384.75
494.268	1399.75
494.485	1394.75
494.703	1434.75
494.92	1412.75
495.138	1446.75
495.355	1435.75
495.573	1410.75
495.79	1434.75
496.008	1454.75
496.225	1467.75
496.442	1453.75
496.66	1474.75
496.877	1474.75
497.094	1521.75
497.312	1544.75
497.529	1577.75
497.746	1565.75
497.963	1600.75
498.181	1654.75
498.398	1683.75
498.615	1712.75
498.832	1754.75
499.049	1843.75
499.267	1887.75
499.484	1964.75
499.701	2004.75
499.918	2106.75
500.135	2210.75
500.352	2323.75
500.569	2278.75
500.786	2259.75
501.003	2257.75
501.22	2167.75
501.437	2092.75
501.654	2047.75
501.871	1959.75
502.088	1899.75
502.305	1840.75
502.522	1729.75
502.739	1702.75
502.956	1631.75
503.172	1640.75
503.389	1589.75
503.606	1552.75
503.823	1555.75
504.04	1518.75
504.256	1498.75
504.473	1534.75
504.69	1503.75
504.907	1466.75
505.123	1412.75
505.34	1428.75
505.557	1382.75
505.773	1342.75
505.99	1354.75
506.207	1343.75
506.423	1272.75
506.64	1296.75
506.856	1266.75
507.073	1261.75
507.289	1231.75
507.506	1230.75
507.722	1216.75
507.939	1247.75
508.155	1223.75
508.372	1210.75
508.588	1183.75
508.805	1130.75
509.021	1166.75
509.238	1176.75
509.454	1132.75
509.67	1154.75
509.887	1166.75
510.103	1167.75
510.319	1139.75
510.536	1128.75
510.752	1107.75
510.968	1111.75
511.184	1127.75
511.401	1108.75
511.617	1100.75
511.833	1112.75
512.049	1119.75
512.265	1123.75
512.481	1121.75
512.698	1113.75
512.914	1117.75
513.13	1107.75
513.346	1125.75
513.562	1094.75
513.778	1118.75
513.994	1084.75
514.21	1090.75
514.426	1116.75
514.642	1104.75
514.858	1103.75
515.074	1104.75
515.29	1116.75
515.506	1121.75
515.721	1154.75
515.937	1147.75
516.153	1184.75
516.369	1164.75
516.585	1146.75
516.801	1187.75
517.016	1217.75
517.232	1244.75
517.448	1260.75
517.664	1251.75
517.879	1227.75
518.095	1213.75
518.311	1254.75
518.527	1220.75
518.742	1229.75
518.958	1192.75
519.173	1176.75
519.389	1160.75
519.605	1133.75
519.82	1154.75
520.036	1178.75
520.251	1188.75
520.467	1113.75
520.682	1106.75
520.898	1087.75
521.113	1057.75
521.329	1064.75
521.544	1095.75
521.76	1084.75
521.975	1062.75
522.19	1054.75
522.406	1028.75
522.621	1088.75
522.836	1077.75
523.052	1042.75
523.267	1017.75
523.482	1060.75
523.698	1024.75
523.913	1055.75
524.128	1031.75
524.343	1019.75
524.559	1061.75
524.774	1011.75
524.989	1023.75
525.204	982.75
525.419	1002.75
525.634	1003.75
525.849	1020.75
526.064	985.75
526.28	1022.75
526.495	1007.75
526.71	997.75
526.925	958.75
527.14	984.75
527.355	981.75
527.57	972.75
527.785	967.75
527.999	973.75
528.214	965.75
528.429	955.75
528.644	985.75
528.859	969.75
529.074	948.75
529.289	957.75
529.503	983.75
529.718	964.75
529.933	957.75
530.148	943.75
530.363	948.75
530.577	966.75
530.792	932.75
531.007	942.75
531.221	954.75
531.436	950.75
531.651	918.75
531.865	893.75
532.08	925.75
532.295	948.75
532.509	931.75
532.724	941.75
532.938	933.75
533.153	953.75
533.367	930.75
533.582	919.75
533.796	937.75
534.011	940.75
534.225	947.75
534.44	926.75
534.654	930.75
534.868	904.75
535.083	930.75
535.297	926.75
535.511	899.75
535.726	920.75
535.94	907.75
536.154	889.75
536.369	898.75
536.583	895.75
536.797	894.75
537.011	858.75
537.225	918.75
537.44	858.75
537.654	882.75
537.868	856.75
538.082	854.75
538.296	895.75
538.51	891.75
538.724	906.75
538.938	860.75
539.153	862.75
539.367	891.75
539.581	858.75
539.795	879.75
540.009	861.75
540.222	841.75
540.436	878.75
540.65	867.75
540.864	841.75
541.078	847.75
541.292	858.75
541.506	864.75
541.72	872.75
541.934	855.75
542.147	861.75
542.361	878.75
542.575	839.75
542.789	887.75
543.002	853.75
543.216	868.75
543.43	830.75
543.644	848.75
543.857	873.75
544.071	854.75
544.285	867.75
544.498	861.75
544.712	846.75
544.925	862.75
545.139	850.75
545.352	855.75
545.566	831.75
545.779	848.75
545.993	854.75
546.206	853.75
546.42	857.75
546.633	865.75
546.847	861.75
547.06	840.75
547.274	870.75
547.487	834.75
547.7	868.75
547.914	868.75
548.127	867.75
548.34	878.75
548.554	830.75
548.767	860.75
548.98	871.75
549.193	858.75
549.407	876.75
549.62	884.75
549.833	902.75
550.046	887.75
550.259	869.75
550.473	824.75
550.686	859.75
550.899	839.75
551.112	843.75
551.325	842.75
551.538	852.75
551.751	835.75
551.964	833.75
552.177	853.75
552.39	835.75
552.603	843.75
552.816	844.75
553.029	836.75
553.242	878.75
553.455	855.75
553.667	845.75
553.88	863.75
554.093	838.75
554.306	812.75
554.519	817.75
554.732	806.75
554.944	810.75
555.157	790.75
555.37	795.75
555.583	800.75
555.795	776.75
556.008	765.75
556.221	739.75
556.433	766.75
556.646	746.75
556.859	774.75
557.071	745.75
557.284	723.75
557.496	741.75
557.709	731.75
557.921	728.75
558.134	733.75
558.346	735.75
558.559	736.75
558.771	703.75
558.984	748.75
559.196	699.75
559.409	718.75
559.621	707.75
559.833	715.75
560.046	730.75
560.258	732.75
560.47	726.75
560.683	719.75
560.895	694.75
561.107	721.75
561.32	736.75
561.532	734.75
561.744	721.75
561.956	688.75
562.168	711.75
562.381	740.75
562.593	727.75
562.805	721.75
563.017	731.75
563.229	704.75
563.441	717.75
563.653	740.75
563.865	712.75
564.077	714.75
564.289	724.75
564.501	745.75
564.713	738.75
564.925	751.75
565.137	770.75
565.349	766.75
565.561	795.75
565.773	802.75
565.985	799.75
566.197	821.75
566.408	837.75
566.62	831.75
566.832	828.75
567.044	880.75
567.255	889.75
567.467	914.75
567.679	900.75
567.891	919.75
568.102	897.75
568.314	886.75
568.526	837.75
568.737	863.75
568.949	807.75
569.161	783.75
569.372	754.75
569.584	736.75
569.795	714.75
570.007	701.75
570.218	699.75
570.43	681.75
570.641	677.75
570.853	678.75
571.064	683.75
571.276	643.75
571.487	675.75
571.698	667.75
571.91	662.75
572.121	643.75
572.333	634.75
572.544	627.75
572.755	628.75
572.966	605.75
573.178	592.75
573.389	601.75
573.6	604.75
573.811	582.75
574.023	602.75
574.234	590.75
574.445	581.75
574.656	590.75
574.867	582.75
575.078	564.75
575.289	586.75
575.501	565.75
575.712	564.75
575.923	557.75
576.134	551.75
576.345	566.75
576.556	571.75
576.767	544.75
576.978	568.75
577.188	547.75
577.399	534.75
577.61	540.75
577.821	550.75
578.032	532.75
578.243	544.75
578.454	536.75
578.665	527.75
578.875	530.75
579.086	500.75
579.297	531.75
579.508	511.75
579.718	505.75
579.929	519.75
580.14	505.75
580.35	524.75
580.561	507.75
580.772	507.75
580.982	489.75
581.193	514.75
581.403	513.75
581.614	523.75
581.825	495.75
582.035	484.75
582.246	490.75
582.456	498.75
582.667	490.75
582.877	508.75
583.087	505.75
583.298	504.75
583.508	471.75
583.719	476.75
583.929	470.75
584.139	482.75
584.35	489.75
584.56	474.75
584.77	484.75
584.981	500.75
585.191	470.75
585.401	495.75
585.611	503.75
585.821	480.75
586.032	477.75
586.242	501.75
586.452	478.75
586.662	470.75
586.872	463.75
587.082	467.75
587.292	488.75
587.502	485.75
587.713	469.75
587.923	472.75
588.133	469.75
588.343	459.75
588.553	477.75
588.762	464.75
588.972	431.75
589.182	498.75
589.392	490.75
589.602	470.75
589.812	464.75
590.022	483.75
590.232	462.75
590.441	475.75
590.651	460.75
590.861	463.75
591.071	463.75
591.281	463.75
591.49	460.75
591.7	473.75
591.91	492.75
592.119	476.75
592.329	454.75
592.539	490.75
592.748	483.75
592.958	512.75
593.167	480.75
593.377	463.75
593.587	493.75
593.796	474.75
594.006	493.75
594.215	481.75
594.424	468.75
594.634	479.75
594.843	479.75
595.053	470.75
595.262	476.75
595.472	457.75
595.681	438.75
595.89	448.75
596.1	457.75
596.309	457.75
596.518	439.75
596.727	444.75
596.937	404.75
597.146	424.75
597.355	435.75
597.564	424.75
597.774	409.75
597.983	422.75
598.192	414.75
598.401	398.75
598.61	400.75
598.819	415.75
599.028	387.75
599.237	409.75
599.446	394.75
599.655	392.75
599.864	403.75
600.073	386.75
600.282	380.75
600.491	405.75
600.7	383.75
600.909	395.75
601.118	387.75
601.327	367.75
601.536	381.75
601.745	394.75
601.953	388.75
602.162	383.75
602.371	382.75
602.58	372.75
602.789	368.75
602.997	382.75
603.206	368.75
603.415	381.75
603.623	377.75
603.832	385.75
604.041	359.75
604.249	359.75
604.458	380.75
604.666	356.75
604.875	354.75
605.084	349.75
605.292	348.75
605.501	350.75
605.709	350.75
605.918	372.75
606.126	345.75
606.334	372.75
606.543	356.75
606.751	357.75
606.96	357.75
607.168	347.75
607.376	350.75
607.585	344.75
607.793	364.75
608.001	354.75
608.21	355.75
608.418	356.75
608.626	364.75
608.834	344.75
609.043	352.75
609.251	331.75
609.459	347.75
609.667	353.75
609.875	341.75
610.083	344.75
610.291	346.75
610.499	353.75
610.707	335.75
610.916	326.75
611.124	360.75
611.332	342.75
611.54	346.75
611.748	364.75
611.955	314.75
612.163	336.75
612.371	334.75
612.579	341.75
612.787	341.75
612.995	346.75
613.203	343.75
613.411	336.75
613.618	345.75
613.826	352.75
614.034	340.75
614.242	357.75
614.449	328.75
614.657	335.75
614.865	321.75
615.072	338.75
615.28	330.75
615.488	335.75
615.695	332.75
615.903	338.75
616.111	330.75
616.318	344.75
616.526	347.75
616.733	325.75
616.941	335.75
617.148	338.75
617.356	329.75
617.563	330.75
617.771	327.75
617.978	338.75
618.185	333.75
618.393	331.75
618.6	320.75
618.807	333.75
619.015	316.75
619.222	327.75
619.429	330.75
619.637	316.75
619.844	306.75
620.051	315.75
620.258	313.75
620.466	297.75
620.673	306.75
620.88	296.75
621.087	323.75
621.294	320.75
621.501	306.75
621.708	316.75
621.915	309.75
622.122	326.75
622.329	322.75
622.536	324.75
622.743	305.75
622.95	297.75
623.157	300.75
623.364	294.75
623.571	304.75
623.778	301.75
623.985	290.75
624.192	297.75
624.399	298.75
624.606	300.75
624.812	288.75
625.019	281.75
625.226	289.75
625.433	298.75
625.639	291.75
625.846	284.75
626.053	287.75
626.259	270.75
626.466	296.75
626.673	273.75
626.879	298.75
627.086	293.75
627.293	279.75
627.499	286.75
627.706	272.75
627.912	264.75
628.119	276.75
628.325	270.75
628.532	271.75
628.738	280.75
628.945	290.75
629.151	271.75
629.357	275.75
629.564	263.75
629.77	267.75
629.976	257.75
630.183	284.75
630.389	288.75
630.595	273.75
630.802	273.75
631.008	269.75
631.214	283.75
631.42	279.75
631.627	284.75
631.833	245.75
632.039	268.75
632.245	245.75
632.451	258.75
632.657	250.75
632.863	267.75
633.069	282.75
633.275	270.75
633.481	267.75
633.688	259.75
633.893	254.75
634.099	266.75
634.305	244.75
634.511	256.75
634.717	251.75
634.923	243.75
635.129	250.75
635.335	262.75
635.541	266.75
635.747	258.75
635.952	243.75
636.158	250.75
636.364	256.75
636.57	273.75
636.775	246.75
636.981	231.75
637.187	255.75
637.392	226.75
637.598	253.75
637.804	252.75
638.009	252.75
638.215	241.75
638.421	249.75
638.626	242.75
638.832	244.75
639.037	245.75
639.243	249.75
639.448	237.75
639.654	247.75
639.859	242.75
640.065	235.75
640.27	243.75
640.475	237.75
640.681	232.75
640.886	239.75
641.091	250.75
641.297	244.75
641.502	227.75
641.707	229.75
641.913	247.75
642.118	236.75
642.323	242.75
642.528	236.75
642.733	235.75
642.939	235.75
643.144	237.75
643.349	244.75
643.554	229.75
643.759	260.75
643.964	227.75
644.169	236.75
644.374	243.75
644.579	256.75
644.784	227.75
644.989	261.75
645.194	249.75
645.399	228.75
645.604	249.75
645.809	269.75
646.014	250.75
646.219	244.75
646.423	236.75
646.628	228.75
646.833	236.75
647.038	247.75
647.243	253.75
647.447	232.75
647.652	248.75
647.857	244.75
648.062	250.75
648.266	259.75
648.471	253.75
648.676	257.75
648.88	248.75
649.085	245.75
649.289	252.75
649.494	246.75
649.698	229.75
649.903	247.75
650.107	247.75
650.312	245.75
650.516	235.75
650.721	272.75
650.925	258.75
651.13	236.75
651.334	249.75
651.539	249.75
651.743	264.75
651.947	235.75
652.152	232.75
652.356	231.75
652.56	236.75
652.764	229.75
652.969	242.75
653.173	229.75
653.377	236.75
653.581	235.75
653.785	233.75
653.99	221.75
654.194	225.75
654.398	228.75
654.602	205.75
654.806	233.75
655.01	235.75
655.214	236.75
655.418	238.75
655.622	236.75
655.826	246.75
656.03	232.75
656.234	239.75
656.438	227.75
656.642	248.75
656.846	232.75
657.049	236.75
657.253	215.75
657.457	214.75
657.661	203.75
657.865	172.75
658.068	174.75
658.272	167.75
658.476	168.75
658.68	153.75
658.883	147.75
659.087	149.75
659.291	153.75
659.494	133.75
659.698	119.75
659.901	110.75
660.105	114.75
660.309	110.75
660.512	107.75
660.716	115.75
660.919	122.75
661.123	103.75
661.326	114.75
661.53	94.75
661.733	105.75
661.936	94.75
662.14	98.75
662.343	96.75
662.546	101.75
662.75	92.75
662.953	85.75
663.156	104.75
663.36	95.75
663.563	92.75
663.766	94.75
663.969	97.75
664.173	85.75
664.376	86.75
664.579	93.75
664.782	85.75
664.985	86.75
665.188	84.75
665.391	91.75
665.594	75.75
665.797	82.75
666	77.75
666.203	96.75
666.406	79.75
666.609	75.75
666.812	78.75
667.015	95.75
667.218	84.75
667.421	69.75
667.624	84.75
667.827	94.75
668.03	73.75
668.232	88.75
668.435	88.75
668.638	80.75
668.841	94.75
669.043	91.75
669.246	88.75
669.449	106.75
669.651	84.75
669.854	73.75
670.057	104.75
670.259	93.75
670.462	85.75
670.665	90.75
670.867	72.75
671.07	86.75
671.272	81.75
671.475	87.75
671.677	79.75
671.88	80.75
672.082	80.75
672.284	82.75
672.487	76.75
672.689	71.75
672.892	78.75
