Data from Fe(NO3)3@0.025M.TitratingCurve.Agarose3%dH2O.NegLispCup.LampEnergy10.LIBS07252019_HRD10591_16-54-58-335.txt Node
Date: Thu Jul 25 16:54:58 EDT 2019
User: cochatt
Spectrometer: HR+D1059
Trigger mode: 1
Integration Time (sec): 1.000000E-1
Scans to average: 1
Electric dark correction enabled: true
Nonlinearity correction enabled: false
Boxcar width: 0
XAxis mode: Wavelengths
Number of Pixels in Spectrum: 2048
>>>>>Begin Spectral Data<<<<<
223.165	-16.12
223.4	-16.12
223.635	-16.12
223.869	-16.12
224.104	0.88
224.338	-8.12
224.573	-18.12
224.808	-14.12
225.042	-10.12
225.277	-13.12
225.511	-7.12
225.746	5.88
225.98	3.88
226.215	13.88
226.449	12.88
226.683	22.88
226.918	23.88
227.152	18.88
227.387	41.88
227.621	47.88
227.856	50.88
228.09	43.88
228.324	54.88
228.559	49.88
228.793	74.88
229.027	65.88
229.262	72.88
229.496	82.88
229.73	80.88
229.964	81.88
230.199	86.88
230.433	83.88
230.667	109.88
230.901	88.88
231.136	91.88
231.37	102.88
231.604	90.88
231.838	92.88
232.072	88.88
232.306	98.88
232.541	97.88
232.775	110.88
233.009	104.88
233.243	105.88
233.477	96.88
233.711	99.88
233.945	94.88
234.179	108.88
234.413	113.88
234.647	103.88
234.881	93.88
235.115	93.88
235.349	94.88
235.583	90.88
235.817	106.88
236.051	103.88
236.285	107.88
236.519	97.88
236.753	95.88
236.987	85.88
237.221	93.88
237.455	113.88
237.689	100.88
237.922	108.88
238.156	80.88
238.39	93.88
238.624	100.88
238.858	107.88
239.091	106.88
239.325	116.88
239.559	112.88
239.793	120.88
240.027	100.88
240.26	103.88
240.494	105.88
240.728	104.88
240.961	99.88
241.195	109.88
241.429	102.88
241.662	109.88
241.896	100.88
242.13	87.88
242.363	101.88
242.597	100.88
242.83	95.88
243.064	96.88
243.298	105.88
243.531	122.88
243.765	103.88
243.998	108.88
244.232	112.88
244.465	116.88
244.699	110.88
244.932	116.88
245.166	100.88
245.399	121.88
245.633	119.88
245.866	110.88
246.099	101.88
246.333	102.88
246.566	110.88
246.8	117.88
247.033	125.88
247.266	106.88
247.5	126.88
247.733	114.88
247.966	116.88
248.2	116.88
248.433	120.88
248.666	124.88
248.899	119.88
249.133	126.88
249.366	106.88
249.599	114.88
249.832	124.88
250.066	117.88
250.299	121.88
250.532	117.88
250.765	133.88
250.998	130.88
251.231	119.88
251.465	123.88
251.698	121.88
251.931	121.88
252.164	127.88
252.397	131.88
252.63	133.88
252.863	121.88
253.096	127.88
253.329	129.88
253.562	119.88
253.795	137.88
254.028	136.88
254.261	120.88
254.494	140.88
254.727	130.88
254.96	122.88
255.193	143.88
255.426	139.88
255.659	146.88
255.892	129.88
256.124	134.88
256.357	128.88
256.59	136.88
256.823	130.88
257.056	132.88
257.289	128.88
257.521	145.88
257.754	121.88
257.987	137.88
258.22	146.88
258.452	131.88
258.685	144.88
258.918	137.88
259.151	134.88
259.383	134.88
259.616	126.88
259.849	140.88
260.081	135.88
260.314	138.88
260.547	136.88
260.779	146.88
261.012	154.88
261.244	144.88
261.477	134.88
261.71	139.88
261.942	135.88
262.175	134.88
262.407	145.88
262.64	142.88
262.872	143.88
263.105	154.88
263.337	163.88
263.57	139.88
263.802	144.88
264.035	141.88
264.267	146.88
264.499	144.88
264.732	146.88
264.964	144.88
265.197	153.88
265.429	146.88
265.661	150.88
265.894	143.88
266.126	148.88
266.358	162.88
266.591	169.88
266.823	149.88
267.055	133.88
267.287	136.88
267.52	142.88
267.752	132.88
267.984	151.88
268.216	146.88
268.448	167.88
268.681	140.88
268.913	148.88
269.145	142.88
269.377	159.88
269.609	154.88
269.841	161.88
270.073	158.88
270.306	160.88
270.538	167.88
270.77	160.88
271.002	157.88
271.234	163.88
271.466	154.88
271.698	167.88
271.93	163.88
272.162	164.88
272.394	178.88
272.626	158.88
272.858	158.88
273.09	161.88
273.322	169.88
273.553	164.88
273.785	169.88
274.017	153.88
274.249	169.88
274.481	160.88
274.713	182.88
274.945	179.88
275.176	166.88
275.408	182.88
275.64	163.88
275.872	160.88
276.104	184.88
276.335	180.88
276.567	175.88
276.799	180.88
277.031	182.88
277.262	174.88
277.494	161.88
277.726	167.88
277.957	182.88
278.189	184.88
278.421	167.88
278.652	188.88
278.884	161.88
279.115	185.88
279.347	174.88
279.579	164.88
279.81	181.88
280.042	173.88
280.273	169.88
280.505	184.88
280.736	184.88
280.968	177.88
281.199	192.88
281.431	185.88
281.662	187.88
281.894	168.88
282.125	178.88
282.356	191.88
282.588	184.88
282.819	187.88
283.051	186.88
283.282	191.88
283.513	207.88
283.745	183.88
283.976	189.88
284.207	206.88
284.439	185.88
284.67	192.88
284.901	185.88
285.132	180.88
285.364	193.88
285.595	186.88
285.826	197.88
286.057	201.88
286.288	182.88
286.52	196.88
286.751	212.88
286.982	193.88
287.213	192.88
287.444	192.88
287.675	202.88
287.906	215.88
288.138	211.88
288.369	207.88
288.6	191.88
288.831	191.88
289.062	187.88
289.293	205.88
289.524	204.88
289.755	210.88
289.986	193.88
290.217	198.88
290.448	203.88
290.679	209.88
290.91	225.88
291.141	188.88
291.371	206.88
291.602	209.88
291.833	206.88
292.064	192.88
292.295	204.88
292.526	210.88
292.757	209.88
292.987	190.88
293.218	198.88
293.449	204.88
293.68	205.88
293.91	217.88
294.141	205.88
294.372	197.88
294.603	219.88
294.833	197.88
295.064	208.88
295.295	209.88
295.525	215.88
295.756	214.88
295.987	208.88
296.217	193.88
296.448	207.88
296.679	201.88
296.909	216.88
297.14	212.88
297.37	226.88
297.601	229.88
297.831	206.88
298.062	222.88
298.292	215.88
298.523	221.88
298.753	227.88
298.984	215.88
299.214	226.88
299.445	213.88
299.675	206.88
299.905	206.88
300.136	224.88
300.366	207.88
300.597	214.88
300.827	227.88
301.057	221.88
301.288	200.88
301.518	217.88
301.748	231.88
301.979	223.88
302.209	223.88
302.439	237.88
302.669	208.88
302.9	227.88
303.13	236.88
303.36	229.88
303.59	232.88
303.82	233.88
304.051	242.88
304.281	223.88
304.511	222.88
304.741	234.88
304.971	209.88
305.201	233.88
305.431	248.88
305.661	225.88
305.891	224.88
306.121	232.88
306.352	245.88
306.582	250.88
306.812	240.88
307.042	225.88
307.272	214.88
307.502	218.88
307.731	247.88
307.961	237.88
308.191	230.88
308.421	237.88
308.651	236.88
308.881	227.88
309.111	237.88
309.341	237.88
309.571	208.88
309.8	239.88
310.03	232.88
310.26	243.88
310.49	221.88
310.72	232.88
310.949	232.88
311.179	235.88
311.409	231.88
311.639	238.88
311.868	249.88
312.098	253.88
312.328	230.88
312.557	241.88
312.787	253.88
313.017	237.88
313.246	241.88
313.476	247.88
313.706	257.88
313.935	248.88
314.165	234.88
314.394	269.88
314.624	238.88
314.853	251.88
315.083	240.88
315.312	235.88
315.542	231.88
315.771	249.88
316.001	270.88
316.23	247.88
316.46	255.88
316.689	259.88
316.919	256.88
317.148	240.88
317.377	242.88
317.607	239.88
317.836	257.88
318.065	244.88
318.295	242.88
318.524	237.88
318.753	251.88
318.983	244.88
319.212	266.88
319.441	258.88
319.67	252.88
319.9	265.88
320.129	259.88
320.358	237.88
320.587	252.88
320.816	240.88
321.046	246.88
321.275	253.88
321.504	245.88
321.733	269.88
321.962	262.88
322.191	252.88
322.42	263.88
322.649	247.88
322.878	256.88
323.108	265.88
323.337	272.88
323.566	251.88
323.795	253.88
324.024	263.88
324.253	259.88
324.482	274.88
324.71	270.88
324.939	255.88
325.168	268.88
325.397	262.88
325.626	288.88
325.855	253.88
326.084	272.88
326.313	278.88
326.542	262.88
326.77	269.88
326.999	261.88
327.228	272.88
327.457	272.88
327.686	269.88
327.914	264.88
328.143	273.88
328.372	284.88
328.6	283.88
328.829	265.88
329.058	265.88
329.287	269.88
329.515	262.88
329.744	272.88
329.972	296.88
330.201	286.88
330.43	267.88
330.658	265.88
330.887	271.88
331.115	293.88
331.344	279.88
331.572	281.88
331.801	278.88
332.03	283.88
332.258	277.88
332.486	309.88
332.715	308.88
332.943	325.88
333.172	330.88
333.4	304.88
333.629	332.88
333.857	330.88
334.085	326.88
334.314	333.88
334.542	318.88
334.771	327.88
334.999	321.88
335.227	326.88
335.455	318.88
335.684	317.88
335.912	313.88
336.14	318.88
336.369	308.88
336.597	316.88
336.825	310.88
337.053	313.88
337.281	306.88
337.51	304.88
337.738	313.88
337.966	306.88
338.194	328.88
338.422	302.88
338.65	298.88
338.878	290.88
339.106	289.88
339.334	302.88
339.562	289.88
339.79	298.88
340.018	297.88
340.246	284.88
340.474	282.88
340.702	289.88
340.93	283.88
341.158	297.88
341.386	281.88
341.614	283.88
341.842	278.88
342.07	276.88
342.298	284.88
342.526	300.88
342.754	288.88
342.981	285.88
343.209	296.88
343.437	314.88
343.665	321.88
343.893	322.88
344.12	348.88
344.348	312.88
344.576	319.88
344.804	308.88
345.031	292.88
345.259	303.88
345.487	303.88
345.714	317.88
345.942	311.88
346.17	279.88
346.397	281.88
346.625	289.88
346.853	268.88
347.08	273.88
347.308	260.88
347.535	287.88
347.763	284.88
347.99	294.88
348.218	293.88
348.445	265.88
348.673	304.88
348.9	286.88
349.128	274.88
349.355	285.88
349.583	287.88
349.81	284.88
350.037	272.88
350.265	291.88
350.492	288.88
350.72	273.88
350.947	268.88
351.174	269.88
351.402	280.88
351.629	281.88
351.856	276.88
352.083	288.88
352.311	271.88
352.538	266.88
352.765	275.88
352.992	270.88
353.22	273.88
353.447	282.88
353.674	290.88
353.901	298.88
354.128	285.88
354.355	269.88
354.583	296.88
354.81	292.88
355.037	285.88
355.264	286.88
355.491	271.88
355.718	270.88
355.945	287.88
356.172	284.88
356.399	295.88
356.626	287.88
356.853	286.88
357.08	287.88
357.307	269.88
357.534	265.88
357.761	277.88
357.988	278.88
358.215	283.88
358.441	290.88
358.668	287.88
358.895	293.88
359.122	292.88
359.349	281.88
359.576	285.88
359.802	278.88
360.029	274.88
360.256	284.88
360.483	299.88
360.709	287.88
360.936	290.88
361.163	281.88
361.39	293.88
361.616	281.88
361.843	263.88
362.07	273.88
362.296	270.88
362.523	286.88
362.749	292.88
362.976	276.88
363.203	288.88
363.429	269.88
363.656	289.88
363.882	256.88
364.109	285.88
364.335	276.88
364.562	282.88
364.788	271.88
365.015	293.88
365.241	273.88
365.468	281.88
365.694	292.88
365.92	290.88
366.147	272.88
366.373	290.88
366.599	280.88
366.826	285.88
367.052	270.88
367.278	288.88
367.505	271.88
367.731	276.88
367.957	297.88
368.184	283.88
368.41	279.88
368.636	302.88
368.862	285.88
369.089	289.88
369.315	290.88
369.541	277.88
369.767	285.88
369.993	301.88
370.219	298.88
370.445	311.88
370.672	280.88
370.898	293.88
371.124	301.88
371.35	296.88
371.576	304.88
371.802	315.88
372.028	297.88
372.254	286.88
372.48	312.88
372.706	308.88
372.932	310.88
373.158	311.88
373.384	310.88
373.61	305.88
373.835	291.88
374.061	313.88
374.287	312.88
374.513	313.88
374.739	312.88
374.965	321.88
375.191	304.88
375.416	327.88
375.642	312.88
375.868	309.88
376.094	306.88
376.319	318.88
376.545	313.88
376.771	319.88
376.997	308.88
377.222	278.88
377.448	302.88
377.674	316.88
377.899	298.88
378.125	310.88
378.35	301.88
378.576	301.88
378.802	312.88
379.027	316.88
379.253	289.88
379.478	302.88
379.704	302.88
379.929	304.88
380.155	306.88
380.38	308.88
380.606	297.88
380.831	290.88
381.057	314.88
381.282	297.88
381.507	312.88
381.733	311.88
381.958	305.88
382.184	314.88
382.409	303.88
382.634	321.88
382.86	323.88
383.085	316.88
383.31	314.88
383.535	332.88
383.761	332.88
383.986	334.88
384.211	336.88
384.436	350.88
384.662	342.88
384.887	321.88
385.112	326.88
385.337	331.88
385.562	332.88
385.787	340.88
386.013	343.88
386.238	344.88
386.463	360.88
386.688	368.88
386.913	324.88
387.138	346.88
387.363	325.88
387.588	350.88
387.813	365.88
388.038	341.88
388.263	349.88
388.488	360.88
388.713	370.88
388.938	344.88
389.163	359.88
389.387	356.88
389.612	343.88
389.837	345.88
390.062	362.88
390.287	351.88
390.512	353.88
390.736	347.88
390.961	340.88
391.186	364.88
391.411	366.88
391.636	356.88
391.86	388.88
392.085	399.88
392.31	379.88
392.534	391.88
392.759	380.88
392.984	362.88
393.208	377.88
393.433	378.88
393.658	372.88
393.882	381.88
394.107	389.88
394.331	356.88
394.556	371.88
394.78	365.88
395.005	359.88
395.229	373.88
395.454	405.88
395.678	385.88
395.903	380.88
396.127	399.88
396.352	377.88
396.576	372.88
396.801	388.88
397.025	393.88
397.249	380.88
397.474	392.88
397.698	367.88
397.922	400.88
398.147	387.88
398.371	398.88
398.595	385.88
398.82	419.88
399.044	442.88
399.268	490.88
399.492	529.88
399.717	566.88
399.941	548.88
400.165	513.88
400.389	461.88
400.613	447.88
400.837	447.88
401.062	414.88
401.286	394.88
401.51	437.88
401.734	416.88
401.958	420.88
402.182	428.88
402.406	431.88
402.63	425.88
402.854	440.88
403.078	430.88
403.302	442.88
403.526	446.88
403.75	458.88
403.974	455.88
404.198	452.88
404.422	459.88
404.645	449.88
404.869	437.88
405.093	458.88
405.317	435.88
405.541	423.88
405.765	438.88
405.988	448.88
406.212	434.88
406.436	466.88
406.66	488.88
406.883	469.88
407.107	474.88
407.331	501.88
407.555	487.88
407.778	486.88
408.002	486.88
408.226	469.88
408.449	495.88
408.673	467.88
408.896	484.88
409.12	448.88
409.344	466.88
409.567	455.88
409.791	471.88
410.014	444.88
410.238	459.88
410.461	484.88
410.685	454.88
410.908	459.88
411.132	450.88
411.355	410.88
411.578	437.88
411.802	456.88
412.025	444.88
412.249	447.88
412.472	459.88
412.695	430.88
412.919	409.88
413.142	418.88
413.365	413.88
413.589	434.88
413.812	411.88
414.035	436.88
414.258	439.88
414.482	423.88
414.705	423.88
414.928	423.88
415.151	409.88
415.374	428.88
415.597	425.88
415.821	406.88
416.044	422.88
416.267	424.88
416.49	417.88
416.713	413.88
416.936	428.88
417.159	438.88
417.382	414.88
417.605	421.88
417.828	401.88
418.051	406.88
418.274	429.88
418.497	411.88
418.72	415.88
418.943	418.88
419.166	415.88
419.389	431.88
419.611	430.88
419.834	435.88
420.057	426.88
420.28	409.88
420.503	419.88
420.726	397.88
420.948	394.88
421.171	416.88
421.394	422.88
421.617	408.88
421.839	409.88
422.062	416.88
422.285	416.88
422.507	429.88
422.73	410.88
422.953	410.88
423.175	405.88
423.398	417.88
423.621	439.88
423.843	418.88
424.066	404.88
424.288	424.88
424.511	408.88
424.733	408.88
424.956	401.88
425.178	411.88
425.401	404.88
425.623	416.88
425.846	392.88
426.068	384.88
426.291	383.88
426.513	385.88
426.735	395.88
426.958	388.88
427.18	400.88
427.402	389.88
427.625	395.88
427.847	390.88
428.069	361.88
428.292	374.88
428.514	382.88
428.736	378.88
428.958	381.88
429.181	361.88
429.403	378.88
429.625	380.88
429.847	378.88
430.069	380.88
430.292	380.88
430.514	384.88
430.736	363.88
430.958	392.88
431.18	377.88
431.402	382.88
431.624	377.88
431.846	364.88
432.068	369.88
432.29	392.88
432.512	368.88
432.734	380.88
432.956	369.88
433.178	373.88
433.4	356.88
433.622	392.88
433.844	389.88
434.066	381.88
434.287	387.88
434.509	401.88
434.731	416.88
434.953	400.88
435.175	394.88
435.397	399.88
435.618	389.88
435.84	393.88
436.062	381.88
436.284	378.88
436.505	382.88
436.727	378.88
436.949	372.88
437.17	386.88
437.392	348.88
437.614	368.88
437.835	368.88
438.057	361.88
438.278	349.88
438.5	362.88
438.721	384.88
438.943	361.88
439.165	356.88
439.386	365.88
439.608	372.88
439.829	368.88
440.05	379.88
440.272	373.88
440.493	364.88
440.715	386.88
440.936	385.88
441.158	386.88
441.379	392.88
441.6	394.88
441.822	397.88
442.043	409.88
442.264	386.88
442.486	405.88
442.707	394.88
442.928	405.88
443.149	386.88
443.371	382.88
443.592	394.88
443.813	401.88
444.034	400.88
444.255	400.88
444.476	429.88
444.698	441.88
444.919	432.88
445.14	518.88
445.361	448.88
445.582	421.88
445.803	408.88
446.024	398.88
446.245	392.88
446.466	393.88
446.687	376.88
446.908	389.88
447.129	354.88
447.35	343.88
447.571	369.88
447.792	361.88
448.013	372.88
448.234	342.88
448.455	362.88
448.675	356.88
448.896	353.88
449.117	355.88
449.338	344.88
449.559	347.88
449.779	347.88
450	352.88
450.221	342.88
450.442	344.88
450.662	335.88
450.883	354.88
451.104	346.88
451.324	352.88
451.545	356.88
451.766	361.88
451.986	341.88
452.207	355.88
452.428	342.88
452.648	358.88
452.869	348.88
453.089	342.88
453.31	339.88
453.53	343.88
453.751	334.88
453.971	335.88
454.192	335.88
454.412	327.88
454.633	328.88
454.853	331.88
455.073	331.88
455.294	336.88
455.514	317.88
455.734	335.88
455.955	329.88
456.175	330.88
456.395	329.88
456.616	329.88
456.836	336.88
457.056	335.88
457.276	322.88
457.497	353.88
457.717	341.88
457.937	333.88
458.157	328.88
458.377	333.88
458.598	351.88
458.818	346.88
459.038	348.88
459.258	369.88
459.478	382.88
459.698	406.88
459.918	379.88
460.138	402.88
460.358	404.88
460.578	408.88
460.798	445.88
461.018	428.88
461.238	426.88
461.458	415.88
461.678	432.88
461.898	417.88
462.118	423.88
462.338	461.88
462.558	455.88
462.777	477.88
462.997	503.88
463.217	539.88
463.437	508.88
463.657	491.88
463.876	455.88
464.096	468.88
464.316	464.88
464.536	448.88
464.755	442.88
464.975	467.88
465.195	422.88
465.414	421.88
465.634	390.88
465.854	390.88
466.073	377.88
466.293	383.88
466.512	362.88
466.732	363.88
466.951	369.88
467.171	369.88
467.391	376.88
467.61	366.88
467.829	358.88
468.049	349.88
468.268	361.88
468.488	342.88
468.707	358.88
468.927	366.88
469.146	356.88
469.365	358.88
469.585	381.88
469.804	384.88
470.023	372.88
470.243	377.88
470.462	376.88
470.681	367.88
470.901	388.88
471.12	382.88
471.339	368.88
471.558	376.88
471.777	344.88
471.997	334.88
472.216	346.88
472.435	367.88
472.654	343.88
472.873	351.88
473.092	355.88
473.311	353.88
473.53	333.88
473.749	359.88
473.968	356.88
474.187	364.88
474.406	367.88
474.625	362.88
474.844	364.88
475.063	333.88
475.282	356.88
475.501	358.88
475.72	362.88
475.939	355.88
476.158	376.88
476.377	376.88
476.596	382.88
476.814	376.88
477.033	367.88
477.252	392.88
477.471	394.88
477.69	390.88
477.908	399.88
478.127	396.88
478.346	394.88
478.564	412.88
478.783	410.88
479.002	397.88
479.22	412.88
479.439	406.88
479.658	418.88
479.876	417.88
480.095	424.88
480.313	433.88
480.532	449.88
480.751	462.88
480.969	436.88
481.188	414.88
481.406	436.88
481.624	408.88
481.843	416.88
482.061	399.88
482.28	397.88
482.498	396.88
482.717	399.88
482.935	418.88
483.153	411.88
483.372	398.88
483.59	408.88
483.808	392.88
484.027	402.88
484.245	401.88
484.463	400.88
484.681	421.88
484.9	419.88
485.118	425.88
485.336	397.88
485.554	406.88
485.772	398.88
485.99	413.88
486.209	427.88
486.427	407.88
486.645	410.88
486.863	400.88
487.081	405.88
487.299	408.88
487.517	429.88
487.735	406.88
487.953	416.88
488.171	417.88
488.389	409.88
488.607	405.88
488.825	386.88
489.043	415.88
489.261	418.88
489.479	403.88
489.696	419.88
489.914	423.88
490.132	413.88
490.35	410.88
490.568	419.88
490.786	422.88
491.003	409.88
491.221	415.88
491.439	422.88
491.657	433.88
491.874	442.88
492.092	422.88
492.31	444.88
492.527	434.88
492.745	424.88
492.963	425.88
493.18	417.88
493.398	402.88
493.615	422.88
493.833	417.88
494.05	420.88
494.268	422.88
494.485	440.88
494.703	444.88
494.92	429.88
495.138	455.88
495.355	436.88
495.573	440.88
495.79	460.88
496.008	479.88
496.225	458.88
496.442	463.88
496.66	460.88
496.877	490.88
497.094	478.88
497.312	474.88
497.529	494.88
497.746	485.88
497.963	517.88
498.181	531.88
498.398	539.88
498.615	561.88
498.832	595.88
499.049	635.88
499.267	658.88
499.484	717.88
499.701	752.88
499.918	818.88
500.135	900.88
500.352	971.88
500.569	988.88
500.786	951.88
501.003	937.88
501.22	865.88
501.437	778.88
501.654	719.88
501.871	674.88
502.088	639.88
502.305	613.88
502.522	594.88
502.739	555.88
502.956	535.88
503.172	528.88
503.389	516.88
503.606	491.88
503.823	494.88
504.04	484.88
504.256	491.88
504.473	485.88
504.69	494.88
504.907	509.88
505.123	464.88
505.34	462.88
505.557	430.88
505.773	428.88
505.99	422.88
506.207	404.88
506.423	401.88
506.64	388.88
506.856	413.88
507.073	401.88
507.289	406.88
507.506	406.88
507.722	378.88
507.939	399.88
508.155	407.88
508.372	379.88
508.588	383.88
508.805	368.88
509.021	386.88
509.238	378.88
509.454	381.88
509.67	377.88
509.887	386.88
510.103	364.88
510.319	354.88
510.536	376.88
510.752	361.88
510.968	361.88
511.184	381.88
511.401	353.88
511.617	370.88
511.833	372.88
512.049	378.88
512.265	362.88
512.481	367.88
512.698	363.88
512.914	372.88
513.13	384.88
513.346	373.88
513.562	376.88
513.778	364.88
513.994	364.88
514.21	368.88
514.426	361.88
514.642	368.88
514.858	377.88
515.074	362.88
515.29	388.88
515.506	364.88
515.721	397.88
515.937	385.88
516.153	410.88
516.369	379.88
516.585	403.88
516.801	406.88
517.016	434.88
517.232	429.88
517.448	448.88
517.664	453.88
517.879	454.88
518.095	455.88
518.311	448.88
518.527	440.88
518.742	420.88
518.958	398.88
519.173	402.88
519.389	406.88
519.605	392.88
519.82	392.88
520.036	381.88
520.251	382.88
520.467	376.88
520.682	380.88
520.898	383.88
521.113	362.88
521.329	356.88
521.544	346.88
521.76	347.88
521.975	350.88
522.19	375.88
522.406	340.88
522.621	354.88
522.836	359.88
523.052	351.88
523.267	341.88
523.482	349.88
523.698	332.88
523.913	346.88
524.128	345.88
524.343	335.88
524.559	351.88
524.774	346.88
524.989	350.88
525.204	330.88
525.419	348.88
525.634	345.88
525.849	355.88
526.064	344.88
526.28	324.88
526.495	340.88
526.71	337.88
526.925	341.88
527.14	342.88
527.355	329.88
527.57	338.88
527.785	325.88
527.999	346.88
528.214	329.88
528.429	333.88
528.644	344.88
528.859	333.88
529.074	348.88
529.289	335.88
529.503	327.88
529.718	317.88
529.933	320.88
530.148	324.88
530.363	333.88
530.577	332.88
530.792	337.88
531.007	347.88
531.221	342.88
531.436	323.88
531.651	328.88
531.865	324.88
532.08	324.88
532.295	340.88
532.509	332.88
532.724	345.88
532.938	313.88
533.153	338.88
533.367	341.88
533.582	314.88
533.796	300.88
534.011	327.88
534.225	335.88
534.44	316.88
534.654	324.88
534.868	333.88
535.083	320.88
535.297	327.88
535.511	343.88
535.726	328.88
535.94	314.88
536.154	327.88
536.369	312.88
536.583	309.88
536.797	312.88
537.011	314.88
537.225	304.88
537.44	335.88
537.654	325.88
537.868	321.88
538.082	312.88
538.296	305.88
538.51	312.88
538.724	319.88
538.938	313.88
539.153	309.88
539.367	315.88
539.581	333.88
539.795	329.88
540.009	310.88
540.222	326.88
540.436	309.88
540.65	325.88
540.864	308.88
541.078	319.88
541.292	318.88
541.506	327.88
541.72	308.88
541.934	321.88
542.147	316.88
542.361	312.88
542.575	295.88
542.789	310.88
543.002	315.88
543.216	300.88
543.43	301.88
543.644	296.88
543.857	305.88
544.071	311.88
544.285	293.88
544.498	322.88
544.712	315.88
544.925	312.88
545.139	303.88
545.352	308.88
545.566	316.88
545.779	340.88
545.993	324.88
546.206	315.88
546.42	317.88
546.633	290.88
546.847	324.88
547.06	311.88
547.274	310.88
547.487	313.88
547.7	320.88
547.914	330.88
548.127	316.88
548.34	323.88
548.554	321.88
548.767	309.88
548.98	327.88
549.193	311.88
549.407	295.88
549.62	326.88
549.833	317.88
550.046	313.88
550.259	312.88
550.473	303.88
550.686	328.88
550.899	322.88
551.112	318.88
551.325	316.88
551.538	329.88
551.751	312.88
551.964	313.88
552.177	322.88
552.39	330.88
552.603	339.88
552.816	322.88
553.029	334.88
553.242	337.88
553.455	319.88
553.667	333.88
553.88	322.88
554.093	328.88
554.306	299.88
554.519	324.88
554.732	321.88
554.944	315.88
555.157	307.88
555.37	294.88
555.583	309.88
555.795	282.88
556.008	308.88
556.221	284.88
556.433	284.88
556.646	290.88
556.859	274.88
557.071	273.88
557.284	272.88
557.496	277.88
557.709	294.88
557.921	283.88
558.134	294.88
558.346	267.88
558.559	298.88
558.771	285.88
558.984	275.88
559.196	284.88
559.409	281.88
559.621	292.88
559.833	276.88
560.046	283.88
560.258	290.88
560.47	271.88
560.683	280.88
560.895	274.88
561.107	270.88
561.32	273.88
561.532	276.88
561.744	300.88
561.956	278.88
562.168	288.88
562.381	279.88
562.593	277.88
562.805	265.88
563.017	273.88
563.229	280.88
563.441	279.88
563.653	282.88
563.865	280.88
564.077	280.88
564.289	296.88
564.501	315.88
564.713	290.88
564.925	299.88
565.137	310.88
565.349	310.88
565.561	318.88
565.773	314.88
565.985	325.88
566.197	336.88
566.408	362.88
566.62	359.88
566.832	377.88
567.044	386.88
567.255	373.88
567.467	382.88
567.679	402.88
567.891	440.88
568.102	417.88
568.314	388.88
568.526	384.88
568.737	368.88
568.949	346.88
569.161	334.88
569.372	295.88
569.584	309.88
569.795	291.88
570.007	299.88
570.218	287.88
570.43	299.88
570.641	275.88
570.853	282.88
571.064	276.88
571.276	277.88
571.487	271.88
571.698	267.88
571.91	273.88
572.121	244.88
572.333	252.88
572.544	258.88
572.755	262.88
572.966	253.88
573.178	247.88
573.389	266.88
573.6	230.88
573.811	229.88
574.023	232.88
574.234	226.88
574.445	237.88
574.656	241.88
574.867	228.88
575.078	264.88
575.289	239.88
575.501	224.88
575.712	221.88
575.923	223.88
576.134	238.88
576.345	224.88
576.556	236.88
576.767	232.88
576.978	228.88
577.188	228.88
577.399	236.88
577.61	221.88
577.821	218.88
578.032	210.88
578.243	213.88
578.454	228.88
578.665	254.88
578.875	216.88
579.086	212.88
579.297	219.88
579.508	216.88
579.718	208.88
579.929	220.88
580.14	211.88
580.35	217.88
580.561	224.88
580.772	207.88
580.982	197.88
581.193	211.88
581.403	221.88
581.614	215.88
581.825	221.88
582.035	216.88
582.246	222.88
582.456	186.88
582.667	214.88
582.877	215.88
583.087	218.88
583.298	216.88
583.508	190.88
583.719	214.88
583.929	217.88
584.139	214.88
584.35	221.88
584.56	189.88
584.77	206.88
584.981	217.88
585.191	202.88
585.401	201.88
585.611	201.88
585.821	204.88
586.032	198.88
586.242	198.88
586.452	203.88
586.662	200.88
586.872	201.88
587.082	210.88
587.292	190.88
587.502	204.88
587.713	199.88
587.923	214.88
588.133	196.88
588.343	197.88
588.553	206.88
588.762	209.88
588.972	209.88
589.182	210.88
589.392	209.88
589.602	205.88
589.812	199.88
590.022	220.88
590.232	204.88
590.441	204.88
590.651	201.88
590.861	220.88
591.071	201.88
591.281	202.88
591.49	201.88
591.7	220.88
591.91	207.88
592.119	245.88
592.329	209.88
592.539	222.88
592.748	220.88
592.958	219.88
593.167	226.88
593.377	244.88
593.587	241.88
593.796	233.88
594.006	236.88
594.215	237.88
594.424	243.88
594.634	235.88
594.843	221.88
595.053	209.88
595.262	219.88
595.472	209.88
595.681	229.88
595.89	216.88
596.1	196.88
596.309	196.88
596.518	197.88
596.727	198.88
596.937	198.88
597.146	199.88
597.355	194.88
597.564	197.88
597.774	198.88
597.983	181.88
598.192	202.88
598.401	176.88
598.61	173.88
598.819	201.88
599.028	184.88
599.237	187.88
599.446	196.88
599.655	198.88
599.864	190.88
600.073	176.88
600.282	187.88
600.491	190.88
600.7	180.88
600.909	185.88
601.118	201.88
601.327	168.88
601.536	183.88
601.745	172.88
601.953	180.88
602.162	174.88
602.371	173.88
602.58	167.88
602.789	168.88
602.997	180.88
603.206	189.88
603.415	189.88
603.623	184.88
603.832	191.88
604.041	186.88
604.249	180.88
604.458	172.88
604.666	160.88
604.875	163.88
605.084	184.88
605.292	173.88
605.501	175.88
605.709	190.88
605.918	188.88
606.126	191.88
606.334	182.88
606.543	174.88
606.751	185.88
606.96	178.88
607.168	173.88
607.376	177.88
607.585	176.88
607.793	188.88
608.001	196.88
608.21	172.88
608.418	160.88
608.626	166.88
608.834	162.88
609.043	163.88
609.251	170.88
609.459	177.88
609.667	173.88
609.875	166.88
610.083	162.88
610.291	159.88
610.499	173.88
610.707	173.88
610.916	182.88
611.124	171.88
611.332	176.88
611.54	181.88
611.748	156.88
611.955	159.88
612.163	179.88
612.371	177.88
612.579	169.88
612.787	169.88
612.995	172.88
613.203	164.88
613.411	170.88
613.618	169.88
613.826	174.88
614.034	166.88
614.242	181.88
614.449	164.88
614.657	167.88
614.865	169.88
615.072	177.88
615.28	167.88
615.488	165.88
615.695	176.88
615.903	166.88
616.111	179.88
616.318	183.88
616.526	161.88
616.733	166.88
616.941	167.88
617.148	154.88
617.356	153.88
617.563	157.88
617.771	160.88
617.978	165.88
618.185	164.88
618.393	165.88
618.6	162.88
618.807	150.88
619.015	168.88
619.222	149.88
619.429	176.88
619.637	158.88
619.844	169.88
620.051	182.88
620.258	170.88
620.466	157.88
620.673	160.88
620.88	164.88
621.087	160.88
621.294	152.88
621.501	169.88
621.708	163.88
621.915	173.88
622.122	154.88
622.329	161.88
622.536	146.88
622.743	137.88
622.95	153.88
623.157	165.88
623.364	155.88
623.571	149.88
623.778	163.88
623.985	158.88
624.192	152.88
624.399	156.88
624.606	154.88
624.812	146.88
625.019	152.88
625.226	157.88
625.433	169.88
625.639	146.88
625.846	161.88
626.053	160.88
626.259	134.88
626.466	164.88
626.673	160.88
626.879	144.88
627.086	160.88
627.293	154.88
627.499	152.88
627.706	158.88
627.912	158.88
628.119	150.88
628.325	156.88
628.532	156.88
628.738	144.88
628.945	150.88
629.151	153.88
629.357	164.88
629.564	164.88
629.77	147.88
629.976	147.88
630.183	142.88
630.389	144.88
630.595	138.88
630.802	169.88
631.008	138.88
631.214	150.88
631.42	160.88
631.627	144.88
631.833	154.88
632.039	157.88
632.245	149.88
632.451	146.88
632.657	145.88
632.863	136.88
633.069	145.88
633.275	152.88
633.481	142.88
633.688	142.88
633.893	142.88
634.099	154.88
634.305	162.88
634.511	157.88
634.717	147.88
634.923	140.88
635.129	130.88
635.335	132.88
635.541	137.88
635.747	151.88
635.952	143.88
636.158	136.88
636.364	146.88
636.57	156.88
636.775	164.88
636.981	146.88
637.187	144.88
637.392	141.88
637.598	139.88
637.804	146.88
638.009	152.88
638.215	142.88
638.421	141.88
638.626	139.88
638.832	144.88
639.037	132.88
639.243	147.88
639.448	142.88
639.654	132.88
639.859	128.88
640.065	130.88
640.27	157.88
640.475	132.88
640.681	132.88
640.886	158.88
641.091	151.88
641.297	134.88
641.502	140.88
641.707	137.88
641.913	142.88
642.118	149.88
642.323	139.88
642.528	146.88
642.733	136.88
642.939	134.88
643.144	140.88
643.349	139.88
643.554	137.88
643.759	138.88
643.964	138.88
644.169	132.88
644.374	136.88
644.579	150.88
644.784	131.88
644.989	140.88
645.194	128.88
645.399	143.88
645.604	154.88
645.809	139.88
646.014	148.88
646.219	152.88
646.423	147.88
646.628	139.88
646.833	150.88
647.038	132.88
647.243	136.88
647.447	141.88
647.652	142.88
647.857	148.88
648.062	146.88
648.266	152.88
648.471	144.88
648.676	136.88
648.88	120.88
649.085	139.88
649.289	144.88
649.494	140.88
649.698	138.88
649.903	140.88
650.107	140.88
650.312	144.88
650.516	143.88
650.721	129.88
650.925	148.88
651.13	130.88
651.334	137.88
651.539	140.88
651.743	128.88
651.947	145.88
652.152	138.88
652.356	130.88
652.56	142.88
652.764	146.88
652.969	129.88
653.173	134.88
653.377	124.88
653.581	124.88
653.785	137.88
653.99	137.88
654.194	134.88
654.398	136.88
654.602	134.88
654.806	141.88
655.01	134.88
655.214	139.88
655.418	136.88
655.622	133.88
655.826	127.88
656.03	134.88
656.234	139.88
656.438	130.88
656.642	127.88
656.846	142.88
657.049	132.88
657.253	130.88
657.457	140.88
657.661	127.88
657.865	130.88
658.068	112.88
658.272	112.88
658.476	112.88
658.68	119.88
658.883	112.88
659.087	103.88
659.291	110.88
659.494	122.88
659.698	106.88
659.901	103.88
660.105	106.88
660.309	98.88
660.512	102.88
660.716	97.88
660.919	90.88
661.123	112.88
661.326	76.88
661.53	107.88
661.733	95.88
661.936	104.88
662.14	93.88
662.343	85.88
662.546	93.88
662.75	85.88
662.953	98.88
663.156	88.88
663.36	93.88
663.563	90.88
663.766	87.88
663.969	106.88
664.173	73.88
664.376	92.88
664.579	85.88
664.782	92.88
664.985	84.88
665.188	76.88
665.391	85.88
665.594	93.88
665.797	82.88
666	80.88
666.203	79.88
666.406	74.88
666.609	82.88
666.812	92.88
667.015	94.88
667.218	83.88
667.421	90.88
667.624	88.88
667.827	87.88
668.03	98.88
668.232	92.88
668.435	94.88
668.638	85.88
668.841	94.88
669.043	77.88
669.246	73.88
669.449	96.88
669.651	60.88
669.854	79.88
670.057	92.88
670.259	82.88
670.462	87.88
670.665	101.88
670.867	89.88
671.07	93.88
671.272	95.88
671.475	100.88
671.677	81.88
671.88	87.88
672.082	96.88
672.284	88.88
672.487	76.88
672.689	84.88
672.892	95.88
