Data from Fe(NO3)3@0.0125M.TitratingCurve.Agarose3%dH2O.NegLispCup.LampEnergy10.LIBS07252019_HRD10591_16-59-25-342.txt Node
Date: Thu Jul 25 16:59:25 EDT 2019
User: cochatt
Spectrometer: HR+D1059
Trigger mode: 1
Integration Time (sec): 1.000000E-1
Scans to average: 1
Electric dark correction enabled: true
Nonlinearity correction enabled: false
Boxcar width: 0
XAxis mode: Wavelengths
Number of Pixels in Spectrum: 2048
>>>>>Begin Spectral Data<<<<<
223.165	-12.94
223.4	-12.94
223.635	-12.94
223.869	-7.94
224.104	-23.94
224.338	-10.94
224.573	-4.94
224.808	-21.94
225.042	5.06
225.277	-12.94
225.511	-9.94
225.746	-7.94
225.98	4.06
226.215	11.06
226.449	18.06
226.683	14.06
226.918	27.06
227.152	34.06
227.387	32.06
227.621	37.06
227.856	33.06
228.09	54.06
228.324	53.06
228.559	61.06
228.793	69.06
229.027	85.06
229.262	74.06
229.496	87.06
229.73	90.06
229.964	89.06
230.199	81.06
230.433	92.06
230.667	92.06
230.901	105.06
231.136	97.06
231.37	89.06
231.604	88.06
231.838	96.06
232.072	102.06
232.306	97.06
232.541	99.06
232.775	116.06
233.009	97.06
233.243	123.06
233.477	103.06
233.711	109.06
233.945	116.06
234.179	98.06
234.413	109.06
234.647	97.06
234.881	104.06
235.115	104.06
235.349	104.06
235.583	111.06
235.817	109.06
236.051	113.06
236.285	100.06
236.519	95.06
236.753	98.06
236.987	99.06
237.221	105.06
237.455	119.06
237.689	115.06
237.922	111.06
238.156	96.06
238.39	109.06
238.624	101.06
238.858	129.06
239.091	119.06
239.325	116.06
239.559	103.06
239.793	97.06
240.027	115.06
240.26	115.06
240.494	98.06
240.728	116.06
240.961	95.06
241.195	109.06
241.429	113.06
241.662	125.06
241.896	109.06
242.13	118.06
242.363	102.06
242.597	119.06
242.83	114.06
243.064	111.06
243.298	128.06
243.531	119.06
243.765	127.06
243.998	127.06
244.232	119.06
244.465	105.06
244.699	117.06
244.932	115.06
245.166	109.06
245.399	115.06
245.633	126.06
245.866	131.06
246.099	117.06
246.333	125.06
246.566	129.06
246.8	110.06
247.033	123.06
247.266	121.06
247.5	130.06
247.733	128.06
247.966	122.06
248.2	122.06
248.433	122.06
248.666	119.06
248.899	132.06
249.133	143.06
249.366	129.06
249.599	147.06
249.832	142.06
250.066	130.06
250.299	154.06
250.532	135.06
250.765	149.06
250.998	125.06
251.231	141.06
251.465	138.06
251.698	133.06
251.931	150.06
252.164	139.06
252.397	147.06
252.63	153.06
252.863	152.06
253.096	139.06
253.329	149.06
253.562	150.06
253.795	149.06
254.028	138.06
254.261	153.06
254.494	145.06
254.727	150.06
254.96	151.06
255.193	132.06
255.426	159.06
255.659	145.06
255.892	143.06
256.124	153.06
256.357	158.06
256.59	165.06
256.823	164.06
257.056	161.06
257.289	156.06
257.521	166.06
257.754	157.06
257.987	147.06
258.22	157.06
258.452	164.06
258.685	159.06
258.918	159.06
259.151	152.06
259.383	160.06
259.616	168.06
259.849	171.06
260.081	176.06
260.314	173.06
260.547	163.06
260.779	157.06
261.012	183.06
261.244	174.06
261.477	167.06
261.71	161.06
261.942	179.06
262.175	178.06
262.407	176.06
262.64	173.06
262.872	186.06
263.105	172.06
263.337	189.06
263.57	192.06
263.802	175.06
264.035	173.06
264.267	160.06
264.499	174.06
264.732	184.06
264.964	181.06
265.197	173.06
265.429	173.06
265.661	177.06
265.894	177.06
266.126	170.06
266.358	185.06
266.591	183.06
266.823	198.06
267.055	176.06
267.287	173.06
267.52	192.06
267.752	190.06
267.984	198.06
268.216	188.06
268.448	193.06
268.681	215.06
268.913	194.06
269.145	192.06
269.377	188.06
269.609	199.06
269.841	200.06
270.073	181.06
270.306	189.06
270.538	194.06
270.77	190.06
271.002	188.06
271.234	193.06
271.466	207.06
271.698	195.06
271.93	209.06
272.162	203.06
272.394	205.06
272.626	221.06
272.858	199.06
273.09	212.06
273.322	214.06
273.553	211.06
273.785	222.06
274.017	219.06
274.249	217.06
274.481	229.06
274.713	249.06
274.945	234.06
275.176	244.06
275.408	231.06
275.64	223.06
275.872	223.06
276.104	243.06
276.335	212.06
276.567	242.06
276.799	224.06
277.031	243.06
277.262	239.06
277.494	224.06
277.726	227.06
277.957	232.06
278.189	251.06
278.421	231.06
278.652	240.06
278.884	240.06
279.115	247.06
279.347	241.06
279.579	253.06
279.81	235.06
280.042	222.06
280.273	253.06
280.505	243.06
280.736	258.06
280.968	233.06
281.199	270.06
281.431	265.06
281.662	257.06
281.894	234.06
282.125	257.06
282.356	261.06
282.588	248.06
282.819	244.06
283.051	253.06
283.282	234.06
283.513	241.06
283.745	272.06
283.976	272.06
284.207	263.06
284.439	267.06
284.67	267.06
284.901	246.06
285.132	264.06
285.364	257.06
285.595	256.06
285.826	271.06
286.057	266.06
286.288	265.06
286.52	286.06
286.751	257.06
286.982	279.06
287.213	266.06
287.444	269.06
287.675	271.06
287.906	289.06
288.138	281.06
288.369	298.06
288.6	296.06
288.831	293.06
289.062	290.06
289.293	293.06
289.524	304.06
289.755	298.06
289.986	289.06
290.217	301.06
290.448	290.06
290.679	286.06
290.91	283.06
291.141	315.06
291.371	301.06
291.602	302.06
291.833	276.06
292.064	307.06
292.295	292.06
292.526	303.06
292.757	305.06
292.987	300.06
293.218	293.06
293.449	305.06
293.68	295.06
293.91	296.06
294.141	301.06
294.372	327.06
294.603	313.06
294.833	295.06
295.064	283.06
295.295	302.06
295.525	294.06
295.756	310.06
295.987	307.06
296.217	333.06
296.448	320.06
296.679	314.06
296.909	302.06
297.14	306.06
297.37	338.06
297.601	309.06
297.831	323.06
298.062	329.06
298.292	330.06
298.523	313.06
298.753	341.06
298.984	322.06
299.214	319.06
299.445	345.06
299.675	329.06
299.905	329.06
300.136	319.06
300.366	325.06
300.597	322.06
300.827	350.06
301.057	342.06
301.288	328.06
301.518	311.06
301.748	346.06
301.979	350.06
302.209	347.06
302.439	325.06
302.669	345.06
302.9	353.06
303.13	365.06
303.36	351.06
303.59	338.06
303.82	349.06
304.051	348.06
304.281	358.06
304.511	358.06
304.741	357.06
304.971	356.06
305.201	374.06
305.431	357.06
305.661	351.06
305.891	389.06
306.121	355.06
306.352	366.06
306.582	379.06
306.812	375.06
307.042	378.06
307.272	349.06
307.502	360.06
307.731	368.06
307.961	371.06
308.191	379.06
308.421	392.06
308.651	363.06
308.881	373.06
309.111	377.06
309.341	372.06
309.571	373.06
309.8	361.06
310.03	360.06
310.26	404.06
310.49	377.06
310.72	388.06
310.949	373.06
311.179	384.06
311.409	390.06
311.639	385.06
311.868	377.06
312.098	380.06
312.328	382.06
312.557	378.06
312.787	381.06
313.017	383.06
313.246	393.06
313.476	395.06
313.706	413.06
313.935	395.06
314.165	385.06
314.394	388.06
314.624	414.06
314.853	392.06
315.083	393.06
315.312	425.06
315.542	419.06
315.771	396.06
316.001	429.06
316.23	405.06
316.46	417.06
316.689	423.06
316.919	421.06
317.148	417.06
317.377	433.06
317.607	399.06
317.836	432.06
318.065	401.06
318.295	422.06
318.524	417.06
318.753	425.06
318.983	419.06
319.212	421.06
319.441	427.06
319.67	435.06
319.9	441.06
320.129	439.06
320.358	422.06
320.587	423.06
320.816	419.06
321.046	445.06
321.275	451.06
321.504	421.06
321.733	441.06
321.962	438.06
322.191	445.06
322.42	430.06
322.649	433.06
322.878	451.06
323.108	442.06
323.337	433.06
323.566	428.06
323.795	440.06
324.024	441.06
324.253	445.06
324.482	432.06
324.71	455.06
324.939	457.06
325.168	450.06
325.397	456.06
325.626	467.06
325.855	466.06
326.084	457.06
326.313	450.06
326.542	469.06
326.77	453.06
326.999	455.06
327.228	463.06
327.457	451.06
327.686	467.06
327.914	471.06
328.143	466.06
328.372	465.06
328.6	462.06
328.829	455.06
329.058	470.06
329.287	450.06
329.515	459.06
329.744	466.06
329.972	461.06
330.201	481.06
330.43	490.06
330.658	466.06
330.887	474.06
331.115	471.06
331.344	486.06
331.572	471.06
331.801	484.06
332.03	466.06
332.258	492.06
332.486	478.06
332.715	463.06
332.943	465.06
333.172	477.06
333.4	481.06
333.629	503.06
333.857	483.06
334.085	475.06
334.314	503.06
334.542	472.06
334.771	498.06
334.999	496.06
335.227	497.06
335.455	523.06
335.684	507.06
335.912	517.06
336.14	510.06
336.369	519.06
336.597	520.06
336.825	483.06
337.053	515.06
337.281	501.06
337.51	519.06
337.738	506.06
337.966	492.06
338.194	512.06
338.422	511.06
338.65	503.06
338.878	516.06
339.106	499.06
339.334	497.06
339.562	502.06
339.79	484.06
340.018	500.06
340.246	491.06
340.474	474.06
340.702	508.06
340.93	506.06
341.158	512.06
341.386	526.06
341.614	497.06
341.842	507.06
342.07	511.06
342.298	503.06
342.526	497.06
342.754	499.06
342.981	472.06
343.209	503.06
343.437	522.06
343.665	520.06
343.893	515.06
344.12	521.06
344.348	515.06
344.576	496.06
344.804	508.06
345.031	518.06
345.259	514.06
345.487	518.06
345.714	529.06
345.942	497.06
346.17	515.06
346.397	505.06
346.625	485.06
346.853	485.06
347.08	500.06
347.308	477.06
347.535	501.06
347.763	516.06
347.99	494.06
348.218	484.06
348.445	495.06
348.673	490.06
348.9	503.06
349.128	483.06
349.355	488.06
349.583	504.06
349.81	490.06
350.037	496.06
350.265	493.06
350.492	489.06
350.72	500.06
350.947	494.06
351.174	498.06
351.402	489.06
351.629	515.06
351.856	499.06
352.083	481.06
352.311	509.06
352.538	499.06
352.765	485.06
352.992	487.06
353.22	490.06
353.447	486.06
353.674	502.06
353.901	526.06
354.128	501.06
354.355	520.06
354.583	477.06
354.81	494.06
355.037	528.06
355.264	510.06
355.491	486.06
355.718	501.06
355.945	509.06
356.172	501.06
356.399	512.06
356.626	522.06
356.853	499.06
357.08	501.06
357.307	498.06
357.534	502.06
357.761	491.06
357.988	489.06
358.215	515.06
358.441	521.06
358.668	488.06
358.895	512.06
359.122	486.06
359.349	513.06
359.576	507.06
359.802	495.06
360.029	490.06
360.256	527.06
360.483	496.06
360.709	510.06
360.936	517.06
361.163	511.06
361.39	509.06
361.616	499.06
361.843	530.06
362.07	512.06
362.296	501.06
362.523	497.06
362.749	517.06
362.976	511.06
363.203	527.06
363.429	496.06
363.656	514.06
363.882	511.06
364.109	501.06
364.335	520.06
364.562	522.06
364.788	532.06
365.015	535.06
365.241	500.06
365.468	512.06
365.694	529.06
365.92	535.06
366.147	522.06
366.373	509.06
366.599	533.06
366.826	536.06
367.052	538.06
367.278	535.06
367.505	545.06
367.731	538.06
367.957	529.06
368.184	547.06
368.41	546.06
368.636	537.06
368.862	513.06
369.089	531.06
369.315	530.06
369.541	531.06
369.767	544.06
369.993	536.06
370.219	515.06
370.445	528.06
370.672	533.06
370.898	532.06
371.124	542.06
371.35	537.06
371.576	557.06
371.802	549.06
372.028	549.06
372.254	554.06
372.48	546.06
372.706	537.06
372.932	554.06
373.158	570.06
373.384	561.06
373.61	532.06
373.835	558.06
374.061	529.06
374.287	563.06
374.513	545.06
374.739	572.06
374.965	539.06
375.191	561.06
375.416	551.06
375.642	554.06
375.868	557.06
376.094	557.06
376.319	553.06
376.545	561.06
376.771	559.06
376.997	572.06
377.222	561.06
377.448	562.06
377.674	568.06
377.899	561.06
378.125	525.06
378.35	565.06
378.576	559.06
378.802	534.06
379.027	525.06
379.253	553.06
379.478	544.06
379.704	536.06
379.929	539.06
380.155	549.06
380.38	542.06
380.606	546.06
380.831	555.06
381.057	561.06
381.282	553.06
381.507	553.06
381.733	544.06
381.958	562.06
382.184	570.06
382.409	568.06
382.634	579.06
382.86	560.06
383.085	528.06
383.31	570.06
383.535	574.06
383.761	582.06
383.986	572.06
384.211	567.06
384.436	595.06
384.662	569.06
384.887	587.06
385.112	588.06
385.337	589.06
385.562	575.06
385.787	566.06
386.013	578.06
386.238	567.06
386.463	596.06
386.688	585.06
386.913	590.06
387.138	594.06
387.363	582.06
387.588	591.06
387.813	598.06
388.038	571.06
388.263	583.06
388.488	587.06
388.713	571.06
388.938	582.06
389.163	599.06
389.387	593.06
389.612	616.06
389.837	629.06
390.062	589.06
390.287	594.06
390.512	588.06
390.736	596.06
390.961	616.06
391.186	617.06
391.411	615.06
391.636	611.06
391.86	579.06
392.085	609.06
392.31	565.06
392.534	615.06
392.759	602.06
392.984	618.06
393.208	632.06
393.433	623.06
393.658	614.06
393.882	609.06
394.107	597.06
394.331	625.06
394.556	601.06
394.78	628.06
395.005	614.06
395.229	605.06
395.454	633.06
395.678	610.06
395.903	617.06
396.127	632.06
396.352	614.06
396.576	603.06
396.801	613.06
397.025	621.06
397.249	626.06
397.474	645.06
397.698	617.06
397.922	600.06
398.147	633.06
398.371	635.06
398.595	652.06
398.82	639.06
399.044	631.06
399.268	640.06
399.492	688.06
399.717	677.06
399.941	689.06
400.165	675.06
400.389	667.06
400.613	662.06
400.837	679.06
401.062	670.06
401.286	635.06
401.51	638.06
401.734	642.06
401.958	669.06
402.182	655.06
402.406	633.06
402.63	643.06
402.854	655.06
403.078	646.06
403.302	675.06
403.526	676.06
403.75	641.06
403.974	682.06
404.198	652.06
404.422	655.06
404.645	672.06
404.869	646.06
405.093	671.06
405.317	665.06
405.541	673.06
405.765	691.06
405.988	674.06
406.212	671.06
406.436	676.06
406.66	673.06
406.883	675.06
407.107	674.06
407.331	672.06
407.555	683.06
407.778	718.06
408.002	665.06
408.226	699.06
408.449	713.06
408.673	692.06
408.896	644.06
409.12	693.06
409.344	703.06
409.567	675.06
409.791	699.06
410.014	686.06
410.238	675.06
410.461	670.06
410.685	688.06
410.908	683.06
411.132	679.06
411.355	674.06
411.578	655.06
411.802	680.06
412.025	678.06
412.249	651.06
412.472	659.06
412.695	652.06
412.919	671.06
413.142	651.06
413.365	657.06
413.589	665.06
413.812	640.06
414.035	648.06
414.258	640.06
414.482	651.06
414.705	666.06
414.928	662.06
415.151	645.06
415.374	628.06
415.597	651.06
415.821	613.06
416.044	655.06
416.267	637.06
416.49	637.06
416.713	640.06
416.936	645.06
417.159	632.06
417.382	638.06
417.605	652.06
417.828	650.06
418.051	651.06
418.274	645.06
418.497	616.06
418.72	638.06
418.943	615.06
419.166	655.06
419.389	665.06
419.611	666.06
419.834	663.06
420.057	627.06
420.28	626.06
420.503	631.06
420.726	607.06
420.948	617.06
421.171	628.06
421.394	622.06
421.617	611.06
421.839	608.06
422.062	630.06
422.285	633.06
422.507	625.06
422.73	619.06
422.953	608.06
423.175	634.06
423.398	648.06
423.621	626.06
423.843	622.06
424.066	628.06
424.288	642.06
424.511	631.06
424.733	635.06
424.956	621.06
425.178	645.06
425.401	640.06
425.623	618.06
425.846	624.06
426.068	631.06
426.291	611.06
426.513	633.06
426.735	621.06
426.958	641.06
427.18	631.06
427.402	602.06
427.625	625.06
427.847	631.06
428.069	611.06
428.292	629.06
428.514	607.06
428.736	633.06
428.958	642.06
429.181	649.06
429.403	607.06
429.625	610.06
429.847	627.06
430.069	615.06
430.292	623.06
430.514	613.06
430.736	631.06
430.958	649.06
431.18	623.06
431.402	609.06
431.624	611.06
431.846	605.06
432.068	601.06
432.29	622.06
432.512	610.06
432.734	611.06
432.956	630.06
433.178	621.06
433.4	638.06
433.622	626.06
433.844	631.06
434.066	631.06
434.287	619.06
434.509	630.06
434.731	603.06
434.953	628.06
435.175	637.06
435.397	633.06
435.618	616.06
435.84	619.06
436.062	609.06
436.284	621.06
436.505	605.06
436.727	631.06
436.949	617.06
437.17	600.06
437.392	606.06
437.614	629.06
437.835	599.06
438.057	626.06
438.278	605.06
438.5	616.06
438.721	607.06
438.943	605.06
439.165	607.06
439.386	599.06
439.608	616.06
439.829	603.06
440.05	605.06
440.272	610.06
440.493	609.06
440.715	621.06
440.936	608.06
441.158	623.06
441.379	625.06
441.6	635.06
441.822	616.06
442.043	630.06
442.264	646.06
442.486	646.06
442.707	626.06
442.928	596.06
443.149	621.06
443.371	609.06
443.592	603.06
443.813	612.06
444.034	609.06
444.255	618.06
444.476	625.06
444.698	631.06
444.919	635.06
445.14	723.06
445.361	651.06
445.582	599.06
445.803	608.06
446.024	586.06
446.245	614.06
446.466	636.06
446.687	607.06
446.908	610.06
447.129	599.06
447.35	598.06
447.571	605.06
447.792	602.06
448.013	595.06
448.234	584.06
448.455	571.06
448.675	588.06
448.896	593.06
449.117	565.06
449.338	582.06
449.559	602.06
449.779	564.06
450	607.06
450.221	593.06
450.442	596.06
450.662	587.06
450.883	594.06
451.104	593.06
451.324	591.06
451.545	573.06
451.766	570.06
451.986	591.06
452.207	579.06
452.428	582.06
452.648	578.06
452.869	573.06
453.089	562.06
453.31	584.06
453.53	579.06
453.751	573.06
453.971	571.06
454.192	566.06
454.412	566.06
454.633	572.06
454.853	571.06
455.073	568.06
455.294	560.06
455.514	571.06
455.734	569.06
455.955	564.06
456.175	565.06
456.395	559.06
456.616	562.06
456.836	557.06
457.056	561.06
457.276	567.06
457.497	580.06
457.717	545.06
457.937	567.06
458.157	587.06
458.377	573.06
458.598	577.06
458.818	596.06
459.038	589.06
459.258	590.06
459.478	596.06
459.698	591.06
459.918	574.06
460.138	585.06
460.358	596.06
460.578	616.06
460.798	624.06
461.018	621.06
461.238	579.06
461.458	635.06
461.678	601.06
461.898	635.06
462.118	632.06
462.338	639.06
462.558	621.06
462.777	631.06
462.997	627.06
463.217	633.06
463.437	626.06
463.657	649.06
463.876	660.06
464.096	658.06
464.316	630.06
464.536	633.06
464.755	643.06
464.975	627.06
465.195	603.06
465.414	628.06
465.634	626.06
465.854	608.06
466.073	619.06
466.293	605.06
466.512	607.06
466.732	611.06
466.951	610.06
467.171	602.06
467.391	619.06
467.61	631.06
467.829	605.06
468.049	613.06
468.268	594.06
468.488	591.06
468.707	592.06
468.927	596.06
469.146	603.06
469.365	623.06
469.585	606.06
469.804	606.06
470.023	605.06
470.243	605.06
470.462	612.06
470.681	608.06
470.901	631.06
471.12	608.06
471.339	641.06
471.558	623.06
471.777	634.06
471.997	632.06
472.216	633.06
472.435	628.06
472.654	628.06
472.873	641.06
473.092	627.06
473.311	607.06
473.53	627.06
473.749	617.06
473.968	637.06
474.187	653.06
474.406	639.06
474.625	643.06
474.844	639.06
475.063	623.06
475.282	671.06
475.501	658.06
475.72	658.06
475.939	681.06
476.158	671.06
476.377	691.06
476.596	680.06
476.814	683.06
477.033	661.06
477.252	685.06
477.471	691.06
477.69	690.06
477.908	706.06
478.127	704.06
478.346	725.06
478.564	721.06
478.783	709.06
479.002	726.06
479.22	732.06
479.439	738.06
479.658	723.06
479.876	729.06
480.095	736.06
480.313	721.06
480.532	736.06
480.751	744.06
480.969	753.06
481.188	746.06
481.406	743.06
481.624	729.06
481.843	725.06
482.061	786.06
482.28	746.06
482.498	749.06
482.717	726.06
482.935	761.06
483.153	759.06
483.372	760.06
483.59	776.06
483.808	760.06
484.027	775.06
484.245	774.06
484.463	798.06
484.681	783.06
484.9	792.06
485.118	779.06
485.336	762.06
485.554	783.06
485.772	784.06
485.99	788.06
486.209	764.06
486.427	799.06
486.645	742.06
486.863	820.06
487.081	791.06
487.299	787.06
487.517	780.06
487.735	793.06
487.953	808.06
488.171	778.06
488.389	783.06
488.607	809.06
488.825	775.06
489.043	799.06
489.261	782.06
489.479	808.06
489.696	789.06
489.914	754.06
490.132	778.06
490.35	808.06
490.568	800.06
490.786	801.06
491.003	792.06
491.221	813.06
491.439	810.06
491.657	783.06
491.874	806.06
492.092	824.06
492.31	832.06
492.527	799.06
492.745	803.06
492.963	802.06
493.18	818.06
493.398	813.06
493.615	803.06
493.833	810.06
494.05	808.06
494.268	804.06
494.485	814.06
494.703	813.06
494.92	810.06
495.138	806.06
495.355	822.06
495.573	810.06
495.79	830.06
496.008	850.06
496.225	830.06
496.442	843.06
496.66	850.06
496.877	841.06
497.094	850.06
497.312	861.06
497.529	858.06
497.746	849.06
497.963	851.06
498.181	850.06
498.398	863.06
498.615	928.06
498.832	870.06
499.049	906.06
499.267	911.06
499.484	905.06
499.701	951.06
499.918	938.06
500.135	958.06
500.352	977.06
500.569	957.06
500.786	985.06
501.003	965.06
501.22	964.06
501.437	916.06
501.654	932.06
501.871	916.06
502.088	919.06
502.305	904.06
502.522	871.06
502.739	910.06
502.956	891.06
503.172	880.06
503.389	855.06
503.606	854.06
503.823	854.06
504.04	846.06
504.256	853.06
504.473	827.06
504.69	832.06
504.907	804.06
505.123	785.06
505.34	802.06
505.557	798.06
505.773	793.06
505.99	767.06
506.207	787.06
506.423	766.06
506.64	786.06
506.856	773.06
507.073	773.06
507.289	730.06
507.506	769.06
507.722	739.06
507.939	763.06
508.155	750.06
508.372	734.06
508.588	752.06
508.805	725.06
509.021	722.06
509.238	725.06
509.454	719.06
509.67	727.06
509.887	677.06
510.103	710.06
510.319	715.06
510.536	714.06
510.752	716.06
510.968	705.06
511.184	701.06
511.401	714.06
511.617	710.06
511.833	693.06
512.049	679.06
512.265	694.06
512.481	693.06
512.698	705.06
512.914	726.06
513.13	684.06
513.346	698.06
513.562	734.06
513.778	689.06
513.994	688.06
514.21	691.06
514.426	711.06
514.642	679.06
514.858	715.06
515.074	688.06
515.29	695.06
515.506	734.06
515.721	718.06
515.937	707.06
516.153	710.06
516.369	733.06
516.585	707.06
516.801	718.06
517.016	701.06
517.232	713.06
517.448	713.06
517.664	762.06
517.879	703.06
518.095	713.06
518.311	711.06
518.527	715.06
518.742	710.06
518.958	712.06
519.173	709.06
519.389	711.06
519.605	696.06
519.82	679.06
520.036	699.06
520.251	701.06
520.467	682.06
520.682	701.06
520.898	692.06
521.113	675.06
521.329	703.06
521.544	675.06
521.76	688.06
521.975	669.06
522.19	687.06
522.406	704.06
522.621	676.06
522.836	701.06
523.052	671.06
523.267	672.06
523.482	681.06
523.698	684.06
523.913	667.06
524.128	683.06
524.343	688.06
524.559	643.06
524.774	639.06
524.989	648.06
525.204	663.06
525.419	675.06
525.634	648.06
525.849	648.06
526.064	670.06
526.28	665.06
526.495	645.06
526.71	649.06
526.925	634.06
527.14	650.06
527.355	658.06
527.57	633.06
527.785	657.06
527.999	638.06
528.214	645.06
528.429	629.06
528.644	663.06
528.859	633.06
529.074	653.06
529.289	681.06
529.503	651.06
529.718	666.06
529.933	648.06
530.148	657.06
530.363	643.06
530.577	651.06
530.792	632.06
531.007	611.06
531.221	641.06
531.436	645.06
531.651	639.06
531.865	634.06
532.08	617.06
532.295	647.06
532.509	628.06
532.724	603.06
532.938	630.06
533.153	661.06
533.367	610.06
533.582	640.06
533.796	638.06
534.011	635.06
534.225	628.06
534.44	607.06
534.654	621.06
534.868	642.06
535.083	631.06
535.297	629.06
535.511	644.06
535.726	643.06
535.94	607.06
536.154	627.06
536.369	624.06
536.583	624.06
536.797	619.06
537.011	579.06
537.225	608.06
537.44	618.06
537.654	630.06
537.868	603.06
538.082	623.06
538.296	633.06
538.51	611.06
538.724	611.06
538.938	598.06
539.153	590.06
539.367	579.06
539.581	582.06
539.795	604.06
540.009	583.06
540.222	598.06
540.436	578.06
540.65	599.06
540.864	574.06
541.078	591.06
541.292	602.06
541.506	583.06
541.72	592.06
541.934	602.06
542.147	598.06
542.361	594.06
542.575	602.06
542.789	597.06
543.002	592.06
543.216	586.06
543.43	592.06
543.644	569.06
543.857	575.06
544.071	572.06
544.285	586.06
544.498	583.06
544.712	575.06
544.925	589.06
545.139	590.06
545.352	576.06
545.566	586.06
545.779	573.06
545.993	591.06
546.206	579.06
546.42	572.06
546.633	569.06
546.847	598.06
547.06	590.06
547.274	580.06
547.487	584.06
547.7	565.06
547.914	578.06
548.127	594.06
548.34	589.06
548.554	584.06
548.767	578.06
548.98	584.06
549.193	547.06
549.407	590.06
549.62	560.06
549.833	559.06
550.046	563.06
550.259	566.06
550.473	564.06
550.686	563.06
550.899	577.06
551.112	562.06
551.325	558.06
551.538	569.06
551.751	565.06
551.964	558.06
552.177	578.06
552.39	543.06
552.603	575.06
552.816	566.06
553.029	573.06
553.242	546.06
553.455	563.06
553.667	546.06
553.88	529.06
554.093	534.06
554.306	572.06
554.519	546.06
554.732	557.06
554.944	530.06
555.157	551.06
555.37	551.06
555.583	558.06
555.795	515.06
556.008	517.06
556.221	515.06
556.433	529.06
556.646	517.06
556.859	536.06
557.071	508.06
557.284	511.06
557.496	517.06
557.709	520.06
557.921	519.06
558.134	520.06
558.346	515.06
558.559	521.06
558.771	516.06
558.984	518.06
559.196	530.06
559.409	515.06
559.621	506.06
559.833	516.06
560.046	500.06
560.258	522.06
560.47	524.06
560.683	514.06
560.895	498.06
561.107	502.06
561.32	479.06
561.532	505.06
561.744	488.06
561.956	509.06
562.168	501.06
562.381	487.06
562.593	497.06
562.805	522.06
563.017	516.06
563.229	510.06
563.441	509.06
563.653	490.06
563.865	495.06
564.077	493.06
564.289	476.06
564.501	484.06
564.713	486.06
564.925	493.06
565.137	508.06
565.349	507.06
565.561	501.06
565.773	500.06
565.985	506.06
566.197	497.06
566.408	484.06
566.62	513.06
566.832	503.06
567.044	499.06
567.255	511.06
567.467	520.06
567.679	531.06
567.891	479.06
568.102	513.06
568.314	490.06
568.526	494.06
568.737	507.06
568.949	474.06
569.161	482.06
569.372	463.06
569.584	465.06
569.795	452.06
570.007	440.06
570.218	466.06
570.43	454.06
570.641	442.06
570.853	429.06
571.064	435.06
571.276	453.06
571.487	465.06
571.698	435.06
571.91	442.06
572.121	441.06
572.333	448.06
572.544	435.06
572.755	424.06
572.966	416.06
573.178	423.06
573.389	415.06
573.6	440.06
573.811	420.06
574.023	410.06
574.234	423.06
574.445	424.06
574.656	424.06
574.867	394.06
575.078	420.06
575.289	413.06
575.501	397.06
575.712	396.06
575.923	409.06
576.134	389.06
576.345	389.06
576.556	390.06
576.767	382.06
576.978	390.06
577.188	383.06
577.399	406.06
577.61	410.06
577.821	407.06
578.032	400.06
578.243	375.06
578.454	377.06
578.665	387.06
578.875	372.06
579.086	383.06
579.297	387.06
579.508	380.06
579.718	372.06
579.929	386.06
580.14	351.06
580.35	371.06
580.561	389.06
580.772	381.06
580.982	396.06
581.193	361.06
581.403	368.06
581.614	359.06
581.825	387.06
582.035	362.06
582.246	369.06
582.456	383.06
582.667	365.06
582.877	385.06
583.087	369.06
583.298	369.06
583.508	347.06
583.719	375.06
583.929	375.06
584.139	354.06
584.35	343.06
584.56	357.06
584.77	349.06
584.981	347.06
585.191	356.06
585.401	355.06
585.611	342.06
585.821	355.06
586.032	336.06
586.242	346.06
586.452	351.06
586.662	339.06
586.872	349.06
587.082	345.06
587.292	354.06
587.502	351.06
587.713	353.06
587.923	355.06
588.133	351.06
588.343	345.06
588.553	338.06
588.762	347.06
588.972	358.06
589.182	363.06
589.392	350.06
589.602	338.06
589.812	353.06
590.022	331.06
590.232	334.06
590.441	352.06
590.651	345.06
590.861	328.06
591.071	330.06
591.281	339.06
591.49	327.06
591.7	338.06
591.91	341.06
592.119	304.06
592.329	330.06
592.539	313.06
592.748	325.06
592.958	331.06
593.167	344.06
593.377	338.06
593.587	333.06
593.796	330.06
594.006	327.06
594.215	347.06
594.424	343.06
594.634	332.06
594.843	321.06
595.053	327.06
595.262	313.06
595.472	320.06
595.681	312.06
595.89	303.06
596.1	303.06
596.309	313.06
596.518	318.06
596.727	316.06
596.937	317.06
597.146	326.06
597.355	318.06
597.564	312.06
597.774	311.06
597.983	317.06
598.192	311.06
598.401	288.06
598.61	288.06
598.819	305.06
599.028	311.06
599.237	321.06
599.446	303.06
599.655	299.06
599.864	307.06
600.073	286.06
600.282	275.06
600.491	291.06
600.7	299.06
600.909	303.06
601.118	303.06
601.327	296.06
601.536	296.06
601.745	284.06
601.953	277.06
602.162	282.06
602.371	291.06
602.58	276.06
602.789	285.06
602.997	278.06
603.206	290.06
603.415	274.06
603.623	293.06
603.832	307.06
604.041	285.06
604.249	282.06
604.458	281.06
604.666	258.06
604.875	282.06
605.084	278.06
605.292	257.06
605.501	265.06
605.709	291.06
605.918	274.06
606.126	267.06
606.334	274.06
606.543	295.06
606.751	286.06
606.96	277.06
607.168	285.06
607.376	280.06
607.585	276.06
607.793	269.06
608.001	266.06
608.21	280.06
608.418	273.06
608.626	279.06
608.834	274.06
609.043	260.06
609.251	265.06
609.459	255.06
609.667	259.06
609.875	268.06
610.083	283.06
610.291	275.06
610.499	262.06
610.707	278.06
610.916	249.06
611.124	272.06
611.332	280.06
611.54	282.06
611.748	271.06
611.955	268.06
612.163	279.06
612.371	276.06
612.579	263.06
612.787	249.06
612.995	265.06
613.203	257.06
613.411	250.06
613.618	264.06
613.826	270.06
614.034	265.06
614.242	279.06
614.449	259.06
614.657	247.06
614.865	278.06
615.072	275.06
615.28	256.06
615.488	257.06
615.695	265.06
615.903	266.06
616.111	249.06
616.318	261.06
616.526	266.06
616.733	274.06
616.941	253.06
617.148	254.06
617.356	274.06
617.563	235.06
617.771	253.06
617.978	240.06
618.185	248.06
618.393	238.06
618.6	251.06
618.807	253.06
619.015	253.06
619.222	254.06
619.429	254.06
619.637	251.06
619.844	269.06
620.051	251.06
620.258	253.06
620.466	254.06
620.673	231.06
620.88	252.06
621.087	231.06
621.294	230.06
621.501	241.06
621.708	240.06
621.915	242.06
622.122	258.06
622.329	226.06
622.536	242.06
622.743	235.06
622.95	231.06
623.157	238.06
623.364	229.06
623.571	233.06
623.778	240.06
623.985	237.06
624.192	231.06
624.399	228.06
624.606	241.06
624.812	228.06
625.019	229.06
625.226	232.06
625.433	238.06
625.639	246.06
625.846	230.06
626.053	227.06
626.259	225.06
626.466	229.06
626.673	216.06
626.879	228.06
627.086	230.06
627.293	226.06
627.499	243.06
627.706	216.06
627.912	231.06
628.119	223.06
628.325	218.06
628.532	215.06
628.738	224.06
628.945	216.06
629.151	206.06
629.357	225.06
629.564	225.06
629.77	214.06
629.976	214.06
630.183	201.06
630.389	210.06
630.595	201.06
630.802	205.06
631.008	211.06
631.214	203.06
631.42	213.06
631.627	220.06
631.833	211.06
632.039	203.06
632.245	204.06
632.451	207.06
632.657	208.06
632.863	202.06
633.069	209.06
633.275	221.06
633.481	192.06
633.688	222.06
633.893	202.06
634.099	202.06
634.305	213.06
634.511	201.06
634.717	207.06
634.923	206.06
635.129	191.06
635.335	188.06
635.541	197.06
635.747	197.06
635.952	224.06
636.158	213.06
636.364	215.06
636.57	204.06
636.775	183.06
636.981	188.06
637.187	196.06
637.392	199.06
637.598	200.06
637.804	200.06
638.009	198.06
638.215	199.06
638.421	188.06
638.626	185.06
638.832	207.06
639.037	196.06
639.243	201.06
639.448	194.06
639.654	207.06
639.859	196.06
640.065	195.06
640.27	186.06
640.475	205.06
640.681	190.06
640.886	200.06
641.091	201.06
641.297	220.06
641.502	186.06
641.707	183.06
641.913	181.06
642.118	201.06
642.323	191.06
642.528	183.06
642.733	202.06
642.939	203.06
643.144	201.06
643.349	190.06
643.554	187.06
643.759	201.06
643.964	205.06
644.169	191.06
644.374	182.06
644.579	213.06
644.784	200.06
644.989	184.06
645.194	198.06
645.399	190.06
645.604	184.06
645.809	187.06
646.014	185.06
646.219	183.06
646.423	188.06
646.628	191.06
646.833	195.06
647.038	180.06
647.243	170.06
647.447	192.06
647.652	173.06
647.857	181.06
648.062	186.06
648.266	191.06
648.471	201.06
648.676	189.06
648.88	192.06
649.085	206.06
649.289	183.06
649.494	200.06
649.698	194.06
649.903	189.06
650.107	175.06
650.312	191.06
650.516	177.06
650.721	195.06
650.925	188.06
651.13	175.06
651.334	193.06
651.539	174.06
651.743	185.06
651.947	189.06
652.152	200.06
652.356	173.06
652.56	167.06
652.764	167.06
652.969	183.06
653.173	160.06
653.377	173.06
653.581	169.06
653.785	179.06
653.99	161.06
654.194	154.06
654.398	173.06
654.602	170.06
654.806	145.06
655.01	178.06
655.214	170.06
655.418	161.06
655.622	168.06
655.826	171.06
656.03	162.06
656.234	167.06
656.438	159.06
656.642	154.06
656.846	161.06
657.049	149.06
657.253	160.06
657.457	125.06
657.661	139.06
657.865	127.06
658.068	149.06
658.272	127.06
658.476	121.06
658.68	107.06
658.883	117.06
659.087	121.06
659.291	101.06
659.494	115.06
659.698	106.06
659.901	104.06
660.105	111.06
660.309	97.06
660.512	111.06
660.716	99.06
660.919	98.06
661.123	97.06
661.326	88.06
661.53	90.06
661.733	90.06
661.936	89.06
662.14	94.06
662.343	90.06
662.546	82.06
662.75	75.06
662.953	100.06
663.156	96.06
663.36	68.06
663.563	99.06
663.766	89.06
663.969	72.06
664.173	82.06
664.376	93.06
664.579	85.06
664.782	74.06
664.985	75.06
665.188	77.06
665.391	81.06
665.594	69.06
665.797	73.06
666	78.06
666.203	95.06
666.406	73.06
666.609	90.06
666.812	75.06
667.015	85.06
667.218	85.06
667.421	81.06
667.624	74.06
667.827	91.06
668.03	79.06
668.232	83.06
668.435	100.06
668.638	86.06
668.841	93.06
669.043	73.06
669.246	85.06
669.449	72.06
669.651	71.06
669.854	76.06
670.057	79.06
670.259	71.06
670.462	80.06
670.665	72.06
670.867	81.06
671.07	86.06
671.272	79.06
671.475	95.06
671.677	87.06
671.88	75.06
672.082	71.06
672.284	70.06
672.487	80.06
672.689	86.06
672.892	70.06
