Data from Fe(NO3)3@0.025M.TitratingCurve.Agarose3%dH2O.NegLispCup.LampEnergy10.LIBS07252019_HRD10591_16-54-08-335.txt Node
Date: Thu Jul 25 16:54:08 EDT 2019
User: cochatt
Spectrometer: HR+D1059
Trigger mode: 1
Integration Time (sec): 1.000000E-1
Scans to average: 1
Electric dark correction enabled: true
Nonlinearity correction enabled: false
Boxcar width: 0
XAxis mode: Wavelengths
Number of Pixels in Spectrum: 2048
>>>>>Begin Spectral Data<<<<<
223.165	-13.94
223.4	-13.94
223.635	-13.94
223.869	-24.94
224.104	-18.94
224.338	-8.94
224.573	-24.94
224.808	-16.94
225.042	-9.94
225.277	-4.94
225.511	-8.94
225.746	11.06
225.98	10.06
226.215	8.06
226.449	25.06
226.683	16.06
226.918	23.06
227.152	39.06
227.387	34.06
227.621	41.06
227.856	57.06
228.09	36.06
228.324	43.06
228.559	59.06
228.793	65.06
229.027	93.06
229.262	108.06
229.496	96.06
229.73	110.06
229.964	126.06
230.199	109.06
230.433	105.06
230.667	103.06
230.901	115.06
231.136	126.06
231.37	129.06
231.604	109.06
231.838	129.06
232.072	123.06
232.306	113.06
232.541	120.06
232.775	125.06
233.009	133.06
233.243	124.06
233.477	122.06
233.711	140.06
233.945	130.06
234.179	115.06
234.413	128.06
234.647	135.06
234.881	131.06
235.115	133.06
235.349	122.06
235.583	141.06
235.817	115.06
236.051	124.06
236.285	113.06
236.519	141.06
236.753	147.06
236.987	127.06
237.221	143.06
237.455	140.06
237.689	135.06
237.922	149.06
238.156	141.06
238.39	126.06
238.624	143.06
238.858	161.06
239.091	142.06
239.325	135.06
239.559	141.06
239.793	147.06
240.027	154.06
240.26	163.06
240.494	161.06
240.728	146.06
240.961	155.06
241.195	162.06
241.429	149.06
241.662	164.06
241.896	157.06
242.13	151.06
242.363	138.06
242.597	149.06
242.83	162.06
243.064	156.06
243.298	174.06
243.531	155.06
243.765	181.06
243.998	177.06
244.232	155.06
244.465	158.06
244.699	169.06
244.932	173.06
245.166	174.06
245.399	168.06
245.633	166.06
245.866	157.06
246.099	174.06
246.333	170.06
246.566	161.06
246.8	173.06
247.033	156.06
247.266	171.06
247.5	163.06
247.733	196.06
247.966	190.06
248.2	195.06
248.433	185.06
248.666	195.06
248.899	187.06
249.133	186.06
249.366	181.06
249.599	200.06
249.832	191.06
250.066	187.06
250.299	191.06
250.532	197.06
250.765	179.06
250.998	189.06
251.231	198.06
251.465	183.06
251.698	191.06
251.931	196.06
252.164	192.06
252.397	205.06
252.63	221.06
252.863	207.06
253.096	225.06
253.329	223.06
253.562	223.06
253.795	218.06
254.028	231.06
254.261	230.06
254.494	246.06
254.727	217.06
254.96	212.06
255.193	217.06
255.426	222.06
255.659	211.06
255.892	211.06
256.124	207.06
256.357	233.06
256.59	235.06
256.823	216.06
257.056	211.06
257.289	234.06
257.521	216.06
257.754	200.06
257.987	226.06
258.22	220.06
258.452	224.06
258.685	223.06
258.918	218.06
259.151	223.06
259.383	221.06
259.616	231.06
259.849	246.06
260.081	311.06
260.314	278.06
260.547	258.06
260.779	249.06
261.012	230.06
261.244	253.06
261.477	263.06
261.71	270.06
261.942	253.06
262.175	253.06
262.407	243.06
262.64	263.06
262.872	254.06
263.105	267.06
263.337	271.06
263.57	253.06
263.802	227.06
264.035	243.06
264.267	238.06
264.499	236.06
264.732	246.06
264.964	261.06
265.197	241.06
265.429	251.06
265.661	247.06
265.894	256.06
266.126	237.06
266.358	254.06
266.591	273.06
266.823	264.06
267.055	250.06
267.287	249.06
267.52	252.06
267.752	274.06
267.984	263.06
268.216	268.06
268.448	262.06
268.681	233.06
268.913	259.06
269.145	273.06
269.377	271.06
269.609	271.06
269.841	267.06
270.073	274.06
270.306	274.06
270.538	263.06
270.77	282.06
271.002	277.06
271.234	291.06
271.466	277.06
271.698	295.06
271.93	269.06
272.162	310.06
272.394	298.06
272.626	287.06
272.858	289.06
273.09	304.06
273.322	293.06
273.553	275.06
273.785	299.06
274.017	318.06
274.249	317.06
274.481	311.06
274.713	330.06
274.945	375.06
275.176	374.06
275.408	338.06
275.64	337.06
275.872	349.06
276.104	325.06
276.335	309.06
276.567	315.06
276.799	311.06
277.031	313.06
277.262	328.06
277.494	329.06
277.726	317.06
277.957	331.06
278.189	310.06
278.421	323.06
278.652	302.06
278.884	321.06
279.115	323.06
279.347	307.06
279.579	316.06
279.81	301.06
280.042	324.06
280.273	319.06
280.505	325.06
280.736	328.06
280.968	316.06
281.199	329.06
281.431	327.06
281.662	320.06
281.894	330.06
282.125	314.06
282.356	325.06
282.588	335.06
282.819	340.06
283.051	321.06
283.282	329.06
283.513	334.06
283.745	363.06
283.976	340.06
284.207	347.06
284.439	347.06
284.67	341.06
284.901	346.06
285.132	363.06
285.364	335.06
285.595	316.06
285.826	319.06
286.057	362.06
286.288	348.06
286.52	365.06
286.751	357.06
286.982	354.06
287.213	338.06
287.444	342.06
287.675	345.06
287.906	356.06
288.138	343.06
288.369	362.06
288.6	365.06
288.831	348.06
289.062	363.06
289.293	362.06
289.524	355.06
289.755	360.06
289.986	355.06
290.217	358.06
290.448	360.06
290.679	372.06
290.91	361.06
291.141	366.06
291.371	375.06
291.602	357.06
291.833	364.06
292.064	348.06
292.295	361.06
292.526	369.06
292.757	378.06
292.987	359.06
293.218	364.06
293.449	374.06
293.68	366.06
293.91	365.06
294.141	366.06
294.372	366.06
294.603	384.06
294.833	372.06
295.064	380.06
295.295	366.06
295.525	373.06
295.756	366.06
295.987	374.06
296.217	360.06
296.448	379.06
296.679	391.06
296.909	374.06
297.14	382.06
297.37	390.06
297.601	395.06
297.831	359.06
298.062	363.06
298.292	372.06
298.523	383.06
298.753	414.06
298.984	392.06
299.214	396.06
299.445	398.06
299.675	399.06
299.905	386.06
300.136	391.06
300.366	390.06
300.597	399.06
300.827	395.06
301.057	397.06
301.288	400.06
301.518	381.06
301.748	394.06
301.979	414.06
302.209	399.06
302.439	414.06
302.669	409.06
302.9	421.06
303.13	418.06
303.36	418.06
303.59	419.06
303.82	405.06
304.051	415.06
304.281	407.06
304.511	392.06
304.741	419.06
304.971	412.06
305.201	422.06
305.431	414.06
305.661	410.06
305.891	406.06
306.121	425.06
306.352	433.06
306.582	423.06
306.812	407.06
307.042	442.06
307.272	413.06
307.502	419.06
307.731	426.06
307.961	406.06
308.191	425.06
308.421	425.06
308.651	413.06
308.881	399.06
309.111	422.06
309.341	429.06
309.571	418.06
309.8	438.06
310.03	421.06
310.26	426.06
310.49	407.06
310.72	447.06
310.949	412.06
311.179	430.06
311.409	445.06
311.639	441.06
311.868	434.06
312.098	449.06
312.328	429.06
312.557	437.06
312.787	445.06
313.017	434.06
313.246	468.06
313.476	447.06
313.706	438.06
313.935	439.06
314.165	447.06
314.394	451.06
314.624	437.06
314.853	456.06
315.083	464.06
315.312	453.06
315.542	465.06
315.771	468.06
316.001	475.06
316.23	462.06
316.46	460.06
316.689	475.06
316.919	477.06
317.148	446.06
317.377	467.06
317.607	449.06
317.836	462.06
318.065	451.06
318.295	446.06
318.524	460.06
318.753	471.06
318.983	476.06
319.212	455.06
319.441	483.06
319.67	478.06
319.9	455.06
320.129	481.06
320.358	449.06
320.587	475.06
320.816	477.06
321.046	462.06
321.275	480.06
321.504	485.06
321.733	476.06
321.962	470.06
322.191	487.06
322.42	468.06
322.649	468.06
322.878	476.06
323.108	458.06
323.337	491.06
323.566	459.06
323.795	510.06
324.024	482.06
324.253	485.06
324.482	479.06
324.71	481.06
324.939	487.06
325.168	501.06
325.397	484.06
325.626	477.06
325.855	492.06
326.084	490.06
326.313	490.06
326.542	490.06
326.77	489.06
326.999	501.06
327.228	515.06
327.457	485.06
327.686	509.06
327.914	523.06
328.143	524.06
328.372	508.06
328.6	487.06
328.829	500.06
329.058	502.06
329.287	502.06
329.515	505.06
329.744	511.06
329.972	501.06
330.201	508.06
330.43	521.06
330.658	497.06
330.887	518.06
331.115	511.06
331.344	513.06
331.572	519.06
331.801	518.06
332.03	525.06
332.258	498.06
332.486	533.06
332.715	511.06
332.943	546.06
333.172	534.06
333.4	553.06
333.629	565.06
333.857	555.06
334.085	583.06
334.314	567.06
334.542	582.06
334.771	583.06
334.999	565.06
335.227	588.06
335.455	570.06
335.684	568.06
335.912	564.06
336.14	584.06
336.369	575.06
336.597	571.06
336.825	585.06
337.053	593.06
337.281	562.06
337.51	555.06
337.738	579.06
337.966	572.06
338.194	580.06
338.422	571.06
338.65	550.06
338.878	548.06
339.106	556.06
339.334	563.06
339.562	535.06
339.79	552.06
340.018	555.06
340.246	545.06
340.474	552.06
340.702	542.06
340.93	567.06
341.158	529.06
341.386	541.06
341.614	550.06
341.842	538.06
342.07	530.06
342.298	552.06
342.526	530.06
342.754	558.06
342.981	532.06
343.209	540.06
343.437	564.06
343.665	564.06
343.893	583.06
344.12	578.06
344.348	579.06
344.576	567.06
344.804	554.06
345.031	565.06
345.259	561.06
345.487	540.06
345.714	533.06
345.942	552.06
346.17	539.06
346.397	544.06
346.625	536.06
346.853	523.06
347.08	557.06
347.308	536.06
347.535	550.06
347.763	535.06
347.99	547.06
348.218	539.06
348.445	534.06
348.673	525.06
348.9	511.06
349.128	523.06
349.355	516.06
349.583	524.06
349.81	523.06
350.037	530.06
350.265	520.06
350.492	527.06
350.72	500.06
350.947	520.06
351.174	523.06
351.402	527.06
351.629	503.06
351.856	534.06
352.083	508.06
352.311	499.06
352.538	491.06
352.765	521.06
352.992	509.06
353.22	517.06
353.447	519.06
353.674	518.06
353.901	499.06
354.128	513.06
354.355	525.06
354.583	513.06
354.81	514.06
355.037	516.06
355.264	534.06
355.491	506.06
355.718	532.06
355.945	524.06
356.172	500.06
356.399	501.06
356.626	530.06
356.853	506.06
357.08	515.06
357.307	525.06
357.534	506.06
357.761	540.06
357.988	528.06
358.215	520.06
358.441	525.06
358.668	529.06
358.895	527.06
359.122	502.06
359.349	529.06
359.576	515.06
359.802	516.06
360.029	512.06
360.256	533.06
360.483	509.06
360.709	528.06
360.936	513.06
361.163	541.06
361.39	521.06
361.616	520.06
361.843	534.06
362.07	526.06
362.296	520.06
362.523	507.06
362.749	519.06
362.976	500.06
363.203	539.06
363.429	536.06
363.656	525.06
363.882	517.06
364.109	517.06
364.335	522.06
364.562	531.06
364.788	535.06
365.015	546.06
365.241	515.06
365.468	513.06
365.694	539.06
365.92	550.06
366.147	507.06
366.373	521.06
366.599	519.06
366.826	529.06
367.052	542.06
367.278	538.06
367.505	521.06
367.731	550.06
367.957	545.06
368.184	514.06
368.41	528.06
368.636	561.06
368.862	540.06
369.089	539.06
369.315	527.06
369.541	548.06
369.767	547.06
369.993	542.06
370.219	543.06
370.445	564.06
370.672	561.06
370.898	544.06
371.124	555.06
371.35	531.06
371.576	572.06
371.802	539.06
372.028	565.06
372.254	572.06
372.48	583.06
372.706	578.06
372.932	586.06
373.158	569.06
373.384	586.06
373.61	598.06
373.835	615.06
374.061	576.06
374.287	565.06
374.513	577.06
374.739	590.06
374.965	569.06
375.191	582.06
375.416	597.06
375.642	603.06
375.868	578.06
376.094	555.06
376.319	599.06
376.545	548.06
376.771	577.06
376.997	593.06
377.222	543.06
377.448	574.06
377.674	575.06
377.899	579.06
378.125	565.06
378.35	544.06
378.576	564.06
378.802	573.06
379.027	561.06
379.253	570.06
379.478	574.06
379.704	567.06
379.929	564.06
380.155	563.06
380.38	557.06
380.606	575.06
380.831	580.06
381.057	573.06
381.282	552.06
381.507	566.06
381.733	572.06
381.958	578.06
382.184	602.06
382.409	607.06
382.634	594.06
382.86	611.06
383.085	589.06
383.31	582.06
383.535	594.06
383.761	615.06
383.986	611.06
384.211	622.06
384.436	609.06
384.662	606.06
384.887	615.06
385.112	614.06
385.337	615.06
385.562	633.06
385.787	637.06
386.013	623.06
386.238	635.06
386.463	633.06
386.688	633.06
386.913	620.06
387.138	637.06
387.363	661.06
387.588	669.06
387.813	661.06
388.038	667.06
388.263	654.06
388.488	667.06
388.713	649.06
388.938	667.06
389.163	626.06
389.387	639.06
389.612	635.06
389.837	670.06
390.062	669.06
390.287	639.06
390.512	658.06
390.736	658.06
390.961	660.06
391.186	662.06
391.411	673.06
391.636	666.06
391.86	653.06
392.085	667.06
392.31	675.06
392.534	667.06
392.759	648.06
392.984	671.06
393.208	667.06
393.433	673.06
393.658	684.06
393.882	666.06
394.107	669.06
394.331	664.06
394.556	666.06
394.78	660.06
395.005	650.06
395.229	690.06
395.454	699.06
395.678	684.06
395.903	687.06
396.127	694.06
396.352	680.06
396.576	689.06
396.801	696.06
397.025	728.06
397.249	712.06
397.474	702.06
397.698	709.06
397.922	705.06
398.147	726.06
398.371	701.06
398.595	737.06
398.82	739.06
399.044	760.06
399.268	788.06
399.492	829.06
399.717	854.06
399.941	859.06
400.165	815.06
400.389	801.06
400.613	823.06
400.837	797.06
401.062	794.06
401.286	769.06
401.51	772.06
401.734	750.06
401.958	722.06
402.182	767.06
402.406	769.06
402.63	771.06
402.854	737.06
403.078	741.06
403.302	761.06
403.526	789.06
403.75	757.06
403.974	801.06
404.198	754.06
404.422	778.06
404.645	776.06
404.869	772.06
405.093	756.06
405.317	782.06
405.541	787.06
405.765	776.06
405.988	798.06
406.212	804.06
406.436	775.06
406.66	825.06
406.883	821.06
407.107	837.06
407.331	830.06
407.555	856.06
407.778	849.06
408.002	838.06
408.226	865.06
408.449	819.06
408.673	816.06
408.896	810.06
409.12	806.06
409.344	818.06
409.567	793.06
409.791	806.06
410.014	776.06
410.238	782.06
410.461	787.06
410.685	804.06
410.908	799.06
411.132	786.06
411.355	774.06
411.578	797.06
411.802	781.06
412.025	776.06
412.249	781.06
412.472	795.06
412.695	769.06
412.919	793.06
413.142	793.06
413.365	784.06
413.589	775.06
413.812	755.06
414.035	750.06
414.258	761.06
414.482	755.06
414.705	765.06
414.928	751.06
415.151	756.06
415.374	761.06
415.597	769.06
415.821	735.06
416.044	726.06
416.267	733.06
416.49	741.06
416.713	725.06
416.936	738.06
417.159	716.06
417.382	722.06
417.605	735.06
417.828	733.06
418.051	732.06
418.274	698.06
418.497	719.06
418.72	715.06
418.943	702.06
419.166	745.06
419.389	793.06
419.611	778.06
419.834	738.06
420.057	739.06
420.28	715.06
420.503	709.06
420.726	725.06
420.948	721.06
421.171	719.06
421.394	701.06
421.617	708.06
421.839	707.06
422.062	703.06
422.285	702.06
422.507	730.06
422.73	715.06
422.953	707.06
423.175	716.06
423.398	710.06
423.621	698.06
423.843	706.06
424.066	676.06
424.288	714.06
424.511	707.06
424.733	730.06
424.956	713.06
425.178	684.06
425.401	697.06
425.623	684.06
425.846	674.06
426.068	675.06
426.291	677.06
426.513	695.06
426.735	714.06
426.958	705.06
427.18	677.06
427.402	712.06
427.625	706.06
427.847	677.06
428.069	667.06
428.292	677.06
428.514	694.06
428.736	682.06
428.958	654.06
429.181	679.06
429.403	685.06
429.625	683.06
429.847	679.06
430.069	674.06
430.292	669.06
430.514	663.06
430.736	683.06
430.958	653.06
431.18	701.06
431.402	669.06
431.624	681.06
431.846	695.06
432.068	679.06
432.29	689.06
432.512	677.06
432.734	670.06
432.956	679.06
433.178	684.06
433.4	689.06
433.622	691.06
433.844	697.06
434.066	689.06
434.287	682.06
434.509	703.06
434.731	727.06
434.953	704.06
435.175	710.06
435.397	693.06
435.618	681.06
435.84	709.06
436.062	692.06
436.284	695.06
436.505	676.06
436.727	667.06
436.949	673.06
437.17	649.06
437.392	657.06
437.614	663.06
437.835	646.06
438.057	661.06
438.278	637.06
438.5	666.06
438.721	664.06
438.943	665.06
439.165	655.06
439.386	649.06
439.608	642.06
439.829	638.06
440.05	694.06
440.272	677.06
440.493	669.06
440.715	656.06
440.936	669.06
441.158	677.06
441.379	682.06
441.6	697.06
441.822	698.06
442.043	669.06
442.264	644.06
442.486	687.06
442.707	671.06
442.928	694.06
443.149	680.06
443.371	687.06
443.592	669.06
443.813	676.06
444.034	686.06
444.255	683.06
444.476	701.06
444.698	683.06
444.919	693.06
445.14	833.06
445.361	718.06
445.582	689.06
445.803	693.06
446.024	681.06
446.245	678.06
446.466	677.06
446.687	685.06
446.908	642.06
447.129	659.06
447.35	656.06
447.571	635.06
447.792	621.06
448.013	641.06
448.234	615.06
448.455	614.06
448.675	626.06
448.896	607.06
449.117	615.06
449.338	631.06
449.559	612.06
449.779	623.06
450	637.06
450.221	617.06
450.442	629.06
450.662	591.06
450.883	612.06
451.104	602.06
451.324	579.06
451.545	586.06
451.766	610.06
451.986	614.06
452.207	613.06
452.428	615.06
452.648	618.06
452.869	588.06
453.089	601.06
453.31	614.06
453.53	590.06
453.751	601.06
453.971	605.06
454.192	596.06
454.412	580.06
454.633	607.06
454.853	581.06
455.073	575.06
455.294	591.06
455.514	590.06
455.734	609.06
455.955	579.06
456.175	578.06
456.395	583.06
456.616	570.06
456.836	581.06
457.056	617.06
457.276	588.06
457.497	596.06
457.717	591.06
457.937	611.06
458.157	599.06
458.377	606.06
458.598	636.06
458.818	629.06
459.038	647.06
459.258	651.06
459.478	669.06
459.698	655.06
459.918	649.06
460.138	680.06
460.358	685.06
460.578	714.06
460.798	720.06
461.018	689.06
461.238	704.06
461.458	749.06
461.678	714.06
461.898	715.06
462.118	729.06
462.338	746.06
462.558	745.06
462.777	769.06
462.997	800.06
463.217	809.06
463.437	785.06
463.657	754.06
463.876	758.06
464.096	785.06
464.316	753.06
464.536	755.06
464.755	749.06
464.975	746.06
465.195	735.06
465.414	729.06
465.634	668.06
465.854	672.06
466.073	671.06
466.293	656.06
466.512	650.06
466.732	663.06
466.951	678.06
467.171	651.06
467.391	658.06
467.61	646.06
467.829	638.06
468.049	661.06
468.268	639.06
468.488	626.06
468.707	627.06
468.927	635.06
469.146	637.06
469.365	630.06
469.585	649.06
469.804	629.06
470.023	647.06
470.243	645.06
470.462	626.06
470.681	642.06
470.901	661.06
471.12	677.06
471.339	615.06
471.558	633.06
471.777	651.06
471.997	670.06
472.216	666.06
472.435	671.06
472.654	630.06
472.873	650.06
473.092	655.06
473.311	666.06
473.53	657.06
473.749	645.06
473.968	651.06
474.187	656.06
474.406	676.06
474.625	665.06
474.844	661.06
475.063	655.06
475.282	653.06
475.501	666.06
475.72	678.06
475.939	683.06
476.158	672.06
476.377	695.06
476.596	722.06
476.814	717.06
477.033	695.06
477.252	698.06
477.471	708.06
477.69	719.06
477.908	729.06
478.127	728.06
478.346	744.06
478.564	726.06
478.783	745.06
479.002	755.06
479.22	753.06
479.439	799.06
479.658	779.06
479.876	786.06
480.095	782.06
480.313	778.06
480.532	795.06
480.751	768.06
480.969	800.06
481.188	798.06
481.406	758.06
481.624	747.06
481.843	758.06
482.061	779.06
482.28	771.06
482.498	788.06
482.717	775.06
482.935	775.06
483.153	757.06
483.372	790.06
483.59	779.06
483.808	793.06
484.027	782.06
484.245	803.06
484.463	783.06
484.681	797.06
484.9	785.06
485.118	784.06
485.336	804.06
485.554	781.06
485.772	766.06
485.99	809.06
486.209	793.06
486.427	790.06
486.645	797.06
486.863	794.06
487.081	794.06
487.299	798.06
487.517	800.06
487.735	814.06
487.953	799.06
488.171	792.06
488.389	821.06
488.607	784.06
488.825	786.06
489.043	793.06
489.261	787.06
489.479	788.06
489.696	809.06
489.914	795.06
490.132	780.06
490.35	755.06
490.568	821.06
490.786	783.06
491.003	806.06
491.221	794.06
491.439	794.06
491.657	803.06
491.874	825.06
492.092	810.06
492.31	813.06
492.527	789.06
492.745	791.06
492.963	775.06
493.18	798.06
493.398	834.06
493.615	805.06
493.833	791.06
494.05	837.06
494.268	824.06
494.485	833.06
494.703	825.06
494.92	846.06
495.138	837.06
495.355	829.06
495.573	854.06
495.79	841.06
496.008	847.06
496.225	855.06
496.442	873.06
496.66	867.06
496.877	859.06
497.094	877.06
497.312	894.06
497.529	911.06
497.746	909.06
497.963	935.06
498.181	962.06
498.398	962.06
498.615	982.06
498.832	1042.06
499.049	1063.06
499.267	1115.06
499.484	1149.06
499.701	1206.06
499.918	1193.06
500.135	1245.06
500.352	1297.06
500.569	1318.06
500.786	1325.06
501.003	1310.06
501.22	1282.06
501.437	1227.06
501.654	1167.06
501.871	1128.06
502.088	1097.06
502.305	1077.06
502.522	1037.06
502.739	1018.06
502.956	1006.06
503.172	958.06
503.389	937.06
503.606	902.06
503.823	925.06
504.04	921.06
504.256	894.06
504.473	872.06
504.69	875.06
504.907	865.06
505.123	858.06
505.34	837.06
505.557	828.06
505.773	810.06
505.99	783.06
506.207	792.06
506.423	754.06
506.64	754.06
506.856	768.06
507.073	742.06
507.289	758.06
507.506	746.06
507.722	745.06
507.939	711.06
508.155	726.06
508.372	725.06
508.588	724.06
508.805	701.06
509.021	685.06
509.238	695.06
509.454	712.06
509.67	707.06
509.887	699.06
510.103	691.06
510.319	689.06
510.536	707.06
510.752	658.06
510.968	692.06
511.184	709.06
511.401	681.06
511.617	666.06
511.833	673.06
512.049	667.06
512.265	673.06
512.481	673.06
512.698	685.06
512.914	679.06
513.13	684.06
513.346	681.06
513.562	689.06
513.778	683.06
513.994	670.06
514.21	677.06
514.426	666.06
514.642	685.06
514.858	697.06
515.074	702.06
515.29	705.06
515.506	684.06
515.721	708.06
515.937	692.06
516.153	696.06
516.369	711.06
516.585	712.06
516.801	737.06
517.016	741.06
517.232	719.06
517.448	773.06
517.664	766.06
517.879	755.06
518.095	730.06
518.311	732.06
518.527	713.06
518.742	728.06
518.958	717.06
519.173	690.06
519.389	717.06
519.605	671.06
519.82	689.06
520.036	713.06
520.251	703.06
520.467	679.06
520.682	667.06
520.898	648.06
521.113	672.06
521.329	654.06
521.544	661.06
521.76	669.06
521.975	660.06
522.19	631.06
522.406	643.06
522.621	638.06
522.836	651.06
523.052	627.06
523.267	643.06
523.482	651.06
523.698	628.06
523.913	633.06
524.128	632.06
524.343	596.06
524.559	609.06
524.774	610.06
524.989	635.06
525.204	618.06
525.419	604.06
525.634	609.06
525.849	601.06
526.064	620.06
526.28	627.06
526.495	617.06
526.71	590.06
526.925	610.06
527.14	610.06
527.355	600.06
527.57	586.06
527.785	582.06
527.999	590.06
528.214	597.06
528.429	590.06
528.644	599.06
528.859	591.06
529.074	612.06
529.289	582.06
529.503	584.06
529.718	579.06
529.933	603.06
530.148	585.06
530.363	585.06
530.577	586.06
530.792	567.06
531.007	586.06
531.221	576.06
531.436	580.06
531.651	576.06
531.865	557.06
532.08	587.06
532.295	571.06
532.509	555.06
532.724	591.06
532.938	588.06
533.153	588.06
533.367	577.06
533.582	564.06
533.796	550.06
534.011	549.06
534.225	577.06
534.44	566.06
534.654	566.06
534.868	553.06
535.083	575.06
535.297	575.06
535.511	559.06
535.726	570.06
535.94	565.06
536.154	547.06
536.369	566.06
536.583	547.06
536.797	556.06
537.011	533.06
537.225	557.06
537.44	572.06
537.654	569.06
537.868	557.06
538.082	548.06
538.296	531.06
538.51	526.06
538.724	547.06
538.938	551.06
539.153	538.06
539.367	548.06
539.581	526.06
539.795	546.06
540.009	517.06
540.222	528.06
540.436	523.06
540.65	539.06
540.864	528.06
541.078	518.06
541.292	526.06
541.506	548.06
541.72	516.06
541.934	540.06
542.147	528.06
542.361	524.06
542.575	539.06
542.789	545.06
543.002	523.06
543.216	540.06
543.43	523.06
543.644	527.06
543.857	541.06
544.071	503.06
544.285	535.06
544.498	533.06
544.712	540.06
544.925	532.06
545.139	530.06
545.352	529.06
545.566	538.06
545.779	527.06
545.993	521.06
546.206	525.06
546.42	533.06
546.633	533.06
546.847	531.06
547.06	553.06
547.274	516.06
547.487	514.06
547.7	509.06
547.914	533.06
548.127	537.06
548.34	541.06
548.554	543.06
548.767	539.06
548.98	532.06
549.193	531.06
549.407	546.06
549.62	536.06
549.833	531.06
550.046	543.06
550.259	530.06
550.473	503.06
550.686	512.06
550.899	530.06
551.112	513.06
551.325	524.06
551.538	537.06
551.751	535.06
551.964	528.06
552.177	546.06
552.39	535.06
552.603	539.06
552.816	526.06
553.029	530.06
553.242	513.06
553.455	541.06
553.667	528.06
553.88	524.06
554.093	531.06
554.306	511.06
554.519	547.06
554.732	499.06
554.944	510.06
555.157	490.06
555.37	478.06
555.583	493.06
555.795	510.06
556.008	507.06
556.221	493.06
556.433	467.06
556.646	467.06
556.859	469.06
557.071	482.06
557.284	480.06
557.496	477.06
557.709	468.06
557.921	473.06
558.134	449.06
558.346	471.06
558.559	473.06
558.771	473.06
558.984	460.06
559.196	475.06
559.409	447.06
559.621	474.06
559.833	460.06
560.046	470.06
560.258	469.06
560.47	438.06
560.683	483.06
560.895	450.06
561.107	463.06
561.32	451.06
561.532	443.06
561.744	466.06
561.956	459.06
562.168	462.06
562.381	446.06
562.593	478.06
562.805	466.06
563.017	450.06
563.229	467.06
563.441	449.06
563.653	442.06
563.865	483.06
564.077	467.06
564.289	457.06
564.501	463.06
564.713	467.06
564.925	495.06
565.137	476.06
565.349	489.06
565.561	489.06
565.773	530.06
565.985	535.06
566.197	536.06
566.408	526.06
566.62	543.06
566.832	567.06
567.044	569.06
567.255	577.06
567.467	558.06
567.679	542.06
567.891	567.06
568.102	542.06
568.314	545.06
568.526	529.06
568.737	511.06
568.949	518.06
569.161	516.06
569.372	478.06
569.584	483.06
569.795	485.06
570.007	474.06
570.218	462.06
570.43	454.06
570.641	436.06
570.853	472.06
571.064	452.06
571.276	451.06
571.487	415.06
571.698	410.06
571.91	414.06
572.121	423.06
572.333	404.06
572.544	400.06
572.755	397.06
572.966	393.06
573.178	389.06
573.389	390.06
573.6	385.06
573.811	390.06
574.023	385.06
574.234	383.06
574.445	368.06
574.656	397.06
574.867	373.06
575.078	397.06
575.289	353.06
575.501	365.06
575.712	358.06
575.923	374.06
576.134	362.06
576.345	379.06
576.556	363.06
576.767	355.06
576.978	360.06
577.188	351.06
577.399	346.06
577.61	354.06
577.821	350.06
578.032	369.06
578.243	339.06
578.454	356.06
578.665	345.06
578.875	335.06
579.086	335.06
579.297	357.06
579.508	335.06
579.718	346.06
579.929	332.06
580.14	337.06
580.35	331.06
580.561	335.06
580.772	336.06
580.982	335.06
581.193	320.06
581.403	331.06
581.614	339.06
581.825	335.06
582.035	332.06
582.246	347.06
582.456	340.06
582.667	329.06
582.877	321.06
583.087	336.06
583.298	327.06
583.508	318.06
583.719	309.06
583.929	300.06
584.139	315.06
584.35	305.06
584.56	314.06
584.77	321.06
584.981	328.06
585.191	325.06
585.401	306.06
585.611	317.06
585.821	309.06
586.032	323.06
586.242	307.06
586.452	314.06
586.662	322.06
586.872	319.06
587.082	325.06
587.292	307.06
587.502	308.06
587.713	305.06
587.923	321.06
588.133	318.06
588.343	320.06
588.553	310.06
588.762	320.06
588.972	326.06
589.182	361.06
589.392	332.06
589.602	306.06
589.812	316.06
590.022	336.06
590.232	325.06
590.441	312.06
590.651	306.06
590.861	316.06
591.071	309.06
591.281	309.06
591.49	314.06
591.7	324.06
591.91	310.06
592.119	311.06
592.329	324.06
592.539	328.06
592.748	320.06
592.958	319.06
593.167	327.06
593.377	318.06
593.587	350.06
593.796	324.06
594.006	319.06
594.215	314.06
594.424	322.06
594.634	322.06
594.843	312.06
595.053	301.06
595.262	317.06
595.472	317.06
595.681	321.06
595.89	308.06
596.1	307.06
596.309	316.06
596.518	298.06
596.727	287.06
596.937	294.06
597.146	282.06
597.355	279.06
597.564	290.06
597.774	285.06
597.983	270.06
598.192	261.06
598.401	261.06
598.61	275.06
598.819	287.06
599.028	271.06
599.237	284.06
599.446	255.06
599.655	258.06
599.864	276.06
600.073	284.06
600.282	273.06
600.491	271.06
600.7	266.06
600.909	272.06
601.118	268.06
601.327	274.06
601.536	265.06
601.745	257.06
601.953	236.06
602.162	259.06
602.371	251.06
602.58	267.06
602.789	243.06
602.997	268.06
603.206	261.06
603.415	263.06
603.623	248.06
603.832	258.06
604.041	254.06
604.249	259.06
604.458	243.06
604.666	261.06
604.875	234.06
605.084	241.06
605.292	259.06
605.501	250.06
605.709	243.06
605.918	247.06
606.126	253.06
606.334	258.06
606.543	256.06
606.751	245.06
606.96	238.06
607.168	258.06
607.376	241.06
607.585	251.06
607.793	239.06
608.001	249.06
608.21	237.06
608.418	259.06
608.626	268.06
608.834	242.06
609.043	258.06
609.251	236.06
609.459	245.06
609.667	259.06
609.875	235.06
610.083	236.06
610.291	231.06
610.499	237.06
610.707	249.06
610.916	250.06
611.124	237.06
611.332	233.06
611.54	239.06
611.748	233.06
611.955	228.06
612.163	247.06
612.371	230.06
612.579	214.06
612.787	225.06
612.995	232.06
613.203	249.06
613.411	245.06
613.618	235.06
613.826	211.06
614.034	235.06
614.242	236.06
614.449	227.06
614.657	241.06
614.865	224.06
615.072	236.06
615.28	238.06
615.488	245.06
615.695	222.06
615.903	239.06
616.111	228.06
616.318	235.06
616.526	226.06
616.733	239.06
616.941	242.06
617.148	228.06
617.356	234.06
617.563	217.06
617.771	227.06
617.978	221.06
618.185	219.06
618.393	231.06
618.6	234.06
618.807	223.06
619.015	217.06
619.222	220.06
619.429	234.06
619.637	237.06
619.844	219.06
620.051	205.06
620.258	217.06
620.466	221.06
620.673	200.06
620.88	202.06
621.087	220.06
621.294	202.06
621.501	233.06
621.708	212.06
621.915	228.06
622.122	218.06
622.329	229.06
622.536	229.06
622.743	214.06
622.95	221.06
623.157	206.06
623.364	212.06
623.571	204.06
623.778	202.06
623.985	207.06
624.192	201.06
624.399	223.06
624.606	207.06
624.812	214.06
625.019	214.06
625.226	219.06
625.433	213.06
625.639	216.06
625.846	191.06
626.053	181.06
626.259	189.06
626.466	202.06
626.673	202.06
626.879	214.06
627.086	215.06
627.293	214.06
627.499	215.06
627.706	193.06
627.912	191.06
628.119	196.06
628.325	183.06
628.532	214.06
628.738	204.06
628.945	206.06
629.151	205.06
629.357	206.06
629.564	185.06
629.77	189.06
629.976	200.06
630.183	194.06
630.389	202.06
630.595	199.06
630.802	191.06
631.008	187.06
631.214	216.06
631.42	197.06
631.627	187.06
631.833	195.06
632.039	194.06
632.245	179.06
632.451	190.06
632.657	188.06
632.863	193.06
633.069	188.06
633.275	187.06
633.481	184.06
633.688	179.06
633.893	173.06
634.099	180.06
634.305	188.06
634.511	180.06
634.717	189.06
634.923	173.06
635.129	192.06
635.335	186.06
635.541	182.06
635.747	198.06
635.952	180.06
636.158	183.06
636.364	182.06
636.57	184.06
636.775	187.06
636.981	177.06
637.187	178.06
637.392	185.06
637.598	170.06
637.804	166.06
638.009	171.06
638.215	162.06
638.421	177.06
638.626	192.06
638.832	180.06
639.037	185.06
639.243	169.06
639.448	179.06
639.654	183.06
639.859	177.06
640.065	168.06
640.27	175.06
640.475	199.06
640.681	164.06
640.886	201.06
641.091	179.06
641.297	175.06
641.502	170.06
641.707	168.06
641.913	183.06
642.118	173.06
642.323	178.06
642.528	179.06
642.733	174.06
642.939	175.06
643.144	189.06
643.349	193.06
643.554	177.06
643.759	178.06
643.964	169.06
644.169	172.06
644.374	177.06
644.579	176.06
644.784	171.06
644.989	165.06
645.194	181.06
645.399	159.06
645.604	184.06
645.809	169.06
646.014	175.06
646.219	180.06
646.423	163.06
646.628	175.06
646.833	170.06
647.038	171.06
647.243	184.06
647.447	179.06
647.652	183.06
647.857	175.06
648.062	168.06
648.266	188.06
648.471	186.06
648.676	194.06
648.88	187.06
649.085	178.06
649.289	191.06
649.494	202.06
649.698	183.06
649.903	184.06
650.107	194.06
650.312	179.06
650.516	183.06
650.721	190.06
650.925	178.06
651.13	163.06
651.334	204.06
651.539	190.06
651.743	173.06
651.947	170.06
652.152	173.06
652.356	180.06
652.56	163.06
652.764	166.06
652.969	155.06
653.173	165.06
653.377	167.06
653.581	164.06
653.785	174.06
653.99	164.06
654.194	178.06
654.398	171.06
654.602	183.06
654.806	163.06
655.01	156.06
655.214	197.06
655.418	174.06
655.622	180.06
655.826	180.06
656.03	182.06
656.234	192.06
656.438	190.06
656.642	188.06
656.846	164.06
657.049	173.06
657.253	156.06
657.457	161.06
657.661	161.06
657.865	143.06
658.068	137.06
658.272	134.06
658.476	133.06
658.68	122.06
658.883	128.06
659.087	125.06
659.291	119.06
659.494	122.06
659.698	104.06
659.901	105.06
660.105	98.06
660.309	110.06
660.512	85.06
660.716	122.06
660.919	85.06
661.123	105.06
661.326	101.06
661.53	94.06
661.733	93.06
661.936	73.06
662.14	103.06
662.343	86.06
662.546	90.06
662.75	93.06
662.953	93.06
663.156	91.06
663.36	97.06
663.563	77.06
663.766	92.06
663.969	76.06
664.173	91.06
664.376	79.06
664.579	73.06
664.782	85.06
664.985	83.06
665.188	70.06
665.391	77.06
665.594	86.06
665.797	86.06
666	80.06
666.203	75.06
666.406	89.06
666.609	84.06
666.812	79.06
667.015	85.06
667.218	79.06
667.421	92.06
667.624	85.06
667.827	82.06
668.03	90.06
668.232	85.06
668.435	89.06
668.638	82.06
668.841	75.06
669.043	86.06
669.246	91.06
669.449	87.06
669.651	69.06
669.854	73.06
670.057	93.06
670.259	93.06
670.462	69.06
670.665	82.06
670.867	91.06
671.07	80.06
671.272	89.06
671.475	78.06
671.677	111.06
671.88	78.06
672.082	88.06
672.284	102.06
672.487	72.06
672.689	78.06
672.892	79.06
