Data from Fe(NO3)3@0.025M.TitratingCurve.Agarose3%dH2O.NegLispCup.LampEnergy10.LIBS07252019_HRD10591_16-54-32-335.txt Node
Date: Thu Jul 25 16:54:32 EDT 2019
User: cochatt
Spectrometer: HR+D1059
Trigger mode: 1
Integration Time (sec): 1.000000E-1
Scans to average: 1
Electric dark correction enabled: true
Nonlinearity correction enabled: false
Boxcar width: 0
XAxis mode: Wavelengths
Number of Pixels in Spectrum: 2048
>>>>>Begin Spectral Data<<<<<
223.165	-16.94
223.4	-16.94
223.635	-16.94
223.869	-16.94
224.104	-17.94
224.338	-26.94
224.573	-18.94
224.808	-3.94
225.042	-7.94
225.277	-15.94
225.511	-5.94
225.746	12.06
225.98	-6.94
226.215	20.06
226.449	16.06
226.683	4.06
226.918	39.06
227.152	47.06
227.387	47.06
227.621	47.06
227.856	53.06
228.09	48.06
228.324	62.06
228.559	61.06
228.793	63.06
229.027	70.06
229.262	100.06
229.496	95.06
229.73	93.06
229.964	108.06
230.199	101.06
230.433	115.06
230.667	105.06
230.901	100.06
231.136	103.06
231.37	123.06
231.604	104.06
231.838	113.06
232.072	108.06
232.306	123.06
232.541	123.06
232.775	113.06
233.009	106.06
233.243	124.06
233.477	125.06
233.711	118.06
233.945	126.06
234.179	114.06
234.413	125.06
234.647	128.06
234.881	133.06
235.115	121.06
235.349	127.06
235.583	109.06
235.817	132.06
236.051	136.06
236.285	129.06
236.519	120.06
236.753	126.06
236.987	110.06
237.221	128.06
237.455	132.06
237.689	120.06
237.922	135.06
238.156	116.06
238.39	144.06
238.624	127.06
238.858	129.06
239.091	125.06
239.325	129.06
239.559	134.06
239.793	142.06
240.027	132.06
240.26	128.06
240.494	139.06
240.728	135.06
240.961	133.06
241.195	150.06
241.429	152.06
241.662	131.06
241.896	130.06
242.13	145.06
242.363	135.06
242.597	146.06
242.83	131.06
243.064	136.06
243.298	141.06
243.531	147.06
243.765	140.06
243.998	144.06
244.232	133.06
244.465	159.06
244.699	147.06
244.932	150.06
245.166	142.06
245.399	134.06
245.633	147.06
245.866	154.06
246.099	146.06
246.333	155.06
246.566	146.06
246.8	160.06
247.033	149.06
247.266	164.06
247.5	168.06
247.733	150.06
247.966	175.06
248.2	173.06
248.433	150.06
248.666	155.06
248.899	175.06
249.133	183.06
249.366	177.06
249.599	167.06
249.832	171.06
250.066	168.06
250.299	178.06
250.532	157.06
250.765	158.06
250.998	180.06
251.231	176.06
251.465	169.06
251.698	168.06
251.931	166.06
252.164	170.06
252.397	172.06
252.63	188.06
252.863	181.06
253.096	175.06
253.329	188.06
253.562	161.06
253.795	184.06
254.028	201.06
254.261	212.06
254.494	186.06
254.727	184.06
254.96	192.06
255.193	184.06
255.426	195.06
255.659	183.06
255.892	196.06
256.124	188.06
256.357	184.06
256.59	203.06
256.823	201.06
257.056	193.06
257.289	162.06
257.521	179.06
257.754	187.06
257.987	194.06
258.22	201.06
258.452	191.06
258.685	205.06
258.918	195.06
259.151	205.06
259.383	194.06
259.616	197.06
259.849	201.06
260.081	232.06
260.314	248.06
260.547	204.06
260.779	206.06
261.012	221.06
261.244	201.06
261.477	227.06
261.71	214.06
261.942	206.06
262.175	219.06
262.407	211.06
262.64	203.06
262.872	210.06
263.105	218.06
263.337	225.06
263.57	210.06
263.802	206.06
264.035	207.06
264.267	210.06
264.499	222.06
264.732	213.06
264.964	210.06
265.197	231.06
265.429	212.06
265.661	218.06
265.894	224.06
266.126	207.06
266.358	208.06
266.591	206.06
266.823	218.06
267.055	212.06
267.287	226.06
267.52	201.06
267.752	234.06
267.984	206.06
268.216	216.06
268.448	219.06
268.681	219.06
268.913	230.06
269.145	236.06
269.377	211.06
269.609	222.06
269.841	228.06
270.073	223.06
270.306	219.06
270.538	218.06
270.77	226.06
271.002	241.06
271.234	247.06
271.466	236.06
271.698	242.06
271.93	249.06
272.162	249.06
272.394	237.06
272.626	260.06
272.858	219.06
273.09	246.06
273.322	251.06
273.553	246.06
273.785	264.06
274.017	253.06
274.249	276.06
274.481	281.06
274.713	307.06
274.945	269.06
275.176	297.06
275.408	291.06
275.64	283.06
275.872	297.06
276.104	286.06
276.335	248.06
276.567	250.06
276.799	268.06
277.031	269.06
277.262	258.06
277.494	252.06
277.726	255.06
277.957	268.06
278.189	246.06
278.421	251.06
278.652	247.06
278.884	237.06
279.115	248.06
279.347	262.06
279.579	265.06
279.81	248.06
280.042	269.06
280.273	270.06
280.505	254.06
280.736	258.06
280.968	282.06
281.199	273.06
281.431	274.06
281.662	258.06
281.894	273.06
282.125	268.06
282.356	295.06
282.588	274.06
282.819	253.06
283.051	273.06
283.282	288.06
283.513	274.06
283.745	281.06
283.976	294.06
284.207	275.06
284.439	283.06
284.67	272.06
284.901	286.06
285.132	272.06
285.364	283.06
285.595	276.06
285.826	293.06
286.057	297.06
286.288	296.06
286.52	297.06
286.751	281.06
286.982	302.06
287.213	289.06
287.444	286.06
287.675	305.06
287.906	293.06
288.138	287.06
288.369	272.06
288.6	308.06
288.831	286.06
289.062	296.06
289.293	309.06
289.524	296.06
289.755	299.06
289.986	317.06
290.217	297.06
290.448	301.06
290.679	273.06
290.91	313.06
291.141	308.06
291.371	284.06
291.602	298.06
291.833	294.06
292.064	312.06
292.295	306.06
292.526	304.06
292.757	275.06
292.987	311.06
293.218	308.06
293.449	308.06
293.68	306.06
293.91	312.06
294.141	282.06
294.372	285.06
294.603	308.06
294.833	296.06
295.064	310.06
295.295	315.06
295.525	306.06
295.756	320.06
295.987	294.06
296.217	294.06
296.448	312.06
296.679	318.06
296.909	297.06
297.14	308.06
297.37	333.06
297.601	322.06
297.831	328.06
298.062	317.06
298.292	300.06
298.523	335.06
298.753	333.06
298.984	325.06
299.214	334.06
299.445	323.06
299.675	329.06
299.905	338.06
300.136	322.06
300.366	328.06
300.597	317.06
300.827	336.06
301.057	319.06
301.288	357.06
301.518	329.06
301.748	347.06
301.979	346.06
302.209	352.06
302.439	357.06
302.669	327.06
302.9	334.06
303.13	330.06
303.36	320.06
303.59	344.06
303.82	345.06
304.051	348.06
304.281	342.06
304.511	324.06
304.741	336.06
304.971	327.06
305.201	336.06
305.431	339.06
305.661	351.06
305.891	344.06
306.121	338.06
306.352	333.06
306.582	322.06
306.812	346.06
307.042	359.06
307.272	334.06
307.502	328.06
307.731	354.06
307.961	331.06
308.191	344.06
308.421	366.06
308.651	361.06
308.881	340.06
309.111	355.06
309.341	344.06
309.571	315.06
309.8	344.06
310.03	322.06
310.26	338.06
310.49	340.06
310.72	333.06
310.949	354.06
311.179	364.06
311.409	370.06
311.639	346.06
311.868	361.06
312.098	352.06
312.328	368.06
312.557	362.06
312.787	362.06
313.017	353.06
313.246	359.06
313.476	352.06
313.706	354.06
313.935	357.06
314.165	372.06
314.394	368.06
314.624	372.06
314.853	378.06
315.083	369.06
315.312	367.06
315.542	377.06
315.771	364.06
316.001	354.06
316.23	356.06
316.46	372.06
316.689	372.06
316.919	357.06
317.148	386.06
317.377	369.06
317.607	366.06
317.836	384.06
318.065	360.06
318.295	358.06
318.524	381.06
318.753	366.06
318.983	382.06
319.212	375.06
319.441	374.06
319.67	382.06
319.9	384.06
320.129	385.06
320.358	385.06
320.587	356.06
320.816	380.06
321.046	379.06
321.275	387.06
321.504	376.06
321.733	358.06
321.962	388.06
322.191	376.06
322.42	394.06
322.649	390.06
322.878	390.06
323.108	390.06
323.337	409.06
323.566	377.06
323.795	393.06
324.024	390.06
324.253	386.06
324.482	377.06
324.71	388.06
324.939	388.06
325.168	404.06
325.397	375.06
325.626	394.06
325.855	414.06
326.084	380.06
326.313	394.06
326.542	388.06
326.77	407.06
326.999	396.06
327.228	396.06
327.457	390.06
327.686	393.06
327.914	403.06
328.143	417.06
328.372	408.06
328.6	409.06
328.829	400.06
329.058	393.06
329.287	396.06
329.515	422.06
329.744	408.06
329.972	416.06
330.201	416.06
330.43	415.06
330.658	416.06
330.887	448.06
331.115	417.06
331.344	446.06
331.572	406.06
331.801	410.06
332.03	430.06
332.258	449.06
332.486	460.06
332.715	439.06
332.943	436.06
333.172	458.06
333.4	472.06
333.629	448.06
333.857	480.06
334.085	470.06
334.314	476.06
334.542	464.06
334.771	459.06
334.999	480.06
335.227	462.06
335.455	474.06
335.684	466.06
335.912	460.06
336.14	471.06
336.369	464.06
336.597	461.06
336.825	439.06
337.053	465.06
337.281	469.06
337.51	468.06
337.738	460.06
337.966	447.06
338.194	438.06
338.422	455.06
338.65	423.06
338.878	442.06
339.106	457.06
339.334	439.06
339.562	446.06
339.79	431.06
340.018	441.06
340.246	424.06
340.474	417.06
340.702	413.06
340.93	437.06
341.158	432.06
341.386	431.06
341.614	423.06
341.842	450.06
342.07	446.06
342.298	428.06
342.526	420.06
342.754	441.06
342.981	434.06
343.209	429.06
343.437	470.06
343.665	454.06
343.893	484.06
344.12	468.06
344.348	469.06
344.576	461.06
344.804	462.06
345.031	466.06
345.259	453.06
345.487	437.06
345.714	411.06
345.942	422.06
346.17	402.06
346.397	423.06
346.625	412.06
346.853	420.06
347.08	419.06
347.308	432.06
347.535	418.06
347.763	418.06
347.99	440.06
348.218	415.06
348.445	417.06
348.673	410.06
348.9	426.06
349.128	419.06
349.355	417.06
349.583	408.06
349.81	417.06
350.037	416.06
350.265	399.06
350.492	420.06
350.72	414.06
350.947	392.06
351.174	414.06
351.402	425.06
351.629	428.06
351.856	414.06
352.083	400.06
352.311	422.06
352.538	412.06
352.765	411.06
352.992	403.06
353.22	390.06
353.447	409.06
353.674	411.06
353.901	412.06
354.128	422.06
354.355	391.06
354.583	427.06
354.81	418.06
355.037	431.06
355.264	425.06
355.491	397.06
355.718	409.06
355.945	418.06
356.172	413.06
356.399	409.06
356.626	424.06
356.853	422.06
357.08	422.06
357.307	434.06
357.534	438.06
357.761	444.06
357.988	419.06
358.215	417.06
358.441	416.06
358.668	438.06
358.895	423.06
359.122	416.06
359.349	430.06
359.576	410.06
359.802	408.06
360.029	431.06
360.256	423.06
360.483	419.06
360.709	430.06
360.936	423.06
361.163	416.06
361.39	415.06
361.616	431.06
361.843	427.06
362.07	428.06
362.296	420.06
362.523	415.06
362.749	407.06
362.976	422.06
363.203	423.06
363.429	432.06
363.656	433.06
363.882	423.06
364.109	425.06
364.335	418.06
364.562	433.06
364.788	420.06
365.015	428.06
365.241	413.06
365.468	433.06
365.694	421.06
365.92	428.06
366.147	401.06
366.373	431.06
366.599	431.06
366.826	414.06
367.052	432.06
367.278	426.06
367.505	414.06
367.731	422.06
367.957	439.06
368.184	408.06
368.41	412.06
368.636	422.06
368.862	422.06
369.089	424.06
369.315	429.06
369.541	417.06
369.767	438.06
369.993	464.06
370.219	454.06
370.445	440.06
370.672	441.06
370.898	444.06
371.124	445.06
371.35	451.06
371.576	458.06
371.802	443.06
372.028	457.06
372.254	466.06
372.48	442.06
372.706	458.06
372.932	450.06
373.158	440.06
373.384	466.06
373.61	467.06
373.835	481.06
374.061	471.06
374.287	441.06
374.513	482.06
374.739	472.06
374.965	476.06
375.191	467.06
375.416	464.06
375.642	461.06
375.868	459.06
376.094	463.06
376.319	469.06
376.545	473.06
376.771	464.06
376.997	472.06
377.222	439.06
377.448	443.06
377.674	448.06
377.899	434.06
378.125	440.06
378.35	458.06
378.576	452.06
378.802	442.06
379.027	433.06
379.253	465.06
379.478	447.06
379.704	448.06
379.929	439.06
380.155	455.06
380.38	441.06
380.606	450.06
380.831	469.06
381.057	465.06
381.282	459.06
381.507	465.06
381.733	480.06
381.958	479.06
382.184	480.06
382.409	472.06
382.634	470.06
382.86	484.06
383.085	487.06
383.31	470.06
383.535	470.06
383.761	474.06
383.986	488.06
384.211	501.06
384.436	514.06
384.662	479.06
384.887	502.06
385.112	512.06
385.337	497.06
385.562	505.06
385.787	512.06
386.013	526.06
386.238	496.06
386.463	498.06
386.688	504.06
386.913	532.06
387.138	522.06
387.363	526.06
387.588	509.06
387.813	519.06
388.038	500.06
388.263	505.06
388.488	516.06
388.713	519.06
388.938	517.06
389.163	488.06
389.387	516.06
389.612	497.06
389.837	526.06
390.062	496.06
390.287	520.06
390.512	518.06
390.736	517.06
390.961	548.06
391.186	532.06
391.411	529.06
391.636	545.06
391.86	535.06
392.085	566.06
392.31	562.06
392.534	553.06
392.759	549.06
392.984	568.06
393.208	538.06
393.433	554.06
393.658	551.06
393.882	528.06
394.107	537.06
394.331	572.06
394.556	551.06
394.78	556.06
395.005	560.06
395.229	543.06
395.454	571.06
395.678	559.06
395.903	560.06
396.127	549.06
396.352	539.06
396.576	568.06
396.801	545.06
397.025	552.06
397.249	580.06
397.474	567.06
397.698	565.06
397.922	587.06
398.147	579.06
398.371	581.06
398.595	596.06
398.82	592.06
399.044	620.06
399.268	625.06
399.492	663.06
399.717	721.06
399.941	708.06
400.165	701.06
400.389	676.06
400.613	650.06
400.837	627.06
401.062	637.06
401.286	638.06
401.51	617.06
401.734	590.06
401.958	604.06
402.182	599.06
402.406	603.06
402.63	604.06
402.854	619.06
403.078	618.06
403.302	592.06
403.526	642.06
403.75	624.06
403.974	640.06
404.198	614.06
404.422	633.06
404.645	633.06
404.869	655.06
405.093	647.06
405.317	635.06
405.541	632.06
405.765	642.06
405.988	646.06
406.212	646.06
406.436	633.06
406.66	639.06
406.883	662.06
407.107	687.06
407.331	702.06
407.555	687.06
407.778	702.06
408.002	720.06
408.226	693.06
408.449	696.06
408.673	676.06
408.896	653.06
409.12	698.06
409.344	669.06
409.567	640.06
409.791	635.06
410.014	637.06
410.238	645.06
410.461	661.06
410.685	650.06
410.908	655.06
411.132	641.06
411.355	623.06
411.578	607.06
411.802	638.06
412.025	620.06
412.249	610.06
412.472	614.06
412.695	606.06
412.919	620.06
413.142	613.06
413.365	621.06
413.589	620.06
413.812	615.06
414.035	598.06
414.258	594.06
414.482	605.06
414.705	604.06
414.928	613.06
415.151	610.06
415.374	610.06
415.597	572.06
415.821	599.06
416.044	613.06
416.267	589.06
416.49	569.06
416.713	593.06
416.936	599.06
417.159	578.06
417.382	592.06
417.605	594.06
417.828	559.06
418.051	580.06
418.274	570.06
418.497	574.06
418.72	612.06
418.943	611.06
419.166	620.06
419.389	618.06
419.611	629.06
419.834	606.06
420.057	604.06
420.28	599.06
420.503	583.06
420.726	580.06
420.948	573.06
421.171	549.06
421.394	593.06
421.617	572.06
421.839	577.06
422.062	586.06
422.285	556.06
422.507	568.06
422.73	587.06
422.953	595.06
423.175	609.06
423.398	593.06
423.621	598.06
423.843	606.06
424.066	582.06
424.288	572.06
424.511	582.06
424.733	571.06
424.956	574.06
425.178	584.06
425.401	597.06
425.623	602.06
425.846	555.06
426.068	574.06
426.291	558.06
426.513	570.06
426.735	547.06
426.958	574.06
427.18	569.06
427.402	556.06
427.625	552.06
427.847	529.06
428.069	559.06
428.292	568.06
428.514	553.06
428.736	533.06
428.958	548.06
429.181	537.06
429.403	536.06
429.625	542.06
429.847	536.06
430.069	542.06
430.292	543.06
430.514	529.06
430.736	529.06
430.958	554.06
431.18	539.06
431.402	553.06
431.624	551.06
431.846	534.06
432.068	536.06
432.29	544.06
432.512	541.06
432.734	540.06
432.956	545.06
433.178	558.06
433.4	536.06
433.622	547.06
433.844	552.06
434.066	530.06
434.287	558.06
434.509	554.06
434.731	558.06
434.953	567.06
435.175	574.06
435.397	578.06
435.618	565.06
435.84	555.06
436.062	562.06
436.284	546.06
436.505	537.06
436.727	536.06
436.949	557.06
437.17	532.06
437.392	522.06
437.614	524.06
437.835	523.06
438.057	536.06
438.278	537.06
438.5	536.06
438.721	534.06
438.943	536.06
439.165	527.06
439.386	522.06
439.608	536.06
439.829	534.06
440.05	545.06
440.272	534.06
440.493	524.06
440.715	524.06
440.936	530.06
441.158	561.06
441.379	547.06
441.6	558.06
441.822	568.06
442.043	572.06
442.264	549.06
442.486	555.06
442.707	561.06
442.928	566.06
443.149	572.06
443.371	555.06
443.592	570.06
443.813	549.06
444.034	557.06
444.255	592.06
444.476	570.06
444.698	582.06
444.919	613.06
445.14	695.06
445.361	611.06
445.582	582.06
445.803	553.06
446.024	533.06
446.245	551.06
446.466	542.06
446.687	525.06
446.908	537.06
447.129	556.06
447.35	535.06
447.571	521.06
447.792	512.06
448.013	502.06
448.234	508.06
448.455	508.06
448.675	504.06
448.896	494.06
449.117	485.06
449.338	503.06
449.559	495.06
449.779	503.06
450	488.06
450.221	483.06
450.442	473.06
450.662	491.06
450.883	477.06
451.104	502.06
451.324	497.06
451.545	472.06
451.766	495.06
451.986	484.06
452.207	496.06
452.428	504.06
452.648	477.06
452.869	485.06
453.089	468.06
453.31	479.06
453.53	470.06
453.751	492.06
453.971	476.06
454.192	472.06
454.412	485.06
454.633	475.06
454.853	470.06
455.073	475.06
455.294	476.06
455.514	477.06
455.734	474.06
455.955	474.06
456.175	471.06
456.395	472.06
456.616	476.06
456.836	469.06
457.056	483.06
457.276	452.06
457.497	469.06
457.717	491.06
457.937	483.06
458.157	492.06
458.377	478.06
458.598	492.06
458.818	505.06
459.038	511.06
459.258	529.06
459.478	552.06
459.698	534.06
459.918	552.06
460.138	544.06
460.358	589.06
460.578	584.06
460.798	571.06
461.018	567.06
461.238	582.06
461.458	578.06
461.678	581.06
461.898	582.06
462.118	602.06
462.338	626.06
462.558	623.06
462.777	636.06
462.997	650.06
463.217	649.06
463.437	670.06
463.657	646.06
463.876	640.06
464.096	616.06
464.316	624.06
464.536	641.06
464.755	598.06
464.975	646.06
465.195	590.06
465.414	573.06
465.634	574.06
465.854	567.06
466.073	562.06
466.293	548.06
466.512	519.06
466.732	552.06
466.951	507.06
467.171	542.06
467.391	529.06
467.61	531.06
467.829	524.06
468.049	544.06
468.268	516.06
468.488	517.06
468.707	505.06
468.927	518.06
469.146	515.06
469.365	514.06
469.585	501.06
469.804	514.06
470.023	540.06
470.243	538.06
470.462	498.06
470.681	529.06
470.901	520.06
471.12	521.06
471.339	504.06
471.558	526.06
471.777	517.06
471.997	524.06
472.216	530.06
472.435	521.06
472.654	529.06
472.873	493.06
473.092	502.06
473.311	498.06
473.53	511.06
473.749	526.06
473.968	530.06
474.187	544.06
474.406	508.06
474.625	521.06
474.844	511.06
475.063	548.06
475.282	536.06
475.501	534.06
475.72	560.06
475.939	524.06
476.158	556.06
476.377	570.06
476.596	567.06
476.814	561.06
477.033	549.06
477.252	553.06
477.471	561.06
477.69	574.06
477.908	568.06
478.127	588.06
478.346	571.06
478.564	591.06
478.783	586.06
479.002	594.06
479.22	628.06
479.439	632.06
479.658	602.06
479.876	607.06
480.095	625.06
480.313	647.06
480.532	621.06
480.751	626.06
480.969	604.06
481.188	642.06
481.406	631.06
481.624	620.06
481.843	626.06
482.061	606.06
482.28	591.06
482.498	614.06
482.717	622.06
482.935	613.06
483.153	628.06
483.372	632.06
483.59	619.06
483.808	612.06
484.027	594.06
484.245	598.06
484.463	605.06
484.681	617.06
484.9	605.06
485.118	627.06
485.336	640.06
485.554	654.06
485.772	625.06
485.99	632.06
486.209	621.06
486.427	634.06
486.645	620.06
486.863	615.06
487.081	615.06
487.299	595.06
487.517	606.06
487.735	622.06
487.953	633.06
488.171	612.06
488.389	626.06
488.607	633.06
488.825	624.06
489.043	624.06
489.261	613.06
489.479	632.06
489.696	638.06
489.914	623.06
490.132	609.06
490.35	634.06
490.568	616.06
490.786	604.06
491.003	608.06
491.221	631.06
491.439	620.06
491.657	632.06
491.874	613.06
492.092	615.06
492.31	622.06
492.527	640.06
492.745	635.06
492.963	662.06
493.18	642.06
493.398	637.06
493.615	659.06
493.833	621.06
494.05	635.06
494.268	641.06
494.485	664.06
494.703	649.06
494.92	641.06
495.138	646.06
495.355	636.06
495.573	665.06
495.79	664.06
496.008	672.06
496.225	677.06
496.442	687.06
496.66	709.06
496.877	710.06
497.094	716.06
497.312	709.06
497.529	720.06
497.746	738.06
497.963	729.06
498.181	754.06
498.398	768.06
498.615	800.06
498.832	844.06
499.049	862.06
499.267	874.06
499.484	962.06
499.701	1002.06
499.918	1015.06
500.135	1108.06
500.352	1140.06
500.569	1131.06
500.786	1176.06
501.003	1138.06
501.22	1076.06
501.437	1027.06
501.654	942.06
501.871	920.06
502.088	897.06
502.305	861.06
502.522	813.06
502.739	782.06
502.956	780.06
503.172	770.06
503.389	745.06
503.606	737.06
503.823	715.06
504.04	712.06
504.256	731.06
504.473	703.06
504.69	695.06
504.907	684.06
505.123	688.06
505.34	679.06
505.557	651.06
505.773	610.06
505.99	625.06
506.207	613.06
506.423	617.06
506.64	612.06
506.856	600.06
507.073	578.06
507.289	590.06
507.506	592.06
507.722	581.06
507.939	578.06
508.155	587.06
508.372	573.06
508.588	570.06
508.805	564.06
509.021	568.06
509.238	551.06
509.454	545.06
509.67	554.06
509.887	560.06
510.103	567.06
510.319	530.06
510.536	521.06
510.752	565.06
510.968	509.06
511.184	530.06
511.401	537.06
511.617	521.06
511.833	533.06
512.049	517.06
512.265	543.06
512.481	520.06
512.698	542.06
512.914	540.06
513.13	544.06
513.346	539.06
513.562	531.06
513.778	521.06
513.994	536.06
514.21	546.06
514.426	530.06
514.642	541.06
514.858	540.06
515.074	547.06
515.29	547.06
515.506	538.06
515.721	557.06
515.937	564.06
516.153	560.06
516.369	564.06
516.585	592.06
516.801	577.06
517.016	590.06
517.232	599.06
517.448	582.06
517.664	603.06
517.879	609.06
518.095	604.06
518.311	596.06
518.527	584.06
518.742	594.06
518.958	583.06
519.173	577.06
519.389	559.06
519.605	543.06
519.82	555.06
520.036	558.06
520.251	544.06
520.467	534.06
520.682	534.06
520.898	527.06
521.113	523.06
521.329	517.06
521.544	506.06
521.76	518.06
521.975	513.06
522.19	511.06
522.406	508.06
522.621	513.06
522.836	501.06
523.052	523.06
523.267	518.06
523.482	501.06
523.698	501.06
523.913	496.06
524.128	504.06
524.343	510.06
524.559	504.06
524.774	494.06
524.989	470.06
525.204	492.06
525.419	482.06
525.634	472.06
525.849	480.06
526.064	481.06
526.28	481.06
526.495	484.06
526.71	490.06
526.925	480.06
527.14	475.06
527.355	470.06
527.57	488.06
527.785	481.06
527.999	470.06
528.214	469.06
528.429	486.06
528.644	473.06
528.859	466.06
529.074	484.06
529.289	492.06
529.503	469.06
529.718	480.06
529.933	472.06
530.148	470.06
530.363	468.06
530.577	456.06
530.792	454.06
531.007	460.06
531.221	464.06
531.436	470.06
531.651	466.06
531.865	455.06
532.08	451.06
532.295	449.06
532.509	460.06
532.724	454.06
532.938	457.06
533.153	469.06
533.367	457.06
533.582	456.06
533.796	450.06
534.011	456.06
534.225	450.06
534.44	460.06
534.654	440.06
534.868	468.06
535.083	442.06
535.297	452.06
535.511	452.06
535.726	449.06
535.94	434.06
536.154	468.06
536.369	455.06
536.583	443.06
536.797	433.06
537.011	440.06
537.225	442.06
537.44	436.06
537.654	432.06
537.868	430.06
538.082	428.06
538.296	440.06
538.51	430.06
538.724	462.06
538.938	449.06
539.153	409.06
539.367	458.06
539.581	407.06
539.795	420.06
540.009	441.06
540.222	442.06
540.436	443.06
540.65	449.06
540.864	418.06
541.078	428.06
541.292	420.06
541.506	433.06
541.72	408.06
541.934	407.06
542.147	424.06
542.361	431.06
542.575	415.06
542.789	409.06
543.002	421.06
543.216	424.06
543.43	434.06
543.644	433.06
543.857	426.06
544.071	429.06
544.285	465.06
544.498	428.06
544.712	427.06
544.925	426.06
545.139	424.06
545.352	415.06
545.566	436.06
545.779	436.06
545.993	428.06
546.206	443.06
546.42	436.06
546.633	423.06
546.847	422.06
547.06	434.06
547.274	414.06
547.487	427.06
547.7	427.06
547.914	449.06
548.127	446.06
548.34	428.06
548.554	419.06
548.767	440.06
548.98	432.06
549.193	447.06
549.407	442.06
549.62	438.06
549.833	428.06
550.046	424.06
550.259	424.06
550.473	438.06
550.686	441.06
550.899	427.06
551.112	421.06
551.325	421.06
551.538	432.06
551.751	403.06
551.964	429.06
552.177	440.06
552.39	404.06
552.603	424.06
552.816	432.06
553.029	441.06
553.242	445.06
553.455	443.06
553.667	436.06
553.88	429.06
554.093	420.06
554.306	442.06
554.519	427.06
554.732	408.06
554.944	418.06
555.157	409.06
555.37	383.06
555.583	400.06
555.795	398.06
556.008	392.06
556.221	400.06
556.433	388.06
556.646	398.06
556.859	387.06
557.071	373.06
557.284	383.06
557.496	384.06
557.709	391.06
557.921	390.06
558.134	390.06
558.346	375.06
558.559	366.06
558.771	361.06
558.984	380.06
559.196	370.06
559.409	377.06
559.621	371.06
559.833	374.06
560.046	361.06
560.258	376.06
560.47	376.06
560.683	376.06
560.895	383.06
561.107	365.06
561.32	368.06
561.532	373.06
561.744	348.06
561.956	361.06
562.168	351.06
562.381	365.06
562.593	369.06
562.805	369.06
563.017	382.06
563.229	358.06
563.441	372.06
563.653	388.06
563.865	399.06
564.077	392.06
564.289	376.06
564.501	387.06
564.713	387.06
564.925	385.06
565.137	401.06
565.349	408.06
565.561	396.06
565.773	420.06
565.985	418.06
566.197	444.06
566.408	426.06
566.62	464.06
566.832	457.06
567.044	475.06
567.255	477.06
567.467	472.06
567.679	484.06
567.891	502.06
568.102	488.06
568.314	463.06
568.526	452.06
568.737	449.06
568.949	421.06
569.161	394.06
569.372	376.06
569.584	376.06
569.795	360.06
570.007	362.06
570.218	372.06
570.43	350.06
570.641	357.06
570.853	359.06
571.064	356.06
571.276	368.06
571.487	351.06
571.698	351.06
571.91	318.06
572.121	343.06
572.333	337.06
572.544	319.06
572.755	345.06
572.966	319.06
573.178	301.06
573.389	313.06
573.6	297.06
573.811	304.06
574.023	296.06
574.234	324.06
574.445	322.06
574.656	321.06
574.867	317.06
575.078	313.06
575.289	297.06
575.501	321.06
575.712	300.06
575.923	292.06
576.134	310.06
576.345	296.06
576.556	287.06
576.767	292.06
576.978	294.06
577.188	293.06
577.399	278.06
577.61	278.06
577.821	295.06
578.032	293.06
578.243	273.06
578.454	301.06
578.665	285.06
578.875	281.06
579.086	277.06
579.297	273.06
579.508	281.06
579.718	274.06
579.929	262.06
580.14	268.06
580.35	271.06
580.561	282.06
580.772	290.06
580.982	265.06
581.193	280.06
581.403	270.06
581.614	272.06
581.825	288.06
582.035	266.06
582.246	265.06
582.456	290.06
582.667	260.06
582.877	262.06
583.087	279.06
583.298	274.06
583.508	262.06
583.719	266.06
583.929	263.06
584.139	268.06
584.35	254.06
584.56	263.06
584.77	276.06
584.981	264.06
585.191	270.06
585.401	268.06
585.611	268.06
585.821	237.06
586.032	264.06
586.242	269.06
586.452	285.06
586.662	238.06
586.872	264.06
587.082	248.06
587.292	262.06
587.502	265.06
587.713	257.06
587.923	264.06
588.133	259.06
588.343	257.06
588.553	248.06
588.762	281.06
588.972	266.06
589.182	275.06
589.392	279.06
589.602	246.06
589.812	282.06
590.022	247.06
590.232	260.06
590.441	273.06
590.651	272.06
590.861	258.06
591.071	256.06
591.281	263.06
591.49	258.06
591.7	258.06
591.91	291.06
592.119	246.06
592.329	249.06
592.539	267.06
592.748	265.06
592.958	281.06
593.167	277.06
593.377	286.06
593.587	279.06
593.796	288.06
594.006	284.06
594.215	264.06
594.424	276.06
594.634	275.06
594.843	252.06
595.053	277.06
595.262	251.06
595.472	264.06
595.681	240.06
595.89	244.06
596.1	247.06
596.309	246.06
596.518	254.06
596.727	257.06
596.937	248.06
597.146	229.06
597.355	233.06
597.564	222.06
597.774	240.06
597.983	242.06
598.192	230.06
598.401	224.06
598.61	239.06
598.819	232.06
599.028	236.06
599.237	221.06
599.446	225.06
599.655	246.06
599.864	239.06
600.073	230.06
600.282	222.06
600.491	224.06
600.7	226.06
600.909	219.06
601.118	216.06
601.327	212.06
601.536	220.06
601.745	229.06
601.953	229.06
602.162	223.06
602.371	221.06
602.58	215.06
602.789	213.06
602.997	226.06
603.206	222.06
603.415	213.06
603.623	196.06
603.832	201.06
604.041	216.06
604.249	214.06
604.458	228.06
604.666	217.06
604.875	200.06
605.084	223.06
605.292	211.06
605.501	210.06
605.709	212.06
605.918	212.06
606.126	217.06
606.334	213.06
606.543	229.06
606.751	201.06
606.96	221.06
607.168	182.06
607.376	199.06
607.585	200.06
607.793	213.06
608.001	217.06
608.21	201.06
608.418	208.06
608.626	199.06
608.834	180.06
609.043	192.06
609.251	201.06
609.459	194.06
609.667	203.06
609.875	207.06
610.083	198.06
610.291	215.06
610.499	204.06
610.707	201.06
610.916	211.06
611.124	207.06
611.332	203.06
611.54	203.06
611.748	191.06
611.955	192.06
612.163	212.06
612.371	208.06
612.579	192.06
612.787	193.06
612.995	209.06
613.203	200.06
613.411	196.06
613.618	192.06
613.826	210.06
614.034	204.06
614.242	212.06
614.449	194.06
614.657	208.06
614.865	196.06
615.072	188.06
615.28	189.06
615.488	199.06
615.695	194.06
615.903	206.06
616.111	206.06
616.318	198.06
616.526	208.06
616.733	192.06
616.941	196.06
617.148	198.06
617.356	184.06
617.563	209.06
617.771	204.06
617.978	186.06
618.185	202.06
618.393	204.06
618.6	202.06
618.807	193.06
619.015	199.06
619.222	189.06
619.429	195.06
619.637	190.06
619.844	192.06
620.051	179.06
620.258	183.06
620.466	193.06
620.673	178.06
620.88	183.06
621.087	184.06
621.294	194.06
621.501	185.06
621.708	193.06
621.915	178.06
622.122	176.06
622.329	187.06
622.536	198.06
622.743	186.06
622.95	188.06
623.157	183.06
623.364	180.06
623.571	193.06
623.778	180.06
623.985	185.06
624.192	192.06
624.399	191.06
624.606	178.06
624.812	183.06
625.019	176.06
625.226	173.06
625.433	176.06
625.639	188.06
625.846	186.06
626.053	164.06
626.259	172.06
626.466	200.06
626.673	161.06
626.879	180.06
627.086	181.06
627.293	183.06
627.499	182.06
627.706	183.06
627.912	174.06
628.119	175.06
628.325	180.06
628.532	180.06
628.738	167.06
628.945	173.06
629.151	178.06
629.357	182.06
629.564	176.06
629.77	182.06
629.976	161.06
630.183	162.06
630.389	172.06
630.595	179.06
630.802	173.06
631.008	170.06
631.214	172.06
631.42	176.06
631.627	167.06
631.833	164.06
632.039	166.06
632.245	184.06
632.451	160.06
632.657	170.06
632.863	179.06
633.069	173.06
633.275	170.06
633.481	161.06
633.688	165.06
633.893	167.06
634.099	154.06
634.305	166.06
634.511	164.06
634.717	162.06
634.923	158.06
635.129	156.06
635.335	149.06
635.541	155.06
635.747	164.06
635.952	166.06
636.158	171.06
636.364	169.06
636.57	176.06
636.775	149.06
636.981	160.06
637.187	169.06
637.392	169.06
637.598	164.06
637.804	173.06
638.009	167.06
638.215	162.06
638.421	156.06
638.626	150.06
638.832	172.06
639.037	172.06
639.243	166.06
639.448	168.06
639.654	174.06
639.859	158.06
640.065	167.06
640.27	164.06
640.475	155.06
640.681	164.06
640.886	164.06
641.091	158.06
641.297	163.06
641.502	156.06
641.707	145.06
641.913	159.06
642.118	158.06
642.323	168.06
642.528	154.06
642.733	174.06
642.939	174.06
643.144	146.06
643.349	161.06
643.554	161.06
643.759	145.06
643.964	163.06
644.169	176.06
644.374	174.06
644.579	187.06
644.784	154.06
644.989	160.06
645.194	145.06
645.399	152.06
645.604	153.06
645.809	155.06
646.014	148.06
646.219	154.06
646.423	153.06
646.628	153.06
646.833	158.06
647.038	159.06
647.243	138.06
647.447	152.06
647.652	157.06
647.857	170.06
648.062	160.06
648.266	152.06
648.471	169.06
648.676	155.06
648.88	156.06
649.085	179.06
649.289	162.06
649.494	166.06
649.698	167.06
649.903	157.06
650.107	148.06
650.312	157.06
650.516	165.06
650.721	168.06
650.925	156.06
651.13	149.06
651.334	149.06
651.539	159.06
651.743	156.06
651.947	164.06
652.152	146.06
652.356	141.06
652.56	147.06
652.764	152.06
652.969	162.06
653.173	144.06
653.377	153.06
653.581	162.06
653.785	144.06
653.99	170.06
654.194	153.06
654.398	151.06
654.602	157.06
654.806	146.06
655.01	140.06
655.214	151.06
655.418	160.06
655.622	151.06
655.826	167.06
656.03	159.06
656.234	166.06
656.438	171.06
656.642	164.06
656.846	147.06
657.049	133.06
657.253	150.06
657.457	139.06
657.661	144.06
657.865	131.06
658.068	118.06
658.272	135.06
658.476	112.06
658.68	132.06
658.883	116.06
659.087	121.06
659.291	128.06
659.494	97.06
659.698	113.06
659.901	102.06
660.105	100.06
660.309	91.06
660.512	120.06
660.716	103.06
660.919	93.06
661.123	91.06
661.326	103.06
661.53	94.06
661.733	96.06
661.936	107.06
662.14	89.06
662.343	96.06
662.546	99.06
662.75	105.06
662.953	91.06
663.156	96.06
663.36	93.06
663.563	102.06
663.766	81.06
663.969	80.06
664.173	93.06
664.376	88.06
664.579	91.06
664.782	100.06
664.985	98.06
665.188	86.06
665.391	91.06
665.594	84.06
665.797	77.06
666	99.06
666.203	107.06
666.406	97.06
666.609	89.06
666.812	90.06
667.015	96.06
667.218	80.06
667.421	87.06
667.624	88.06
667.827	94.06
668.03	95.06
668.232	90.06
668.435	85.06
668.638	69.06
668.841	84.06
669.043	82.06
669.246	98.06
669.449	85.06
669.651	88.06
669.854	81.06
670.057	88.06
670.259	84.06
670.462	96.06
670.665	91.06
670.867	86.06
671.07	80.06
671.272	87.06
671.475	87.06
671.677	88.06
671.88	91.06
672.082	78.06
672.284	93.06
672.487	80.06
672.689	89.06
672.892	100.06
