Data from Fe(NO3)3@0.0125M.TitratingCurve.Agarose3%dH2O.NegLispCup.LampEnergy10.LIBS07252019_HRD10591_16-59-16-341.txt Node
Date: Thu Jul 25 16:59:16 EDT 2019
User: cochatt
Spectrometer: HR+D1059
Trigger mode: 1
Integration Time (sec): 1.000000E-1
Scans to average: 1
Electric dark correction enabled: true
Nonlinearity correction enabled: false
Boxcar width: 0
XAxis mode: Wavelengths
Number of Pixels in Spectrum: 2048
>>>>>Begin Spectral Data<<<<<
223.165	-17.06
223.4	-17.06
223.635	-17.06
223.869	-16.06
224.104	-30.06
224.338	-21.06
224.573	-20.06
224.808	-1.06
225.042	-4.06
225.277	1.94
225.511	-0.06
225.746	10.94
225.98	1.94
226.215	3.94
226.449	12.94
226.683	28.94
226.918	22.94
227.152	25.94
227.387	39.94
227.621	39.94
227.856	58.94
228.09	42.94
228.324	53.94
228.559	54.94
228.793	54.94
229.027	81.94
229.262	78.94
229.496	80.94
229.73	88.94
229.964	105.94
230.199	98.94
230.433	108.94
230.667	98.94
230.901	120.94
231.136	110.94
231.37	91.94
231.604	112.94
231.838	113.94
232.072	113.94
232.306	123.94
232.541	117.94
232.775	126.94
233.009	129.94
233.243	106.94
233.477	122.94
233.711	133.94
233.945	121.94
234.179	118.94
234.413	117.94
234.647	123.94
234.881	120.94
235.115	137.94
235.349	120.94
235.583	117.94
235.817	125.94
236.051	129.94
236.285	105.94
236.519	129.94
236.753	121.94
236.987	129.94
237.221	121.94
237.455	128.94
237.689	124.94
237.922	125.94
238.156	132.94
238.39	122.94
238.624	131.94
238.858	137.94
239.091	141.94
239.325	146.94
239.559	141.94
239.793	135.94
240.027	148.94
240.26	149.94
240.494	137.94
240.728	142.94
240.961	135.94
241.195	143.94
241.429	146.94
241.662	139.94
241.896	134.94
242.13	145.94
242.363	143.94
242.597	134.94
242.83	144.94
243.064	149.94
243.298	158.94
243.531	149.94
243.765	131.94
243.998	147.94
244.232	151.94
244.465	164.94
244.699	157.94
244.932	155.94
245.166	169.94
245.399	157.94
245.633	144.94
245.866	160.94
246.099	167.94
246.333	150.94
246.566	171.94
246.8	157.94
247.033	161.94
247.266	163.94
247.5	165.94
247.733	166.94
247.966	173.94
248.2	183.94
248.433	168.94
248.666	166.94
248.899	170.94
249.133	172.94
249.366	194.94
249.599	185.94
249.832	182.94
250.066	170.94
250.299	180.94
250.532	181.94
250.765	180.94
250.998	163.94
251.231	181.94
251.465	190.94
251.698	190.94
251.931	187.94
252.164	188.94
252.397	183.94
252.63	195.94
252.863	208.94
253.096	181.94
253.329	208.94
253.562	203.94
253.795	193.94
254.028	189.94
254.261	204.94
254.494	206.94
254.727	203.94
254.96	204.94
255.193	205.94
255.426	202.94
255.659	191.94
255.892	209.94
256.124	216.94
256.357	211.94
256.59	206.94
256.823	206.94
257.056	204.94
257.289	210.94
257.521	198.94
257.754	225.94
257.987	217.94
258.22	226.94
258.452	216.94
258.685	231.94
258.918	233.94
259.151	216.94
259.383	221.94
259.616	216.94
259.849	227.94
260.081	227.94
260.314	254.94
260.547	245.94
260.779	225.94
261.012	231.94
261.244	251.94
261.477	248.94
261.71	241.94
261.942	242.94
262.175	233.94
262.407	231.94
262.64	250.94
262.872	233.94
263.105	243.94
263.337	255.94
263.57	247.94
263.802	237.94
264.035	242.94
264.267	244.94
264.499	241.94
264.732	233.94
264.964	245.94
265.197	258.94
265.429	259.94
265.661	237.94
265.894	246.94
266.126	263.94
266.358	245.94
266.591	263.94
266.823	266.94
267.055	252.94
267.287	260.94
267.52	253.94
267.752	260.94
267.984	273.94
268.216	254.94
268.448	267.94
268.681	260.94
268.913	272.94
269.145	265.94
269.377	277.94
269.609	253.94
269.841	251.94
270.073	259.94
270.306	279.94
270.538	286.94
270.77	294.94
271.002	280.94
271.234	281.94
271.466	277.94
271.698	285.94
271.93	286.94
272.162	295.94
272.394	286.94
272.626	289.94
272.858	300.94
273.09	297.94
273.322	303.94
273.553	295.94
273.785	299.94
274.017	305.94
274.249	315.94
274.481	312.94
274.713	303.94
274.945	322.94
275.176	341.94
275.408	331.94
275.64	326.94
275.872	329.94
276.104	325.94
276.335	318.94
276.567	315.94
276.799	323.94
277.031	321.94
277.262	323.94
277.494	313.94
277.726	330.94
277.957	326.94
278.189	306.94
278.421	331.94
278.652	337.94
278.884	324.94
279.115	338.94
279.347	322.94
279.579	346.94
279.81	351.94
280.042	330.94
280.273	322.94
280.505	337.94
280.736	336.94
280.968	359.94
281.199	337.94
281.431	338.94
281.662	344.94
281.894	336.94
282.125	334.94
282.356	343.94
282.588	335.94
282.819	336.94
283.051	377.94
283.282	364.94
283.513	369.94
283.745	348.94
283.976	349.94
284.207	364.94
284.439	351.94
284.67	361.94
284.901	354.94
285.132	373.94
285.364	357.94
285.595	371.94
285.826	367.94
286.057	362.94
286.288	358.94
286.52	379.94
286.751	375.94
286.982	397.94
287.213	388.94
287.444	381.94
287.675	365.94
287.906	399.94
288.138	387.94
288.369	385.94
288.6	398.94
288.831	381.94
289.062	395.94
289.293	391.94
289.524	403.94
289.755	386.94
289.986	381.94
290.217	399.94
290.448	400.94
290.679	412.94
290.91	383.94
291.141	409.94
291.371	385.94
291.602	385.94
291.833	392.94
292.064	385.94
292.295	389.94
292.526	399.94
292.757	397.94
292.987	410.94
293.218	397.94
293.449	407.94
293.68	398.94
293.91	384.94
294.141	399.94
294.372	417.94
294.603	429.94
294.833	411.94
295.064	411.94
295.295	405.94
295.525	412.94
295.756	414.94
295.987	396.94
296.217	415.94
296.448	418.94
296.679	422.94
296.909	414.94
297.14	420.94
297.37	440.94
297.601	427.94
297.831	429.94
298.062	418.94
298.292	441.94
298.523	427.94
298.753	417.94
298.984	429.94
299.214	446.94
299.445	460.94
299.675	445.94
299.905	450.94
300.136	423.94
300.366	424.94
300.597	438.94
300.827	429.94
301.057	423.94
301.288	442.94
301.518	443.94
301.748	446.94
301.979	448.94
302.209	443.94
302.439	462.94
302.669	449.94
302.9	470.94
303.13	445.94
303.36	446.94
303.59	477.94
303.82	480.94
304.051	484.94
304.281	453.94
304.511	451.94
304.741	480.94
304.971	484.94
305.201	455.94
305.431	456.94
305.661	470.94
305.891	486.94
306.121	460.94
306.352	463.94
306.582	481.94
306.812	487.94
307.042	493.94
307.272	482.94
307.502	483.94
307.731	499.94
307.961	509.94
308.191	486.94
308.421	472.94
308.651	505.94
308.881	476.94
309.111	516.94
309.341	491.94
309.571	492.94
309.8	498.94
310.03	501.94
310.26	489.94
310.49	490.94
310.72	494.94
310.949	498.94
311.179	511.94
311.409	491.94
311.639	512.94
311.868	505.94
312.098	507.94
312.328	503.94
312.557	521.94
312.787	508.94
313.017	536.94
313.246	527.94
313.476	533.94
313.706	520.94
313.935	542.94
314.165	533.94
314.394	523.94
314.624	538.94
314.853	532.94
315.083	523.94
315.312	537.94
315.542	535.94
315.771	537.94
316.001	513.94
316.23	537.94
316.46	540.94
316.689	533.94
316.919	547.94
317.148	554.94
317.377	543.94
317.607	569.94
317.836	551.94
318.065	541.94
318.295	549.94
318.524	547.94
318.753	544.94
318.983	554.94
319.212	517.94
319.441	551.94
319.67	535.94
319.9	541.94
320.129	565.94
320.358	555.94
320.587	558.94
320.816	552.94
321.046	545.94
321.275	584.94
321.504	575.94
321.733	559.94
321.962	579.94
322.191	595.94
322.42	587.94
322.649	584.94
322.878	567.94
323.108	574.94
323.337	564.94
323.566	574.94
323.795	586.94
324.024	575.94
324.253	590.94
324.482	602.94
324.71	583.94
324.939	586.94
325.168	595.94
325.397	593.94
325.626	576.94
325.855	577.94
326.084	590.94
326.313	573.94
326.542	571.94
326.77	615.94
326.999	581.94
327.228	597.94
327.457	613.94
327.686	599.94
327.914	612.94
328.143	594.94
328.372	622.94
328.6	611.94
328.829	615.94
329.058	612.94
329.287	606.94
329.515	603.94
329.744	630.94
329.972	620.94
330.201	607.94
330.43	606.94
330.658	607.94
330.887	621.94
331.115	617.94
331.344	614.94
331.572	624.94
331.801	623.94
332.03	621.94
332.258	614.94
332.486	622.94
332.715	630.94
332.943	607.94
333.172	643.94
333.4	627.94
333.629	639.94
333.857	630.94
334.085	657.94
334.314	633.94
334.542	685.94
334.771	662.94
334.999	645.94
335.227	655.94
335.455	671.94
335.684	655.94
335.912	674.94
336.14	649.94
336.369	659.94
336.597	677.94
336.825	652.94
337.053	663.94
337.281	656.94
337.51	667.94
337.738	647.94
337.966	635.94
338.194	639.94
338.422	667.94
338.65	663.94
338.878	668.94
339.106	653.94
339.334	648.94
339.562	643.94
339.79	658.94
340.018	639.94
340.246	654.94
340.474	643.94
340.702	638.94
340.93	638.94
341.158	639.94
341.386	663.94
341.614	658.94
341.842	648.94
342.07	641.94
342.298	648.94
342.526	646.94
342.754	665.94
342.981	642.94
343.209	651.94
343.437	666.94
343.665	674.94
343.893	642.94
344.12	680.94
344.348	645.94
344.576	657.94
344.804	681.94
345.031	658.94
345.259	659.94
345.487	641.94
345.714	665.94
345.942	621.94
346.17	649.94
346.397	652.94
346.625	665.94
346.853	657.94
347.08	665.94
347.308	641.94
347.535	643.94
347.763	642.94
347.99	622.94
348.218	659.94
348.445	639.94
348.673	645.94
348.9	652.94
349.128	630.94
349.355	634.94
349.583	643.94
349.81	634.94
350.037	634.94
350.265	671.94
350.492	638.94
350.72	646.94
350.947	633.94
351.174	649.94
351.402	636.94
351.629	618.94
351.856	630.94
352.083	627.94
352.311	628.94
352.538	623.94
352.765	625.94
352.992	657.94
353.22	637.94
353.447	646.94
353.674	638.94
353.901	662.94
354.128	649.94
354.355	631.94
354.583	661.94
354.81	613.94
355.037	651.94
355.264	656.94
355.491	656.94
355.718	639.94
355.945	649.94
356.172	630.94
356.399	657.94
356.626	637.94
356.853	652.94
357.08	637.94
357.307	651.94
357.534	639.94
357.761	650.94
357.988	660.94
358.215	653.94
358.441	659.94
358.668	665.94
358.895	649.94
359.122	663.94
359.349	631.94
359.576	633.94
359.802	634.94
360.029	644.94
360.256	630.94
360.483	641.94
360.709	655.94
360.936	640.94
361.163	673.94
361.39	638.94
361.616	651.94
361.843	662.94
362.07	655.94
362.296	654.94
362.523	646.94
362.749	651.94
362.976	658.94
363.203	682.94
363.429	652.94
363.656	656.94
363.882	675.94
364.109	672.94
364.335	649.94
364.562	637.94
364.788	653.94
365.015	672.94
365.241	654.94
365.468	679.94
365.694	675.94
365.92	681.94
366.147	676.94
366.373	675.94
366.599	659.94
366.826	663.94
367.052	660.94
367.278	683.94
367.505	686.94
367.731	686.94
367.957	679.94
368.184	693.94
368.41	670.94
368.636	676.94
368.862	677.94
369.089	714.94
369.315	674.94
369.541	693.94
369.767	697.94
369.993	693.94
370.219	690.94
370.445	687.94
370.672	703.94
370.898	700.94
371.124	716.94
371.35	683.94
371.576	714.94
371.802	696.94
372.028	695.94
372.254	716.94
372.48	712.94
372.706	692.94
372.932	703.94
373.158	698.94
373.384	700.94
373.61	706.94
373.835	738.94
374.061	710.94
374.287	709.94
374.513	694.94
374.739	710.94
374.965	730.94
375.191	707.94
375.416	719.94
375.642	724.94
375.868	720.94
376.094	688.94
376.319	704.94
376.545	717.94
376.771	692.94
376.997	697.94
377.222	702.94
377.448	682.94
377.674	707.94
377.899	689.94
378.125	711.94
378.35	702.94
378.576	710.94
378.802	675.94
379.027	687.94
379.253	691.94
379.478	698.94
379.704	710.94
379.929	714.94
380.155	694.94
380.38	740.94
380.606	715.94
380.831	693.94
381.057	716.94
381.282	699.94
381.507	703.94
381.733	754.94
381.958	711.94
382.184	697.94
382.409	703.94
382.634	739.94
382.86	718.94
383.085	714.94
383.31	732.94
383.535	720.94
383.761	717.94
383.986	747.94
384.211	737.94
384.436	713.94
384.662	757.94
384.887	731.94
385.112	759.94
385.337	728.94
385.562	761.94
385.787	758.94
386.013	749.94
386.238	753.94
386.463	757.94
386.688	749.94
386.913	739.94
387.138	804.94
387.363	760.94
387.588	755.94
387.813	766.94
388.038	779.94
388.263	768.94
388.488	756.94
388.713	785.94
388.938	748.94
389.163	750.94
389.387	775.94
389.612	779.94
389.837	769.94
390.062	766.94
390.287	785.94
390.512	778.94
390.736	772.94
390.961	765.94
391.186	770.94
391.411	784.94
391.636	763.94
391.86	783.94
392.085	773.94
392.31	785.94
392.534	798.94
392.759	807.94
392.984	778.94
393.208	785.94
393.433	791.94
393.658	788.94
393.882	793.94
394.107	792.94
394.331	769.94
394.556	759.94
394.78	778.94
395.005	803.94
395.229	781.94
395.454	809.94
395.678	821.94
395.903	771.94
396.127	797.94
396.352	787.94
396.576	765.94
396.801	817.94
397.025	794.94
397.249	804.94
397.474	802.94
397.698	809.94
397.922	793.94
398.147	829.94
398.371	819.94
398.595	821.94
398.82	828.94
399.044	837.94
399.268	837.94
399.492	868.94
399.717	880.94
399.941	862.94
400.165	850.94
400.389	882.94
400.613	861.94
400.837	840.94
401.062	847.94
401.286	829.94
401.51	851.94
401.734	836.94
401.958	819.94
402.182	819.94
402.406	825.94
402.63	811.94
402.854	827.94
403.078	843.94
403.302	851.94
403.526	880.94
403.75	840.94
403.974	843.94
404.198	847.94
404.422	842.94
404.645	861.94
404.869	833.94
405.093	841.94
405.317	836.94
405.541	829.94
405.765	843.94
405.988	852.94
406.212	884.94
406.436	894.94
406.66	917.94
406.883	862.94
407.107	885.94
407.331	896.94
407.555	874.94
407.778	895.94
408.002	893.94
408.226	894.94
408.449	905.94
408.673	891.94
408.896	878.94
409.12	869.94
409.344	908.94
409.567	884.94
409.791	912.94
410.014	857.94
410.238	877.94
410.461	876.94
410.685	871.94
410.908	873.94
411.132	850.94
411.355	852.94
411.578	859.94
411.802	869.94
412.025	855.94
412.249	837.94
412.472	886.94
412.695	853.94
412.919	841.94
413.142	862.94
413.365	864.94
413.589	845.94
413.812	842.94
414.035	844.94
414.258	858.94
414.482	843.94
414.705	829.94
414.928	832.94
415.151	860.94
415.374	844.94
415.597	840.94
415.821	855.94
416.044	820.94
416.267	820.94
416.49	815.94
416.713	821.94
416.936	833.94
417.159	810.94
417.382	803.94
417.605	791.94
417.828	793.94
418.051	806.94
418.274	813.94
418.497	813.94
418.72	843.94
418.943	778.94
419.166	798.94
419.389	858.94
419.611	857.94
419.834	832.94
420.057	827.94
420.28	805.94
420.503	785.94
420.726	808.94
420.948	802.94
421.171	804.94
421.394	808.94
421.617	802.94
421.839	810.94
422.062	806.94
422.285	769.94
422.507	803.94
422.73	812.94
422.953	821.94
423.175	797.94
423.398	798.94
423.621	788.94
423.843	805.94
424.066	789.94
424.288	805.94
424.511	777.94
424.733	776.94
424.956	784.94
425.178	803.94
425.401	804.94
425.623	799.94
425.846	799.94
426.068	815.94
426.291	795.94
426.513	800.94
426.735	813.94
426.958	802.94
427.18	792.94
427.402	789.94
427.625	776.94
427.847	775.94
428.069	793.94
428.292	793.94
428.514	798.94
428.736	780.94
428.958	797.94
429.181	789.94
429.403	780.94
429.625	800.94
429.847	766.94
430.069	787.94
430.292	782.94
430.514	802.94
430.736	776.94
430.958	781.94
431.18	823.94
431.402	802.94
431.624	776.94
431.846	792.94
432.068	788.94
432.29	782.94
432.512	768.94
432.734	794.94
432.956	809.94
433.178	792.94
433.4	803.94
433.622	800.94
433.844	794.94
434.066	779.94
434.287	789.94
434.509	801.94
434.731	789.94
434.953	804.94
435.175	788.94
435.397	802.94
435.618	805.94
435.84	798.94
436.062	785.94
436.284	782.94
436.505	750.94
436.727	797.94
436.949	781.94
437.17	789.94
437.392	771.94
437.614	775.94
437.835	749.94
438.057	788.94
438.278	770.94
438.5	766.94
438.721	757.94
438.943	791.94
439.165	774.94
439.386	767.94
439.608	807.94
439.829	774.94
440.05	780.94
440.272	750.94
440.493	770.94
440.715	767.94
440.936	774.94
441.158	789.94
441.379	783.94
441.6	795.94
441.822	783.94
442.043	789.94
442.264	773.94
442.486	762.94
442.707	747.94
442.928	778.94
443.149	791.94
443.371	789.94
443.592	786.94
443.813	794.94
444.034	796.94
444.255	773.94
444.476	784.94
444.698	785.94
444.919	799.94
445.14	917.94
445.361	809.94
445.582	801.94
445.803	778.94
446.024	770.94
446.245	802.94
446.466	775.94
446.687	781.94
446.908	760.94
447.129	746.94
447.35	771.94
447.571	725.94
447.792	716.94
448.013	751.94
448.234	767.94
448.455	723.94
448.675	761.94
448.896	733.94
449.117	734.94
449.338	732.94
449.559	732.94
449.779	718.94
450	734.94
450.221	718.94
450.442	715.94
450.662	722.94
450.883	727.94
451.104	743.94
451.324	713.94
451.545	693.94
451.766	715.94
451.986	768.94
452.207	712.94
452.428	738.94
452.648	746.94
452.869	702.94
453.089	717.94
453.31	719.94
453.53	745.94
453.751	721.94
453.971	717.94
454.192	699.94
454.412	696.94
454.633	705.94
454.853	691.94
455.073	731.94
455.294	714.94
455.514	714.94
455.734	715.94
455.955	711.94
456.175	717.94
456.395	723.94
456.616	702.94
456.836	723.94
457.056	722.94
457.276	702.94
457.497	731.94
457.717	713.94
457.937	707.94
458.157	706.94
458.377	718.94
458.598	726.94
458.818	723.94
459.038	716.94
459.258	748.94
459.478	760.94
459.698	732.94
459.918	746.94
460.138	754.94
460.358	773.94
460.578	749.94
460.798	774.94
461.018	797.94
461.238	765.94
461.458	762.94
461.678	780.94
461.898	763.94
462.118	793.94
462.338	802.94
462.558	787.94
462.777	789.94
462.997	817.94
463.217	822.94
463.437	821.94
463.657	829.94
463.876	810.94
464.096	812.94
464.316	824.94
464.536	824.94
464.755	804.94
464.975	783.94
465.195	795.94
465.414	818.94
465.634	780.94
465.854	790.94
466.073	780.94
466.293	768.94
466.512	759.94
466.732	773.94
466.951	760.94
467.171	757.94
467.391	764.94
467.61	762.94
467.829	762.94
468.049	766.94
468.268	763.94
468.488	770.94
468.707	745.94
468.927	767.94
469.146	755.94
469.365	777.94
469.585	734.94
469.804	769.94
470.023	765.94
470.243	755.94
470.462	768.94
470.681	784.94
470.901	777.94
471.12	763.94
471.339	801.94
471.558	788.94
471.777	773.94
471.997	789.94
472.216	802.94
472.435	778.94
472.654	790.94
472.873	791.94
473.092	769.94
473.311	817.94
473.53	783.94
473.749	798.94
473.968	813.94
474.187	803.94
474.406	791.94
474.625	811.94
474.844	801.94
475.063	805.94
475.282	818.94
475.501	827.94
475.72	828.94
475.939	807.94
476.158	817.94
476.377	837.94
476.596	853.94
476.814	880.94
477.033	833.94
477.252	869.94
477.471	865.94
477.69	855.94
477.908	867.94
478.127	888.94
478.346	863.94
478.564	879.94
478.783	913.94
479.002	909.94
479.22	906.94
479.439	923.94
479.658	908.94
479.876	921.94
480.095	932.94
480.313	956.94
480.532	934.94
480.751	931.94
480.969	924.94
481.188	923.94
481.406	946.94
481.624	935.94
481.843	921.94
482.061	930.94
482.28	940.94
482.498	935.94
482.717	959.94
482.935	951.94
483.153	921.94
483.372	941.94
483.59	971.94
483.808	976.94
484.027	939.94
484.245	965.94
484.463	953.94
484.681	972.94
484.9	978.94
485.118	983.94
485.336	959.94
485.554	963.94
485.772	975.94
485.99	964.94
486.209	974.94
486.427	968.94
486.645	982.94
486.863	971.94
487.081	989.94
487.299	961.94
487.517	967.94
487.735	954.94
487.953	989.94
488.171	973.94
488.389	963.94
488.607	938.94
488.825	975.94
489.043	968.94
489.261	1009.94
489.479	986.94
489.696	989.94
489.914	1009.94
490.132	984.94
490.35	969.94
490.568	1011.94
490.786	988.94
491.003	1004.94
491.221	986.94
491.439	983.94
491.657	1004.94
491.874	1007.94
492.092	985.94
492.31	993.94
492.527	1006.94
492.745	1029.94
492.963	1019.94
493.18	1022.94
493.398	1028.94
493.615	1035.94
493.833	996.94
494.05	1021.94
494.268	1013.94
494.485	1021.94
494.703	990.94
494.92	1017.94
495.138	1041.94
495.355	1011.94
495.573	1009.94
495.79	1020.94
496.008	1039.94
496.225	1037.94
496.442	1034.94
496.66	1029.94
496.877	1049.94
497.094	1082.94
497.312	1077.94
497.529	1061.94
497.746	1082.94
497.963	1066.94
498.181	1071.94
498.398	1114.94
498.615	1157.94
498.832	1119.94
499.049	1151.94
499.267	1140.94
499.484	1182.94
499.701	1193.94
499.918	1188.94
500.135	1206.94
500.352	1218.94
500.569	1217.94
500.786	1231.94
501.003	1185.94
501.22	1188.94
501.437	1210.94
501.654	1151.94
501.871	1179.94
502.088	1148.94
502.305	1134.94
502.522	1116.94
502.739	1103.94
502.956	1073.94
503.172	1055.94
503.389	1061.94
503.606	1088.94
503.823	1034.94
504.04	1064.94
504.256	1039.94
504.473	1049.94
504.69	1023.94
504.907	1016.94
505.123	1027.94
505.34	995.94
505.557	984.94
505.773	981.94
505.99	974.94
506.207	973.94
506.423	994.94
506.64	972.94
506.856	945.94
507.073	962.94
507.289	945.94
507.506	943.94
507.722	911.94
507.939	933.94
508.155	916.94
508.372	899.94
508.588	907.94
508.805	907.94
509.021	888.94
509.238	905.94
509.454	870.94
509.67	891.94
509.887	891.94
510.103	897.94
510.319	862.94
510.536	869.94
510.752	866.94
510.968	883.94
511.184	857.94
511.401	879.94
511.617	884.94
511.833	845.94
512.049	861.94
512.265	865.94
512.481	865.94
512.698	850.94
512.914	867.94
513.13	851.94
513.346	887.94
513.562	862.94
513.778	893.94
513.994	858.94
514.21	861.94
514.426	867.94
514.642	845.94
514.858	870.94
515.074	866.94
515.29	862.94
515.506	881.94
515.721	891.94
515.937	871.94
516.153	879.94
516.369	874.94
516.585	884.94
516.801	898.94
517.016	877.94
517.232	884.94
517.448	889.94
517.664	853.94
517.879	882.94
518.095	909.94
518.311	894.94
518.527	892.94
518.742	862.94
518.958	859.94
519.173	861.94
519.389	843.94
519.605	857.94
519.82	837.94
520.036	845.94
520.251	860.94
520.467	871.94
520.682	834.94
520.898	844.94
521.113	805.94
521.329	834.94
521.544	817.94
521.76	830.94
521.975	835.94
522.19	848.94
522.406	836.94
522.621	858.94
522.836	798.94
523.052	846.94
523.267	821.94
523.482	833.94
523.698	809.94
523.913	825.94
524.128	817.94
524.343	829.94
524.559	820.94
524.774	817.94
524.989	790.94
525.204	828.94
525.419	818.94
525.634	814.94
525.849	814.94
526.064	804.94
526.28	821.94
526.495	793.94
526.71	790.94
526.925	780.94
527.14	796.94
527.355	828.94
527.57	782.94
527.785	752.94
527.999	769.94
528.214	784.94
528.429	776.94
528.644	806.94
528.859	778.94
529.074	785.94
529.289	784.94
529.503	788.94
529.718	777.94
529.933	775.94
530.148	794.94
530.363	773.94
530.577	784.94
530.792	755.94
531.007	766.94
531.221	771.94
531.436	771.94
531.651	778.94
531.865	792.94
532.08	787.94
532.295	755.94
532.509	766.94
532.724	775.94
532.938	775.94
533.153	727.94
533.367	758.94
533.582	745.94
533.796	769.94
534.011	773.94
534.225	761.94
534.44	757.94
534.654	728.94
534.868	739.94
535.083	749.94
535.297	756.94
535.511	750.94
535.726	738.94
535.94	710.94
536.154	717.94
536.369	725.94
536.583	729.94
536.797	751.94
537.011	748.94
537.225	735.94
537.44	737.94
537.654	729.94
537.868	741.94
538.082	739.94
538.296	731.94
538.51	714.94
538.724	728.94
538.938	699.94
539.153	727.94
539.367	729.94
539.581	719.94
539.795	721.94
540.009	705.94
540.222	711.94
540.436	720.94
540.65	702.94
540.864	717.94
541.078	732.94
541.292	685.94
541.506	718.94
541.72	721.94
541.934	718.94
542.147	743.94
542.361	702.94
542.575	706.94
542.789	733.94
543.002	683.94
543.216	688.94
543.43	687.94
543.644	709.94
543.857	729.94
544.071	711.94
544.285	717.94
544.498	693.94
544.712	719.94
544.925	705.94
545.139	702.94
545.352	708.94
545.566	683.94
545.779	684.94
545.993	718.94
546.206	702.94
546.42	678.94
546.633	688.94
546.847	701.94
547.06	690.94
547.274	690.94
547.487	666.94
547.7	668.94
547.914	681.94
548.127	674.94
548.34	707.94
548.554	681.94
548.767	675.94
548.98	704.94
549.193	686.94
549.407	698.94
549.62	692.94
549.833	686.94
550.046	693.94
550.259	691.94
550.473	644.94
550.686	663.94
550.899	684.94
551.112	664.94
551.325	685.94
551.538	645.94
551.751	667.94
551.964	654.94
552.177	669.94
552.39	669.94
552.603	674.94
552.816	663.94
553.029	669.94
553.242	654.94
553.455	675.94
553.667	656.94
553.88	653.94
554.093	663.94
554.306	667.94
554.519	665.94
554.732	649.94
554.944	641.94
555.157	629.94
555.37	655.94
555.583	640.94
555.795	630.94
556.008	656.94
556.221	635.94
556.433	611.94
556.646	607.94
556.859	621.94
557.071	636.94
557.284	612.94
557.496	613.94
557.709	621.94
557.921	626.94
558.134	622.94
558.346	602.94
558.559	617.94
558.771	608.94
558.984	605.94
559.196	597.94
559.409	611.94
559.621	609.94
559.833	603.94
560.046	599.94
560.258	611.94
560.47	610.94
560.683	603.94
560.895	603.94
561.107	617.94
561.32	587.94
561.532	614.94
561.744	601.94
561.956	596.94
562.168	615.94
562.381	601.94
562.593	600.94
562.805	593.94
563.017	594.94
563.229	605.94
563.441	575.94
563.653	604.94
563.865	586.94
564.077	607.94
564.289	593.94
564.501	613.94
564.713	607.94
564.925	607.94
565.137	595.94
565.349	597.94
565.561	586.94
565.773	612.94
565.985	600.94
566.197	610.94
566.408	596.94
566.62	627.94
566.832	607.94
567.044	602.94
567.255	618.94
567.467	602.94
567.679	589.94
567.891	617.94
568.102	601.94
568.314	598.94
568.526	566.94
568.737	590.94
568.949	586.94
569.161	570.94
569.372	554.94
569.584	549.94
569.795	557.94
570.007	542.94
570.218	555.94
570.43	527.94
570.641	548.94
570.853	559.94
571.064	515.94
571.276	532.94
571.487	527.94
571.698	530.94
571.91	531.94
572.121	511.94
572.333	506.94
572.544	512.94
572.755	510.94
572.966	533.94
573.178	494.94
573.389	503.94
573.6	508.94
573.811	500.94
574.023	477.94
574.234	477.94
574.445	476.94
574.656	485.94
574.867	498.94
575.078	474.94
575.289	476.94
575.501	479.94
575.712	486.94
575.923	473.94
576.134	471.94
576.345	463.94
576.556	467.94
576.767	466.94
576.978	483.94
577.188	467.94
577.399	472.94
577.61	463.94
577.821	483.94
578.032	439.94
578.243	446.94
578.454	463.94
578.665	471.94
578.875	453.94
579.086	457.94
579.297	443.94
579.508	450.94
579.718	446.94
579.929	447.94
580.14	444.94
580.35	441.94
580.561	436.94
580.772	410.94
580.982	447.94
581.193	439.94
581.403	445.94
581.614	432.94
581.825	439.94
582.035	423.94
582.246	450.94
582.456	433.94
582.667	443.94
582.877	424.94
583.087	423.94
583.298	431.94
583.508	410.94
583.719	431.94
583.929	430.94
584.139	412.94
584.35	414.94
584.56	427.94
584.77	436.94
584.981	425.94
585.191	411.94
585.401	413.94
585.611	408.94
585.821	417.94
586.032	403.94
586.242	407.94
586.452	427.94
586.662	411.94
586.872	399.94
587.082	403.94
587.292	403.94
587.502	400.94
587.713	402.94
587.923	400.94
588.133	420.94
588.343	406.94
588.553	388.94
588.762	388.94
588.972	402.94
589.182	412.94
589.392	425.94
589.602	397.94
589.812	407.94
590.022	409.94
590.232	391.94
590.441	385.94
590.651	396.94
590.861	389.94
591.071	389.94
591.281	395.94
591.49	411.94
591.7	410.94
591.91	382.94
592.119	403.94
592.329	375.94
592.539	372.94
592.748	375.94
592.958	383.94
593.167	380.94
593.377	361.94
593.587	391.94
593.796	389.94
594.006	356.94
594.215	368.94
594.424	381.94
594.634	391.94
594.843	397.94
595.053	365.94
595.262	366.94
595.472	380.94
595.681	373.94
595.89	355.94
596.1	353.94
596.309	366.94
596.518	367.94
596.727	370.94
596.937	366.94
597.146	353.94
597.355	364.94
597.564	335.94
597.774	357.94
597.983	377.94
598.192	364.94
598.401	329.94
598.61	355.94
598.819	346.94
599.028	340.94
599.237	342.94
599.446	345.94
599.655	322.94
599.864	339.94
600.073	339.94
600.282	325.94
600.491	340.94
600.7	347.94
600.909	336.94
601.118	331.94
601.327	340.94
601.536	325.94
601.745	337.94
601.953	349.94
602.162	334.94
602.371	336.94
602.58	330.94
602.789	352.94
602.997	334.94
603.206	348.94
603.415	323.94
603.623	311.94
603.832	340.94
604.041	317.94
604.249	343.94
604.458	328.94
604.666	314.94
604.875	323.94
605.084	318.94
605.292	328.94
605.501	338.94
605.709	314.94
605.918	318.94
606.126	319.94
606.334	315.94
606.543	311.94
606.751	313.94
606.96	327.94
607.168	326.94
607.376	321.94
607.585	317.94
607.793	307.94
608.001	307.94
608.21	313.94
608.418	318.94
608.626	330.94
608.834	302.94
609.043	318.94
609.251	309.94
609.459	310.94
609.667	300.94
609.875	316.94
610.083	309.94
610.291	313.94
610.499	306.94
610.707	314.94
610.916	299.94
611.124	299.94
611.332	288.94
611.54	300.94
611.748	307.94
611.955	307.94
612.163	312.94
612.371	307.94
612.579	303.94
612.787	306.94
612.995	313.94
613.203	295.94
613.411	285.94
613.618	278.94
613.826	279.94
614.034	287.94
614.242	311.94
614.449	324.94
614.657	295.94
614.865	305.94
615.072	299.94
615.28	289.94
615.488	295.94
615.695	290.94
615.903	275.94
616.111	287.94
616.318	300.94
616.526	273.94
616.733	313.94
616.941	281.94
617.148	290.94
617.356	284.94
617.563	297.94
617.771	285.94
617.978	294.94
618.185	298.94
618.393	286.94
618.6	298.94
618.807	297.94
619.015	278.94
619.222	270.94
619.429	293.94
619.637	287.94
619.844	285.94
620.051	276.94
620.258	274.94
620.466	263.94
620.673	268.94
620.88	267.94
621.087	292.94
621.294	282.94
621.501	292.94
621.708	270.94
621.915	272.94
622.122	291.94
622.329	275.94
622.536	274.94
622.743	285.94
622.95	263.94
623.157	283.94
623.364	281.94
623.571	272.94
623.778	263.94
623.985	261.94
624.192	257.94
624.399	270.94
624.606	255.94
624.812	262.94
625.019	271.94
625.226	258.94
625.433	249.94
625.639	247.94
625.846	250.94
626.053	258.94
626.259	244.94
626.466	249.94
626.673	236.94
626.879	261.94
627.086	256.94
627.293	245.94
627.499	255.94
627.706	245.94
627.912	244.94
628.119	247.94
628.325	253.94
628.532	256.94
628.738	244.94
628.945	265.94
629.151	245.94
629.357	267.94
629.564	241.94
629.77	263.94
629.976	244.94
630.183	251.94
630.389	252.94
630.595	252.94
630.802	264.94
631.008	230.94
631.214	232.94
631.42	263.94
631.627	247.94
631.833	217.94
632.039	235.94
632.245	259.94
632.451	235.94
632.657	242.94
632.863	214.94
633.069	236.94
633.275	235.94
633.481	226.94
633.688	241.94
633.893	255.94
634.099	220.94
634.305	233.94
634.511	228.94
634.717	232.94
634.923	218.94
635.129	226.94
635.335	223.94
635.541	222.94
635.747	246.94
635.952	224.94
636.158	227.94
636.364	210.94
636.57	206.94
636.775	234.94
636.981	214.94
637.187	227.94
637.392	226.94
637.598	228.94
637.804	230.94
638.009	225.94
638.215	214.94
638.421	218.94
638.626	234.94
638.832	231.94
639.037	217.94
639.243	204.94
639.448	224.94
639.654	223.94
639.859	234.94
640.065	208.94
640.27	203.94
640.475	217.94
640.681	206.94
640.886	215.94
641.091	219.94
641.297	229.94
641.502	217.94
641.707	213.94
641.913	226.94
642.118	210.94
642.323	225.94
642.528	235.94
642.733	224.94
642.939	219.94
643.144	217.94
643.349	217.94
643.554	213.94
643.759	225.94
643.964	208.94
644.169	222.94
644.374	216.94
644.579	216.94
644.784	218.94
644.989	213.94
645.194	203.94
645.399	223.94
645.604	214.94
645.809	205.94
646.014	200.94
646.219	202.94
646.423	205.94
646.628	194.94
646.833	215.94
647.038	211.94
647.243	201.94
647.447	197.94
647.652	211.94
647.857	199.94
648.062	217.94
648.266	211.94
648.471	206.94
648.676	210.94
648.88	216.94
649.085	228.94
649.289	211.94
649.494	206.94
649.698	213.94
649.903	205.94
650.107	218.94
650.312	212.94
650.516	219.94
650.721	209.94
650.925	187.94
651.13	205.94
651.334	203.94
651.539	190.94
651.743	204.94
651.947	214.94
652.152	207.94
652.356	192.94
652.56	185.94
652.764	181.94
652.969	190.94
653.173	186.94
653.377	189.94
653.581	183.94
653.785	180.94
653.99	181.94
654.194	178.94
654.398	165.94
654.602	182.94
654.806	189.94
655.01	166.94
655.214	172.94
655.418	178.94
655.622	153.94
655.826	173.94
656.03	177.94
656.234	183.94
656.438	167.94
656.642	174.94
656.846	179.94
657.049	181.94
657.253	175.94
657.457	162.94
657.661	140.94
657.865	157.94
658.068	142.94
658.272	142.94
658.476	136.94
658.68	130.94
658.883	137.94
659.087	123.94
659.291	124.94
659.494	119.94
659.698	120.94
659.901	105.94
660.105	91.94
660.309	102.94
660.512	110.94
660.716	103.94
660.919	115.94
661.123	121.94
661.326	102.94
661.53	93.94
661.733	107.94
661.936	99.94
662.14	102.94
662.343	100.94
662.546	89.94
662.75	93.94
662.953	106.94
663.156	90.94
663.36	86.94
663.563	93.94
663.766	75.94
663.969	85.94
664.173	84.94
664.376	85.94
664.579	78.94
664.782	89.94
664.985	112.94
665.188	85.94
665.391	70.94
665.594	99.94
665.797	77.94
666	100.94
666.203	94.94
666.406	77.94
666.609	77.94
666.812	76.94
667.015	90.94
667.218	98.94
667.421	72.94
667.624	71.94
667.827	84.94
668.03	95.94
668.232	82.94
668.435	89.94
668.638	93.94
668.841	90.94
669.043	92.94
669.246	96.94
669.449	85.94
669.651	88.94
669.854	73.94
670.057	86.94
670.259	86.94
670.462	95.94
670.665	84.94
670.867	94.94
671.07	86.94
671.272	101.94
671.475	86.94
671.677	77.94
671.88	81.94
672.082	86.94
672.284	72.94
672.487	83.94
672.689	81.94
672.892	101.94
