Data from Fe(NO3)3@0.025M.TitratingCurve.Agarose3%dH2O.NegLispCup.LampEnergy10.LIBS07252019_HRD10591_16-53-56-335.txt Node
Date: Thu Jul 25 16:53:56 EDT 2019
User: cochatt
Spectrometer: HR+D1059
Trigger mode: 1
Integration Time (sec): 1.000000E-1
Scans to average: 1
Electric dark correction enabled: true
Nonlinearity correction enabled: false
Boxcar width: 0
XAxis mode: Wavelengths
Number of Pixels in Spectrum: 2048
>>>>>Begin Spectral Data<<<<<
223.165	-19.12
223.4	-19.12
223.635	-19.12
223.869	-15.12
224.104	-13.12
224.338	0.88
224.573	-20.12
224.808	-11.12
225.042	1.88
225.277	-6.12
225.511	-10.12
225.746	-12.12
225.98	-2.12
226.215	14.88
226.449	15.88
226.683	20.88
226.918	20.88
227.152	33.88
227.387	37.88
227.621	45.88
227.856	26.88
228.09	40.88
228.324	57.88
228.559	50.88
228.793	61.88
229.027	82.88
229.262	73.88
229.496	80.88
229.73	66.88
229.964	106.88
230.199	99.88
230.433	89.88
230.667	96.88
230.901	95.88
231.136	83.88
231.37	93.88
231.604	105.88
231.838	100.88
232.072	96.88
232.306	96.88
232.541	106.88
232.775	98.88
233.009	106.88
233.243	99.88
233.477	98.88
233.711	92.88
233.945	99.88
234.179	93.88
234.413	112.88
234.647	107.88
234.881	101.88
235.115	104.88
235.349	104.88
235.583	103.88
235.817	104.88
236.051	104.88
236.285	110.88
236.519	101.88
236.753	113.88
236.987	114.88
237.221	101.88
237.455	117.88
237.689	101.88
237.922	101.88
238.156	106.88
238.39	99.88
238.624	124.88
238.858	112.88
239.091	97.88
239.325	102.88
239.559	105.88
239.793	105.88
240.027	113.88
240.26	102.88
240.494	96.88
240.728	109.88
240.961	112.88
241.195	102.88
241.429	117.88
241.662	103.88
241.896	113.88
242.13	112.88
242.363	107.88
242.597	106.88
242.83	115.88
243.064	116.88
243.298	117.88
243.531	114.88
243.765	112.88
243.998	122.88
244.232	120.88
244.465	112.88
244.699	119.88
244.932	118.88
245.166	115.88
245.399	119.88
245.633	115.88
245.866	112.88
246.099	119.88
246.333	108.88
246.566	120.88
246.8	110.88
247.033	123.88
247.266	120.88
247.5	125.88
247.733	124.88
247.966	124.88
248.2	107.88
248.433	114.88
248.666	118.88
248.899	128.88
249.133	140.88
249.366	119.88
249.599	136.88
249.832	137.88
250.066	130.88
250.299	132.88
250.532	123.88
250.765	123.88
250.998	119.88
251.231	128.88
251.465	129.88
251.698	142.88
251.931	128.88
252.164	144.88
252.397	132.88
252.63	130.88
252.863	133.88
253.096	126.88
253.329	153.88
253.562	131.88
253.795	128.88
254.028	130.88
254.261	136.88
254.494	134.88
254.727	146.88
254.96	135.88
255.193	142.88
255.426	145.88
255.659	137.88
255.892	148.88
256.124	140.88
256.357	155.88
256.59	146.88
256.823	128.88
257.056	136.88
257.289	137.88
257.521	148.88
257.754	138.88
257.987	133.88
258.22	156.88
258.452	160.88
258.685	152.88
258.918	162.88
259.151	148.88
259.383	153.88
259.616	154.88
259.849	136.88
260.081	168.88
260.314	176.88
260.547	143.88
260.779	150.88
261.012	156.88
261.244	165.88
261.477	161.88
261.71	146.88
261.942	152.88
262.175	154.88
262.407	143.88
262.64	156.88
262.872	161.88
263.105	157.88
263.337	168.88
263.57	176.88
263.802	152.88
264.035	177.88
264.267	148.88
264.499	154.88
264.732	158.88
264.964	166.88
265.197	157.88
265.429	174.88
265.661	166.88
265.894	163.88
266.126	168.88
266.358	173.88
266.591	173.88
266.823	156.88
267.055	167.88
267.287	158.88
267.52	158.88
267.752	158.88
267.984	169.88
268.216	186.88
268.448	171.88
268.681	165.88
268.913	179.88
269.145	171.88
269.377	165.88
269.609	176.88
269.841	157.88
270.073	172.88
270.306	164.88
270.538	166.88
270.77	178.88
271.002	162.88
271.234	164.88
271.466	189.88
271.698	180.88
271.93	177.88
272.162	182.88
272.394	190.88
272.626	196.88
272.858	192.88
273.09	197.88
273.322	181.88
273.553	180.88
273.785	183.88
274.017	199.88
274.249	194.88
274.481	204.88
274.713	194.88
274.945	232.88
275.176	212.88
275.408	210.88
275.64	203.88
275.872	210.88
276.104	210.88
276.335	200.88
276.567	175.88
276.799	179.88
277.031	208.88
277.262	192.88
277.494	203.88
277.726	209.88
277.957	212.88
278.189	208.88
278.421	201.88
278.652	200.88
278.884	195.88
279.115	197.88
279.347	204.88
279.579	196.88
279.81	199.88
280.042	192.88
280.273	203.88
280.505	200.88
280.736	212.88
280.968	203.88
281.199	207.88
281.431	219.88
281.662	200.88
281.894	225.88
282.125	219.88
282.356	216.88
282.588	214.88
282.819	210.88
283.051	198.88
283.282	224.88
283.513	217.88
283.745	228.88
283.976	228.88
284.207	218.88
284.439	209.88
284.67	212.88
284.901	225.88
285.132	216.88
285.364	228.88
285.595	224.88
285.826	202.88
286.057	221.88
286.288	241.88
286.52	224.88
286.751	212.88
286.982	224.88
287.213	210.88
287.444	216.88
287.675	224.88
287.906	232.88
288.138	233.88
288.369	213.88
288.6	224.88
288.831	217.88
289.062	238.88
289.293	233.88
289.524	226.88
289.755	228.88
289.986	219.88
290.217	220.88
290.448	239.88
290.679	230.88
290.91	231.88
291.141	231.88
291.371	230.88
291.602	226.88
291.833	226.88
292.064	235.88
292.295	226.88
292.526	240.88
292.757	230.88
292.987	241.88
293.218	230.88
293.449	233.88
293.68	236.88
293.91	247.88
294.141	229.88
294.372	242.88
294.603	260.88
294.833	234.88
295.064	240.88
295.295	244.88
295.525	228.88
295.756	224.88
295.987	242.88
296.217	244.88
296.448	229.88
296.679	252.88
296.909	251.88
297.14	246.88
297.37	267.88
297.601	246.88
297.831	243.88
298.062	253.88
298.292	253.88
298.523	249.88
298.753	266.88
298.984	270.88
299.214	260.88
299.445	251.88
299.675	262.88
299.905	267.88
300.136	261.88
300.366	262.88
300.597	266.88
300.827	274.88
301.057	273.88
301.288	241.88
301.518	263.88
301.748	249.88
301.979	251.88
302.209	266.88
302.439	278.88
302.669	278.88
302.9	282.88
303.13	273.88
303.36	264.88
303.59	267.88
303.82	279.88
304.051	265.88
304.281	271.88
304.511	266.88
304.741	269.88
304.971	274.88
305.201	291.88
305.431	262.88
305.661	258.88
305.891	285.88
306.121	266.88
306.352	271.88
306.582	278.88
306.812	269.88
307.042	270.88
307.272	287.88
307.502	271.88
307.731	282.88
307.961	282.88
308.191	275.88
308.421	270.88
308.651	268.88
308.881	284.88
309.111	287.88
309.341	271.88
309.571	280.88
309.8	271.88
310.03	295.88
310.26	270.88
310.49	284.88
310.72	272.88
310.949	271.88
311.179	293.88
311.409	287.88
311.639	289.88
311.868	289.88
312.098	292.88
312.328	304.88
312.557	294.88
312.787	290.88
313.017	300.88
313.246	285.88
313.476	278.88
313.706	305.88
313.935	306.88
314.165	286.88
314.394	300.88
314.624	307.88
314.853	299.88
315.083	306.88
315.312	308.88
315.542	289.88
315.771	294.88
316.001	302.88
316.23	283.88
316.46	306.88
316.689	308.88
316.919	303.88
317.148	313.88
317.377	294.88
317.607	292.88
317.836	314.88
318.065	304.88
318.295	300.88
318.524	297.88
318.753	299.88
318.983	312.88
319.212	304.88
319.441	306.88
319.67	312.88
319.9	304.88
320.129	295.88
320.358	305.88
320.587	299.88
320.816	304.88
321.046	311.88
321.275	293.88
321.504	304.88
321.733	316.88
321.962	300.88
322.191	298.88
322.42	312.88
322.649	334.88
322.878	316.88
323.108	318.88
323.337	335.88
323.566	318.88
323.795	314.88
324.024	299.88
324.253	298.88
324.482	314.88
324.71	312.88
324.939	302.88
325.168	320.88
325.397	309.88
325.626	326.88
325.855	328.88
326.084	325.88
326.313	323.88
326.542	342.88
326.77	322.88
326.999	328.88
327.228	325.88
327.457	329.88
327.686	319.88
327.914	334.88
328.143	312.88
328.372	314.88
328.6	328.88
328.829	319.88
329.058	318.88
329.287	350.88
329.515	330.88
329.744	360.88
329.972	345.88
330.201	339.88
330.43	316.88
330.658	340.88
330.887	332.88
331.115	339.88
331.344	342.88
331.572	320.88
331.801	330.88
332.03	351.88
332.258	353.88
332.486	363.88
332.715	373.88
332.943	348.88
333.172	358.88
333.4	361.88
333.629	374.88
333.857	361.88
334.085	379.88
334.314	371.88
334.542	375.88
334.771	361.88
334.999	354.88
335.227	380.88
335.455	352.88
335.684	384.88
335.912	387.88
336.14	377.88
336.369	393.88
336.597	365.88
336.825	361.88
337.053	376.88
337.281	388.88
337.51	362.88
337.738	360.88
337.966	384.88
338.194	372.88
338.422	360.88
338.65	340.88
338.878	376.88
339.106	352.88
339.334	366.88
339.562	357.88
339.79	347.88
340.018	365.88
340.246	350.88
340.474	350.88
340.702	348.88
340.93	363.88
341.158	374.88
341.386	345.88
341.614	330.88
341.842	363.88
342.07	369.88
342.298	360.88
342.526	368.88
342.754	373.88
342.981	345.88
343.209	361.88
343.437	376.88
343.665	367.88
343.893	366.88
344.12	357.88
344.348	379.88
344.576	368.88
344.804	366.88
345.031	355.88
345.259	369.88
345.487	348.88
345.714	338.88
345.942	354.88
346.17	356.88
346.397	364.88
346.625	336.88
346.853	360.88
347.08	347.88
347.308	345.88
347.535	347.88
347.763	347.88
347.99	347.88
348.218	334.88
348.445	340.88
348.673	349.88
348.9	362.88
349.128	335.88
349.355	343.88
349.583	340.88
349.81	338.88
350.037	359.88
350.265	338.88
350.492	344.88
350.72	362.88
350.947	331.88
351.174	356.88
351.402	339.88
351.629	337.88
351.856	354.88
352.083	352.88
352.311	337.88
352.538	345.88
352.765	345.88
352.992	342.88
353.22	337.88
353.447	344.88
353.674	335.88
353.901	347.88
354.128	331.88
354.355	341.88
354.583	331.88
354.81	346.88
355.037	345.88
355.264	354.88
355.491	350.88
355.718	334.88
355.945	355.88
356.172	337.88
356.399	358.88
356.626	332.88
356.853	372.88
357.08	332.88
357.307	343.88
357.534	349.88
357.761	362.88
357.988	348.88
358.215	346.88
358.441	350.88
358.668	349.88
358.895	334.88
359.122	362.88
359.349	355.88
359.576	349.88
359.802	349.88
360.029	343.88
360.256	354.88
360.483	365.88
360.709	346.88
360.936	351.88
361.163	341.88
361.39	357.88
361.616	332.88
361.843	358.88
362.07	348.88
362.296	348.88
362.523	344.88
362.749	345.88
362.976	340.88
363.203	364.88
363.429	355.88
363.656	348.88
363.882	338.88
364.109	357.88
364.335	361.88
364.562	349.88
364.788	344.88
365.015	352.88
365.241	343.88
365.468	352.88
365.694	326.88
365.92	356.88
366.147	346.88
366.373	349.88
366.599	348.88
366.826	349.88
367.052	350.88
367.278	363.88
367.505	358.88
367.731	364.88
367.957	356.88
368.184	356.88
368.41	359.88
368.636	379.88
368.862	368.88
369.089	348.88
369.315	361.88
369.541	377.88
369.767	372.88
369.993	368.88
370.219	363.88
370.445	368.88
370.672	364.88
370.898	383.88
371.124	372.88
371.35	389.88
371.576	370.88
371.802	376.88
372.028	369.88
372.254	389.88
372.48	364.88
372.706	382.88
372.932	352.88
373.158	376.88
373.384	390.88
373.61	395.88
373.835	392.88
374.061	380.88
374.287	408.88
374.513	383.88
374.739	409.88
374.965	391.88
375.191	396.88
375.416	389.88
375.642	404.88
375.868	380.88
376.094	394.88
376.319	383.88
376.545	381.88
376.771	360.88
376.997	388.88
377.222	360.88
377.448	362.88
377.674	352.88
377.899	380.88
378.125	363.88
378.35	374.88
378.576	376.88
378.802	390.88
379.027	371.88
379.253	382.88
379.478	384.88
379.704	371.88
379.929	362.88
380.155	388.88
380.38	372.88
380.606	372.88
380.831	381.88
381.057	377.88
381.282	383.88
381.507	380.88
381.733	381.88
381.958	385.88
382.184	399.88
382.409	391.88
382.634	390.88
382.86	396.88
383.085	392.88
383.31	397.88
383.535	411.88
383.761	403.88
383.986	400.88
384.211	396.88
384.436	400.88
384.662	419.88
384.887	412.88
385.112	416.88
385.337	418.88
385.562	438.88
385.787	449.88
386.013	443.88
386.238	412.88
386.463	439.88
386.688	460.88
386.913	429.88
387.138	409.88
387.363	441.88
387.588	442.88
387.813	436.88
388.038	426.88
388.263	429.88
388.488	424.88
388.713	437.88
388.938	444.88
389.163	439.88
389.387	440.88
389.612	431.88
389.837	440.88
390.062	447.88
390.287	428.88
390.512	441.88
390.736	417.88
390.961	424.88
391.186	450.88
391.411	455.88
391.636	446.88
391.86	440.88
392.085	467.88
392.31	464.88
392.534	456.88
392.759	470.88
392.984	464.88
393.208	459.88
393.433	481.88
393.658	482.88
393.882	465.88
394.107	452.88
394.331	454.88
394.556	460.88
394.78	441.88
395.005	464.88
395.229	468.88
395.454	452.88
395.678	462.88
395.903	461.88
396.127	468.88
396.352	486.88
396.576	493.88
396.801	476.88
397.025	478.88
397.249	488.88
397.474	486.88
397.698	493.88
397.922	496.88
398.147	488.88
398.371	489.88
398.595	512.88
398.82	498.88
399.044	522.88
399.268	528.88
399.492	570.88
399.717	590.88
399.941	580.88
400.165	572.88
400.389	568.88
400.613	555.88
400.837	549.88
401.062	540.88
401.286	537.88
401.51	526.88
401.734	511.88
401.958	517.88
402.182	532.88
402.406	491.88
402.63	534.88
402.854	514.88
403.078	520.88
403.302	517.88
403.526	525.88
403.75	531.88
403.974	530.88
404.198	542.88
404.422	527.88
404.645	526.88
404.869	512.88
405.093	514.88
405.317	531.88
405.541	533.88
405.765	517.88
405.988	525.88
406.212	555.88
406.436	539.88
406.66	558.88
406.883	551.88
407.107	553.88
407.331	589.88
407.555	615.88
407.778	586.88
408.002	580.88
408.226	578.88
408.449	585.88
408.673	552.88
408.896	564.88
409.12	570.88
409.344	544.88
409.567	554.88
409.791	543.88
410.014	546.88
410.238	548.88
410.461	534.88
410.685	530.88
410.908	544.88
411.132	531.88
411.355	506.88
411.578	524.88
411.802	526.88
412.025	525.88
412.249	535.88
412.472	525.88
412.695	516.88
412.919	523.88
413.142	529.88
413.365	537.88
413.589	509.88
413.812	488.88
414.035	498.88
414.258	532.88
414.482	525.88
414.705	517.88
414.928	522.88
415.151	502.88
415.374	499.88
415.597	505.88
415.821	500.88
416.044	502.88
416.267	488.88
416.49	496.88
416.713	511.88
416.936	492.88
417.159	469.88
417.382	489.88
417.605	493.88
417.828	473.88
418.051	505.88
418.274	477.88
418.497	480.88
418.72	500.88
418.943	501.88
419.166	500.88
419.389	549.88
419.611	542.88
419.834	508.88
420.057	494.88
420.28	496.88
420.503	475.88
420.726	459.88
420.948	481.88
421.171	477.88
421.394	483.88
421.617	480.88
421.839	492.88
422.062	477.88
422.285	463.88
422.507	482.88
422.73	492.88
422.953	504.88
423.175	482.88
423.398	483.88
423.621	472.88
423.843	498.88
424.066	478.88
424.288	498.88
424.511	498.88
424.733	476.88
424.956	485.88
425.178	496.88
425.401	488.88
425.623	484.88
425.846	492.88
426.068	487.88
426.291	493.88
426.513	486.88
426.735	474.88
426.958	473.88
427.18	477.88
427.402	453.88
427.625	477.88
427.847	475.88
428.069	467.88
428.292	469.88
428.514	469.88
428.736	473.88
428.958	472.88
429.181	466.88
429.403	466.88
429.625	475.88
429.847	468.88
430.069	472.88
430.292	447.88
430.514	453.88
430.736	470.88
430.958	471.88
431.18	449.88
431.402	466.88
431.624	469.88
431.846	463.88
432.068	459.88
432.29	465.88
432.512	449.88
432.734	478.88
432.956	468.88
433.178	453.88
433.4	442.88
433.622	474.88
433.844	461.88
434.066	493.88
434.287	450.88
434.509	486.88
434.731	502.88
434.953	486.88
435.175	491.88
435.397	492.88
435.618	491.88
435.84	493.88
436.062	466.88
436.284	435.88
436.505	468.88
436.727	450.88
436.949	462.88
437.17	460.88
437.392	466.88
437.614	470.88
437.835	449.88
438.057	445.88
438.278	431.88
438.5	432.88
438.721	451.88
438.943	467.88
439.165	427.88
439.386	458.88
439.608	470.88
439.829	473.88
440.05	467.88
440.272	460.88
440.493	454.88
440.715	449.88
440.936	467.88
441.158	473.88
441.379	467.88
441.6	458.88
441.822	489.88
442.043	472.88
442.264	497.88
442.486	468.88
442.707	475.88
442.928	467.88
443.149	489.88
443.371	477.88
443.592	468.88
443.813	489.88
444.034	472.88
444.255	483.88
444.476	493.88
444.698	496.88
444.919	514.88
445.14	602.88
445.361	535.88
445.582	511.88
445.803	478.88
446.024	469.88
446.245	452.88
446.466	475.88
446.687	458.88
446.908	457.88
447.129	462.88
447.35	469.88
447.571	466.88
447.792	443.88
448.013	446.88
448.234	466.88
448.455	452.88
448.675	404.88
448.896	451.88
449.117	424.88
449.338	420.88
449.559	438.88
449.779	432.88
450	446.88
450.221	436.88
450.442	426.88
450.662	414.88
450.883	409.88
451.104	430.88
451.324	422.88
451.545	438.88
451.766	422.88
451.986	423.88
452.207	420.88
452.428	420.88
452.648	423.88
452.869	416.88
453.089	416.88
453.31	439.88
453.53	408.88
453.751	432.88
453.971	416.88
454.192	409.88
454.412	404.88
454.633	395.88
454.853	413.88
455.073	409.88
455.294	411.88
455.514	406.88
455.734	416.88
455.955	406.88
456.175	419.88
456.395	416.88
456.616	410.88
456.836	403.88
457.056	439.88
457.276	436.88
457.497	409.88
457.717	425.88
457.937	440.88
458.157	438.88
458.377	440.88
458.598	417.88
458.818	453.88
459.038	458.88
459.258	457.88
459.478	476.88
459.698	465.88
459.918	463.88
460.138	461.88
460.358	493.88
460.578	487.88
460.798	488.88
461.018	492.88
461.238	509.88
461.458	504.88
461.678	509.88
461.898	523.88
462.118	518.88
462.338	537.88
462.558	532.88
462.777	542.88
462.997	547.88
463.217	553.88
463.437	553.88
463.657	555.88
463.876	569.88
464.096	563.88
464.316	557.88
464.536	557.88
464.755	533.88
464.975	514.88
465.195	510.88
465.414	513.88
465.634	488.88
465.854	484.88
466.073	464.88
466.293	467.88
466.512	470.88
466.732	460.88
466.951	454.88
467.171	468.88
467.391	466.88
467.61	467.88
467.829	458.88
468.049	448.88
468.268	453.88
468.488	445.88
468.707	438.88
468.927	454.88
469.146	462.88
469.365	470.88
469.585	441.88
469.804	473.88
470.023	453.88
470.243	467.88
470.462	473.88
470.681	468.88
470.901	460.88
471.12	449.88
471.339	481.88
471.558	450.88
471.777	457.88
471.997	461.88
472.216	451.88
472.435	459.88
472.654	454.88
472.873	436.88
473.092	462.88
473.311	473.88
473.53	460.88
473.749	461.88
473.968	454.88
474.187	457.88
474.406	460.88
474.625	479.88
474.844	448.88
475.063	470.88
475.282	462.88
475.501	468.88
475.72	467.88
475.939	480.88
476.158	454.88
476.377	484.88
476.596	471.88
476.814	466.88
477.033	485.88
477.252	490.88
477.471	500.88
477.69	516.88
477.908	502.88
478.127	498.88
478.346	524.88
478.564	524.88
478.783	522.88
479.002	528.88
479.22	547.88
479.439	517.88
479.658	544.88
479.876	537.88
480.095	544.88
480.313	535.88
480.532	548.88
480.751	526.88
480.969	538.88
481.188	558.88
481.406	552.88
481.624	541.88
481.843	501.88
482.061	512.88
482.28	521.88
482.498	522.88
482.717	531.88
482.935	514.88
483.153	519.88
483.372	518.88
483.59	535.88
483.808	554.88
484.027	543.88
484.245	524.88
484.463	558.88
484.681	547.88
484.9	530.88
485.118	554.88
485.336	554.88
485.554	543.88
485.772	533.88
485.99	537.88
486.209	547.88
486.427	564.88
486.645	544.88
486.863	553.88
487.081	544.88
487.299	542.88
487.517	549.88
487.735	549.88
487.953	541.88
488.171	556.88
488.389	560.88
488.607	540.88
488.825	549.88
489.043	540.88
489.261	528.88
489.479	552.88
489.696	554.88
489.914	538.88
490.132	535.88
490.35	543.88
490.568	544.88
490.786	549.88
491.003	560.88
491.221	542.88
491.439	547.88
491.657	536.88
491.874	557.88
492.092	569.88
492.31	553.88
492.527	573.88
492.745	556.88
492.963	553.88
493.18	570.88
493.398	566.88
493.615	564.88
493.833	591.88
494.05	581.88
494.268	555.88
494.485	573.88
494.703	587.88
494.92	580.88
495.138	590.88
495.355	575.88
495.573	613.88
495.79	593.88
496.008	628.88
496.225	618.88
496.442	610.88
496.66	589.88
496.877	630.88
497.094	624.88
497.312	652.88
497.529	654.88
497.746	655.88
497.963	686.88
498.181	686.88
498.398	713.88
498.615	733.88
498.832	752.88
499.049	778.88
499.267	797.88
499.484	820.88
499.701	838.88
499.918	882.88
500.135	885.88
500.352	932.88
500.569	922.88
500.786	946.88
501.003	939.88
501.22	908.88
501.437	896.88
501.654	843.88
501.871	841.88
502.088	813.88
502.305	769.88
502.522	743.88
502.739	727.88
502.956	724.88
503.172	684.88
503.389	676.88
503.606	658.88
503.823	650.88
504.04	659.88
504.256	656.88
504.473	638.88
504.69	627.88
504.907	631.88
505.123	607.88
505.34	600.88
505.557	578.88
505.773	598.88
505.99	578.88
506.207	566.88
506.423	563.88
506.64	549.88
506.856	543.88
507.073	550.88
507.289	552.88
507.506	538.88
507.722	533.88
507.939	534.88
508.155	524.88
508.372	538.88
508.588	533.88
508.805	516.88
509.021	516.88
509.238	533.88
509.454	502.88
509.67	505.88
509.887	477.88
510.103	510.88
510.319	506.88
510.536	505.88
510.752	480.88
510.968	474.88
511.184	482.88
511.401	475.88
511.617	488.88
511.833	490.88
512.049	506.88
512.265	505.88
512.481	506.88
512.698	483.88
512.914	501.88
513.13	507.88
513.346	482.88
513.562	493.88
513.778	511.88
513.994	486.88
514.21	484.88
514.426	509.88
514.642	502.88
514.858	501.88
515.074	524.88
515.29	532.88
515.506	501.88
515.721	499.88
515.937	504.88
516.153	513.88
516.369	522.88
516.585	512.88
516.801	532.88
517.016	544.88
517.232	557.88
517.448	551.88
517.664	543.88
517.879	548.88
518.095	557.88
518.311	566.88
518.527	539.88
518.742	531.88
518.958	535.88
519.173	533.88
519.389	491.88
519.605	523.88
519.82	509.88
520.036	527.88
520.251	523.88
520.467	497.88
520.682	477.88
520.898	508.88
521.113	512.88
521.329	478.88
521.544	493.88
521.76	474.88
521.975	465.88
522.19	489.88
522.406	468.88
522.621	470.88
522.836	462.88
523.052	481.88
523.267	473.88
523.482	465.88
523.698	446.88
523.913	474.88
524.128	468.88
524.343	452.88
524.559	453.88
524.774	457.88
524.989	448.88
525.204	466.88
525.419	454.88
525.634	451.88
525.849	478.88
526.064	472.88
526.28	465.88
526.495	445.88
526.71	451.88
526.925	446.88
527.14	450.88
527.355	426.88
527.57	446.88
527.785	438.88
527.999	454.88
528.214	428.88
528.429	426.88
528.644	462.88
528.859	446.88
529.074	443.88
529.289	457.88
529.503	442.88
529.718	449.88
529.933	448.88
530.148	454.88
530.363	460.88
530.577	457.88
530.792	442.88
531.007	436.88
531.221	438.88
531.436	440.88
531.651	460.88
531.865	423.88
532.08	459.88
532.295	426.88
532.509	428.88
532.724	431.88
532.938	467.88
533.153	439.88
533.367	440.88
533.582	430.88
533.796	420.88
534.011	429.88
534.225	436.88
534.44	433.88
534.654	428.88
534.868	449.88
535.083	457.88
535.297	441.88
535.511	429.88
535.726	422.88
535.94	431.88
536.154	452.88
536.369	428.88
536.583	440.88
536.797	411.88
537.011	434.88
537.225	410.88
537.44	422.88
537.654	406.88
537.868	425.88
538.082	430.88
538.296	396.88
538.51	419.88
538.724	420.88
538.938	410.88
539.153	433.88
539.367	424.88
539.581	422.88
539.795	429.88
540.009	417.88
540.222	406.88
540.436	437.88
540.65	441.88
540.864	427.88
541.078	430.88
541.292	398.88
541.506	426.88
541.72	421.88
541.934	412.88
542.147	393.88
542.361	409.88
542.575	427.88
542.789	413.88
543.002	386.88
543.216	410.88
543.43	396.88
543.644	430.88
543.857	419.88
544.071	417.88
544.285	409.88
544.498	435.88
544.712	428.88
544.925	447.88
545.139	434.88
545.352	410.88
545.566	396.88
545.779	412.88
545.993	402.88
546.206	422.88
546.42	411.88
546.633	412.88
546.847	407.88
547.06	413.88
547.274	395.88
547.487	399.88
547.7	416.88
547.914	392.88
548.127	420.88
548.34	417.88
548.554	413.88
548.767	418.88
548.98	408.88
549.193	411.88
549.407	405.88
549.62	405.88
549.833	429.88
550.046	417.88
550.259	428.88
550.473	414.88
550.686	415.88
550.899	426.88
551.112	401.88
551.325	390.88
551.538	408.88
551.751	416.88
551.964	418.88
552.177	404.88
552.39	414.88
552.603	387.88
552.816	445.88
553.029	415.88
553.242	419.88
553.455	405.88
553.667	416.88
553.88	421.88
554.093	404.88
554.306	421.88
554.519	393.88
554.732	402.88
554.944	415.88
555.157	398.88
555.37	384.88
555.583	391.88
555.795	388.88
556.008	374.88
556.221	388.88
556.433	388.88
556.646	369.88
556.859	387.88
557.071	395.88
557.284	383.88
557.496	394.88
557.709	372.88
557.921	399.88
558.134	356.88
558.346	370.88
558.559	378.88
558.771	371.88
558.984	368.88
559.196	386.88
559.409	391.88
559.621	364.88
559.833	366.88
560.046	349.88
560.258	378.88
560.47	379.88
560.683	360.88
560.895	360.88
561.107	354.88
561.32	357.88
561.532	339.88
561.744	348.88
561.956	362.88
562.168	348.88
562.381	370.88
562.593	345.88
562.805	361.88
563.017	390.88
563.229	390.88
563.441	374.88
563.653	365.88
563.865	360.88
564.077	369.88
564.289	351.88
564.501	396.88
564.713	385.88
564.925	399.88
565.137	397.88
565.349	398.88
565.561	400.88
565.773	405.88
565.985	398.88
566.197	435.88
566.408	429.88
566.62	414.88
566.832	436.88
567.044	464.88
567.255	448.88
567.467	456.88
567.679	438.88
567.891	452.88
568.102	439.88
568.314	447.88
568.526	414.88
568.737	420.88
568.949	398.88
569.161	399.88
569.372	372.88
569.584	392.88
569.795	380.88
570.007	381.88
570.218	369.88
570.43	342.88
570.641	359.88
570.853	356.88
571.064	350.88
571.276	372.88
571.487	346.88
571.698	344.88
571.91	334.88
572.121	347.88
572.333	327.88
572.544	329.88
572.755	332.88
572.966	318.88
573.178	305.88
573.389	336.88
573.6	333.88
573.811	324.88
574.023	313.88
574.234	313.88
574.445	320.88
574.656	304.88
574.867	320.88
575.078	301.88
575.289	318.88
575.501	302.88
575.712	289.88
575.923	301.88
576.134	290.88
576.345	285.88
576.556	304.88
576.767	297.88
576.978	304.88
577.188	312.88
577.399	298.88
577.61	285.88
577.821	290.88
578.032	295.88
578.243	265.88
578.454	295.88
578.665	282.88
578.875	281.88
579.086	301.88
579.297	290.88
579.508	294.88
579.718	281.88
579.929	279.88
580.14	270.88
580.35	276.88
580.561	298.88
580.772	268.88
580.982	274.88
581.193	276.88
581.403	284.88
581.614	285.88
581.825	278.88
582.035	265.88
582.246	267.88
582.456	256.88
582.667	252.88
582.877	258.88
583.087	275.88
583.298	287.88
583.508	278.88
583.719	267.88
583.929	270.88
584.139	250.88
584.35	272.88
584.56	276.88
584.77	261.88
584.981	245.88
585.191	259.88
585.401	260.88
585.611	254.88
585.821	258.88
586.032	272.88
586.242	262.88
586.452	251.88
586.662	270.88
586.872	266.88
587.082	259.88
587.292	249.88
587.502	268.88
587.713	260.88
587.923	276.88
588.133	261.88
588.343	265.88
588.553	270.88
588.762	282.88
588.972	270.88
589.182	295.88
589.392	299.88
589.602	285.88
589.812	282.88
590.022	283.88
590.232	250.88
590.441	249.88
590.651	270.88
590.861	252.88
591.071	272.88
591.281	280.88
591.49	270.88
591.7	299.88
591.91	272.88
592.119	263.88
592.329	266.88
592.539	269.88
592.748	256.88
592.958	268.88
593.167	276.88
593.377	268.88
593.587	281.88
593.796	268.88
594.006	268.88
594.215	264.88
594.424	267.88
594.634	267.88
594.843	275.88
595.053	266.88
595.262	260.88
595.472	265.88
595.681	246.88
595.89	251.88
596.1	259.88
596.309	257.88
596.518	242.88
596.727	249.88
596.937	249.88
597.146	246.88
597.355	230.88
597.564	250.88
597.774	260.88
597.983	245.88
598.192	245.88
598.401	228.88
598.61	222.88
598.819	236.88
599.028	226.88
599.237	231.88
599.446	240.88
599.655	232.88
599.864	231.88
600.073	228.88
600.282	259.88
600.491	240.88
600.7	231.88
600.909	224.88
601.118	226.88
601.327	223.88
601.536	225.88
601.745	210.88
601.953	232.88
602.162	202.88
602.371	209.88
602.58	222.88
602.789	228.88
602.997	219.88
603.206	231.88
603.415	207.88
603.623	207.88
603.832	219.88
604.041	212.88
604.249	230.88
604.458	220.88
604.666	231.88
604.875	222.88
605.084	219.88
605.292	216.88
605.501	202.88
605.709	214.88
605.918	214.88
606.126	217.88
606.334	205.88
606.543	216.88
606.751	223.88
606.96	212.88
607.168	206.88
607.376	214.88
607.585	203.88
607.793	210.88
608.001	220.88
608.21	202.88
608.418	214.88
608.626	200.88
608.834	204.88
609.043	213.88
609.251	218.88
609.459	199.88
609.667	240.88
609.875	201.88
610.083	208.88
610.291	205.88
610.499	215.88
610.707	213.88
610.916	206.88
611.124	205.88
611.332	216.88
611.54	203.88
611.748	218.88
611.955	207.88
612.163	198.88
612.371	207.88
612.579	204.88
612.787	212.88
612.995	213.88
613.203	205.88
613.411	203.88
613.618	189.88
613.826	193.88
614.034	204.88
614.242	203.88
614.449	208.88
614.657	201.88
614.865	191.88
615.072	211.88
615.28	212.88
615.488	210.88
615.695	209.88
615.903	196.88
616.111	210.88
616.318	203.88
616.526	208.88
616.733	202.88
616.941	199.88
617.148	180.88
617.356	197.88
617.563	201.88
617.771	189.88
617.978	209.88
618.185	195.88
618.393	207.88
618.6	209.88
618.807	190.88
619.015	205.88
619.222	206.88
619.429	207.88
619.637	198.88
619.844	209.88
620.051	182.88
620.258	200.88
620.466	192.88
620.673	189.88
620.88	181.88
621.087	186.88
621.294	201.88
621.501	181.88
621.708	183.88
621.915	205.88
622.122	193.88
622.329	206.88
622.536	189.88
622.743	196.88
622.95	181.88
623.157	180.88
623.364	182.88
623.571	194.88
623.778	183.88
623.985	186.88
624.192	197.88
624.399	196.88
624.606	172.88
624.812	189.88
625.019	181.88
625.226	188.88
625.433	195.88
625.639	186.88
625.846	178.88
626.053	183.88
626.259	190.88
626.466	176.88
626.673	171.88
626.879	182.88
627.086	186.88
627.293	170.88
627.499	171.88
627.706	192.88
627.912	167.88
628.119	163.88
628.325	167.88
628.532	196.88
628.738	177.88
628.945	179.88
629.151	177.88
629.357	181.88
629.564	178.88
629.77	162.88
629.976	164.88
630.183	169.88
630.389	176.88
630.595	179.88
630.802	165.88
631.008	160.88
631.214	164.88
631.42	170.88
631.627	176.88
631.833	188.88
632.039	177.88
632.245	161.88
632.451	171.88
632.657	172.88
632.863	169.88
633.069	167.88
633.275	168.88
633.481	157.88
633.688	164.88
633.893	161.88
634.099	151.88
634.305	160.88
634.511	163.88
634.717	184.88
634.923	165.88
635.129	159.88
635.335	166.88
635.541	154.88
635.747	162.88
635.952	153.88
636.158	165.88
636.364	160.88
636.57	171.88
636.775	158.88
636.981	160.88
637.187	156.88
637.392	143.88
637.598	156.88
637.804	148.88
638.009	164.88
638.215	154.88
638.421	160.88
638.626	159.88
638.832	165.88
639.037	168.88
639.243	162.88
639.448	145.88
639.654	158.88
639.859	165.88
640.065	159.88
640.27	157.88
640.475	155.88
640.681	162.88
640.886	150.88
641.091	152.88
641.297	154.88
641.502	156.88
641.707	153.88
641.913	169.88
642.118	161.88
642.323	167.88
642.528	149.88
642.733	164.88
642.939	155.88
643.144	158.88
643.349	165.88
643.554	155.88
643.759	160.88
643.964	154.88
644.169	155.88
644.374	151.88
644.579	141.88
644.784	156.88
644.989	168.88
645.194	157.88
645.399	165.88
645.604	148.88
645.809	158.88
646.014	164.88
646.219	157.88
646.423	143.88
646.628	148.88
646.833	167.88
647.038	148.88
647.243	153.88
647.447	156.88
647.652	154.88
647.857	172.88
648.062	159.88
648.266	155.88
648.471	158.88
648.676	160.88
648.88	159.88
649.085	129.88
649.289	156.88
649.494	152.88
649.698	162.88
649.903	164.88
650.107	153.88
650.312	148.88
650.516	150.88
650.721	167.88
650.925	146.88
651.13	138.88
651.334	126.88
651.539	156.88
651.743	138.88
651.947	141.88
652.152	154.88
652.356	134.88
652.56	156.88
652.764	148.88
652.969	147.88
653.173	120.88
653.377	136.88
653.581	132.88
653.785	124.88
653.99	121.88
654.194	124.88
654.398	134.88
654.602	136.88
654.806	139.88
655.01	137.88
655.214	139.88
655.418	125.88
655.622	118.88
655.826	139.88
656.03	136.88
656.234	134.88
656.438	131.88
656.642	143.88
656.846	133.88
657.049	133.88
657.253	123.88
657.457	118.88
657.661	110.88
657.865	102.88
658.068	114.88
658.272	112.88
658.476	115.88
658.68	120.88
658.883	109.88
659.087	119.88
659.291	101.88
659.494	100.88
659.698	103.88
659.901	102.88
660.105	87.88
660.309	94.88
660.512	99.88
660.716	92.88
660.919	84.88
661.123	94.88
661.326	88.88
661.53	78.88
661.733	87.88
661.936	91.88
662.14	84.88
662.343	88.88
662.546	92.88
662.75	87.88
662.953	76.88
663.156	97.88
663.36	72.88
663.563	88.88
663.766	94.88
663.969	73.88
664.173	78.88
664.376	92.88
664.579	75.88
664.782	86.88
664.985	76.88
665.188	98.88
665.391	88.88
665.594	75.88
665.797	81.88
666	72.88
666.203	80.88
666.406	83.88
666.609	84.88
666.812	77.88
667.015	88.88
667.218	99.88
667.421	64.88
667.624	87.88
667.827	83.88
668.03	91.88
668.232	75.88
668.435	77.88
668.638	92.88
668.841	91.88
669.043	85.88
669.246	83.88
669.449	93.88
669.651	95.88
669.854	85.88
670.057	75.88
670.259	77.88
670.462	76.88
670.665	93.88
670.867	96.88
671.07	84.88
671.272	81.88
671.475	89.88
671.677	77.88
671.88	80.88
672.082	77.88
672.284	73.88
672.487	76.88
672.689	79.88
672.892	68.88
