Data from Fe(NO3)3@0.025M.TitratingCurve.Agarose3%dH2O.NegLispCup.LampEnergy10.LIBS07252019_HRD10591_16-56-23-335.txt Node
Date: Thu Jul 25 16:56:23 EDT 2019
User: cochatt
Spectrometer: HR+D1059
Trigger mode: 1
Integration Time (sec): 1.000000E-1
Scans to average: 1
Electric dark correction enabled: true
Nonlinearity correction enabled: false
Boxcar width: 0
XAxis mode: Wavelengths
Number of Pixels in Spectrum: 2048
>>>>>Begin Spectral Data<<<<<
223.165	-14.12
223.4	-14.12
223.635	-14.12
223.869	-18.12
224.104	-19.12
224.338	-12.12
224.573	-5.12
224.808	-10.12
225.042	-9.12
225.277	-12.12
225.511	9.88
225.746	0.88
225.98	3.88
226.215	9.88
226.449	17.88
226.683	5.88
226.918	24.88
227.152	26.88
227.387	34.88
227.621	24.88
227.856	48.88
228.09	35.88
228.324	43.88
228.559	53.88
228.793	75.88
229.027	60.88
229.262	65.88
229.496	84.88
229.73	81.88
229.964	81.88
230.199	83.88
230.433	76.88
230.667	107.88
230.901	89.88
231.136	84.88
231.37	86.88
231.604	80.88
231.838	86.88
232.072	79.88
232.306	88.88
232.541	101.88
232.775	95.88
233.009	107.88
233.243	89.88
233.477	115.88
233.711	111.88
233.945	96.88
234.179	91.88
234.413	90.88
234.647	77.88
234.881	95.88
235.115	102.88
235.349	99.88
235.583	87.88
235.817	92.88
236.051	79.88
236.285	95.88
236.519	102.88
236.753	97.88
236.987	86.88
237.221	94.88
237.455	99.88
237.689	73.88
237.922	88.88
238.156	95.88
238.39	80.88
238.624	96.88
238.858	97.88
239.091	96.88
239.325	88.88
239.559	96.88
239.793	84.88
240.027	95.88
240.26	102.88
240.494	99.88
240.728	112.88
240.961	98.88
241.195	87.88
241.429	100.88
241.662	111.88
241.896	98.88
242.13	107.88
242.363	103.88
242.597	98.88
242.83	96.88
243.064	99.88
243.298	99.88
243.531	112.88
243.765	110.88
243.998	106.88
244.232	99.88
244.465	99.88
244.699	98.88
244.932	97.88
245.166	98.88
245.399	99.88
245.633	106.88
245.866	96.88
246.099	113.88
246.333	112.88
246.566	110.88
246.8	114.88
247.033	128.88
247.266	121.88
247.5	116.88
247.733	112.88
247.966	112.88
248.2	120.88
248.433	112.88
248.666	102.88
248.899	113.88
249.133	116.88
249.366	112.88
249.599	93.88
249.832	128.88
250.066	115.88
250.299	116.88
250.532	118.88
250.765	115.88
250.998	107.88
251.231	126.88
251.465	105.88
251.698	103.88
251.931	127.88
252.164	122.88
252.397	115.88
252.63	123.88
252.863	123.88
253.096	116.88
253.329	115.88
253.562	118.88
253.795	130.88
254.028	125.88
254.261	123.88
254.494	119.88
254.727	107.88
254.96	119.88
255.193	124.88
255.426	127.88
255.659	118.88
255.892	115.88
256.124	130.88
256.357	131.88
256.59	129.88
256.823	129.88
257.056	127.88
257.289	130.88
257.521	120.88
257.754	131.88
257.987	122.88
258.22	126.88
258.452	114.88
258.685	126.88
258.918	123.88
259.151	122.88
259.383	120.88
259.616	118.88
259.849	128.88
260.081	122.88
260.314	131.88
260.547	138.88
260.779	130.88
261.012	149.88
261.244	123.88
261.477	132.88
261.71	135.88
261.942	137.88
262.175	124.88
262.407	134.88
262.64	152.88
262.872	129.88
263.105	152.88
263.337	154.88
263.57	133.88
263.802	148.88
264.035	145.88
264.267	140.88
264.499	138.88
264.732	150.88
264.964	129.88
265.197	142.88
265.429	137.88
265.661	130.88
265.894	133.88
266.126	148.88
266.358	147.88
266.591	149.88
266.823	144.88
267.055	143.88
267.287	140.88
267.52	126.88
267.752	162.88
267.984	155.88
268.216	146.88
268.448	143.88
268.681	150.88
268.913	168.88
269.145	159.88
269.377	155.88
269.609	158.88
269.841	143.88
270.073	136.88
270.306	128.88
270.538	144.88
270.77	159.88
271.002	143.88
271.234	146.88
271.466	145.88
271.698	153.88
271.93	151.88
272.162	158.88
272.394	154.88
272.626	147.88
272.858	143.88
273.09	157.88
273.322	145.88
273.553	155.88
273.785	170.88
274.017	167.88
274.249	171.88
274.481	165.88
274.713	148.88
274.945	169.88
275.176	154.88
275.408	163.88
275.64	161.88
275.872	158.88
276.104	178.88
276.335	162.88
276.567	162.88
276.799	154.88
277.031	158.88
277.262	158.88
277.494	152.88
277.726	159.88
277.957	168.88
278.189	164.88
278.421	153.88
278.652	167.88
278.884	181.88
279.115	193.88
279.347	180.88
279.579	152.88
279.81	167.88
280.042	190.88
280.273	153.88
280.505	186.88
280.736	173.88
280.968	165.88
281.199	162.88
281.431	168.88
281.662	180.88
281.894	170.88
282.125	179.88
282.356	182.88
282.588	176.88
282.819	185.88
283.051	170.88
283.282	162.88
283.513	180.88
283.745	169.88
283.976	167.88
284.207	180.88
284.439	164.88
284.67	183.88
284.901	183.88
285.132	176.88
285.364	180.88
285.595	192.88
285.826	176.88
286.057	194.88
286.288	178.88
286.52	188.88
286.751	187.88
286.982	175.88
287.213	185.88
287.444	166.88
287.675	168.88
287.906	172.88
288.138	175.88
288.369	186.88
288.6	180.88
288.831	191.88
289.062	184.88
289.293	183.88
289.524	180.88
289.755	177.88
289.986	192.88
290.217	192.88
290.448	209.88
290.679	203.88
290.91	184.88
291.141	171.88
291.371	196.88
291.602	192.88
291.833	183.88
292.064	182.88
292.295	164.88
292.526	193.88
292.757	202.88
292.987	204.88
293.218	190.88
293.449	195.88
293.68	178.88
293.91	195.88
294.141	201.88
294.372	199.88
294.603	211.88
294.833	199.88
295.064	196.88
295.295	192.88
295.525	207.88
295.756	197.88
295.987	182.88
296.217	194.88
296.448	178.88
296.679	199.88
296.909	200.88
297.14	210.88
297.37	206.88
297.601	214.88
297.831	212.88
298.062	201.88
298.292	197.88
298.523	200.88
298.753	206.88
298.984	203.88
299.214	212.88
299.445	196.88
299.675	220.88
299.905	206.88
300.136	211.88
300.366	207.88
300.597	203.88
300.827	213.88
301.057	214.88
301.288	218.88
301.518	210.88
301.748	199.88
301.979	205.88
302.209	230.88
302.439	212.88
302.669	214.88
302.9	213.88
303.13	205.88
303.36	208.88
303.59	213.88
303.82	197.88
304.051	206.88
304.281	223.88
304.511	241.88
304.741	218.88
304.971	204.88
305.201	228.88
305.431	226.88
305.661	215.88
305.891	214.88
306.121	227.88
306.352	215.88
306.582	223.88
306.812	222.88
307.042	216.88
307.272	232.88
307.502	230.88
307.731	218.88
307.961	220.88
308.191	208.88
308.421	222.88
308.651	235.88
308.881	220.88
309.111	221.88
309.341	226.88
309.571	225.88
309.8	229.88
310.03	225.88
310.26	217.88
310.49	207.88
310.72	223.88
310.949	232.88
311.179	227.88
311.409	231.88
311.639	224.88
311.868	230.88
312.098	237.88
312.328	227.88
312.557	219.88
312.787	210.88
313.017	238.88
313.246	232.88
313.476	235.88
313.706	228.88
313.935	232.88
314.165	235.88
314.394	250.88
314.624	227.88
314.853	262.88
315.083	231.88
315.312	243.88
315.542	274.88
315.771	245.88
316.001	241.88
316.23	235.88
316.46	231.88
316.689	219.88
316.919	241.88
317.148	243.88
317.377	237.88
317.607	232.88
317.836	221.88
318.065	234.88
318.295	236.88
318.524	249.88
318.753	240.88
318.983	251.88
319.212	244.88
319.441	263.88
319.67	251.88
319.9	252.88
320.129	214.88
320.358	249.88
320.587	246.88
320.816	240.88
321.046	246.88
321.275	248.88
321.504	250.88
321.733	254.88
321.962	245.88
322.191	255.88
322.42	251.88
322.649	249.88
322.878	243.88
323.108	254.88
323.337	246.88
323.566	255.88
323.795	248.88
324.024	271.88
324.253	265.88
324.482	259.88
324.71	243.88
324.939	252.88
325.168	258.88
325.397	261.88
325.626	252.88
325.855	276.88
326.084	255.88
326.313	269.88
326.542	246.88
326.77	252.88
326.999	259.88
327.228	255.88
327.457	266.88
327.686	265.88
327.914	263.88
328.143	259.88
328.372	254.88
328.6	265.88
328.829	269.88
329.058	259.88
329.287	260.88
329.515	271.88
329.744	264.88
329.972	251.88
330.201	273.88
330.43	284.88
330.658	273.88
330.887	264.88
331.115	278.88
331.344	275.88
331.572	284.88
331.801	259.88
332.03	285.88
332.258	286.88
332.486	276.88
332.715	266.88
332.943	275.88
333.172	303.88
333.4	290.88
333.629	298.88
333.857	307.88
334.085	295.88
334.314	318.88
334.542	304.88
334.771	302.88
334.999	295.88
335.227	310.88
335.455	304.88
335.684	314.88
335.912	313.88
336.14	304.88
336.369	315.88
336.597	307.88
336.825	300.88
337.053	300.88
337.281	302.88
337.51	299.88
337.738	318.88
337.966	298.88
338.194	266.88
338.422	290.88
338.65	291.88
338.878	292.88
339.106	274.88
339.334	293.88
339.562	284.88
339.79	271.88
340.018	273.88
340.246	276.88
340.474	288.88
340.702	282.88
340.93	282.88
341.158	288.88
341.386	280.88
341.614	281.88
341.842	267.88
342.07	290.88
342.298	270.88
342.526	282.88
342.754	283.88
342.981	294.88
343.209	294.88
343.437	291.88
343.665	316.88
343.893	313.88
344.12	315.88
344.348	290.88
344.576	286.88
344.804	294.88
345.031	284.88
345.259	271.88
345.487	279.88
345.714	298.88
345.942	309.88
346.17	293.88
346.397	271.88
346.625	287.88
346.853	267.88
347.08	267.88
347.308	281.88
347.535	293.88
347.763	278.88
347.99	293.88
348.218	290.88
348.445	271.88
348.673	278.88
348.9	283.88
349.128	268.88
349.355	273.88
349.583	272.88
349.81	275.88
350.037	249.88
350.265	273.88
350.492	272.88
350.72	287.88
350.947	273.88
351.174	267.88
351.402	274.88
351.629	282.88
351.856	276.88
352.083	278.88
352.311	265.88
352.538	277.88
352.765	291.88
352.992	256.88
353.22	273.88
353.447	272.88
353.674	268.88
353.901	288.88
354.128	254.88
354.355	267.88
354.583	260.88
354.81	275.88
355.037	280.88
355.264	285.88
355.491	266.88
355.718	288.88
355.945	283.88
356.172	268.88
356.399	283.88
356.626	267.88
356.853	269.88
357.08	278.88
357.307	292.88
357.534	256.88
357.761	284.88
357.988	292.88
358.215	290.88
358.441	281.88
358.668	271.88
358.895	278.88
359.122	256.88
359.349	293.88
359.576	267.88
359.802	276.88
360.029	287.88
360.256	267.88
360.483	269.88
360.709	299.88
360.936	284.88
361.163	283.88
361.39	289.88
361.616	284.88
361.843	277.88
362.07	282.88
362.296	298.88
362.523	286.88
362.749	275.88
362.976	264.88
363.203	268.88
363.429	268.88
363.656	273.88
363.882	274.88
364.109	294.88
364.335	294.88
364.562	283.88
364.788	291.88
365.015	259.88
365.241	281.88
365.468	265.88
365.694	265.88
365.92	295.88
366.147	274.88
366.373	270.88
366.599	293.88
366.826	275.88
367.052	270.88
367.278	271.88
367.505	273.88
367.731	286.88
367.957	273.88
368.184	267.88
368.41	302.88
368.636	283.88
368.862	279.88
369.089	279.88
369.315	296.88
369.541	295.88
369.767	297.88
369.993	302.88
370.219	294.88
370.445	298.88
370.672	298.88
370.898	302.88
371.124	295.88
371.35	297.88
371.576	291.88
371.802	300.88
372.028	321.88
372.254	293.88
372.48	294.88
372.706	287.88
372.932	310.88
373.158	295.88
373.384	317.88
373.61	293.88
373.835	306.88
374.061	299.88
374.287	308.88
374.513	307.88
374.739	303.88
374.965	319.88
375.191	311.88
375.416	326.88
375.642	315.88
375.868	314.88
376.094	289.88
376.319	302.88
376.545	296.88
376.771	311.88
376.997	302.88
377.222	288.88
377.448	294.88
377.674	290.88
377.899	290.88
378.125	283.88
378.35	294.88
378.576	286.88
378.802	276.88
379.027	302.88
379.253	324.88
379.478	290.88
379.704	321.88
379.929	296.88
380.155	304.88
380.38	295.88
380.606	304.88
380.831	296.88
381.057	305.88
381.282	294.88
381.507	301.88
381.733	316.88
381.958	285.88
382.184	302.88
382.409	296.88
382.634	289.88
382.86	299.88
383.085	302.88
383.31	332.88
383.535	324.88
383.761	314.88
383.986	319.88
384.211	342.88
384.436	320.88
384.662	310.88
384.887	317.88
385.112	335.88
385.337	332.88
385.562	328.88
385.787	330.88
386.013	342.88
386.238	326.88
386.463	347.88
386.688	348.88
386.913	337.88
387.138	331.88
387.363	329.88
387.588	326.88
387.813	339.88
388.038	358.88
388.263	352.88
388.488	345.88
388.713	334.88
388.938	328.88
389.163	329.88
389.387	327.88
389.612	335.88
389.837	340.88
390.062	347.88
390.287	328.88
390.512	351.88
390.736	356.88
390.961	332.88
391.186	361.88
391.411	345.88
391.636	368.88
391.86	348.88
392.085	361.88
392.31	336.88
392.534	351.88
392.759	366.88
392.984	358.88
393.208	359.88
393.433	349.88
393.658	348.88
393.882	334.88
394.107	340.88
394.331	361.88
394.556	340.88
394.78	365.88
395.005	368.88
395.229	346.88
395.454	356.88
395.678	358.88
395.903	358.88
396.127	375.88
396.352	354.88
396.576	346.88
396.801	371.88
397.025	364.88
397.249	378.88
397.474	372.88
397.698	405.88
397.922	385.88
398.147	381.88
398.371	385.88
398.595	400.88
398.82	433.88
399.044	440.88
399.268	450.88
399.492	477.88
399.717	514.88
399.941	485.88
400.165	457.88
400.389	434.88
400.613	440.88
400.837	436.88
401.062	419.88
401.286	394.88
401.51	419.88
401.734	404.88
401.958	411.88
402.182	418.88
402.406	413.88
402.63	401.88
402.854	409.88
403.078	415.88
403.302	420.88
403.526	425.88
403.75	430.88
403.974	430.88
404.198	407.88
404.422	435.88
404.645	410.88
404.869	428.88
405.093	426.88
405.317	417.88
405.541	425.88
405.765	416.88
405.988	426.88
406.212	439.88
406.436	428.88
406.66	438.88
406.883	453.88
407.107	451.88
407.331	453.88
407.555	451.88
407.778	463.88
408.002	452.88
408.226	428.88
408.449	451.88
408.673	435.88
408.896	439.88
409.12	427.88
409.344	422.88
409.567	436.88
409.791	426.88
410.014	419.88
410.238	424.88
410.461	424.88
410.685	396.88
410.908	409.88
411.132	399.88
411.355	403.88
411.578	409.88
411.802	399.88
412.025	418.88
412.249	412.88
412.472	415.88
412.695	403.88
412.919	395.88
413.142	403.88
413.365	405.88
413.589	408.88
413.812	392.88
414.035	416.88
414.258	387.88
414.482	405.88
414.705	402.88
414.928	387.88
415.151	398.88
415.374	397.88
415.597	400.88
415.821	401.88
416.044	402.88
416.267	402.88
416.49	381.88
416.713	380.88
416.936	415.88
417.159	390.88
417.382	398.88
417.605	376.88
417.828	384.88
418.051	383.88
418.274	389.88
418.497	389.88
418.72	374.88
418.943	384.88
419.166	395.88
419.389	423.88
419.611	400.88
419.834	409.88
420.057	400.88
420.28	380.88
420.503	387.88
420.726	372.88
420.948	366.88
421.171	381.88
421.394	368.88
421.617	384.88
421.839	379.88
422.062	357.88
422.285	368.88
422.507	400.88
422.73	384.88
422.953	382.88
423.175	381.88
423.398	382.88
423.621	377.88
423.843	389.88
424.066	378.88
424.288	388.88
424.511	378.88
424.733	397.88
424.956	381.88
425.178	382.88
425.401	372.88
425.623	375.88
425.846	364.88
426.068	386.88
426.291	378.88
426.513	376.88
426.735	373.88
426.958	372.88
427.18	383.88
427.402	358.88
427.625	341.88
427.847	357.88
428.069	358.88
428.292	357.88
428.514	368.88
428.736	340.88
428.958	356.88
429.181	348.88
429.403	346.88
429.625	368.88
429.847	357.88
430.069	352.88
430.292	354.88
430.514	340.88
430.736	367.88
430.958	358.88
431.18	355.88
431.402	366.88
431.624	359.88
431.846	349.88
432.068	355.88
432.29	351.88
432.512	350.88
432.734	364.88
432.956	347.88
433.178	363.88
433.4	384.88
433.622	361.88
433.844	355.88
434.066	353.88
434.287	363.88
434.509	375.88
434.731	368.88
434.953	375.88
435.175	370.88
435.397	360.88
435.618	347.88
435.84	368.88
436.062	346.88
436.284	345.88
436.505	351.88
436.727	347.88
436.949	358.88
437.17	369.88
437.392	332.88
437.614	352.88
437.835	358.88
438.057	343.88
438.278	340.88
438.5	347.88
438.721	352.88
438.943	344.88
439.165	340.88
439.386	343.88
439.608	358.88
439.829	343.88
440.05	356.88
440.272	352.88
440.493	355.88
440.715	353.88
440.936	366.88
441.158	357.88
441.379	372.88
441.6	386.88
441.822	377.88
442.043	376.88
442.264	356.88
442.486	354.88
442.707	363.88
442.928	371.88
443.149	360.88
443.371	358.88
443.592	370.88
443.813	388.88
444.034	390.88
444.255	372.88
444.476	401.88
444.698	403.88
444.919	407.88
445.14	482.88
445.361	433.88
445.582	375.88
445.803	362.88
446.024	368.88
446.245	368.88
446.466	370.88
446.687	346.88
446.908	336.88
447.129	353.88
447.35	359.88
447.571	338.88
447.792	342.88
448.013	328.88
448.234	322.88
448.455	330.88
448.675	335.88
448.896	344.88
449.117	328.88
449.338	329.88
449.559	319.88
449.779	324.88
450	322.88
450.221	340.88
450.442	323.88
450.662	325.88
450.883	324.88
451.104	331.88
451.324	322.88
451.545	324.88
451.766	331.88
451.986	336.88
452.207	325.88
452.428	325.88
452.648	328.88
452.869	318.88
453.089	307.88
453.31	319.88
453.53	327.88
453.751	314.88
453.971	308.88
454.192	313.88
454.412	345.88
454.633	306.88
454.853	319.88
455.073	284.88
455.294	304.88
455.514	310.88
455.734	321.88
455.955	299.88
456.175	314.88
456.395	310.88
456.616	318.88
456.836	328.88
457.056	325.88
457.276	298.88
457.497	322.88
457.717	303.88
457.937	316.88
458.157	325.88
458.377	325.88
458.598	338.88
458.818	343.88
459.038	340.88
459.258	327.88
459.478	346.88
459.698	358.88
459.918	361.88
460.138	363.88
460.358	390.88
460.578	394.88
460.798	388.88
461.018	400.88
461.238	388.88
461.458	400.88
461.678	389.88
461.898	401.88
462.118	382.88
462.338	415.88
462.558	416.88
462.777	418.88
462.997	440.88
463.217	442.88
463.437	462.88
463.657	460.88
463.876	426.88
464.096	436.88
464.316	414.88
464.536	424.88
464.755	418.88
464.975	375.88
465.195	390.88
465.414	381.88
465.634	353.88
465.854	371.88
466.073	362.88
466.293	336.88
466.512	352.88
466.732	356.88
466.951	346.88
467.171	342.88
467.391	332.88
467.61	333.88
467.829	348.88
468.049	356.88
468.268	316.88
468.488	326.88
468.707	351.88
468.927	343.88
469.146	332.88
469.365	344.88
469.585	343.88
469.804	347.88
470.023	343.88
470.243	338.88
470.462	329.88
470.681	348.88
470.901	366.88
471.12	351.88
471.339	351.88
471.558	344.88
471.777	352.88
471.997	347.88
472.216	343.88
472.435	346.88
472.654	339.88
472.873	343.88
473.092	343.88
473.311	351.88
473.53	338.88
473.749	341.88
473.968	351.88
474.187	355.88
474.406	335.88
474.625	344.88
474.844	350.88
475.063	345.88
475.282	332.88
475.501	333.88
475.72	323.88
475.939	342.88
476.158	374.88
476.377	360.88
476.596	353.88
476.814	354.88
477.033	356.88
477.252	365.88
477.471	368.88
477.69	385.88
477.908	369.88
478.127	380.88
478.346	378.88
478.564	386.88
478.783	394.88
479.002	377.88
479.22	402.88
479.439	389.88
479.658	399.88
479.876	383.88
480.095	393.88
480.313	386.88
480.532	401.88
480.751	408.88
480.969	409.88
481.188	423.88
481.406	423.88
481.624	390.88
481.843	380.88
482.061	400.88
482.28	399.88
482.498	405.88
482.717	401.88
482.935	375.88
483.153	394.88
483.372	400.88
483.59	396.88
483.808	396.88
484.027	401.88
484.245	396.88
484.463	404.88
484.681	390.88
484.9	418.88
485.118	400.88
485.336	416.88
485.554	389.88
485.772	409.88
485.99	419.88
486.209	411.88
486.427	400.88
486.645	403.88
486.863	419.88
487.081	399.88
487.299	429.88
487.517	404.88
487.735	405.88
487.953	407.88
488.171	433.88
488.389	418.88
488.607	394.88
488.825	398.88
489.043	396.88
489.261	408.88
489.479	428.88
489.696	403.88
489.914	425.88
490.132	406.88
490.35	386.88
490.568	404.88
490.786	410.88
491.003	404.88
491.221	401.88
491.439	416.88
491.657	401.88
491.874	416.88
492.092	422.88
492.31	415.88
492.527	434.88
492.745	412.88
492.963	402.88
493.18	426.88
493.398	400.88
493.615	414.88
493.833	416.88
494.05	404.88
494.268	417.88
494.485	406.88
494.703	423.88
494.92	426.88
495.138	409.88
495.355	423.88
495.573	423.88
495.79	441.88
496.008	451.88
496.225	438.88
496.442	437.88
496.66	437.88
496.877	453.88
497.094	448.88
497.312	466.88
497.529	464.88
497.746	476.88
497.963	498.88
498.181	480.88
498.398	509.88
498.615	538.88
498.832	570.88
499.049	590.88
499.267	617.88
499.484	627.88
499.701	660.88
499.918	706.88
500.135	754.88
500.352	800.88
500.569	756.88
500.786	796.88
501.003	770.88
501.22	739.88
501.437	668.88
501.654	646.88
501.871	622.88
502.088	573.88
502.305	581.88
502.522	545.88
502.739	519.88
502.956	521.88
503.172	499.88
503.389	491.88
503.606	483.88
503.823	462.88
504.04	475.88
504.256	464.88
504.473	458.88
504.69	449.88
504.907	446.88
505.123	448.88
505.34	431.88
505.557	434.88
505.773	406.88
505.99	384.88
506.207	409.88
506.423	393.88
506.64	392.88
506.856	388.88
507.073	362.88
507.289	363.88
507.506	372.88
507.722	362.88
507.939	358.88
508.155	371.88
508.372	366.88
508.588	385.88
508.805	390.88
509.021	370.88
509.238	380.88
509.454	368.88
509.67	368.88
509.887	354.88
510.103	359.88
510.319	353.88
510.536	358.88
510.752	356.88
510.968	335.88
511.184	363.88
511.401	345.88
511.617	351.88
511.833	358.88
512.049	356.88
512.265	355.88
512.481	371.88
512.698	338.88
512.914	346.88
513.13	353.88
513.346	350.88
513.562	362.88
513.778	356.88
513.994	338.88
514.21	331.88
514.426	356.88
514.642	349.88
514.858	359.88
515.074	351.88
515.29	370.88
515.506	371.88
515.721	361.88
515.937	356.88
516.153	377.88
516.369	362.88
516.585	377.88
516.801	381.88
517.016	407.88
517.232	401.88
517.448	389.88
517.664	409.88
517.879	393.88
518.095	417.88
518.311	389.88
518.527	384.88
518.742	391.88
518.958	391.88
519.173	384.88
519.389	383.88
519.605	368.88
519.82	355.88
520.036	361.88
520.251	363.88
520.467	358.88
520.682	350.88
520.898	368.88
521.113	349.88
521.329	350.88
521.544	363.88
521.76	346.88
521.975	346.88
522.19	338.88
522.406	320.88
522.621	347.88
522.836	326.88
523.052	328.88
523.267	343.88
523.482	345.88
523.698	315.88
523.913	338.88
524.128	345.88
524.343	337.88
524.559	327.88
524.774	341.88
524.989	326.88
525.204	318.88
525.419	319.88
525.634	315.88
525.849	319.88
526.064	316.88
526.28	326.88
526.495	339.88
526.71	308.88
526.925	316.88
527.14	319.88
527.355	320.88
527.57	311.88
527.785	326.88
527.999	318.88
528.214	317.88
528.429	318.88
528.644	317.88
528.859	322.88
529.074	316.88
529.289	312.88
529.503	312.88
529.718	318.88
529.933	293.88
530.148	324.88
530.363	316.88
530.577	316.88
530.792	327.88
531.007	327.88
531.221	311.88
531.436	316.88
531.651	320.88
531.865	307.88
532.08	310.88
532.295	322.88
532.509	295.88
532.724	308.88
532.938	310.88
533.153	320.88
533.367	294.88
533.582	308.88
533.796	320.88
534.011	309.88
534.225	312.88
534.44	304.88
534.654	297.88
534.868	323.88
535.083	314.88
535.297	310.88
535.511	297.88
535.726	313.88
535.94	316.88
536.154	308.88
536.369	294.88
536.583	316.88
536.797	307.88
537.011	287.88
537.225	306.88
537.44	304.88
537.654	312.88
537.868	287.88
538.082	295.88
538.296	297.88
538.51	307.88
538.724	284.88
538.938	308.88
539.153	288.88
539.367	286.88
539.581	303.88
539.795	298.88
540.009	297.88
540.222	324.88
540.436	300.88
540.65	281.88
540.864	291.88
541.078	292.88
541.292	278.88
541.506	302.88
541.72	300.88
541.934	305.88
542.147	290.88
542.361	276.88
542.575	286.88
542.789	293.88
543.002	294.88
543.216	292.88
543.43	286.88
543.644	281.88
543.857	299.88
544.071	282.88
544.285	283.88
544.498	277.88
544.712	288.88
544.925	311.88
545.139	314.88
545.352	308.88
545.566	271.88
545.779	298.88
545.993	295.88
546.206	286.88
546.42	309.88
546.633	287.88
546.847	296.88
547.06	306.88
547.274	302.88
547.487	284.88
547.7	285.88
547.914	288.88
548.127	306.88
548.34	302.88
548.554	323.88
548.767	304.88
548.98	293.88
549.193	289.88
549.407	303.88
549.62	306.88
549.833	294.88
550.046	306.88
550.259	286.88
550.473	294.88
550.686	297.88
550.899	297.88
551.112	312.88
551.325	314.88
551.538	290.88
551.751	296.88
551.964	286.88
552.177	310.88
552.39	320.88
552.603	325.88
552.816	283.88
553.029	304.88
553.242	293.88
553.455	297.88
553.667	288.88
553.88	312.88
554.093	309.88
554.306	288.88
554.519	299.88
554.732	299.88
554.944	296.88
555.157	296.88
555.37	280.88
555.583	290.88
555.795	279.88
556.008	258.88
556.221	285.88
556.433	283.88
556.646	264.88
556.859	261.88
557.071	270.88
557.284	258.88
557.496	282.88
557.709	271.88
557.921	278.88
558.134	262.88
558.346	263.88
558.559	255.88
558.771	249.88
558.984	241.88
559.196	268.88
559.409	248.88
559.621	245.88
559.833	247.88
560.046	244.88
560.258	271.88
560.47	265.88
560.683	248.88
560.895	240.88
561.107	243.88
561.32	256.88
561.532	273.88
561.744	256.88
561.956	260.88
562.168	259.88
562.381	263.88
562.593	244.88
562.805	289.88
563.017	272.88
563.229	252.88
563.441	273.88
563.653	271.88
563.865	265.88
564.077	263.88
564.289	259.88
564.501	258.88
564.713	290.88
564.925	275.88
565.137	270.88
565.349	274.88
565.561	284.88
565.773	305.88
565.985	304.88
566.197	307.88
566.408	308.88
566.62	321.88
566.832	354.88
567.044	338.88
567.255	335.88
567.467	323.88
567.679	346.88
567.891	362.88
568.102	333.88
568.314	337.88
568.526	350.88
568.737	316.88
568.949	295.88
569.161	272.88
569.372	296.88
569.584	281.88
569.795	287.88
570.007	278.88
570.218	261.88
570.43	266.88
570.641	237.88
570.853	258.88
571.064	247.88
571.276	258.88
571.487	258.88
571.698	258.88
571.91	258.88
572.121	239.88
572.333	233.88
572.544	228.88
572.755	236.88
572.966	225.88
573.178	235.88
573.389	225.88
573.6	208.88
573.811	227.88
574.023	229.88
574.234	207.88
574.445	231.88
574.656	223.88
574.867	228.88
575.078	229.88
575.289	201.88
575.501	213.88
575.712	221.88
575.923	213.88
576.134	233.88
576.345	224.88
576.556	198.88
576.767	212.88
576.978	214.88
577.188	204.88
577.399	201.88
577.61	203.88
577.821	197.88
578.032	203.88
578.243	208.88
578.454	203.88
578.665	200.88
578.875	207.88
579.086	211.88
579.297	200.88
579.508	202.88
579.718	208.88
579.929	202.88
580.14	207.88
580.35	206.88
580.561	195.88
580.772	193.88
580.982	206.88
581.193	202.88
581.403	200.88
581.614	216.88
581.825	194.88
582.035	194.88
582.246	203.88
582.456	194.88
582.667	199.88
582.877	200.88
583.087	196.88
583.298	198.88
583.508	182.88
583.719	184.88
583.929	200.88
584.139	184.88
584.35	194.88
584.56	173.88
584.77	197.88
584.981	207.88
585.191	194.88
585.401	185.88
585.611	184.88
585.821	190.88
586.032	197.88
586.242	186.88
586.452	210.88
586.662	184.88
586.872	178.88
587.082	188.88
587.292	194.88
587.502	191.88
587.713	195.88
587.923	190.88
588.133	202.88
588.343	185.88
588.553	203.88
588.762	196.88
588.972	185.88
589.182	200.88
589.392	187.88
589.602	195.88
589.812	189.88
590.022	203.88
590.232	196.88
590.441	200.88
590.651	199.88
590.861	196.88
591.071	197.88
591.281	206.88
591.49	201.88
591.7	195.88
591.91	195.88
592.119	205.88
592.329	206.88
592.539	201.88
592.748	193.88
592.958	200.88
593.167	204.88
593.377	199.88
593.587	211.88
593.796	204.88
594.006	205.88
594.215	214.88
594.424	202.88
594.634	209.88
594.843	198.88
595.053	200.88
595.262	196.88
595.472	187.88
595.681	192.88
595.89	182.88
596.1	198.88
596.309	183.88
596.518	186.88
596.727	182.88
596.937	194.88
597.146	182.88
597.355	174.88
597.564	183.88
597.774	186.88
597.983	188.88
598.192	175.88
598.401	179.88
598.61	167.88
598.819	190.88
599.028	187.88
599.237	185.88
599.446	163.88
599.655	171.88
599.864	170.88
600.073	172.88
600.282	170.88
600.491	171.88
600.7	172.88
600.909	170.88
601.118	161.88
601.327	171.88
601.536	158.88
601.745	158.88
601.953	166.88
602.162	171.88
602.371	172.88
602.58	177.88
602.789	175.88
602.997	163.88
603.206	173.88
603.415	152.88
603.623	158.88
603.832	160.88
604.041	156.88
604.249	162.88
604.458	163.88
604.666	146.88
604.875	155.88
605.084	168.88
605.292	172.88
605.501	159.88
605.709	160.88
605.918	148.88
606.126	166.88
606.334	163.88
606.543	170.88
606.751	163.88
606.96	162.88
607.168	164.88
607.376	163.88
607.585	149.88
607.793	160.88
608.001	159.88
608.21	160.88
608.418	168.88
608.626	169.88
608.834	161.88
609.043	154.88
609.251	147.88
609.459	149.88
609.667	167.88
609.875	155.88
610.083	149.88
610.291	154.88
610.499	143.88
610.707	160.88
610.916	156.88
611.124	137.88
611.332	144.88
611.54	146.88
611.748	168.88
611.955	158.88
612.163	142.88
612.371	151.88
612.579	155.88
612.787	158.88
612.995	155.88
613.203	156.88
613.411	178.88
613.618	157.88
613.826	139.88
614.034	134.88
614.242	169.88
614.449	154.88
614.657	154.88
614.865	145.88
615.072	146.88
615.28	158.88
615.488	149.88
615.695	161.88
615.903	158.88
616.111	163.88
616.318	149.88
616.526	164.88
616.733	165.88
616.941	151.88
617.148	161.88
617.356	176.88
617.563	150.88
617.771	153.88
617.978	148.88
618.185	164.88
618.393	142.88
618.6	154.88
618.807	145.88
619.015	148.88
619.222	151.88
619.429	162.88
619.637	158.88
619.844	160.88
620.051	149.88
620.258	142.88
620.466	151.88
620.673	166.88
620.88	148.88
621.087	148.88
621.294	152.88
621.501	141.88
621.708	136.88
621.915	148.88
622.122	152.88
622.329	143.88
622.536	147.88
622.743	148.88
622.95	140.88
623.157	138.88
623.364	145.88
623.571	132.88
623.778	154.88
623.985	169.88
624.192	157.88
624.399	153.88
624.606	154.88
624.812	145.88
625.019	148.88
625.226	149.88
625.433	150.88
625.639	142.88
625.846	157.88
626.053	152.88
626.259	137.88
626.466	153.88
626.673	144.88
626.879	124.88
627.086	122.88
627.293	139.88
627.499	131.88
627.706	132.88
627.912	142.88
628.119	140.88
628.325	144.88
628.532	122.88
628.738	133.88
628.945	137.88
629.151	123.88
629.357	144.88
629.564	125.88
629.77	144.88
629.976	142.88
630.183	126.88
630.389	124.88
630.595	139.88
630.802	140.88
631.008	139.88
631.214	147.88
631.42	146.88
631.627	126.88
631.833	144.88
632.039	135.88
632.245	137.88
632.451	130.88
632.657	125.88
632.863	147.88
633.069	147.88
633.275	138.88
633.481	134.88
633.688	139.88
633.893	135.88
634.099	133.88
634.305	146.88
634.511	134.88
634.717	124.88
634.923	130.88
635.129	119.88
635.335	136.88
635.541	130.88
635.747	147.88
635.952	137.88
636.158	134.88
636.364	130.88
636.57	120.88
636.775	138.88
636.981	121.88
637.187	130.88
637.392	128.88
637.598	134.88
637.804	148.88
638.009	148.88
638.215	132.88
638.421	116.88
638.626	119.88
638.832	137.88
639.037	129.88
639.243	144.88
639.448	128.88
639.654	142.88
639.859	116.88
640.065	131.88
640.27	143.88
640.475	138.88
640.681	141.88
640.886	127.88
641.091	127.88
641.297	140.88
641.502	136.88
641.707	122.88
641.913	120.88
642.118	128.88
642.323	125.88
642.528	112.88
642.733	121.88
642.939	118.88
643.144	124.88
643.349	121.88
643.554	127.88
643.759	111.88
643.964	134.88
644.169	133.88
644.374	124.88
644.579	135.88
644.784	136.88
644.989	129.88
645.194	126.88
645.399	115.88
645.604	129.88
645.809	138.88
646.014	130.88
646.219	138.88
646.423	128.88
646.628	142.88
646.833	132.88
647.038	139.88
647.243	144.88
647.447	139.88
647.652	143.88
647.857	132.88
648.062	142.88
648.266	126.88
648.471	144.88
648.676	142.88
648.88	131.88
649.085	131.88
649.289	119.88
649.494	156.88
649.698	141.88
649.903	126.88
650.107	132.88
650.312	135.88
650.516	142.88
650.721	129.88
650.925	130.88
651.13	135.88
651.334	146.88
651.539	124.88
651.743	127.88
651.947	150.88
652.152	132.88
652.356	130.88
652.56	120.88
652.764	144.88
652.969	137.88
653.173	128.88
653.377	130.88
653.581	128.88
653.785	141.88
653.99	116.88
654.194	138.88
654.398	135.88
654.602	130.88
654.806	144.88
655.01	150.88
655.214	133.88
655.418	130.88
655.622	121.88
655.826	145.88
656.03	139.88
656.234	134.88
656.438	138.88
656.642	159.88
656.846	144.88
657.049	138.88
657.253	145.88
657.457	122.88
657.661	130.88
657.865	137.88
658.068	117.88
658.272	114.88
658.476	116.88
658.68	110.88
658.883	114.88
659.087	121.88
659.291	105.88
659.494	82.88
659.698	101.88
659.901	118.88
660.105	96.88
660.309	103.88
660.512	92.88
660.716	91.88
660.919	101.88
661.123	98.88
661.326	98.88
661.53	101.88
661.733	95.88
661.936	75.88
662.14	101.88
662.343	86.88
662.546	88.88
662.75	82.88
662.953	84.88
663.156	82.88
663.36	103.88
663.563	78.88
663.766	99.88
663.969	81.88
664.173	67.88
664.376	79.88
664.579	88.88
664.782	91.88
664.985	92.88
665.188	80.88
665.391	91.88
665.594	80.88
665.797	79.88
666	89.88
666.203	86.88
666.406	70.88
666.609	86.88
666.812	79.88
667.015	78.88
667.218	75.88
667.421	95.88
667.624	82.88
667.827	82.88
668.03	83.88
668.232	75.88
668.435	79.88
668.638	87.88
668.841	79.88
669.043	84.88
669.246	87.88
669.449	71.88
669.651	74.88
669.854	82.88
670.057	79.88
670.259	80.88
670.462	71.88
670.665	75.88
670.867	90.88
671.07	88.88
671.272	87.88
671.475	94.88
671.677	73.88
671.88	71.88
672.082	75.88
672.284	73.88
672.487	70.88
672.689	76.88
672.892	84.88
