Data from Fe(NO3)3@0.0125M.TitratingCurve.Agarose3%dH2O.NegLispCup.LampEnergy10.LIBS07252019_HRD10591_17-01-27-336.txt Node
Date: Thu Jul 25 17:01:27 EDT 2019
User: cochatt
Spectrometer: HR+D1059
Trigger mode: 1
Integration Time (sec): 1.000000E-1
Scans to average: 1
Electric dark correction enabled: true
Nonlinearity correction enabled: false
Boxcar width: 0
XAxis mode: Wavelengths
Number of Pixels in Spectrum: 2048
>>>>>Begin Spectral Data<<<<<
223.165	-1.25
223.4	-1.25
223.635	-1.25
223.869	-27.25
224.104	-20.25
224.338	-13.25
224.573	-16.25
224.808	-8.25
225.042	-6.25
225.277	9.75
225.511	5.75
225.746	-0.25
225.98	-2.25
226.215	-5.25
226.449	9.75
226.683	22.75
226.918	25.75
227.152	26.75
227.387	32.75
227.621	37.75
227.856	51.75
228.09	37.75
228.324	59.75
228.559	62.75
228.793	72.75
229.027	75.75
229.262	72.75
229.496	80.75
229.73	76.75
229.964	88.75
230.199	85.75
230.433	89.75
230.667	92.75
230.901	94.75
231.136	90.75
231.37	105.75
231.604	98.75
231.838	92.75
232.072	112.75
232.306	77.75
232.541	92.75
232.775	99.75
233.009	104.75
233.243	91.75
233.477	105.75
233.711	87.75
233.945	101.75
234.179	103.75
234.413	101.75
234.647	96.75
234.881	97.75
235.115	94.75
235.349	98.75
235.583	107.75
235.817	104.75
236.051	83.75
236.285	92.75
236.519	102.75
236.753	102.75
236.987	89.75
237.221	105.75
237.455	102.75
237.689	112.75
237.922	104.75
238.156	101.75
238.39	99.75
238.624	114.75
238.858	116.75
239.091	104.75
239.325	116.75
239.559	112.75
239.793	110.75
240.027	107.75
240.26	101.75
240.494	102.75
240.728	119.75
240.961	120.75
241.195	112.75
241.429	100.75
241.662	118.75
241.896	116.75
242.13	106.75
242.363	114.75
242.597	114.75
242.83	117.75
243.064	108.75
243.298	103.75
243.531	118.75
243.765	103.75
243.998	118.75
244.232	114.75
244.465	101.75
244.699	134.75
244.932	115.75
245.166	128.75
245.399	114.75
245.633	128.75
245.866	118.75
246.099	126.75
246.333	130.75
246.566	120.75
246.8	114.75
247.033	121.75
247.266	119.75
247.5	120.75
247.733	113.75
247.966	122.75
248.2	141.75
248.433	134.75
248.666	126.75
248.899	139.75
249.133	133.75
249.366	128.75
249.599	139.75
249.832	122.75
250.066	149.75
250.299	118.75
250.532	125.75
250.765	128.75
250.998	134.75
251.231	123.75
251.465	139.75
251.698	133.75
251.931	139.75
252.164	132.75
252.397	129.75
252.63	140.75
252.863	140.75
253.096	141.75
253.329	139.75
253.562	131.75
253.795	145.75
254.028	148.75
254.261	137.75
254.494	152.75
254.727	146.75
254.96	148.75
255.193	141.75
255.426	138.75
255.659	137.75
255.892	148.75
256.124	142.75
256.357	139.75
256.59	152.75
256.823	151.75
257.056	148.75
257.289	135.75
257.521	146.75
257.754	146.75
257.987	138.75
258.22	152.75
258.452	134.75
258.685	150.75
258.918	157.75
259.151	151.75
259.383	141.75
259.616	152.75
259.849	163.75
260.081	164.75
260.314	163.75
260.547	159.75
260.779	154.75
261.012	161.75
261.244	150.75
261.477	166.75
261.71	156.75
261.942	146.75
262.175	164.75
262.407	161.75
262.64	153.75
262.872	154.75
263.105	169.75
263.337	171.75
263.57	152.75
263.802	155.75
264.035	159.75
264.267	164.75
264.499	162.75
264.732	174.75
264.964	162.75
265.197	166.75
265.429	165.75
265.661	142.75
265.894	173.75
266.126	171.75
266.358	168.75
266.591	171.75
266.823	178.75
267.055	155.75
267.287	176.75
267.52	165.75
267.752	163.75
267.984	166.75
268.216	174.75
268.448	167.75
268.681	163.75
268.913	164.75
269.145	162.75
269.377	158.75
269.609	179.75
269.841	182.75
270.073	184.75
270.306	179.75
270.538	177.75
270.77	167.75
271.002	173.75
271.234	164.75
271.466	183.75
271.698	183.75
271.93	173.75
272.162	179.75
272.394	189.75
272.626	186.75
272.858	172.75
273.09	197.75
273.322	176.75
273.553	168.75
273.785	204.75
274.017	200.75
274.249	198.75
274.481	200.75
274.713	201.75
274.945	217.75
275.176	205.75
275.408	187.75
275.64	209.75
275.872	188.75
276.104	191.75
276.335	194.75
276.567	197.75
276.799	187.75
277.031	185.75
277.262	202.75
277.494	185.75
277.726	192.75
277.957	204.75
278.189	189.75
278.421	199.75
278.652	181.75
278.884	195.75
279.115	203.75
279.347	195.75
279.579	206.75
279.81	184.75
280.042	181.75
280.273	202.75
280.505	207.75
280.736	207.75
280.968	193.75
281.199	197.75
281.431	190.75
281.662	199.75
281.894	196.75
282.125	200.75
282.356	216.75
282.588	209.75
282.819	215.75
283.051	217.75
283.282	203.75
283.513	225.75
283.745	220.75
283.976	206.75
284.207	210.75
284.439	208.75
284.67	211.75
284.901	211.75
285.132	229.75
285.364	216.75
285.595	233.75
285.826	218.75
286.057	225.75
286.288	215.75
286.52	220.75
286.751	205.75
286.982	218.75
287.213	215.75
287.444	221.75
287.675	224.75
287.906	227.75
288.138	235.75
288.369	228.75
288.6	215.75
288.831	219.75
289.062	219.75
289.293	228.75
289.524	222.75
289.755	226.75
289.986	227.75
290.217	226.75
290.448	236.75
290.679	222.75
290.91	230.75
291.141	240.75
291.371	229.75
291.602	235.75
291.833	235.75
292.064	225.75
292.295	208.75
292.526	220.75
292.757	233.75
292.987	221.75
293.218	224.75
293.449	232.75
293.68	222.75
293.91	237.75
294.141	237.75
294.372	229.75
294.603	248.75
294.833	220.75
295.064	227.75
295.295	251.75
295.525	244.75
295.756	225.75
295.987	221.75
296.217	230.75
296.448	219.75
296.679	219.75
296.909	241.75
297.14	242.75
297.37	236.75
297.601	236.75
297.831	229.75
298.062	268.75
298.292	248.75
298.523	248.75
298.753	238.75
298.984	240.75
299.214	242.75
299.445	267.75
299.675	231.75
299.905	220.75
300.136	242.75
300.366	243.75
300.597	242.75
300.827	244.75
301.057	227.75
301.288	243.75
301.518	248.75
301.748	257.75
301.979	252.75
302.209	247.75
302.439	247.75
302.669	264.75
302.9	266.75
303.13	240.75
303.36	264.75
303.59	265.75
303.82	285.75
304.051	265.75
304.281	249.75
304.511	270.75
304.741	260.75
304.971	276.75
305.201	265.75
305.431	254.75
305.661	249.75
305.891	262.75
306.121	245.75
306.352	260.75
306.582	262.75
306.812	241.75
307.042	270.75
307.272	267.75
307.502	279.75
307.731	261.75
307.961	270.75
308.191	236.75
308.421	269.75
308.651	284.75
308.881	288.75
309.111	273.75
309.341	273.75
309.571	250.75
309.8	264.75
310.03	265.75
310.26	263.75
310.49	275.75
310.72	253.75
310.949	262.75
311.179	290.75
311.409	275.75
311.639	275.75
311.868	286.75
312.098	277.75
312.328	265.75
312.557	278.75
312.787	267.75
313.017	282.75
313.246	292.75
313.476	273.75
313.706	287.75
313.935	276.75
314.165	279.75
314.394	279.75
314.624	284.75
314.853	282.75
315.083	289.75
315.312	295.75
315.542	283.75
315.771	301.75
316.001	281.75
316.23	290.75
316.46	291.75
316.689	288.75
316.919	269.75
317.148	285.75
317.377	269.75
317.607	289.75
317.836	280.75
318.065	277.75
318.295	281.75
318.524	290.75
318.753	286.75
318.983	298.75
319.212	296.75
319.441	291.75
319.67	309.75
319.9	295.75
320.129	288.75
320.358	264.75
320.587	291.75
320.816	304.75
321.046	291.75
321.275	292.75
321.504	307.75
321.733	296.75
321.962	283.75
322.191	294.75
322.42	299.75
322.649	301.75
322.878	299.75
323.108	300.75
323.337	300.75
323.566	305.75
323.795	303.75
324.024	313.75
324.253	288.75
324.482	297.75
324.71	292.75
324.939	301.75
325.168	287.75
325.397	300.75
325.626	306.75
325.855	300.75
326.084	309.75
326.313	313.75
326.542	312.75
326.77	302.75
326.999	300.75
327.228	310.75
327.457	308.75
327.686	306.75
327.914	341.75
328.143	329.75
328.372	316.75
328.6	310.75
328.829	307.75
329.058	322.75
329.287	318.75
329.515	327.75
329.744	328.75
329.972	316.75
330.201	308.75
330.43	303.75
330.658	318.75
330.887	334.75
331.115	332.75
331.344	343.75
331.572	321.75
331.801	325.75
332.03	326.75
332.258	314.75
332.486	344.75
332.715	336.75
332.943	356.75
333.172	343.75
333.4	343.75
333.629	350.75
333.857	359.75
334.085	376.75
334.314	369.75
334.542	371.75
334.771	367.75
334.999	380.75
335.227	379.75
335.455	347.75
335.684	363.75
335.912	366.75
336.14	373.75
336.369	349.75
336.597	378.75
336.825	345.75
337.053	356.75
337.281	346.75
337.51	356.75
337.738	349.75
337.966	354.75
338.194	351.75
338.422	347.75
338.65	351.75
338.878	338.75
339.106	336.75
339.334	345.75
339.562	325.75
339.79	336.75
340.018	340.75
340.246	341.75
340.474	337.75
340.702	316.75
340.93	337.75
341.158	332.75
341.386	327.75
341.614	342.75
341.842	340.75
342.07	348.75
342.298	331.75
342.526	339.75
342.754	330.75
342.981	336.75
343.209	349.75
343.437	347.75
343.665	344.75
343.893	365.75
344.12	358.75
344.348	357.75
344.576	356.75
344.804	376.75
345.031	333.75
345.259	344.75
345.487	331.75
345.714	347.75
345.942	335.75
346.17	332.75
346.397	324.75
346.625	324.75
346.853	328.75
347.08	314.75
347.308	331.75
347.535	328.75
347.763	340.75
347.99	330.75
348.218	334.75
348.445	327.75
348.673	321.75
348.9	314.75
349.128	332.75
349.355	317.75
349.583	317.75
349.81	335.75
350.037	316.75
350.265	324.75
350.492	313.75
350.72	299.75
350.947	332.75
351.174	316.75
351.402	323.75
351.629	317.75
351.856	322.75
352.083	317.75
352.311	323.75
352.538	308.75
352.765	327.75
352.992	332.75
353.22	321.75
353.447	322.75
353.674	326.75
353.901	322.75
354.128	346.75
354.355	338.75
354.583	331.75
354.81	338.75
355.037	316.75
355.264	329.75
355.491	324.75
355.718	301.75
355.945	324.75
356.172	319.75
356.399	330.75
356.626	319.75
356.853	317.75
357.08	318.75
357.307	328.75
357.534	321.75
357.761	327.75
357.988	358.75
358.215	344.75
358.441	335.75
358.668	325.75
358.895	317.75
359.122	329.75
359.349	304.75
359.576	345.75
359.802	336.75
360.029	326.75
360.256	324.75
360.483	334.75
360.709	327.75
360.936	312.75
361.163	319.75
361.39	323.75
361.616	335.75
361.843	324.75
362.07	325.75
362.296	340.75
362.523	347.75
362.749	326.75
362.976	324.75
363.203	326.75
363.429	326.75
363.656	350.75
363.882	329.75
364.109	328.75
364.335	341.75
364.562	333.75
364.788	332.75
365.015	327.75
365.241	326.75
365.468	331.75
365.694	328.75
365.92	334.75
366.147	321.75
366.373	334.75
366.599	345.75
366.826	336.75
367.052	341.75
367.278	341.75
367.505	337.75
367.731	335.75
367.957	343.75
368.184	314.75
368.41	342.75
368.636	340.75
368.862	359.75
369.089	338.75
369.315	332.75
369.541	334.75
369.767	322.75
369.993	345.75
370.219	340.75
370.445	350.75
370.672	355.75
370.898	371.75
371.124	356.75
371.35	361.75
371.576	338.75
371.802	356.75
372.028	361.75
372.254	358.75
372.48	366.75
372.706	363.75
372.932	386.75
373.158	364.75
373.384	344.75
373.61	376.75
373.835	360.75
374.061	364.75
374.287	354.75
374.513	375.75
374.739	374.75
374.965	390.75
375.191	378.75
375.416	374.75
375.642	359.75
375.868	380.75
376.094	369.75
376.319	349.75
376.545	365.75
376.771	361.75
376.997	363.75
377.222	348.75
377.448	352.75
377.674	354.75
377.899	353.75
378.125	347.75
378.35	342.75
378.576	342.75
378.802	359.75
379.027	346.75
379.253	355.75
379.478	363.75
379.704	354.75
379.929	365.75
380.155	338.75
380.38	341.75
380.606	345.75
380.831	351.75
381.057	360.75
381.282	350.75
381.507	386.75
381.733	362.75
381.958	381.75
382.184	368.75
382.409	373.75
382.634	380.75
382.86	375.75
383.085	367.75
383.31	365.75
383.535	378.75
383.761	391.75
383.986	389.75
384.211	406.75
384.436	377.75
384.662	378.75
384.887	390.75
385.112	371.75
385.337	389.75
385.562	397.75
385.787	409.75
386.013	405.75
386.238	410.75
386.463	405.75
386.688	421.75
386.913	394.75
387.138	408.75
387.363	402.75
387.588	390.75
387.813	404.75
388.038	396.75
388.263	404.75
388.488	416.75
388.713	406.75
388.938	416.75
389.163	392.75
389.387	402.75
389.612	403.75
389.837	404.75
390.062	409.75
390.287	413.75
390.512	405.75
390.736	429.75
390.961	424.75
391.186	434.75
391.411	428.75
391.636	442.75
391.86	414.75
392.085	427.75
392.31	451.75
392.534	418.75
392.759	432.75
392.984	436.75
393.208	435.75
393.433	418.75
393.658	420.75
393.882	441.75
394.107	436.75
394.331	424.75
394.556	424.75
394.78	418.75
395.005	436.75
395.229	436.75
395.454	434.75
395.678	435.75
395.903	437.75
396.127	449.75
396.352	421.75
396.576	437.75
396.801	441.75
397.025	451.75
397.249	447.75
397.474	479.75
397.698	460.75
397.922	461.75
398.147	467.75
398.371	453.75
398.595	467.75
398.82	485.75
399.044	485.75
399.268	517.75
399.492	513.75
399.717	540.75
399.941	555.75
400.165	532.75
400.389	522.75
400.613	520.75
400.837	498.75
401.062	487.75
401.286	473.75
401.51	491.75
401.734	466.75
401.958	489.75
402.182	488.75
402.406	481.75
402.63	475.75
402.854	504.75
403.078	472.75
403.302	478.75
403.526	481.75
403.75	479.75
403.974	489.75
404.198	463.75
404.422	469.75
404.645	498.75
404.869	491.75
405.093	498.75
405.317	487.75
405.541	512.75
405.765	514.75
405.988	500.75
406.212	512.75
406.436	499.75
406.66	511.75
406.883	501.75
407.107	513.75
407.331	541.75
407.555	541.75
407.778	533.75
408.002	547.75
408.226	537.75
408.449	539.75
408.673	535.75
408.896	520.75
409.12	537.75
409.344	530.75
409.567	524.75
409.791	528.75
410.014	528.75
410.238	510.75
410.461	518.75
410.685	518.75
410.908	500.75
411.132	502.75
411.355	516.75
411.578	508.75
411.802	496.75
412.025	491.75
412.249	495.75
412.472	518.75
412.695	486.75
412.919	484.75
413.142	508.75
413.365	482.75
413.589	506.75
413.812	475.75
414.035	483.75
414.258	482.75
414.482	464.75
414.705	477.75
414.928	466.75
415.151	474.75
415.374	484.75
415.597	461.75
415.821	449.75
416.044	457.75
416.267	457.75
416.49	478.75
416.713	464.75
416.936	483.75
417.159	465.75
417.382	443.75
417.605	458.75
417.828	463.75
418.051	449.75
418.274	455.75
418.497	426.75
418.72	454.75
418.943	468.75
419.166	473.75
419.389	493.75
419.611	482.75
419.834	496.75
420.057	469.75
420.28	453.75
420.503	458.75
420.726	466.75
420.948	461.75
421.171	460.75
421.394	464.75
421.617	437.75
421.839	453.75
422.062	446.75
422.285	456.75
422.507	460.75
422.73	443.75
422.953	463.75
423.175	455.75
423.398	447.75
423.621	463.75
423.843	459.75
424.066	464.75
424.288	443.75
424.511	436.75
424.733	443.75
424.956	453.75
425.178	457.75
425.401	436.75
425.623	438.75
425.846	454.75
426.068	448.75
426.291	445.75
426.513	460.75
426.735	442.75
426.958	440.75
427.18	429.75
427.402	434.75
427.625	440.75
427.847	439.75
428.069	429.75
428.292	451.75
428.514	434.75
428.736	430.75
428.958	437.75
429.181	425.75
429.403	426.75
429.625	426.75
429.847	447.75
430.069	434.75
430.292	438.75
430.514	414.75
430.736	428.75
430.958	421.75
431.18	432.75
431.402	427.75
431.624	442.75
431.846	446.75
432.068	424.75
432.29	420.75
432.512	436.75
432.734	458.75
432.956	411.75
433.178	458.75
433.4	437.75
433.622	455.75
433.844	444.75
434.066	438.75
434.287	439.75
434.509	444.75
434.731	454.75
434.953	454.75
435.175	448.75
435.397	429.75
435.618	442.75
435.84	453.75
436.062	445.75
436.284	449.75
436.505	443.75
436.727	426.75
436.949	427.75
437.17	435.75
437.392	425.75
437.614	417.75
437.835	424.75
438.057	416.75
438.278	432.75
438.5	426.75
438.721	422.75
438.943	446.75
439.165	432.75
439.386	428.75
439.608	434.75
439.829	434.75
440.05	420.75
440.272	443.75
440.493	428.75
440.715	446.75
440.936	441.75
441.158	444.75
441.379	430.75
441.6	447.75
441.822	443.75
442.043	442.75
442.264	466.75
442.486	429.75
442.707	436.75
442.928	474.75
443.149	414.75
443.371	435.75
443.592	451.75
443.813	467.75
444.034	446.75
444.255	465.75
444.476	456.75
444.698	464.75
444.919	466.75
445.14	574.75
445.361	494.75
445.582	466.75
445.803	449.75
446.024	446.75
446.245	432.75
446.466	446.75
446.687	441.75
446.908	444.75
447.129	424.75
447.35	436.75
447.571	422.75
447.792	396.75
448.013	411.75
448.234	406.75
448.455	380.75
448.675	404.75
448.896	413.75
449.117	420.75
449.338	388.75
449.559	419.75
449.779	405.75
450	397.75
450.221	405.75
450.442	430.75
450.662	390.75
450.883	395.75
451.104	393.75
451.324	391.75
451.545	401.75
451.766	385.75
451.986	399.75
452.207	413.75
452.428	392.75
452.648	396.75
452.869	401.75
453.089	370.75
453.31	410.75
453.53	378.75
453.751	385.75
453.971	401.75
454.192	371.75
454.412	366.75
454.633	392.75
454.853	392.75
455.073	379.75
455.294	379.75
455.514	393.75
455.734	384.75
455.955	390.75
456.175	380.75
456.395	396.75
456.616	389.75
456.836	397.75
457.056	397.75
457.276	377.75
457.497	409.75
457.717	398.75
457.937	395.75
458.157	406.75
458.377	408.75
458.598	401.75
458.818	415.75
459.038	413.75
459.258	425.75
459.478	430.75
459.698	434.75
459.918	438.75
460.138	432.75
460.358	464.75
460.578	466.75
460.798	468.75
461.018	448.75
461.238	470.75
461.458	477.75
461.678	485.75
461.898	474.75
462.118	470.75
462.338	489.75
462.558	494.75
462.777	513.75
462.997	521.75
463.217	527.75
463.437	520.75
463.657	501.75
463.876	518.75
464.096	534.75
464.316	520.75
464.536	492.75
464.755	485.75
464.975	460.75
465.195	464.75
465.414	473.75
465.634	456.75
465.854	441.75
466.073	460.75
466.293	436.75
466.512	417.75
466.732	420.75
466.951	422.75
467.171	412.75
467.391	432.75
467.61	438.75
467.829	405.75
468.049	425.75
468.268	428.75
468.488	419.75
468.707	422.75
468.927	406.75
469.146	420.75
469.365	422.75
469.585	429.75
469.804	434.75
470.023	423.75
470.243	432.75
470.462	404.75
470.681	435.75
470.901	434.75
471.12	416.75
471.339	437.75
471.558	406.75
471.777	425.75
471.997	411.75
472.216	417.75
472.435	404.75
472.654	424.75
472.873	405.75
473.092	429.75
473.311	414.75
473.53	421.75
473.749	415.75
473.968	418.75
474.187	420.75
474.406	422.75
474.625	441.75
474.844	411.75
475.063	442.75
475.282	452.75
475.501	454.75
475.72	439.75
475.939	413.75
476.158	456.75
476.377	456.75
476.596	436.75
476.814	461.75
477.033	450.75
477.252	449.75
477.471	444.75
477.69	445.75
477.908	477.75
478.127	490.75
478.346	483.75
478.564	475.75
478.783	484.75
479.002	469.75
479.22	482.75
479.439	524.75
479.658	491.75
479.876	509.75
480.095	507.75
480.313	513.75
480.532	486.75
480.751	523.75
480.969	509.75
481.188	516.75
481.406	490.75
481.624	498.75
481.843	486.75
482.061	462.75
482.28	498.75
482.498	496.75
482.717	484.75
482.935	486.75
483.153	484.75
483.372	498.75
483.59	512.75
483.808	483.75
484.027	502.75
484.245	501.75
484.463	502.75
484.681	497.75
484.9	492.75
485.118	521.75
485.336	500.75
485.554	503.75
485.772	501.75
485.99	516.75
486.209	500.75
486.427	512.75
486.645	493.75
486.863	517.75
487.081	511.75
487.299	521.75
487.517	509.75
487.735	518.75
487.953	510.75
488.171	513.75
488.389	487.75
488.607	486.75
488.825	507.75
489.043	509.75
489.261	525.75
489.479	493.75
489.696	497.75
489.914	508.75
490.132	517.75
490.35	517.75
490.568	544.75
490.786	497.75
491.003	517.75
491.221	503.75
491.439	517.75
491.657	497.75
491.874	523.75
492.092	516.75
492.31	527.75
492.527	528.75
492.745	497.75
492.963	544.75
493.18	535.75
493.398	527.75
493.615	545.75
493.833	524.75
494.05	512.75
494.268	508.75
494.485	546.75
494.703	525.75
494.92	538.75
495.138	537.75
495.355	556.75
495.573	535.75
495.79	551.75
496.008	546.75
496.225	531.75
496.442	557.75
496.66	554.75
496.877	580.75
497.094	574.75
497.312	592.75
497.529	597.75
497.746	586.75
497.963	632.75
498.181	624.75
498.398	653.75
498.615	658.75
498.832	680.75
499.049	717.75
499.267	713.75
499.484	783.75
499.701	796.75
499.918	851.75
500.135	831.75
500.352	888.75
500.569	870.75
500.786	878.75
501.003	871.75
501.22	843.75
501.437	802.75
501.654	753.75
501.871	745.75
502.088	712.75
502.305	728.75
502.522	662.75
502.739	630.75
502.956	634.75
503.172	620.75
503.389	600.75
503.606	611.75
503.823	602.75
504.04	606.75
504.256	568.75
504.473	580.75
504.69	586.75
504.907	557.75
505.123	564.75
505.34	521.75
505.557	540.75
505.773	528.75
505.99	501.75
506.207	504.75
506.423	494.75
506.64	510.75
506.856	516.75
507.073	481.75
507.289	489.75
507.506	485.75
507.722	482.75
507.939	465.75
508.155	504.75
508.372	473.75
508.588	473.75
508.805	471.75
509.021	472.75
509.238	474.75
509.454	456.75
509.67	441.75
509.887	438.75
510.103	457.75
510.319	466.75
510.536	452.75
510.752	440.75
510.968	445.75
511.184	428.75
511.401	424.75
511.617	435.75
511.833	435.75
512.049	435.75
512.265	426.75
512.481	441.75
512.698	428.75
512.914	448.75
513.13	440.75
513.346	453.75
513.562	473.75
513.778	441.75
513.994	461.75
514.21	469.75
514.426	444.75
514.642	441.75
514.858	475.75
515.074	458.75
515.29	449.75
515.506	457.75
515.721	459.75
515.937	453.75
516.153	465.75
516.369	466.75
516.585	473.75
516.801	464.75
517.016	500.75
517.232	477.75
517.448	484.75
517.664	498.75
517.879	506.75
518.095	488.75
518.311	491.75
518.527	493.75
518.742	491.75
518.958	464.75
519.173	477.75
519.389	470.75
519.605	468.75
519.82	449.75
520.036	470.75
520.251	445.75
520.467	451.75
520.682	433.75
520.898	428.75
521.113	434.75
521.329	429.75
521.544	432.75
521.76	427.75
521.975	424.75
522.19	435.75
522.406	411.75
522.621	434.75
522.836	416.75
523.052	421.75
523.267	420.75
523.482	429.75
523.698	418.75
523.913	426.75
524.128	407.75
524.343	405.75
524.559	421.75
524.774	398.75
524.989	408.75
525.204	425.75
525.419	397.75
525.634	412.75
525.849	399.75
526.064	417.75
526.28	384.75
526.495	406.75
526.71	409.75
526.925	401.75
527.14	382.75
527.355	416.75
527.57	399.75
527.785	385.75
527.999	398.75
528.214	396.75
528.429	402.75
528.644	411.75
528.859	405.75
529.074	428.75
529.289	406.75
529.503	401.75
529.718	392.75
529.933	406.75
530.148	368.75
530.363	386.75
530.577	405.75
530.792	396.75
531.007	378.75
531.221	393.75
531.436	370.75
531.651	396.75
531.865	384.75
532.08	395.75
532.295	385.75
532.509	383.75
532.724	389.75
532.938	404.75
533.153	390.75
533.367	402.75
533.582	383.75
533.796	384.75
534.011	396.75
534.225	375.75
534.44	389.75
534.654	382.75
534.868	373.75
535.083	392.75
535.297	390.75
535.511	387.75
535.726	378.75
535.94	386.75
536.154	364.75
536.369	374.75
536.583	373.75
536.797	387.75
537.011	390.75
537.225	377.75
537.44	376.75
537.654	379.75
537.868	378.75
538.082	377.75
538.296	359.75
538.51	366.75
538.724	364.75
538.938	364.75
539.153	380.75
539.367	376.75
539.581	357.75
539.795	372.75
540.009	372.75
540.222	376.75
540.436	369.75
540.65	356.75
540.864	373.75
541.078	353.75
541.292	365.75
541.506	379.75
541.72	377.75
541.934	347.75
542.147	400.75
542.361	370.75
542.575	384.75
542.789	371.75
543.002	369.75
543.216	370.75
543.43	355.75
543.644	352.75
543.857	361.75
544.071	348.75
544.285	368.75
544.498	386.75
544.712	356.75
544.925	366.75
545.139	357.75
545.352	361.75
545.566	374.75
545.779	366.75
545.993	351.75
546.206	352.75
546.42	376.75
546.633	358.75
546.847	368.75
547.06	388.75
547.274	378.75
547.487	390.75
547.7	370.75
547.914	356.75
548.127	373.75
548.34	345.75
548.554	377.75
548.767	394.75
548.98	387.75
549.193	388.75
549.407	354.75
549.62	376.75
549.833	365.75
550.046	363.75
550.259	373.75
550.473	374.75
550.686	377.75
550.899	369.75
551.112	384.75
551.325	359.75
551.538	354.75
551.751	369.75
551.964	355.75
552.177	360.75
552.39	369.75
552.603	384.75
552.816	380.75
553.029	355.75
553.242	386.75
553.455	386.75
553.667	365.75
553.88	360.75
554.093	363.75
554.306	353.75
554.519	378.75
554.732	368.75
554.944	360.75
555.157	341.75
555.37	334.75
555.583	357.75
555.795	350.75
556.008	369.75
556.221	317.75
556.433	341.75
556.646	325.75
556.859	340.75
557.071	337.75
557.284	321.75
557.496	330.75
557.709	332.75
557.921	334.75
558.134	337.75
558.346	320.75
558.559	327.75
558.771	325.75
558.984	335.75
559.196	330.75
559.409	315.75
559.621	321.75
559.833	334.75
560.046	323.75
560.258	315.75
560.47	335.75
560.683	326.75
560.895	326.75
561.107	315.75
561.32	338.75
561.532	329.75
561.744	323.75
561.956	333.75
562.168	320.75
562.381	326.75
562.593	313.75
562.805	342.75
563.017	335.75
563.229	334.75
563.441	328.75
563.653	325.75
563.865	323.75
564.077	338.75
564.289	323.75
564.501	339.75
564.713	338.75
564.925	341.75
565.137	348.75
565.349	342.75
565.561	351.75
565.773	363.75
565.985	364.75
566.197	364.75
566.408	372.75
566.62	398.75
566.832	374.75
567.044	416.75
567.255	384.75
567.467	423.75
567.679	398.75
567.891	400.75
568.102	402.75
568.314	379.75
568.526	364.75
568.737	361.75
568.949	355.75
569.161	367.75
569.372	343.75
569.584	340.75
569.795	348.75
570.007	331.75
570.218	339.75
570.43	322.75
570.641	318.75
570.853	317.75
571.064	307.75
571.276	311.75
571.487	299.75
571.698	283.75
571.91	302.75
572.121	299.75
572.333	284.75
572.544	291.75
572.755	283.75
572.966	285.75
573.178	290.75
573.389	281.75
573.6	285.75
573.811	287.75
574.023	276.75
574.234	286.75
574.445	269.75
574.656	243.75
574.867	264.75
575.078	270.75
575.289	284.75
575.501	265.75
575.712	273.75
575.923	266.75
576.134	269.75
576.345	273.75
576.556	258.75
576.767	242.75
576.978	272.75
577.188	247.75
577.399	264.75
577.61	250.75
577.821	254.75
578.032	260.75
578.243	248.75
578.454	237.75
578.665	273.75
578.875	245.75
579.086	233.75
579.297	233.75
579.508	246.75
579.718	233.75
579.929	236.75
580.14	235.75
580.35	257.75
580.561	236.75
580.772	246.75
580.982	238.75
581.193	223.75
581.403	247.75
581.614	226.75
581.825	242.75
582.035	256.75
582.246	248.75
582.456	225.75
582.667	232.75
582.877	251.75
583.087	242.75
583.298	231.75
583.508	228.75
583.719	239.75
583.929	245.75
584.139	230.75
584.35	229.75
584.56	239.75
584.77	241.75
584.981	221.75
585.191	231.75
585.401	211.75
585.611	228.75
585.821	228.75
586.032	223.75
586.242	239.75
586.452	236.75
586.662	233.75
586.872	245.75
587.082	223.75
587.292	219.75
587.502	230.75
587.713	243.75
587.923	235.75
588.133	234.75
588.343	238.75
588.553	237.75
588.762	221.75
588.972	228.75
589.182	286.75
589.392	265.75
589.602	218.75
589.812	266.75
590.022	248.75
590.232	230.75
590.441	232.75
590.651	216.75
590.861	237.75
591.071	231.75
591.281	227.75
591.49	230.75
591.7	218.75
591.91	227.75
592.119	249.75
592.329	242.75
592.539	220.75
592.748	225.75
592.958	241.75
593.167	212.75
593.377	238.75
593.587	259.75
593.796	245.75
594.006	225.75
594.215	244.75
594.424	220.75
594.634	233.75
594.843	243.75
595.053	235.75
595.262	222.75
595.472	230.75
595.681	228.75
595.89	214.75
596.1	216.75
596.309	220.75
596.518	233.75
596.727	227.75
596.937	221.75
597.146	216.75
597.355	222.75
597.564	197.75
597.774	205.75
597.983	204.75
598.192	211.75
598.401	205.75
598.61	203.75
598.819	218.75
599.028	204.75
599.237	219.75
599.446	208.75
599.655	196.75
599.864	207.75
600.073	200.75
600.282	175.75
600.491	191.75
600.7	205.75
600.909	200.75
601.118	212.75
601.327	198.75
601.536	210.75
601.745	211.75
601.953	192.75
602.162	194.75
602.371	202.75
602.58	185.75
602.789	204.75
602.997	206.75
603.206	187.75
603.415	198.75
603.623	189.75
603.832	206.75
604.041	200.75
604.249	192.75
604.458	202.75
604.666	189.75
604.875	200.75
605.084	199.75
605.292	193.75
605.501	206.75
605.709	198.75
605.918	196.75
606.126	195.75
606.334	204.75
606.543	187.75
606.751	192.75
606.96	183.75
607.168	182.75
607.376	183.75
607.585	183.75
607.793	186.75
608.001	188.75
608.21	177.75
608.418	192.75
608.626	187.75
608.834	176.75
609.043	180.75
609.251	197.75
609.459	185.75
609.667	190.75
609.875	173.75
610.083	188.75
610.291	186.75
610.499	170.75
610.707	189.75
610.916	185.75
611.124	186.75
611.332	187.75
611.54	181.75
611.748	184.75
611.955	193.75
612.163	173.75
612.371	178.75
612.579	188.75
612.787	200.75
612.995	188.75
613.203	177.75
613.411	187.75
613.618	177.75
613.826	183.75
614.034	192.75
614.242	181.75
614.449	173.75
614.657	173.75
614.865	186.75
615.072	182.75
615.28	182.75
615.488	183.75
615.695	184.75
615.903	201.75
616.111	178.75
616.318	189.75
616.526	194.75
616.733	184.75
616.941	196.75
617.148	182.75
617.356	178.75
617.563	179.75
617.771	179.75
617.978	178.75
618.185	194.75
618.393	168.75
618.6	180.75
618.807	174.75
619.015	164.75
619.222	184.75
619.429	174.75
619.637	174.75
619.844	174.75
620.051	183.75
620.258	178.75
620.466	188.75
620.673	184.75
620.88	176.75
621.087	165.75
621.294	172.75
621.501	177.75
621.708	180.75
621.915	178.75
622.122	183.75
622.329	160.75
622.536	180.75
622.743	172.75
622.95	180.75
623.157	166.75
623.364	168.75
623.571	164.75
623.778	167.75
623.985	167.75
624.192	164.75
624.399	167.75
624.606	168.75
624.812	180.75
625.019	180.75
625.226	167.75
625.433	180.75
625.639	162.75
625.846	164.75
626.053	156.75
626.259	160.75
626.466	162.75
626.673	168.75
626.879	165.75
627.086	153.75
627.293	164.75
627.499	163.75
627.706	154.75
627.912	154.75
628.119	147.75
628.325	165.75
628.532	157.75
628.738	170.75
628.945	163.75
629.151	160.75
629.357	154.75
629.564	142.75
629.77	156.75
629.976	168.75
630.183	161.75
630.389	150.75
630.595	151.75
630.802	167.75
631.008	160.75
631.214	166.75
631.42	168.75
631.627	157.75
631.833	162.75
632.039	152.75
632.245	140.75
632.451	156.75
632.657	162.75
632.863	163.75
633.069	164.75
633.275	168.75
633.481	155.75
633.688	168.75
633.893	156.75
634.099	134.75
634.305	163.75
634.511	163.75
634.717	153.75
634.923	141.75
635.129	145.75
635.335	144.75
635.541	145.75
635.747	153.75
635.952	162.75
636.158	149.75
636.364	173.75
636.57	139.75
636.775	152.75
636.981	143.75
637.187	161.75
637.392	161.75
637.598	161.75
637.804	149.75
638.009	159.75
638.215	154.75
638.421	141.75
638.626	150.75
638.832	135.75
639.037	134.75
639.243	163.75
639.448	154.75
639.654	150.75
639.859	148.75
640.065	154.75
640.27	155.75
640.475	162.75
640.681	150.75
640.886	151.75
641.091	128.75
641.297	142.75
641.502	148.75
641.707	134.75
641.913	134.75
642.118	153.75
642.323	132.75
642.528	158.75
642.733	161.75
642.939	153.75
643.144	142.75
643.349	146.75
643.554	164.75
643.759	147.75
643.964	141.75
644.169	139.75
644.374	132.75
644.579	133.75
644.784	141.75
644.989	157.75
645.194	133.75
645.399	147.75
645.604	151.75
645.809	145.75
646.014	155.75
646.219	146.75
646.423	130.75
646.628	134.75
646.833	135.75
647.038	141.75
647.243	157.75
647.447	140.75
647.652	146.75
647.857	174.75
648.062	154.75
648.266	156.75
648.471	149.75
648.676	140.75
648.88	149.75
649.085	148.75
649.289	145.75
649.494	150.75
649.698	153.75
649.903	139.75
650.107	158.75
650.312	152.75
650.516	150.75
650.721	144.75
650.925	148.75
651.13	151.75
651.334	141.75
651.539	142.75
651.743	138.75
651.947	139.75
652.152	126.75
652.356	126.75
652.56	143.75
652.764	141.75
652.969	130.75
653.173	139.75
653.377	144.75
653.581	142.75
653.785	157.75
653.99	132.75
654.194	137.75
654.398	133.75
654.602	150.75
654.806	133.75
655.01	135.75
655.214	147.75
655.418	154.75
655.622	153.75
655.826	132.75
656.03	145.75
656.234	150.75
656.438	156.75
656.642	137.75
656.846	141.75
657.049	141.75
657.253	132.75
657.457	116.75
657.661	131.75
657.865	119.75
658.068	109.75
658.272	112.75
658.476	121.75
658.68	105.75
658.883	109.75
659.087	103.75
659.291	120.75
659.494	104.75
659.698	101.75
659.901	93.75
660.105	89.75
660.309	98.75
660.512	105.75
660.716	84.75
660.919	88.75
661.123	86.75
661.326	87.75
661.53	81.75
661.733	85.75
661.936	85.75
662.14	85.75
662.343	88.75
662.546	88.75
662.75	83.75
662.953	90.75
663.156	83.75
663.36	80.75
663.563	91.75
663.766	73.75
663.969	88.75
664.173	99.75
664.376	83.75
664.579	75.75
664.782	79.75
664.985	83.75
665.188	89.75
665.391	84.75
665.594	84.75
665.797	76.75
666	90.75
666.203	81.75
666.406	95.75
666.609	98.75
666.812	76.75
667.015	86.75
667.218	92.75
667.421	89.75
667.624	76.75
667.827	83.75
668.03	91.75
668.232	75.75
668.435	86.75
668.638	85.75
668.841	86.75
669.043	101.75
669.246	88.75
669.449	90.75
669.651	83.75
669.854	76.75
670.057	78.75
670.259	80.75
670.462	95.75
670.665	72.75
670.867	93.75
671.07	84.75
671.272	88.75
671.475	93.75
671.677	77.75
671.88	81.75
672.082	91.75
672.284	89.75
672.487	84.75
672.689	79.75
672.892	93.75
