Data from Fe(NO3)3@0.0125M.TitratingCurve.Agarose3%dH2O.NegLispCup.LampEnergy10.LIBS07252019_HRD10591_16-59-28-336.txt Node
Date: Thu Jul 25 16:59:28 EDT 2019
User: cochatt
Spectrometer: HR+D1059
Trigger mode: 1
Integration Time (sec): 1.000000E-1
Scans to average: 1
Electric dark correction enabled: true
Nonlinearity correction enabled: false
Boxcar width: 0
XAxis mode: Wavelengths
Number of Pixels in Spectrum: 2048
>>>>>Begin Spectral Data<<<<<
223.165	-8.56
223.4	-8.56
223.635	-8.56
223.869	-22.56
224.104	-23.56
224.338	-30.56
224.573	-14.56
224.808	-16.56
225.042	-9.56
225.277	7.44
225.511	-9.56
225.746	3.44
225.98	15.44
226.215	21.44
226.449	4.44
226.683	19.44
226.918	32.44
227.152	31.44
227.387	37.44
227.621	47.44
227.856	52.44
228.09	49.44
228.324	51.44
228.559	45.44
228.793	65.44
229.027	73.44
229.262	85.44
229.496	80.44
229.73	93.44
229.964	80.44
230.199	84.44
230.433	103.44
230.667	88.44
230.901	100.44
231.136	91.44
231.37	95.44
231.604	96.44
231.838	114.44
232.072	105.44
232.306	115.44
232.541	119.44
232.775	92.44
233.009	102.44
233.243	111.44
233.477	108.44
233.711	117.44
233.945	100.44
234.179	86.44
234.413	106.44
234.647	111.44
234.881	106.44
235.115	104.44
235.349	103.44
235.583	101.44
235.817	117.44
236.051	98.44
236.285	119.44
236.519	102.44
236.753	106.44
236.987	99.44
237.221	112.44
237.455	111.44
237.689	98.44
237.922	117.44
238.156	103.44
238.39	93.44
238.624	117.44
238.858	125.44
239.091	109.44
239.325	106.44
239.559	109.44
239.793	117.44
240.027	127.44
240.26	121.44
240.494	114.44
240.728	128.44
240.961	115.44
241.195	105.44
241.429	129.44
241.662	123.44
241.896	129.44
242.13	118.44
242.363	111.44
242.597	105.44
242.83	119.44
243.064	121.44
243.298	123.44
243.531	116.44
243.765	129.44
243.998	121.44
244.232	132.44
244.465	129.44
244.699	124.44
244.932	121.44
245.166	134.44
245.399	140.44
245.633	131.44
245.866	93.44
246.099	157.44
246.333	132.44
246.566	129.44
246.8	121.44
247.033	125.44
247.266	137.44
247.5	135.44
247.733	139.44
247.966	144.44
248.2	140.44
248.433	152.44
248.666	140.44
248.899	126.44
249.133	140.44
249.366	138.44
249.599	150.44
249.832	130.44
250.066	155.44
250.299	169.44
250.532	139.44
250.765	159.44
250.998	148.44
251.231	147.44
251.465	149.44
251.698	134.44
251.931	145.44
252.164	161.44
252.397	141.44
252.63	156.44
252.863	169.44
253.096	156.44
253.329	147.44
253.562	148.44
253.795	154.44
254.028	153.44
254.261	154.44
254.494	163.44
254.727	157.44
254.96	167.44
255.193	152.44
255.426	173.44
255.659	151.44
255.892	173.44
256.124	165.44
256.357	165.44
256.59	157.44
256.823	168.44
257.056	166.44
257.289	149.44
257.521	170.44
257.754	184.44
257.987	160.44
258.22	171.44
258.452	173.44
258.685	166.44
258.918	175.44
259.151	173.44
259.383	185.44
259.616	173.44
259.849	182.44
260.081	176.44
260.314	197.44
260.547	191.44
260.779	180.44
261.012	193.44
261.244	177.44
261.477	194.44
261.71	183.44
261.942	197.44
262.175	183.44
262.407	179.44
262.64	172.44
262.872	187.44
263.105	191.44
263.337	207.44
263.57	204.44
263.802	208.44
264.035	185.44
264.267	198.44
264.499	194.44
264.732	188.44
264.964	183.44
265.197	175.44
265.429	193.44
265.661	188.44
265.894	190.44
266.126	203.44
266.358	193.44
266.591	199.44
266.823	210.44
267.055	201.44
267.287	183.44
267.52	194.44
267.752	204.44
267.984	198.44
268.216	195.44
268.448	218.44
268.681	213.44
268.913	211.44
269.145	205.44
269.377	200.44
269.609	184.44
269.841	219.44
270.073	225.44
270.306	205.44
270.538	199.44
270.77	216.44
271.002	209.44
271.234	231.44
271.466	215.44
271.698	219.44
271.93	218.44
272.162	221.44
272.394	210.44
272.626	209.44
272.858	226.44
273.09	237.44
273.322	240.44
273.553	234.44
273.785	239.44
274.017	240.44
274.249	260.44
274.481	261.44
274.713	247.44
274.945	255.44
275.176	267.44
275.408	256.44
275.64	252.44
275.872	264.44
276.104	259.44
276.335	259.44
276.567	263.44
276.799	262.44
277.031	266.44
277.262	255.44
277.494	260.44
277.726	256.44
277.957	258.44
278.189	265.44
278.421	260.44
278.652	260.44
278.884	257.44
279.115	267.44
279.347	273.44
279.579	281.44
279.81	245.44
280.042	256.44
280.273	273.44
280.505	274.44
280.736	289.44
280.968	293.44
281.199	286.44
281.431	281.44
281.662	271.44
281.894	297.44
282.125	277.44
282.356	274.44
282.588	284.44
282.819	279.44
283.051	283.44
283.282	279.44
283.513	263.44
283.745	298.44
283.976	297.44
284.207	282.44
284.439	299.44
284.67	299.44
284.901	298.44
285.132	296.44
285.364	293.44
285.595	314.44
285.826	308.44
286.057	312.44
286.288	273.44
286.52	295.44
286.751	311.44
286.982	296.44
287.213	311.44
287.444	323.44
287.675	314.44
287.906	320.44
288.138	321.44
288.369	327.44
288.6	317.44
288.831	314.44
289.062	322.44
289.293	328.44
289.524	305.44
289.755	332.44
289.986	307.44
290.217	335.44
290.448	330.44
290.679	327.44
290.91	343.44
291.141	310.44
291.371	326.44
291.602	350.44
291.833	348.44
292.064	325.44
292.295	337.44
292.526	339.44
292.757	339.44
292.987	348.44
293.218	335.44
293.449	354.44
293.68	341.44
293.91	341.44
294.141	365.44
294.372	342.44
294.603	345.44
294.833	338.44
295.064	354.44
295.295	341.44
295.525	339.44
295.756	358.44
295.987	353.44
296.217	379.44
296.448	360.44
296.679	360.44
296.909	362.44
297.14	375.44
297.37	361.44
297.601	364.44
297.831	341.44
298.062	371.44
298.292	345.44
298.523	364.44
298.753	375.44
298.984	385.44
299.214	383.44
299.445	383.44
299.675	383.44
299.905	370.44
300.136	379.44
300.366	376.44
300.597	375.44
300.827	369.44
301.057	376.44
301.288	393.44
301.518	393.44
301.748	379.44
301.979	386.44
302.209	398.44
302.439	391.44
302.669	405.44
302.9	402.44
303.13	387.44
303.36	397.44
303.59	408.44
303.82	419.44
304.051	415.44
304.281	385.44
304.511	421.44
304.741	427.44
304.971	417.44
305.201	401.44
305.431	403.44
305.661	425.44
305.891	413.44
306.121	418.44
306.352	413.44
306.582	397.44
306.812	405.44
307.042	434.44
307.272	407.44
307.502	413.44
307.731	428.44
307.961	423.44
308.191	425.44
308.421	404.44
308.651	415.44
308.881	404.44
309.111	420.44
309.341	428.44
309.571	426.44
309.8	411.44
310.03	424.44
310.26	433.44
310.49	421.44
310.72	427.44
310.949	437.44
311.179	426.44
311.409	427.44
311.639	444.44
311.868	435.44
312.098	432.44
312.328	438.44
312.557	448.44
312.787	448.44
313.017	455.44
313.246	455.44
313.476	430.44
313.706	447.44
313.935	467.44
314.165	432.44
314.394	458.44
314.624	457.44
314.853	464.44
315.083	471.44
315.312	477.44
315.542	478.44
315.771	460.44
316.001	487.44
316.23	487.44
316.46	469.44
316.689	456.44
316.919	465.44
317.148	498.44
317.377	472.44
317.607	481.44
317.836	497.44
318.065	511.44
318.295	472.44
318.524	488.44
318.753	486.44
318.983	499.44
319.212	466.44
319.441	515.44
319.67	502.44
319.9	508.44
320.129	491.44
320.358	480.44
320.587	507.44
320.816	467.44
321.046	498.44
321.275	502.44
321.504	499.44
321.733	515.44
321.962	500.44
322.191	506.44
322.42	509.44
322.649	506.44
322.878	509.44
323.108	500.44
323.337	515.44
323.566	523.44
323.795	499.44
324.024	529.44
324.253	515.44
324.482	525.44
324.71	508.44
324.939	543.44
325.168	530.44
325.397	530.44
325.626	521.44
325.855	515.44
326.084	524.44
326.313	514.44
326.542	538.44
326.77	527.44
326.999	529.44
327.228	537.44
327.457	544.44
327.686	569.44
327.914	548.44
328.143	529.44
328.372	523.44
328.6	541.44
328.829	545.44
329.058	541.44
329.287	536.44
329.515	531.44
329.744	535.44
329.972	544.44
330.201	550.44
330.43	556.44
330.658	552.44
330.887	551.44
331.115	535.44
331.344	523.44
331.572	535.44
331.801	552.44
332.03	559.44
332.258	559.44
332.486	547.44
332.715	556.44
332.943	553.44
333.172	572.44
333.4	567.44
333.629	579.44
333.857	588.44
334.085	579.44
334.314	588.44
334.542	576.44
334.771	578.44
334.999	538.44
335.227	583.44
335.455	575.44
335.684	574.44
335.912	572.44
336.14	585.44
336.369	582.44
336.597	592.44
336.825	572.44
337.053	576.44
337.281	566.44
337.51	592.44
337.738	575.44
337.966	589.44
338.194	591.44
338.422	572.44
338.65	561.44
338.878	566.44
339.106	577.44
339.334	585.44
339.562	571.44
339.79	582.44
340.018	570.44
340.246	563.44
340.474	602.44
340.702	593.44
340.93	591.44
341.158	576.44
341.386	580.44
341.614	564.44
341.842	562.44
342.07	570.44
342.298	578.44
342.526	579.44
342.754	599.44
342.981	578.44
343.209	576.44
343.437	577.44
343.665	566.44
343.893	571.44
344.12	592.44
344.348	576.44
344.576	569.44
344.804	598.44
345.031	578.44
345.259	578.44
345.487	553.44
345.714	586.44
345.942	575.44
346.17	572.44
346.397	571.44
346.625	578.44
346.853	565.44
347.08	587.44
347.308	571.44
347.535	576.44
347.763	604.44
347.99	593.44
348.218	564.44
348.445	575.44
348.673	559.44
348.9	561.44
349.128	574.44
349.355	588.44
349.583	590.44
349.81	555.44
350.037	548.44
350.265	591.44
350.492	570.44
350.72	562.44
350.947	578.44
351.174	575.44
351.402	580.44
351.629	589.44
351.856	576.44
352.083	580.44
352.311	567.44
352.538	575.44
352.765	593.44
352.992	599.44
353.22	580.44
353.447	571.44
353.674	576.44
353.901	600.44
354.128	561.44
354.355	583.44
354.583	560.44
354.81	584.44
355.037	587.44
355.264	578.44
355.491	556.44
355.718	580.44
355.945	576.44
356.172	593.44
356.399	581.44
356.626	592.44
356.853	583.44
357.08	592.44
357.307	573.44
357.534	586.44
357.761	587.44
357.988	584.44
358.215	601.44
358.441	574.44
358.668	598.44
358.895	579.44
359.122	583.44
359.349	605.44
359.576	620.44
359.802	586.44
360.029	591.44
360.256	589.44
360.483	599.44
360.709	569.44
360.936	575.44
361.163	608.44
361.39	604.44
361.616	609.44
361.843	595.44
362.07	599.44
362.296	566.44
362.523	601.44
362.749	603.44
362.976	589.44
363.203	617.44
363.429	613.44
363.656	599.44
363.882	607.44
364.109	605.44
364.335	588.44
364.562	595.44
364.788	604.44
365.015	582.44
365.241	617.44
365.468	599.44
365.694	608.44
365.92	610.44
366.147	595.44
366.373	601.44
366.599	610.44
366.826	613.44
367.052	589.44
367.278	587.44
367.505	611.44
367.731	593.44
367.957	609.44
368.184	613.44
368.41	637.44
368.636	621.44
368.862	628.44
369.089	658.44
369.315	621.44
369.541	630.44
369.767	627.44
369.993	625.44
370.219	628.44
370.445	624.44
370.672	620.44
370.898	623.44
371.124	635.44
371.35	626.44
371.576	620.44
371.802	625.44
372.028	639.44
372.254	623.44
372.48	636.44
372.706	628.44
372.932	621.44
373.158	629.44
373.384	615.44
373.61	625.44
373.835	653.44
374.061	621.44
374.287	665.44
374.513	643.44
374.739	649.44
374.965	637.44
375.191	632.44
375.416	648.44
375.642	640.44
375.868	635.44
376.094	619.44
376.319	631.44
376.545	647.44
376.771	648.44
376.997	639.44
377.222	636.44
377.448	588.44
377.674	627.44
377.899	625.44
378.125	649.44
378.35	623.44
378.576	643.44
378.802	631.44
379.027	615.44
379.253	631.44
379.478	640.44
379.704	654.44
379.929	634.44
380.155	624.44
380.38	627.44
380.606	615.44
380.831	633.44
381.057	637.44
381.282	632.44
381.507	629.44
381.733	645.44
381.958	640.44
382.184	675.44
382.409	647.44
382.634	635.44
382.86	649.44
383.085	646.44
383.31	654.44
383.535	631.44
383.761	659.44
383.986	671.44
384.211	662.44
384.436	664.44
384.662	666.44
384.887	651.44
385.112	658.44
385.337	673.44
385.562	651.44
385.787	677.44
386.013	676.44
386.238	693.44
386.463	661.44
386.688	669.44
386.913	646.44
387.138	663.44
387.363	687.44
387.588	691.44
387.813	687.44
388.038	672.44
388.263	649.44
388.488	675.44
388.713	687.44
388.938	674.44
389.163	660.44
389.387	662.44
389.612	657.44
389.837	682.44
390.062	649.44
390.287	692.44
390.512	668.44
390.736	684.44
390.961	659.44
391.186	684.44
391.411	676.44
391.636	690.44
391.86	693.44
392.085	698.44
392.31	660.44
392.534	677.44
392.759	696.44
392.984	674.44
393.208	700.44
393.433	723.44
393.658	705.44
393.882	673.44
394.107	697.44
394.331	647.44
394.556	682.44
394.78	666.44
395.005	684.44
395.229	668.44
395.454	693.44
395.678	687.44
395.903	706.44
396.127	704.44
396.352	684.44
396.576	692.44
396.801	667.44
397.025	690.44
397.249	713.44
397.474	713.44
397.698	700.44
397.922	669.44
398.147	699.44
398.371	690.44
398.595	708.44
398.82	714.44
399.044	728.44
399.268	741.44
399.492	715.44
399.717	725.44
399.941	755.44
400.165	736.44
400.389	749.44
400.613	735.44
400.837	729.44
401.062	715.44
401.286	751.44
401.51	733.44
401.734	721.44
401.958	729.44
402.182	727.44
402.406	715.44
402.63	770.44
402.854	735.44
403.078	716.44
403.302	709.44
403.526	746.44
403.75	728.44
403.974	714.44
404.198	705.44
404.422	740.44
404.645	738.44
404.869	717.44
405.093	752.44
405.317	742.44
405.541	745.44
405.765	767.44
405.988	739.44
406.212	735.44
406.436	740.44
406.66	746.44
406.883	754.44
407.107	763.44
407.331	779.44
407.555	787.44
407.778	764.44
408.002	727.44
408.226	758.44
408.449	796.44
408.673	762.44
408.896	768.44
409.12	760.44
409.344	753.44
409.567	748.44
409.791	749.44
410.014	769.44
410.238	763.44
410.461	756.44
410.685	738.44
410.908	764.44
411.132	740.44
411.355	736.44
411.578	733.44
411.802	746.44
412.025	756.44
412.249	725.44
412.472	749.44
412.695	756.44
412.919	723.44
413.142	738.44
413.365	732.44
413.589	734.44
413.812	730.44
414.035	753.44
414.258	706.44
414.482	747.44
414.705	721.44
414.928	705.44
415.151	725.44
415.374	729.44
415.597	700.44
415.821	705.44
416.044	724.44
416.267	710.44
416.49	722.44
416.713	686.44
416.936	707.44
417.159	709.44
417.382	719.44
417.605	718.44
417.828	730.44
418.051	716.44
418.274	689.44
418.497	700.44
418.72	709.44
418.943	681.44
419.166	703.44
419.389	758.44
419.611	719.44
419.834	732.44
420.057	721.44
420.28	693.44
420.503	707.44
420.726	698.44
420.948	707.44
421.171	692.44
421.394	705.44
421.617	691.44
421.839	693.44
422.062	700.44
422.285	667.44
422.507	695.44
422.73	714.44
422.953	676.44
423.175	711.44
423.398	682.44
423.621	680.44
423.843	716.44
424.066	693.44
424.288	682.44
424.511	699.44
424.733	712.44
424.956	719.44
425.178	713.44
425.401	724.44
425.623	719.44
425.846	688.44
426.068	707.44
426.291	680.44
426.513	717.44
426.735	699.44
426.958	688.44
427.18	679.44
427.402	691.44
427.625	708.44
427.847	684.44
428.069	685.44
428.292	725.44
428.514	703.44
428.736	711.44
428.958	705.44
429.181	700.44
429.403	692.44
429.625	665.44
429.847	697.44
430.069	684.44
430.292	687.44
430.514	692.44
430.736	710.44
430.958	689.44
431.18	675.44
431.402	691.44
431.624	694.44
431.846	694.44
432.068	681.44
432.29	694.44
432.512	691.44
432.734	689.44
432.956	689.44
433.178	689.44
433.4	695.44
433.622	703.44
433.844	684.44
434.066	683.44
434.287	700.44
434.509	685.44
434.731	693.44
434.953	700.44
435.175	725.44
435.397	692.44
435.618	716.44
435.84	689.44
436.062	693.44
436.284	692.44
436.505	692.44
436.727	700.44
436.949	731.44
437.17	668.44
437.392	680.44
437.614	683.44
437.835	693.44
438.057	665.44
438.278	659.44
438.5	653.44
438.721	665.44
438.943	698.44
439.165	701.44
439.386	665.44
439.608	689.44
439.829	667.44
440.05	689.44
440.272	662.44
440.493	693.44
440.715	704.44
440.936	698.44
441.158	693.44
441.379	692.44
441.6	671.44
441.822	687.44
442.043	673.44
442.264	693.44
442.486	669.44
442.707	684.44
442.928	705.44
443.149	684.44
443.371	719.44
443.592	665.44
443.813	689.44
444.034	688.44
444.255	688.44
444.476	679.44
444.698	709.44
444.919	697.44
445.14	748.44
445.361	744.44
445.582	694.44
445.803	682.44
446.024	664.44
446.245	714.44
446.466	677.44
446.687	691.44
446.908	687.44
447.129	652.44
447.35	659.44
447.571	671.44
447.792	629.44
448.013	659.44
448.234	642.44
448.455	648.44
448.675	653.44
448.896	683.44
449.117	632.44
449.338	671.44
449.559	636.44
449.779	634.44
450	643.44
450.221	648.44
450.442	630.44
450.662	633.44
450.883	646.44
451.104	637.44
451.324	658.44
451.545	632.44
451.766	639.44
451.986	647.44
452.207	636.44
452.428	647.44
452.648	643.44
452.869	636.44
453.089	645.44
453.31	637.44
453.53	634.44
453.751	640.44
453.971	633.44
454.192	656.44
454.412	618.44
454.633	637.44
454.853	636.44
455.073	646.44
455.294	656.44
455.514	651.44
455.734	637.44
455.955	632.44
456.175	649.44
456.395	619.44
456.616	634.44
456.836	629.44
457.056	623.44
457.276	605.44
457.497	659.44
457.717	617.44
457.937	643.44
458.157	627.44
458.377	635.44
458.598	649.44
458.818	634.44
459.038	633.44
459.258	668.44
459.478	661.44
459.698	652.44
459.918	665.44
460.138	659.44
460.358	681.44
460.578	679.44
460.798	685.44
461.018	700.44
461.238	660.44
461.458	690.44
461.678	681.44
461.898	685.44
462.118	668.44
462.338	651.44
462.558	693.44
462.777	693.44
462.997	696.44
463.217	711.44
463.437	716.44
463.657	687.44
463.876	705.44
464.096	717.44
464.316	721.44
464.536	694.44
464.755	688.44
464.975	700.44
465.195	673.44
465.414	690.44
465.634	693.44
465.854	675.44
466.073	669.44
466.293	660.44
466.512	676.44
466.732	659.44
466.951	654.44
467.171	678.44
467.391	681.44
467.61	682.44
467.829	652.44
468.049	687.44
468.268	677.44
468.488	661.44
468.707	690.44
468.927	703.44
469.146	671.44
469.365	667.44
469.585	671.44
469.804	718.44
470.023	697.44
470.243	665.44
470.462	690.44
470.681	694.44
470.901	717.44
471.12	693.44
471.339	679.44
471.558	696.44
471.777	684.44
471.997	704.44
472.216	709.44
472.435	677.44
472.654	709.44
472.873	712.44
473.092	695.44
473.311	709.44
473.53	730.44
473.749	707.44
473.968	723.44
474.187	717.44
474.406	691.44
474.625	718.44
474.844	748.44
475.063	745.44
475.282	740.44
475.501	755.44
475.72	762.44
475.939	743.44
476.158	758.44
476.377	759.44
476.596	761.44
476.814	787.44
477.033	740.44
477.252	773.44
477.471	776.44
477.69	792.44
477.908	799.44
478.127	795.44
478.346	786.44
478.564	796.44
478.783	796.44
479.002	801.44
479.22	834.44
479.439	821.44
479.658	811.44
479.876	804.44
480.095	819.44
480.313	851.44
480.532	781.44
480.751	838.44
480.969	833.44
481.188	843.44
481.406	828.44
481.624	860.44
481.843	851.44
482.061	836.44
482.28	840.44
482.498	843.44
482.717	824.44
482.935	853.44
483.153	863.44
483.372	858.44
483.59	860.44
483.808	844.44
484.027	881.44
484.245	877.44
484.463	881.44
484.681	876.44
484.9	884.44
485.118	869.44
485.336	890.44
485.554	843.44
485.772	857.44
485.99	868.44
486.209	879.44
486.427	857.44
486.645	865.44
486.863	877.44
487.081	910.44
487.299	903.44
487.517	889.44
487.735	905.44
487.953	884.44
488.171	917.44
488.389	892.44
488.607	882.44
488.825	898.44
489.043	896.44
489.261	907.44
489.479	894.44
489.696	896.44
489.914	893.44
490.132	905.44
490.35	895.44
490.568	876.44
490.786	905.44
491.003	902.44
491.221	913.44
491.439	908.44
491.657	893.44
491.874	914.44
492.092	915.44
492.31	934.44
492.527	921.44
492.745	902.44
492.963	918.44
493.18	920.44
493.398	897.44
493.615	936.44
493.833	930.44
494.05	896.44
494.268	901.44
494.485	915.44
494.703	925.44
494.92	916.44
495.138	938.44
495.355	950.44
495.573	949.44
495.79	916.44
496.008	908.44
496.225	950.44
496.442	927.44
496.66	935.44
496.877	927.44
497.094	948.44
497.312	957.44
497.529	922.44
497.746	959.44
497.963	939.44
498.181	958.44
498.398	957.44
498.615	981.44
498.832	969.44
499.049	981.44
499.267	994.44
499.484	1007.44
499.701	1023.44
499.918	1030.44
500.135	1035.44
500.352	1068.44
500.569	1073.44
500.786	1053.44
501.003	1041.44
501.22	1026.44
501.437	1004.44
501.654	1000.44
501.871	993.44
502.088	1012.44
502.305	969.44
502.522	966.44
502.739	975.44
502.956	961.44
503.172	967.44
503.389	921.44
503.606	906.44
503.823	938.44
504.04	918.44
504.256	922.44
504.473	940.44
504.69	912.44
504.907	908.44
505.123	890.44
505.34	911.44
505.557	875.44
505.773	889.44
505.99	883.44
506.207	872.44
506.423	875.44
506.64	872.44
506.856	848.44
507.073	859.44
507.289	844.44
507.506	826.44
507.722	829.44
507.939	851.44
508.155	851.44
508.372	858.44
508.588	803.44
508.805	839.44
509.021	839.44
509.238	835.44
509.454	813.44
509.67	821.44
509.887	807.44
510.103	811.44
510.319	809.44
510.536	803.44
510.752	797.44
510.968	791.44
511.184	765.44
511.401	778.44
511.617	783.44
511.833	817.44
512.049	801.44
512.265	789.44
512.481	795.44
512.698	769.44
512.914	802.44
513.13	800.44
513.346	761.44
513.562	781.44
513.778	781.44
513.994	771.44
514.21	791.44
514.426	788.44
514.642	813.44
514.858	794.44
515.074	776.44
515.29	795.44
515.506	767.44
515.721	794.44
515.937	794.44
516.153	823.44
516.369	791.44
516.585	799.44
516.801	775.44
517.016	796.44
517.232	812.44
517.448	788.44
517.664	808.44
517.879	828.44
518.095	799.44
518.311	807.44
518.527	796.44
518.742	786.44
518.958	795.44
519.173	771.44
519.389	789.44
519.605	786.44
519.82	791.44
520.036	790.44
520.251	770.44
520.467	775.44
520.682	775.44
520.898	733.44
521.113	744.44
521.329	772.44
521.544	755.44
521.76	769.44
521.975	801.44
522.19	766.44
522.406	795.44
522.621	760.44
522.836	767.44
523.052	724.44
523.267	753.44
523.482	781.44
523.698	782.44
523.913	747.44
524.128	756.44
524.343	733.44
524.559	743.44
524.774	756.44
524.989	739.44
525.204	765.44
525.419	759.44
525.634	745.44
525.849	748.44
526.064	748.44
526.28	751.44
526.495	730.44
526.71	758.44
526.925	740.44
527.14	735.44
527.355	758.44
527.57	744.44
527.785	711.44
527.999	731.44
528.214	723.44
528.429	708.44
528.644	736.44
528.859	748.44
529.074	727.44
529.289	739.44
529.503	723.44
529.718	745.44
529.933	744.44
530.148	727.44
530.363	733.44
530.577	727.44
530.792	711.44
531.007	728.44
531.221	710.44
531.436	737.44
531.651	723.44
531.865	720.44
532.08	695.44
532.295	691.44
532.509	707.44
532.724	699.44
532.938	719.44
533.153	701.44
533.367	720.44
533.582	679.44
533.796	717.44
534.011	706.44
534.225	711.44
534.44	697.44
534.654	685.44
534.868	695.44
535.083	695.44
535.297	725.44
535.511	709.44
535.726	676.44
535.94	684.44
536.154	675.44
536.369	689.44
536.583	697.44
536.797	689.44
537.011	689.44
537.225	678.44
537.44	699.44
537.654	695.44
537.868	672.44
538.082	687.44
538.296	693.44
538.51	667.44
538.724	674.44
538.938	695.44
539.153	669.44
539.367	682.44
539.581	679.44
539.795	640.44
540.009	683.44
540.222	684.44
540.436	670.44
540.65	679.44
540.864	682.44
541.078	684.44
541.292	667.44
541.506	663.44
541.72	675.44
541.934	653.44
542.147	689.44
542.361	671.44
542.575	649.44
542.789	660.44
543.002	659.44
543.216	682.44
543.43	659.44
543.644	658.44
543.857	650.44
544.071	666.44
544.285	655.44
544.498	653.44
544.712	636.44
544.925	652.44
545.139	649.44
545.352	645.44
545.566	648.44
545.779	636.44
545.993	665.44
546.206	646.44
546.42	655.44
546.633	659.44
546.847	635.44
547.06	646.44
547.274	659.44
547.487	625.44
547.7	641.44
547.914	654.44
548.127	624.44
548.34	659.44
548.554	653.44
548.767	667.44
548.98	621.44
549.193	619.44
549.407	625.44
549.62	633.44
549.833	646.44
550.046	647.44
550.259	641.44
550.473	639.44
550.686	645.44
550.899	627.44
551.112	625.44
551.325	632.44
551.538	643.44
551.751	604.44
551.964	609.44
552.177	616.44
552.39	617.44
552.603	616.44
552.816	626.44
553.029	629.44
553.242	627.44
553.455	611.44
553.667	614.44
553.88	621.44
554.093	653.44
554.306	616.44
554.519	607.44
554.732	606.44
554.944	616.44
555.157	592.44
555.37	601.44
555.583	576.44
555.795	607.44
556.008	594.44
556.221	587.44
556.433	605.44
556.646	583.44
556.859	576.44
557.071	589.44
557.284	583.44
557.496	586.44
557.709	567.44
557.921	594.44
558.134	568.44
558.346	591.44
558.559	571.44
558.771	540.44
558.984	567.44
559.196	552.44
559.409	585.44
559.621	582.44
559.833	566.44
560.046	557.44
560.258	583.44
560.47	564.44
560.683	552.44
560.895	586.44
561.107	559.44
561.32	565.44
561.532	549.44
561.744	553.44
561.956	572.44
562.168	553.44
562.381	569.44
562.593	559.44
562.805	564.44
563.017	547.44
563.229	551.44
563.441	537.44
563.653	572.44
563.865	549.44
564.077	561.44
564.289	538.44
564.501	556.44
564.713	549.44
564.925	564.44
565.137	544.44
565.349	568.44
565.561	568.44
565.773	549.44
565.985	552.44
566.197	533.44
566.408	561.44
566.62	562.44
566.832	548.44
567.044	530.44
567.255	581.44
567.467	543.44
567.679	551.44
567.891	556.44
568.102	521.44
568.314	516.44
568.526	548.44
568.737	533.44
568.949	511.44
569.161	516.44
569.372	536.44
569.584	522.44
569.795	522.44
570.007	508.44
570.218	518.44
570.43	506.44
570.641	539.44
570.853	511.44
571.064	489.44
571.276	504.44
571.487	487.44
571.698	480.44
571.91	482.44
572.121	479.44
572.333	508.44
572.544	480.44
572.755	476.44
572.966	469.44
573.178	486.44
573.389	466.44
573.6	457.44
573.811	460.44
574.023	442.44
574.234	468.44
574.445	479.44
574.656	455.44
574.867	447.44
575.078	438.44
575.289	459.44
575.501	442.44
575.712	451.44
575.923	445.44
576.134	432.44
576.345	435.44
576.556	446.44
576.767	447.44
576.978	441.44
577.188	431.44
577.399	449.44
577.61	446.44
577.821	427.44
578.032	426.44
578.243	423.44
578.454	431.44
578.665	446.44
578.875	420.44
579.086	424.44
579.297	427.44
579.508	419.44
579.718	425.44
579.929	434.44
580.14	425.44
580.35	419.44
580.561	416.44
580.772	420.44
580.982	412.44
581.193	447.44
581.403	401.44
581.614	407.44
581.825	426.44
582.035	412.44
582.246	411.44
582.456	412.44
582.667	406.44
582.877	398.44
583.087	412.44
583.298	404.44
583.508	403.44
583.719	409.44
583.929	390.44
584.139	403.44
584.35	381.44
584.56	403.44
584.77	361.44
584.981	383.44
585.191	399.44
585.401	377.44
585.611	363.44
585.821	367.44
586.032	375.44
586.242	385.44
586.452	371.44
586.662	395.44
586.872	378.44
587.082	378.44
587.292	377.44
587.502	378.44
587.713	377.44
587.923	375.44
588.133	377.44
588.343	402.44
588.553	369.44
588.762	369.44
588.972	392.44
589.182	404.44
589.392	383.44
589.602	385.44
589.812	378.44
590.022	375.44
590.232	371.44
590.441	369.44
590.651	374.44
590.861	343.44
591.071	373.44
591.281	381.44
591.49	381.44
591.7	364.44
591.91	383.44
592.119	369.44
592.329	360.44
592.539	359.44
592.748	363.44
592.958	353.44
593.167	385.44
593.377	358.44
593.587	377.44
593.796	369.44
594.006	354.44
594.215	366.44
594.424	340.44
594.634	375.44
594.843	371.44
595.053	349.44
595.262	371.44
595.472	362.44
595.681	341.44
595.89	340.44
596.1	344.44
596.309	339.44
596.518	355.44
596.727	348.44
596.937	343.44
597.146	348.44
597.355	342.44
597.564	357.44
597.774	328.44
597.983	351.44
598.192	335.44
598.401	336.44
598.61	353.44
598.819	329.44
599.028	322.44
599.237	320.44
599.446	340.44
599.655	342.44
599.864	322.44
600.073	333.44
600.282	314.44
600.491	313.44
600.7	323.44
600.909	316.44
601.118	311.44
601.327	324.44
601.536	317.44
601.745	321.44
601.953	329.44
602.162	315.44
602.371	330.44
602.58	312.44
602.789	314.44
602.997	309.44
603.206	306.44
603.415	320.44
603.623	304.44
603.832	316.44
604.041	311.44
604.249	314.44
604.458	289.44
604.666	321.44
604.875	307.44
605.084	306.44
605.292	314.44
605.501	300.44
605.709	289.44
605.918	290.44
606.126	316.44
606.334	313.44
606.543	304.44
606.751	312.44
606.96	320.44
607.168	298.44
607.376	317.44
607.585	327.44
607.793	322.44
608.001	288.44
608.21	298.44
608.418	301.44
608.626	311.44
608.834	303.44
609.043	301.44
609.251	296.44
609.459	301.44
609.667	324.44
609.875	300.44
610.083	277.44
610.291	292.44
610.499	304.44
610.707	298.44
610.916	280.44
611.124	308.44
611.332	289.44
611.54	292.44
611.748	296.44
611.955	278.44
612.163	292.44
612.371	292.44
612.579	292.44
612.787	267.44
612.995	289.44
613.203	297.44
613.411	281.44
613.618	292.44
613.826	293.44
614.034	304.44
614.242	301.44
614.449	303.44
614.657	310.44
614.865	292.44
615.072	292.44
615.28	287.44
615.488	273.44
615.695	285.44
615.903	287.44
616.111	288.44
616.318	277.44
616.526	280.44
616.733	263.44
616.941	283.44
617.148	281.44
617.356	280.44
617.563	281.44
617.771	298.44
617.978	269.44
618.185	275.44
618.393	279.44
618.6	268.44
618.807	294.44
619.015	286.44
619.222	277.44
619.429	277.44
619.637	288.44
619.844	261.44
620.051	251.44
620.258	253.44
620.466	282.44
620.673	255.44
620.88	273.44
621.087	266.44
621.294	283.44
621.501	252.44
621.708	258.44
621.915	251.44
622.122	257.44
622.329	273.44
622.536	266.44
622.743	245.44
622.95	266.44
623.157	265.44
623.364	257.44
623.571	259.44
623.778	258.44
623.985	266.44
624.192	248.44
624.399	253.44
624.606	256.44
624.812	271.44
625.019	274.44
625.226	251.44
625.433	258.44
625.639	261.44
625.846	259.44
626.053	259.44
626.259	268.44
626.466	249.44
626.673	241.44
626.879	244.44
627.086	225.44
627.293	231.44
627.499	241.44
627.706	247.44
627.912	258.44
628.119	257.44
628.325	240.44
628.532	226.44
628.738	232.44
628.945	245.44
629.151	211.44
629.357	243.44
629.564	236.44
629.77	250.44
629.976	229.44
630.183	242.44
630.389	230.44
630.595	236.44
630.802	225.44
631.008	241.44
631.214	235.44
631.42	226.44
631.627	241.44
631.833	239.44
632.039	228.44
632.245	233.44
632.451	239.44
632.657	230.44
632.863	218.44
633.069	236.44
633.275	232.44
633.481	210.44
633.688	222.44
633.893	227.44
634.099	223.44
634.305	229.44
634.511	219.44
634.717	215.44
634.923	225.44
635.129	226.44
635.335	228.44
635.541	224.44
635.747	217.44
635.952	223.44
636.158	218.44
636.364	211.44
636.57	200.44
636.775	223.44
636.981	217.44
637.187	211.44
637.392	222.44
637.598	219.44
637.804	218.44
638.009	208.44
638.215	219.44
638.421	218.44
638.626	231.44
638.832	211.44
639.037	208.44
639.243	229.44
639.448	201.44
639.654	203.44
639.859	209.44
640.065	215.44
640.27	206.44
640.475	205.44
640.681	203.44
640.886	208.44
641.091	216.44
641.297	218.44
641.502	208.44
641.707	207.44
641.913	201.44
642.118	205.44
642.323	201.44
642.528	205.44
642.733	201.44
642.939	219.44
643.144	220.44
643.349	209.44
643.554	217.44
643.759	195.44
643.964	203.44
644.169	206.44
644.374	207.44
644.579	210.44
644.784	190.44
644.989	201.44
645.194	209.44
645.399	201.44
645.604	199.44
645.809	199.44
646.014	207.44
646.219	210.44
646.423	201.44
646.628	205.44
646.833	208.44
647.038	193.44
647.243	187.44
647.447	215.44
647.652	215.44
647.857	218.44
648.062	249.44
648.266	215.44
648.471	200.44
648.676	218.44
648.88	216.44
649.085	202.44
649.289	212.44
649.494	217.44
649.698	205.44
649.903	192.44
650.107	184.44
650.312	199.44
650.516	196.44
650.721	198.44
650.925	209.44
651.13	186.44
651.334	182.44
651.539	194.44
651.743	200.44
651.947	219.44
652.152	195.44
652.356	202.44
652.56	191.44
652.764	187.44
652.969	199.44
653.173	173.44
653.377	184.44
653.581	178.44
653.785	184.44
653.99	173.44
654.194	194.44
654.398	177.44
654.602	172.44
654.806	172.44
655.01	162.44
655.214	154.44
655.418	173.44
655.622	167.44
655.826	177.44
656.03	186.44
656.234	169.44
656.438	187.44
656.642	162.44
656.846	148.44
657.049	161.44
657.253	154.44
657.457	149.44
657.661	143.44
657.865	145.44
658.068	121.44
658.272	139.44
658.476	139.44
658.68	126.44
658.883	122.44
659.087	119.44
659.291	124.44
659.494	119.44
659.698	113.44
659.901	118.44
660.105	111.44
660.309	103.44
660.512	98.44
660.716	98.44
660.919	117.44
661.123	127.44
661.326	115.44
661.53	98.44
661.733	78.44
661.936	98.44
662.14	79.44
662.343	83.44
662.546	91.44
662.75	92.44
662.953	100.44
663.156	99.44
663.36	92.44
663.563	79.44
663.766	91.44
663.969	91.44
664.173	84.44
664.376	79.44
664.579	83.44
664.782	88.44
664.985	83.44
665.188	85.44
665.391	90.44
665.594	83.44
665.797	81.44
666	85.44
666.203	82.44
666.406	77.44
666.609	96.44
666.812	81.44
667.015	73.44
667.218	71.44
667.421	83.44
667.624	79.44
667.827	87.44
668.03	63.44
668.232	77.44
668.435	92.44
668.638	90.44
668.841	84.44
669.043	75.44
669.246	90.44
669.449	82.44
669.651	84.44
669.854	79.44
670.057	83.44
670.259	89.44
670.462	77.44
670.665	87.44
670.867	88.44
671.07	83.44
671.272	89.44
671.475	78.44
671.677	84.44
671.88	75.44
672.082	100.44
672.284	69.44
672.487	89.44
672.689	89.44
672.892	72.44
