Data from Fe(NO3)3@0.1M.TitratingCurve.Agarose3%dH2O.NegLispCup.LampEnergy10.LIBS07252019_HRD10591_16-41-49-333.txt Node
Date: Thu Jul 25 16:41:49 EDT 2019
User: cochatt
Spectrometer: HR+D1059
Trigger mode: 1
Integration Time (sec): 1.000000E-1
Scans to average: 1
Electric dark correction enabled: true
Nonlinearity correction enabled: false
Boxcar width: 0
XAxis mode: Wavelengths
Number of Pixels in Spectrum: 2048
>>>>>Begin Spectral Data<<<<<
223.165	-22.12
223.4	-22.12
223.635	-22.12
223.869	-9.12
224.104	-22.12
224.338	-24.12
224.573	-1.12
224.808	-5.12
225.042	-10.12
225.277	-13.12
225.511	-13.12
225.746	-0.12
225.98	10.88
226.215	4.88
226.449	19.88
226.683	31.88
226.918	12.88
227.152	39.88
227.387	25.88
227.621	30.88
227.856	40.88
228.09	54.88
228.324	39.88
228.559	52.88
228.793	55.88
229.027	72.88
229.262	86.88
229.496	79.88
229.73	86.88
229.964	88.88
230.199	86.88
230.433	82.88
230.667	87.88
230.901	84.88
231.136	90.88
231.37	102.88
231.604	106.88
231.838	95.88
232.072	93.88
232.306	100.88
232.541	80.88
232.775	112.88
233.009	85.88
233.243	98.88
233.477	100.88
233.711	101.88
233.945	104.88
234.179	92.88
234.413	98.88
234.647	77.88
234.881	92.88
235.115	116.88
235.349	94.88
235.583	106.88
235.817	98.88
236.051	100.88
236.285	106.88
236.519	91.88
236.753	88.88
236.987	103.88
237.221	102.88
237.455	103.88
237.689	98.88
237.922	96.88
238.156	98.88
238.39	93.88
238.624	107.88
238.858	100.88
239.091	102.88
239.325	101.88
239.559	106.88
239.793	99.88
240.027	106.88
240.26	91.88
240.494	105.88
240.728	93.88
240.961	98.88
241.195	107.88
241.429	100.88
241.662	110.88
241.896	96.88
242.13	111.88
242.363	110.88
242.597	88.88
242.83	104.88
243.064	112.88
243.298	110.88
243.531	104.88
243.765	98.88
243.998	119.88
244.232	120.88
244.465	111.88
244.699	114.88
244.932	114.88
245.166	127.88
245.399	105.88
245.633	106.88
245.866	108.88
246.099	108.88
246.333	111.88
246.566	111.88
246.8	109.88
247.033	118.88
247.266	101.88
247.5	124.88
247.733	119.88
247.966	116.88
248.2	119.88
248.433	107.88
248.666	122.88
248.899	108.88
249.133	134.88
249.366	121.88
249.599	121.88
249.832	122.88
250.066	126.88
250.299	121.88
250.532	121.88
250.765	131.88
250.998	107.88
251.231	109.88
251.465	116.88
251.698	128.88
251.931	125.88
252.164	133.88
252.397	121.88
252.63	120.88
252.863	126.88
253.096	114.88
253.329	120.88
253.562	111.88
253.795	103.88
254.028	118.88
254.261	129.88
254.494	128.88
254.727	126.88
254.96	137.88
255.193	115.88
255.426	134.88
255.659	121.88
255.892	122.88
256.124	118.88
256.357	138.88
256.59	142.88
256.823	131.88
257.056	126.88
257.289	127.88
257.521	128.88
257.754	135.88
257.987	137.88
258.22	138.88
258.452	135.88
258.685	130.88
258.918	142.88
259.151	155.88
259.383	115.88
259.616	134.88
259.849	128.88
260.081	130.88
260.314	140.88
260.547	135.88
260.779	143.88
261.012	128.88
261.244	134.88
261.477	142.88
261.71	126.88
261.942	125.88
262.175	142.88
262.407	135.88
262.64	134.88
262.872	154.88
263.105	152.88
263.337	144.88
263.57	148.88
263.802	164.88
264.035	140.88
264.267	145.88
264.499	137.88
264.732	140.88
264.964	144.88
265.197	140.88
265.429	149.88
265.661	135.88
265.894	147.88
266.126	141.88
266.358	156.88
266.591	149.88
266.823	149.88
267.055	134.88
267.287	155.88
267.52	132.88
267.752	158.88
267.984	159.88
268.216	156.88
268.448	142.88
268.681	158.88
268.913	151.88
269.145	156.88
269.377	165.88
269.609	149.88
269.841	168.88
270.073	142.88
270.306	138.88
270.538	151.88
270.77	142.88
271.002	139.88
271.234	140.88
271.466	146.88
271.698	154.88
271.93	153.88
272.162	150.88
272.394	165.88
272.626	158.88
272.858	162.88
273.09	158.88
273.322	150.88
273.553	159.88
273.785	174.88
274.017	155.88
274.249	163.88
274.481	167.88
274.713	147.88
274.945	157.88
275.176	164.88
275.408	167.88
275.64	163.88
275.872	151.88
276.104	188.88
276.335	164.88
276.567	150.88
276.799	168.88
277.031	157.88
277.262	157.88
277.494	168.88
277.726	168.88
277.957	177.88
278.189	177.88
278.421	166.88
278.652	165.88
278.884	159.88
279.115	170.88
279.347	174.88
279.579	184.88
279.81	164.88
280.042	169.88
280.273	172.88
280.505	171.88
280.736	171.88
280.968	161.88
281.199	182.88
281.431	172.88
281.662	184.88
281.894	186.88
282.125	163.88
282.356	171.88
282.588	179.88
282.819	178.88
283.051	194.88
283.282	185.88
283.513	178.88
283.745	184.88
283.976	168.88
284.207	204.88
284.439	186.88
284.67	168.88
284.901	168.88
285.132	186.88
285.364	194.88
285.595	170.88
285.826	190.88
286.057	175.88
286.288	199.88
286.52	190.88
286.751	187.88
286.982	202.88
287.213	183.88
287.444	207.88
287.675	187.88
287.906	185.88
288.138	180.88
288.369	206.88
288.6	180.88
288.831	195.88
289.062	197.88
289.293	177.88
289.524	165.88
289.755	185.88
289.986	174.88
290.217	204.88
290.448	182.88
290.679	191.88
290.91	189.88
291.141	195.88
291.371	192.88
291.602	188.88
291.833	186.88
292.064	197.88
292.295	200.88
292.526	187.88
292.757	194.88
292.987	183.88
293.218	203.88
293.449	183.88
293.68	201.88
293.91	199.88
294.141	183.88
294.372	185.88
294.603	195.88
294.833	207.88
295.064	185.88
295.295	190.88
295.525	204.88
295.756	188.88
295.987	190.88
296.217	193.88
296.448	208.88
296.679	208.88
296.909	197.88
297.14	194.88
297.37	193.88
297.601	212.88
297.831	202.88
298.062	212.88
298.292	205.88
298.523	204.88
298.753	200.88
298.984	206.88
299.214	204.88
299.445	221.88
299.675	212.88
299.905	207.88
300.136	215.88
300.366	210.88
300.597	210.88
300.827	221.88
301.057	222.88
301.288	229.88
301.518	220.88
301.748	223.88
301.979	213.88
302.209	221.88
302.439	197.88
302.669	209.88
302.9	213.88
303.13	209.88
303.36	219.88
303.59	207.88
303.82	214.88
304.051	214.88
304.281	210.88
304.511	220.88
304.741	215.88
304.971	213.88
305.201	204.88
305.431	216.88
305.661	212.88
305.891	223.88
306.121	216.88
306.352	204.88
306.582	208.88
306.812	221.88
307.042	220.88
307.272	228.88
307.502	211.88
307.731	230.88
307.961	230.88
308.191	229.88
308.421	199.88
308.651	211.88
308.881	204.88
309.111	208.88
309.341	210.88
309.571	202.88
309.8	211.88
310.03	207.88
310.26	208.88
310.49	217.88
310.72	207.88
310.949	216.88
311.179	233.88
311.409	226.88
311.639	214.88
311.868	227.88
312.098	215.88
312.328	232.88
312.557	220.88
312.787	234.88
313.017	230.88
313.246	248.88
313.476	242.88
313.706	239.88
313.935	226.88
314.165	229.88
314.394	228.88
314.624	233.88
314.853	231.88
315.083	221.88
315.312	214.88
315.542	221.88
315.771	255.88
316.001	234.88
316.23	220.88
316.46	222.88
316.689	233.88
316.919	225.88
317.148	247.88
317.377	239.88
317.607	224.88
317.836	223.88
318.065	235.88
318.295	224.88
318.524	220.88
318.753	225.88
318.983	228.88
319.212	247.88
319.441	233.88
319.67	229.88
319.9	233.88
320.129	231.88
320.358	212.88
320.587	218.88
320.816	227.88
321.046	220.88
321.275	223.88
321.504	229.88
321.733	220.88
321.962	235.88
322.191	242.88
322.42	235.88
322.649	216.88
322.878	246.88
323.108	229.88
323.337	246.88
323.566	234.88
323.795	235.88
324.024	234.88
324.253	242.88
324.482	244.88
324.71	246.88
324.939	238.88
325.168	255.88
325.397	260.88
325.626	269.88
325.855	241.88
326.084	247.88
326.313	253.88
326.542	246.88
326.77	259.88
326.999	245.88
327.228	246.88
327.457	271.88
327.686	254.88
327.914	260.88
328.143	251.88
328.372	237.88
328.6	247.88
328.829	229.88
329.058	251.88
329.287	256.88
329.515	251.88
329.744	261.88
329.972	272.88
330.201	257.88
330.43	243.88
330.658	261.88
330.887	260.88
331.115	281.88
331.344	254.88
331.572	276.88
331.801	276.88
332.03	284.88
332.258	272.88
332.486	286.88
332.715	298.88
332.943	298.88
333.172	298.88
333.4	318.88
333.629	328.88
333.857	307.88
334.085	326.88
334.314	317.88
334.542	312.88
334.771	320.88
334.999	299.88
335.227	306.88
335.455	292.88
335.684	290.88
335.912	297.88
336.14	298.88
336.369	307.88
336.597	291.88
336.825	269.88
337.053	293.88
337.281	298.88
337.51	281.88
337.738	310.88
337.966	280.88
338.194	264.88
338.422	273.88
338.65	267.88
338.878	266.88
339.106	264.88
339.334	287.88
339.562	268.88
339.79	261.88
340.018	274.88
340.246	264.88
340.474	270.88
340.702	246.88
340.93	250.88
341.158	254.88
341.386	271.88
341.614	275.88
341.842	264.88
342.07	251.88
342.298	261.88
342.526	257.88
342.754	252.88
342.981	254.88
343.209	267.88
343.437	287.88
343.665	302.88
343.893	292.88
344.12	310.88
344.348	287.88
344.576	278.88
344.804	282.88
345.031	271.88
345.259	298.88
345.487	276.88
345.714	275.88
345.942	263.88
346.17	267.88
346.397	242.88
346.625	258.88
346.853	246.88
347.08	266.88
347.308	240.88
347.535	266.88
347.763	264.88
347.99	269.88
348.218	251.88
348.445	248.88
348.673	260.88
348.9	266.88
349.128	250.88
349.355	258.88
349.583	243.88
349.81	247.88
350.037	243.88
350.265	243.88
350.492	248.88
350.72	252.88
350.947	258.88
351.174	265.88
351.402	261.88
351.629	268.88
351.856	260.88
352.083	250.88
352.311	262.88
352.538	261.88
352.765	259.88
352.992	252.88
353.22	252.88
353.447	245.88
353.674	258.88
353.901	254.88
354.128	246.88
354.355	279.88
354.583	258.88
354.81	247.88
355.037	241.88
355.264	247.88
355.491	237.88
355.718	260.88
355.945	249.88
356.172	260.88
356.399	261.88
356.626	260.88
356.853	258.88
357.08	254.88
357.307	276.88
357.534	246.88
357.761	280.88
357.988	259.88
358.215	251.88
358.441	270.88
358.668	261.88
358.895	262.88
359.122	250.88
359.349	249.88
359.576	262.88
359.802	240.88
360.029	263.88
360.256	270.88
360.483	258.88
360.709	243.88
360.936	242.88
361.163	253.88
361.39	265.88
361.616	268.88
361.843	262.88
362.07	259.88
362.296	264.88
362.523	248.88
362.749	252.88
362.976	242.88
363.203	258.88
363.429	257.88
363.656	261.88
363.882	262.88
364.109	250.88
364.335	261.88
364.562	266.88
364.788	260.88
365.015	240.88
365.241	266.88
365.468	271.88
365.694	262.88
365.92	261.88
366.147	256.88
366.373	277.88
366.599	262.88
366.826	276.88
367.052	253.88
367.278	264.88
367.505	265.88
367.731	260.88
367.957	259.88
368.184	272.88
368.41	276.88
368.636	257.88
368.862	272.88
369.089	262.88
369.315	258.88
369.541	266.88
369.767	269.88
369.993	268.88
370.219	265.88
370.445	272.88
370.672	270.88
370.898	263.88
371.124	292.88
371.35	263.88
371.576	264.88
371.802	273.88
372.028	299.88
372.254	272.88
372.48	297.88
372.706	276.88
372.932	294.88
373.158	290.88
373.384	293.88
373.61	292.88
373.835	288.88
374.061	281.88
374.287	279.88
374.513	293.88
374.739	307.88
374.965	299.88
375.191	298.88
375.416	301.88
375.642	290.88
375.868	302.88
376.094	300.88
376.319	285.88
376.545	279.88
376.771	277.88
376.997	274.88
377.222	277.88
377.448	268.88
377.674	278.88
377.899	281.88
378.125	291.88
378.35	287.88
378.576	261.88
378.802	283.88
379.027	284.88
379.253	278.88
379.478	272.88
379.704	286.88
379.929	287.88
380.155	293.88
380.38	294.88
380.606	286.88
380.831	274.88
381.057	292.88
381.282	282.88
381.507	303.88
381.733	306.88
381.958	283.88
382.184	280.88
382.409	291.88
382.634	310.88
382.86	279.88
383.085	293.88
383.31	307.88
383.535	299.88
383.761	301.88
383.986	316.88
384.211	320.88
384.436	308.88
384.662	333.88
384.887	329.88
385.112	319.88
385.337	322.88
385.562	320.88
385.787	333.88
386.013	344.88
386.238	334.88
386.463	327.88
386.688	327.88
386.913	295.88
387.138	325.88
387.363	308.88
387.588	326.88
387.813	344.88
388.038	324.88
388.263	315.88
388.488	333.88
388.713	299.88
388.938	321.88
389.163	325.88
389.387	328.88
389.612	330.88
389.837	313.88
390.062	331.88
390.287	317.88
390.512	323.88
390.736	322.88
390.961	343.88
391.186	336.88
391.411	331.88
391.636	344.88
391.86	354.88
392.085	352.88
392.31	370.88
392.534	356.88
392.759	346.88
392.984	365.88
393.208	347.88
393.433	340.88
393.658	352.88
393.882	345.88
394.107	327.88
394.331	336.88
394.556	345.88
394.78	359.88
395.005	357.88
395.229	372.88
395.454	355.88
395.678	361.88
395.903	348.88
396.127	356.88
396.352	354.88
396.576	342.88
396.801	341.88
397.025	342.88
397.249	356.88
397.474	372.88
397.698	373.88
397.922	362.88
398.147	353.88
398.371	372.88
398.595	374.88
398.82	395.88
399.044	454.88
399.268	460.88
399.492	523.88
399.717	536.88
399.941	531.88
400.165	479.88
400.389	442.88
400.613	424.88
400.837	401.88
401.062	413.88
401.286	416.88
401.51	397.88
401.734	365.88
401.958	420.88
402.182	414.88
402.406	408.88
402.63	393.88
402.854	404.88
403.078	410.88
403.302	406.88
403.526	416.88
403.75	424.88
403.974	434.88
404.198	455.88
404.422	418.88
404.645	445.88
404.869	460.88
405.093	441.88
405.317	426.88
405.541	425.88
405.765	427.88
405.988	426.88
406.212	429.88
406.436	425.88
406.66	429.88
406.883	439.88
407.107	471.88
407.331	467.88
407.555	465.88
407.778	500.88
408.002	454.88
408.226	458.88
408.449	456.88
408.673	439.88
408.896	443.88
409.12	434.88
409.344	446.88
409.567	450.88
409.791	463.88
410.014	454.88
410.238	438.88
410.461	431.88
410.685	410.88
410.908	408.88
411.132	400.88
411.355	409.88
411.578	429.88
411.802	400.88
412.025	404.88
412.249	448.88
412.472	413.88
412.695	389.88
412.919	395.88
413.142	396.88
413.365	399.88
413.589	415.88
413.812	377.88
414.035	427.88
414.258	403.88
414.482	442.88
414.705	414.88
414.928	417.88
415.151	410.88
415.374	402.88
415.597	420.88
415.821	400.88
416.044	397.88
416.267	392.88
416.49	411.88
416.713	386.88
416.936	398.88
417.159	398.88
417.382	376.88
417.605	367.88
417.828	404.88
418.051	391.88
418.274	408.88
418.497	395.88
418.72	396.88
418.943	402.88
419.166	408.88
419.389	422.88
419.611	446.88
419.834	430.88
420.057	421.88
420.28	407.88
420.503	384.88
420.726	394.88
420.948	399.88
421.171	394.88
421.394	405.88
421.617	409.88
421.839	400.88
422.062	418.88
422.285	400.88
422.507	419.88
422.73	404.88
422.953	420.88
423.175	401.88
423.398	410.88
423.621	403.88
423.843	413.88
424.066	442.88
424.288	423.88
424.511	413.88
424.733	396.88
424.956	399.88
425.178	390.88
425.401	383.88
425.623	384.88
425.846	404.88
426.068	406.88
426.291	380.88
426.513	384.88
426.735	362.88
426.958	367.88
427.18	362.88
427.402	379.88
427.625	360.88
427.847	375.88
428.069	371.88
428.292	382.88
428.514	354.88
428.736	379.88
428.958	361.88
429.181	376.88
429.403	377.88
429.625	373.88
429.847	351.88
430.069	365.88
430.292	380.88
430.514	360.88
430.736	376.88
430.958	371.88
431.18	363.88
431.402	373.88
431.624	360.88
431.846	366.88
432.068	359.88
432.29	359.88
432.512	355.88
432.734	364.88
432.956	365.88
433.178	372.88
433.4	390.88
433.622	383.88
433.844	354.88
434.066	370.88
434.287	382.88
434.509	373.88
434.731	408.88
434.953	391.88
435.175	412.88
435.397	409.88
435.618	383.88
435.84	390.88
436.062	384.88
436.284	371.88
436.505	377.88
436.727	372.88
436.949	370.88
437.17	363.88
437.392	356.88
437.614	343.88
437.835	349.88
438.057	372.88
438.278	372.88
438.5	371.88
438.721	373.88
438.943	367.88
439.165	352.88
439.386	382.88
439.608	392.88
439.829	381.88
440.05	378.88
440.272	367.88
440.493	376.88
440.715	378.88
440.936	388.88
441.158	404.88
441.379	400.88
441.6	395.88
441.822	433.88
442.043	407.88
442.264	413.88
442.486	410.88
442.707	410.88
442.928	395.88
443.149	400.88
443.371	408.88
443.592	418.88
443.813	419.88
444.034	404.88
444.255	438.88
444.476	430.88
444.698	455.88
444.919	463.88
445.14	570.88
445.361	472.88
445.582	424.88
445.803	414.88
446.024	402.88
446.245	415.88
446.466	405.88
446.687	384.88
446.908	399.88
447.129	385.88
447.35	378.88
447.571	383.88
447.792	377.88
448.013	375.88
448.234	364.88
448.455	339.88
448.675	351.88
448.896	349.88
449.117	361.88
449.338	346.88
449.559	342.88
449.779	340.88
450	341.88
450.221	340.88
450.442	352.88
450.662	351.88
450.883	362.88
451.104	355.88
451.324	348.88
451.545	363.88
451.766	363.88
451.986	352.88
452.207	357.88
452.428	358.88
452.648	363.88
452.869	341.88
453.089	326.88
453.31	318.88
453.53	318.88
453.751	313.88
453.971	331.88
454.192	338.88
454.412	334.88
454.633	345.88
454.853	340.88
455.073	330.88
455.294	348.88
455.514	333.88
455.734	329.88
455.955	324.88
456.175	329.88
456.395	328.88
456.616	320.88
456.836	321.88
457.056	326.88
457.276	307.88
457.497	322.88
457.717	326.88
457.937	343.88
458.157	330.88
458.377	336.88
458.598	344.88
458.818	351.88
459.038	351.88
459.258	341.88
459.478	343.88
459.698	351.88
459.918	392.88
460.138	398.88
460.358	400.88
460.578	411.88
460.798	450.88
461.018	423.88
461.238	418.88
461.458	437.88
461.678	409.88
461.898	414.88
462.118	421.88
462.338	454.88
462.558	471.88
462.777	504.88
462.997	508.88
463.217	518.88
463.437	528.88
463.657	488.88
463.876	450.88
464.096	461.88
464.316	473.88
464.536	448.88
464.755	451.88
464.975	425.88
465.195	440.88
465.414	414.88
465.634	406.88
465.854	386.88
466.073	390.88
466.293	366.88
466.512	358.88
466.732	359.88
466.951	368.88
467.171	364.88
467.391	364.88
467.61	348.88
467.829	347.88
468.049	348.88
468.268	351.88
468.488	354.88
468.707	364.88
468.927	358.88
469.146	345.88
469.365	370.88
469.585	359.88
469.804	372.88
470.023	362.88
470.243	366.88
470.462	365.88
470.681	374.88
470.901	375.88
471.12	364.88
471.339	356.88
471.558	352.88
471.777	345.88
471.997	349.88
472.216	341.88
472.435	342.88
472.654	331.88
472.873	346.88
473.092	335.88
473.311	331.88
473.53	315.88
473.749	345.88
473.968	329.88
474.187	338.88
474.406	336.88
474.625	335.88
474.844	333.88
475.063	337.88
475.282	351.88
475.501	343.88
475.72	336.88
475.939	341.88
476.158	351.88
476.377	347.88
476.596	354.88
476.814	346.88
477.033	350.88
477.252	365.88
477.471	367.88
477.69	377.88
477.908	366.88
478.127	380.88
478.346	382.88
478.564	397.88
478.783	394.88
479.002	412.88
479.22	391.88
479.439	387.88
479.658	384.88
479.876	395.88
480.095	394.88
480.313	420.88
480.532	416.88
480.751	415.88
480.969	395.88
481.188	370.88
481.406	381.88
481.624	355.88
481.843	375.88
482.061	366.88
482.28	374.88
482.498	373.88
482.717	396.88
482.935	356.88
483.153	376.88
483.372	401.88
483.59	384.88
483.808	370.88
484.027	373.88
484.245	384.88
484.463	388.88
484.681	385.88
484.9	392.88
485.118	379.88
485.336	370.88
485.554	372.88
485.772	398.88
485.99	377.88
486.209	378.88
486.427	395.88
486.645	392.88
486.863	372.88
487.081	378.88
487.299	372.88
487.517	384.88
487.735	381.88
487.953	381.88
488.171	386.88
488.389	391.88
488.607	382.88
488.825	373.88
489.043	382.88
489.261	399.88
489.479	391.88
489.696	379.88
489.914	392.88
490.132	375.88
490.35	391.88
490.568	387.88
490.786	388.88
491.003	397.88
491.221	402.88
491.439	401.88
491.657	382.88
491.874	397.88
492.092	401.88
492.31	415.88
492.527	406.88
492.745	399.88
492.963	407.88
493.18	397.88
493.398	404.88
493.615	414.88
493.833	444.88
494.05	414.88
494.268	409.88
494.485	421.88
494.703	421.88
494.92	405.88
495.138	416.88
495.355	425.88
495.573	418.88
495.79	412.88
496.008	426.88
496.225	425.88
496.442	403.88
496.66	395.88
496.877	438.88
497.094	444.88
497.312	446.88
497.529	438.88
497.746	456.88
497.963	473.88
498.181	484.88
498.398	485.88
498.615	507.88
498.832	547.88
499.049	594.88
499.267	638.88
499.484	690.88
499.701	761.88
499.918	806.88
500.135	884.88
500.352	959.88
500.569	981.88
500.786	950.88
501.003	903.88
501.22	822.88
501.437	734.88
501.654	668.88
501.871	619.88
502.088	595.88
502.305	584.88
502.522	532.88
502.739	520.88
502.956	518.88
503.172	468.88
503.389	474.88
503.606	467.88
503.823	466.88
504.04	463.88
504.256	463.88
504.473	460.88
504.69	439.88
504.907	451.88
505.123	442.88
505.34	426.88
505.557	409.88
505.773	380.88
505.99	382.88
506.207	360.88
506.423	380.88
506.64	371.88
506.856	358.88
507.073	361.88
507.289	365.88
507.506	352.88
507.722	358.88
507.939	316.88
508.155	362.88
508.372	356.88
508.588	342.88
508.805	359.88
509.021	346.88
509.238	341.88
509.454	343.88
509.67	347.88
509.887	355.88
510.103	356.88
510.319	342.88
510.536	358.88
510.752	332.88
510.968	324.88
511.184	349.88
511.401	338.88
511.617	339.88
511.833	336.88
512.049	317.88
512.265	330.88
512.481	343.88
512.698	334.88
512.914	338.88
513.13	333.88
513.346	333.88
513.562	341.88
513.778	325.88
513.994	351.88
514.21	354.88
514.426	348.88
514.642	322.88
514.858	330.88
515.074	353.88
515.29	355.88
515.506	357.88
515.721	344.88
515.937	340.88
516.153	364.88
516.369	351.88
516.585	367.88
516.801	372.88
517.016	390.88
517.232	424.88
517.448	424.88
517.664	442.88
517.879	427.88
518.095	441.88
518.311	402.88
518.527	412.88
518.742	380.88
518.958	377.88
519.173	390.88
519.389	373.88
519.605	335.88
519.82	349.88
520.036	347.88
520.251	344.88
520.467	338.88
520.682	352.88
520.898	324.88
521.113	342.88
521.329	332.88
521.544	331.88
521.76	325.88
521.975	323.88
522.19	323.88
522.406	325.88
522.621	334.88
522.836	338.88
523.052	314.88
523.267	325.88
523.482	315.88
523.698	324.88
523.913	302.88
524.128	325.88
524.343	308.88
524.559	325.88
524.774	319.88
524.989	322.88
525.204	310.88
525.419	301.88
525.634	295.88
525.849	313.88
526.064	301.88
526.28	306.88
526.495	308.88
526.71	299.88
526.925	309.88
527.14	288.88
527.355	280.88
527.57	318.88
527.785	307.88
527.999	321.88
528.214	295.88
528.429	313.88
528.644	309.88
528.859	306.88
529.074	302.88
529.289	304.88
529.503	290.88
529.718	303.88
529.933	308.88
530.148	305.88
530.363	309.88
530.577	301.88
530.792	308.88
531.007	296.88
531.221	311.88
531.436	300.88
531.651	300.88
531.865	315.88
532.08	314.88
532.295	301.88
532.509	299.88
532.724	303.88
532.938	316.88
533.153	313.88
533.367	307.88
533.582	322.88
533.796	315.88
534.011	315.88
534.225	285.88
534.44	293.88
534.654	298.88
534.868	300.88
535.083	288.88
535.297	308.88
535.511	312.88
535.726	308.88
535.94	300.88
536.154	297.88
536.369	287.88
536.583	278.88
536.797	285.88
537.011	299.88
537.225	275.88
537.44	279.88
537.654	291.88
537.868	286.88
538.082	303.88
538.296	283.88
538.51	288.88
538.724	287.88
538.938	283.88
539.153	292.88
539.367	283.88
539.581	293.88
539.795	286.88
540.009	279.88
540.222	298.88
540.436	291.88
540.65	271.88
540.864	298.88
541.078	292.88
541.292	300.88
541.506	307.88
541.72	290.88
541.934	292.88
542.147	259.88
542.361	286.88
542.575	283.88
542.789	298.88
543.002	286.88
543.216	284.88
543.43	284.88
543.644	291.88
543.857	282.88
544.071	292.88
544.285	284.88
544.498	292.88
544.712	289.88
544.925	276.88
545.139	295.88
545.352	268.88
545.566	295.88
545.779	307.88
545.993	281.88
546.206	277.88
546.42	285.88
546.633	285.88
546.847	284.88
547.06	288.88
547.274	282.88
547.487	279.88
547.7	309.88
547.914	277.88
548.127	299.88
548.34	283.88
548.554	294.88
548.767	287.88
548.98	301.88
549.193	267.88
549.407	295.88
549.62	306.88
549.833	283.88
550.046	288.88
550.259	293.88
550.473	300.88
550.686	297.88
550.899	278.88
551.112	295.88
551.325	276.88
551.538	281.88
551.751	282.88
551.964	283.88
552.177	287.88
552.39	288.88
552.603	307.88
552.816	306.88
553.029	298.88
553.242	303.88
553.455	298.88
553.667	307.88
553.88	290.88
554.093	306.88
554.306	273.88
554.519	290.88
554.732	304.88
554.944	274.88
555.157	275.88
555.37	268.88
555.583	278.88
555.795	264.88
556.008	273.88
556.221	265.88
556.433	276.88
556.646	260.88
556.859	246.88
557.071	252.88
557.284	252.88
557.496	257.88
557.709	261.88
557.921	261.88
558.134	252.88
558.346	259.88
558.559	250.88
558.771	247.88
558.984	251.88
559.196	245.88
559.409	232.88
559.621	256.88
559.833	264.88
560.046	255.88
560.258	231.88
560.47	246.88
560.683	243.88
560.895	267.88
561.107	240.88
561.32	249.88
561.532	242.88
561.744	244.88
561.956	248.88
562.168	244.88
562.381	236.88
562.593	231.88
562.805	239.88
563.017	244.88
563.229	243.88
563.441	236.88
563.653	255.88
563.865	226.88
564.077	262.88
564.289	241.88
564.501	255.88
564.713	255.88
564.925	257.88
565.137	265.88
565.349	264.88
565.561	283.88
565.773	282.88
565.985	299.88
566.197	305.88
566.408	317.88
566.62	314.88
566.832	346.88
567.044	366.88
567.255	361.88
567.467	352.88
567.679	390.88
567.891	383.88
568.102	394.88
568.314	382.88
568.526	347.88
568.737	334.88
568.949	300.88
569.161	309.88
569.372	278.88
569.584	280.88
569.795	273.88
570.007	265.88
570.218	263.88
570.43	249.88
570.641	242.88
570.853	260.88
571.064	250.88
571.276	255.88
571.487	238.88
571.698	236.88
571.91	235.88
572.121	224.88
572.333	227.88
572.544	224.88
572.755	240.88
572.966	223.88
573.178	226.88
573.389	219.88
573.6	212.88
573.811	226.88
574.023	206.88
574.234	225.88
574.445	225.88
574.656	219.88
574.867	207.88
575.078	219.88
575.289	219.88
575.501	213.88
575.712	203.88
575.923	196.88
576.134	192.88
576.345	181.88
576.556	213.88
576.767	201.88
576.978	203.88
577.188	195.88
577.399	202.88
577.61	197.88
577.821	188.88
578.032	215.88
578.243	202.88
578.454	200.88
578.665	211.88
578.875	203.88
579.086	215.88
579.297	200.88
579.508	201.88
579.718	207.88
579.929	191.88
580.14	189.88
580.35	194.88
580.561	188.88
580.772	188.88
580.982	185.88
581.193	190.88
581.403	200.88
581.614	191.88
581.825	191.88
582.035	192.88
582.246	187.88
582.456	183.88
582.667	198.88
582.877	192.88
583.087	195.88
583.298	183.88
583.508	183.88
583.719	171.88
583.929	189.88
584.139	172.88
584.35	185.88
584.56	181.88
584.77	189.88
584.981	202.88
585.191	193.88
585.401	181.88
585.611	181.88
585.821	177.88
586.032	168.88
586.242	198.88
586.452	180.88
586.662	170.88
586.872	179.88
587.082	191.88
587.292	186.88
587.502	183.88
587.713	187.88
587.923	174.88
588.133	174.88
588.343	180.88
588.553	180.88
588.762	193.88
588.972	190.88
589.182	164.88
589.392	183.88
589.602	192.88
589.812	174.88
590.022	174.88
590.232	190.88
590.441	197.88
590.651	172.88
590.861	179.88
591.071	191.88
591.281	184.88
591.49	184.88
591.7	190.88
591.91	195.88
592.119	186.88
592.329	208.88
592.539	214.88
592.748	200.88
592.958	212.88
593.167	208.88
593.377	199.88
593.587	211.88
593.796	207.88
594.006	213.88
594.215	214.88
594.424	210.88
594.634	214.88
594.843	211.88
595.053	201.88
595.262	200.88
595.472	178.88
595.681	198.88
595.89	187.88
596.1	196.88
596.309	179.88
596.518	193.88
596.727	189.88
596.937	174.88
597.146	178.88
597.355	180.88
597.564	181.88
597.774	171.88
597.983	183.88
598.192	162.88
598.401	165.88
598.61	182.88
598.819	168.88
599.028	163.88
599.237	158.88
599.446	168.88
599.655	162.88
599.864	168.88
600.073	163.88
600.282	171.88
600.491	168.88
600.7	154.88
600.909	158.88
601.118	163.88
601.327	167.88
601.536	150.88
601.745	171.88
601.953	150.88
602.162	154.88
602.371	156.88
602.58	160.88
602.789	166.88
602.997	164.88
603.206	157.88
603.415	145.88
603.623	149.88
603.832	173.88
604.041	152.88
604.249	171.88
604.458	149.88
604.666	153.88
604.875	149.88
605.084	163.88
605.292	134.88
605.501	161.88
605.709	151.88
605.918	148.88
606.126	149.88
606.334	146.88
606.543	156.88
606.751	168.88
606.96	154.88
607.168	151.88
607.376	154.88
607.585	161.88
607.793	162.88
608.001	159.88
608.21	156.88
608.418	148.88
608.626	153.88
608.834	136.88
609.043	153.88
609.251	159.88
609.459	157.88
609.667	154.88
609.875	154.88
610.083	162.88
610.291	161.88
610.499	149.88
610.707	158.88
610.916	145.88
611.124	162.88
611.332	163.88
611.54	168.88
611.748	160.88
611.955	137.88
612.163	150.88
612.371	157.88
612.579	136.88
612.787	136.88
612.995	156.88
613.203	159.88
613.411	147.88
613.618	152.88
613.826	153.88
614.034	143.88
614.242	144.88
614.449	150.88
614.657	144.88
614.865	143.88
615.072	148.88
615.28	138.88
615.488	152.88
615.695	150.88
615.903	155.88
616.111	144.88
616.318	157.88
616.526	135.88
616.733	160.88
616.941	167.88
617.148	162.88
617.356	156.88
617.563	148.88
617.771	150.88
617.978	148.88
618.185	142.88
618.393	136.88
618.6	143.88
618.807	141.88
619.015	143.88
619.222	159.88
619.429	153.88
619.637	158.88
619.844	165.88
620.051	140.88
620.258	138.88
620.466	139.88
620.673	137.88
620.88	141.88
621.087	138.88
621.294	154.88
621.501	160.88
621.708	138.88
621.915	156.88
622.122	141.88
622.329	141.88
622.536	158.88
622.743	134.88
622.95	131.88
623.157	145.88
623.364	148.88
623.571	133.88
623.778	144.88
623.985	134.88
624.192	144.88
624.399	136.88
624.606	156.88
624.812	143.88
625.019	133.88
625.226	147.88
625.433	142.88
625.639	146.88
625.846	140.88
626.053	144.88
626.259	149.88
626.466	142.88
626.673	141.88
626.879	135.88
627.086	125.88
627.293	133.88
627.499	140.88
627.706	130.88
627.912	143.88
628.119	139.88
628.325	148.88
628.532	145.88
628.738	139.88
628.945	139.88
629.151	126.88
629.357	137.88
629.564	124.88
629.77	138.88
629.976	136.88
630.183	140.88
630.389	149.88
630.595	143.88
630.802	124.88
631.008	126.88
631.214	134.88
631.42	125.88
631.627	128.88
631.833	131.88
632.039	133.88
632.245	140.88
632.451	132.88
632.657	128.88
632.863	118.88
633.069	120.88
633.275	138.88
633.481	130.88
633.688	132.88
633.893	130.88
634.099	140.88
634.305	139.88
634.511	106.88
634.717	137.88
634.923	126.88
635.129	134.88
635.335	125.88
635.541	132.88
635.747	139.88
635.952	132.88
636.158	133.88
636.364	138.88
636.57	117.88
636.775	130.88
636.981	132.88
637.187	119.88
637.392	130.88
637.598	130.88
637.804	139.88
638.009	127.88
638.215	139.88
638.421	138.88
638.626	141.88
638.832	125.88
639.037	128.88
639.243	128.88
639.448	127.88
639.654	119.88
639.859	133.88
640.065	118.88
640.27	132.88
640.475	140.88
640.681	137.88
640.886	124.88
641.091	125.88
641.297	125.88
641.502	119.88
641.707	137.88
641.913	115.88
642.118	124.88
642.323	119.88
642.528	140.88
642.733	124.88
642.939	124.88
643.144	136.88
643.349	134.88
643.554	128.88
643.759	128.88
643.964	125.88
644.169	123.88
644.374	103.88
644.579	114.88
644.784	125.88
644.989	118.88
645.194	132.88
645.399	125.88
645.604	117.88
645.809	116.88
646.014	131.88
646.219	110.88
646.423	117.88
646.628	128.88
646.833	122.88
647.038	122.88
647.243	128.88
647.447	126.88
647.652	121.88
647.857	118.88
648.062	130.88
648.266	133.88
648.471	133.88
648.676	126.88
648.88	119.88
649.085	114.88
649.289	129.88
649.494	126.88
649.698	126.88
649.903	118.88
650.107	123.88
650.312	118.88
650.516	119.88
650.721	114.88
650.925	114.88
651.13	122.88
651.334	109.88
651.539	111.88
651.743	110.88
651.947	111.88
652.152	127.88
652.356	120.88
652.56	122.88
652.764	120.88
652.969	99.88
653.173	107.88
653.377	112.88
653.581	119.88
653.785	111.88
653.99	105.88
654.194	105.88
654.398	101.88
654.602	119.88
654.806	115.88
655.01	105.88
655.214	110.88
655.418	109.88
655.622	119.88
655.826	115.88
656.03	102.88
656.234	109.88
656.438	122.88
656.642	109.88
656.846	98.88
657.049	103.88
657.253	112.88
657.457	101.88
657.661	98.88
657.865	116.88
658.068	101.88
658.272	98.88
658.476	107.88
658.68	100.88
658.883	105.88
659.087	94.88
659.291	98.88
659.494	79.88
659.698	95.88
659.901	89.88
660.105	98.88
660.309	87.88
660.512	96.88
660.716	87.88
660.919	105.88
661.123	108.88
661.326	88.88
661.53	85.88
661.733	86.88
661.936	93.88
662.14	95.88
662.343	90.88
662.546	82.88
662.75	97.88
662.953	105.88
663.156	75.88
663.36	104.88
663.563	75.88
663.766	94.88
663.969	86.88
664.173	94.88
664.376	84.88
664.579	92.88
664.782	75.88
664.985	89.88
665.188	86.88
665.391	78.88
665.594	86.88
665.797	83.88
666	82.88
666.203	79.88
666.406	92.88
666.609	74.88
666.812	79.88
667.015	83.88
667.218	81.88
667.421	71.88
667.624	74.88
667.827	92.88
668.03	80.88
668.232	76.88
668.435	111.88
668.638	95.88
668.841	84.88
669.043	98.88
669.246	72.88
669.449	87.88
669.651	94.88
669.854	84.88
670.057	97.88
670.259	74.88
670.462	91.88
670.665	94.88
670.867	79.88
671.07	78.88
671.272	86.88
671.475	85.88
671.677	98.88
671.88	85.88
672.082	79.88
672.284	88.88
672.487	71.88
672.689	80.88
672.892	77.88
