Data from Fe(NO3)3@0.025M.TitratingCurve.Agarose3%dH2O.NegLispCup.LampEnergy10.LIBS07252019_HRD10591_16-56-02-336.txt Node
Date: Thu Jul 25 16:56:02 EDT 2019
User: cochatt
Spectrometer: HR+D1059
Trigger mode: 1
Integration Time (sec): 1.000000E-1
Scans to average: 1
Electric dark correction enabled: true
Nonlinearity correction enabled: false
Boxcar width: 0
XAxis mode: Wavelengths
Number of Pixels in Spectrum: 2048
>>>>>Begin Spectral Data<<<<<
223.165	-4.31
223.4	-4.31
223.635	-4.31
223.869	-13.31
224.104	-11.31
224.338	-14.31
224.573	-24.31
224.808	-13.31
225.042	0.69
225.277	-3.31
225.511	-13.31
225.746	11.69
225.98	13.69
226.215	5.69
226.449	20.69
226.683	6.69
226.918	25.69
227.152	12.69
227.387	41.69
227.621	37.69
227.856	28.69
228.09	54.69
228.324	53.69
228.559	65.69
228.793	64.69
229.027	61.69
229.262	67.69
229.496	84.69
229.73	86.69
229.964	75.69
230.199	86.69
230.433	88.69
230.667	91.69
230.901	86.69
231.136	90.69
231.37	103.69
231.604	89.69
231.838	95.69
232.072	89.69
232.306	93.69
232.541	100.69
232.775	106.69
233.009	106.69
233.243	100.69
233.477	116.69
233.711	98.69
233.945	90.69
234.179	90.69
234.413	98.69
234.647	90.69
234.881	98.69
235.115	107.69
235.349	113.69
235.583	108.69
235.817	104.69
236.051	102.69
236.285	92.69
236.519	100.69
236.753	101.69
236.987	90.69
237.221	90.69
237.455	103.69
237.689	102.69
237.922	111.69
238.156	84.69
238.39	90.69
238.624	100.69
238.858	98.69
239.091	97.69
239.325	114.69
239.559	108.69
239.793	117.69
240.027	112.69
240.26	105.69
240.494	107.69
240.728	117.69
240.961	107.69
241.195	118.69
241.429	97.69
241.662	104.69
241.896	115.69
242.13	100.69
242.363	104.69
242.597	113.69
242.83	124.69
243.064	107.69
243.298	101.69
243.531	110.69
243.765	112.69
243.998	101.69
244.232	96.69
244.465	120.69
244.699	119.69
244.932	105.69
245.166	107.69
245.399	109.69
245.633	116.69
245.866	120.69
246.099	125.69
246.333	111.69
246.566	122.69
246.8	108.69
247.033	126.69
247.266	113.69
247.5	110.69
247.733	130.69
247.966	132.69
248.2	129.69
248.433	130.69
248.666	127.69
248.899	105.69
249.133	121.69
249.366	126.69
249.599	118.69
249.832	105.69
250.066	138.69
250.299	130.69
250.532	126.69
250.765	126.69
250.998	124.69
251.231	132.69
251.465	133.69
251.698	115.69
251.931	118.69
252.164	138.69
252.397	138.69
252.63	131.69
252.863	140.69
253.096	128.69
253.329	139.69
253.562	141.69
253.795	142.69
254.028	130.69
254.261	148.69
254.494	142.69
254.727	124.69
254.96	120.69
255.193	118.69
255.426	139.69
255.659	140.69
255.892	134.69
256.124	135.69
256.357	137.69
256.59	131.69
256.823	145.69
257.056	128.69
257.289	146.69
257.521	138.69
257.754	139.69
257.987	150.69
258.22	131.69
258.452	147.69
258.685	142.69
258.918	149.69
259.151	138.69
259.383	146.69
259.616	142.69
259.849	152.69
260.081	158.69
260.314	138.69
260.547	142.69
260.779	142.69
261.012	131.69
261.244	146.69
261.477	149.69
261.71	156.69
261.942	139.69
262.175	141.69
262.407	157.69
262.64	139.69
262.872	145.69
263.105	162.69
263.337	165.69
263.57	165.69
263.802	145.69
264.035	146.69
264.267	167.69
264.499	150.69
264.732	149.69
264.964	142.69
265.197	144.69
265.429	134.69
265.661	134.69
265.894	145.69
266.126	163.69
266.358	150.69
266.591	159.69
266.823	148.69
267.055	143.69
267.287	158.69
267.52	146.69
267.752	181.69
267.984	170.69
268.216	157.69
268.448	149.69
268.681	183.69
268.913	147.69
269.145	152.69
269.377	164.69
269.609	174.69
269.841	183.69
270.073	159.69
270.306	173.69
270.538	155.69
270.77	172.69
271.002	183.69
271.234	167.69
271.466	163.69
271.698	154.69
271.93	167.69
272.162	146.69
272.394	176.69
272.626	175.69
272.858	169.69
273.09	178.69
273.322	166.69
273.553	181.69
273.785	190.69
274.017	170.69
274.249	172.69
274.481	186.69
274.713	168.69
274.945	172.69
275.176	186.69
275.408	185.69
275.64	198.69
275.872	177.69
276.104	184.69
276.335	189.69
276.567	180.69
276.799	193.69
277.031	168.69
277.262	184.69
277.494	185.69
277.726	181.69
277.957	189.69
278.189	181.69
278.421	177.69
278.652	181.69
278.884	190.69
279.115	193.69
279.347	183.69
279.579	194.69
279.81	192.69
280.042	197.69
280.273	193.69
280.505	199.69
280.736	196.69
280.968	194.69
281.199	192.69
281.431	181.69
281.662	191.69
281.894	186.69
282.125	196.69
282.356	203.69
282.588	193.69
282.819	199.69
283.051	203.69
283.282	186.69
283.513	187.69
283.745	204.69
283.976	208.69
284.207	200.69
284.439	210.69
284.67	207.69
284.901	196.69
285.132	196.69
285.364	200.69
285.595	206.69
285.826	208.69
286.057	196.69
286.288	218.69
286.52	220.69
286.751	209.69
286.982	207.69
287.213	206.69
287.444	216.69
287.675	207.69
287.906	201.69
288.138	222.69
288.369	209.69
288.6	218.69
288.831	230.69
289.062	212.69
289.293	202.69
289.524	204.69
289.755	213.69
289.986	206.69
290.217	217.69
290.448	209.69
290.679	222.69
290.91	208.69
291.141	204.69
291.371	222.69
291.602	221.69
291.833	202.69
292.064	221.69
292.295	224.69
292.526	204.69
292.757	228.69
292.987	223.69
293.218	242.69
293.449	219.69
293.68	240.69
293.91	220.69
294.141	217.69
294.372	215.69
294.603	233.69
294.833	225.69
295.064	224.69
295.295	224.69
295.525	238.69
295.756	234.69
295.987	213.69
296.217	232.69
296.448	219.69
296.679	232.69
296.909	225.69
297.14	221.69
297.37	230.69
297.601	232.69
297.831	238.69
298.062	231.69
298.292	241.69
298.523	253.69
298.753	247.69
298.984	240.69
299.214	243.69
299.445	235.69
299.675	232.69
299.905	263.69
300.136	262.69
300.366	246.69
300.597	246.69
300.827	243.69
301.057	245.69
301.288	237.69
301.518	256.69
301.748	248.69
301.979	268.69
302.209	251.69
302.439	263.69
302.669	245.69
302.9	250.69
303.13	241.69
303.36	256.69
303.59	248.69
303.82	243.69
304.051	245.69
304.281	250.69
304.511	234.69
304.741	253.69
304.971	253.69
305.201	277.69
305.431	249.69
305.661	269.69
305.891	249.69
306.121	261.69
306.352	258.69
306.582	273.69
306.812	256.69
307.042	246.69
307.272	249.69
307.502	256.69
307.731	246.69
307.961	275.69
308.191	268.69
308.421	245.69
308.651	269.69
308.881	255.69
309.111	276.69
309.341	260.69
309.571	260.69
309.8	252.69
310.03	251.69
310.26	272.69
310.49	254.69
310.72	253.69
310.949	263.69
311.179	259.69
311.409	289.69
311.639	264.69
311.868	280.69
312.098	259.69
312.328	266.69
312.557	284.69
312.787	273.69
313.017	252.69
313.246	260.69
313.476	250.69
313.706	275.69
313.935	288.69
314.165	256.69
314.394	279.69
314.624	266.69
314.853	269.69
315.083	285.69
315.312	283.69
315.542	284.69
315.771	292.69
316.001	281.69
316.23	282.69
316.46	269.69
316.689	263.69
316.919	302.69
317.148	296.69
317.377	299.69
317.607	294.69
317.836	273.69
318.065	279.69
318.295	295.69
318.524	296.69
318.753	263.69
318.983	291.69
319.212	296.69
319.441	301.69
319.67	285.69
319.9	282.69
320.129	276.69
320.358	269.69
320.587	278.69
320.816	299.69
321.046	283.69
321.275	276.69
321.504	277.69
321.733	282.69
321.962	305.69
322.191	292.69
322.42	279.69
322.649	299.69
322.878	293.69
323.108	302.69
323.337	280.69
323.566	301.69
323.795	283.69
324.024	290.69
324.253	269.69
324.482	298.69
324.71	284.69
324.939	283.69
325.168	299.69
325.397	298.69
325.626	302.69
325.855	296.69
326.084	313.69
326.313	307.69
326.542	298.69
326.77	317.69
326.999	301.69
327.228	307.69
327.457	330.69
327.686	305.69
327.914	309.69
328.143	311.69
328.372	308.69
328.6	310.69
328.829	307.69
329.058	298.69
329.287	332.69
329.515	294.69
329.744	321.69
329.972	318.69
330.201	294.69
330.43	315.69
330.658	311.69
330.887	298.69
331.115	322.69
331.344	324.69
331.572	338.69
331.801	349.69
332.03	329.69
332.258	357.69
332.486	335.69
332.715	325.69
332.943	337.69
333.172	345.69
333.4	368.69
333.629	368.69
333.857	353.69
334.085	354.69
334.314	363.69
334.542	353.69
334.771	360.69
334.999	361.69
335.227	361.69
335.455	358.69
335.684	348.69
335.912	351.69
336.14	365.69
336.369	333.69
336.597	363.69
336.825	350.69
337.053	353.69
337.281	348.69
337.51	358.69
337.738	342.69
337.966	338.69
338.194	326.69
338.422	330.69
338.65	331.69
338.878	356.69
339.106	337.69
339.334	324.69
339.562	333.69
339.79	354.69
340.018	338.69
340.246	353.69
340.474	332.69
340.702	338.69
340.93	347.69
341.158	344.69
341.386	322.69
341.614	323.69
341.842	338.69
342.07	332.69
342.298	330.69
342.526	333.69
342.754	330.69
342.981	338.69
343.209	359.69
343.437	352.69
343.665	349.69
343.893	390.69
344.12	373.69
344.348	360.69
344.576	346.69
344.804	340.69
345.031	344.69
345.259	335.69
345.487	348.69
345.714	339.69
345.942	321.69
346.17	340.69
346.397	333.69
346.625	326.69
346.853	330.69
347.08	334.69
347.308	326.69
347.535	345.69
347.763	328.69
347.99	311.69
348.218	332.69
348.445	334.69
348.673	313.69
348.9	316.69
349.128	347.69
349.355	331.69
349.583	314.69
349.81	319.69
350.037	302.69
350.265	302.69
350.492	321.69
350.72	320.69
350.947	310.69
351.174	307.69
351.402	331.69
351.629	322.69
351.856	324.69
352.083	323.69
352.311	323.69
352.538	325.69
352.765	313.69
352.992	320.69
353.22	309.69
353.447	317.69
353.674	321.69
353.901	313.69
354.128	318.69
354.355	322.69
354.583	332.69
354.81	317.69
355.037	323.69
355.264	328.69
355.491	312.69
355.718	321.69
355.945	331.69
356.172	340.69
356.399	306.69
356.626	320.69
356.853	324.69
357.08	308.69
357.307	324.69
357.534	335.69
357.761	306.69
357.988	319.69
358.215	344.69
358.441	336.69
358.668	324.69
358.895	314.69
359.122	331.69
359.349	324.69
359.576	314.69
359.802	301.69
360.029	309.69
360.256	314.69
360.483	323.69
360.709	330.69
360.936	327.69
361.163	326.69
361.39	346.69
361.616	337.69
361.843	329.69
362.07	339.69
362.296	352.69
362.523	319.69
362.749	318.69
362.976	315.69
363.203	330.69
363.429	336.69
363.656	339.69
363.882	331.69
364.109	329.69
364.335	325.69
364.562	318.69
364.788	319.69
365.015	335.69
365.241	335.69
365.468	333.69
365.694	338.69
365.92	322.69
366.147	310.69
366.373	327.69
366.599	325.69
366.826	331.69
367.052	311.69
367.278	334.69
367.505	333.69
367.731	361.69
367.957	325.69
368.184	316.69
368.41	321.69
368.636	346.69
368.862	339.69
369.089	333.69
369.315	325.69
369.541	354.69
369.767	348.69
369.993	346.69
370.219	348.69
370.445	358.69
370.672	360.69
370.898	345.69
371.124	350.69
371.35	334.69
371.576	339.69
371.802	342.69
372.028	364.69
372.254	356.69
372.48	353.69
372.706	353.69
372.932	361.69
373.158	378.69
373.384	359.69
373.61	354.69
373.835	372.69
374.061	361.69
374.287	348.69
374.513	368.69
374.739	373.69
374.965	360.69
375.191	378.69
375.416	368.69
375.642	363.69
375.868	375.69
376.094	354.69
376.319	357.69
376.545	349.69
376.771	355.69
376.997	362.69
377.222	369.69
377.448	364.69
377.674	344.69
377.899	352.69
378.125	353.69
378.35	354.69
378.576	365.69
378.802	358.69
379.027	365.69
379.253	361.69
379.478	340.69
379.704	340.69
379.929	364.69
380.155	342.69
380.38	363.69
380.606	361.69
380.831	374.69
381.057	366.69
381.282	371.69
381.507	361.69
381.733	373.69
381.958	366.69
382.184	361.69
382.409	362.69
382.634	377.69
382.86	376.69
383.085	383.69
383.31	382.69
383.535	380.69
383.761	397.69
383.986	370.69
384.211	382.69
384.436	375.69
384.662	390.69
384.887	378.69
385.112	384.69
385.337	397.69
385.562	421.69
385.787	418.69
386.013	413.69
386.238	397.69
386.463	387.69
386.688	410.69
386.913	390.69
387.138	416.69
387.363	393.69
387.588	400.69
387.813	402.69
388.038	412.69
388.263	418.69
388.488	398.69
388.713	412.69
388.938	398.69
389.163	409.69
389.387	415.69
389.612	394.69
389.837	405.69
390.062	408.69
390.287	426.69
390.512	407.69
390.736	435.69
390.961	416.69
391.186	415.69
391.411	441.69
391.636	452.69
391.86	446.69
392.085	409.69
392.31	452.69
392.534	452.69
392.759	432.69
392.984	434.69
393.208	433.69
393.433	430.69
393.658	440.69
393.882	436.69
394.107	417.69
394.331	428.69
394.556	413.69
394.78	425.69
395.005	442.69
395.229	439.69
395.454	458.69
395.678	457.69
395.903	435.69
396.127	423.69
396.352	450.69
396.576	456.69
396.801	447.69
397.025	444.69
397.249	458.69
397.474	449.69
397.698	455.69
397.922	444.69
398.147	459.69
398.371	469.69
398.595	466.69
398.82	506.69
399.044	534.69
399.268	548.69
399.492	574.69
399.717	598.69
399.941	589.69
400.165	553.69
400.389	536.69
400.613	521.69
400.837	501.69
401.062	522.69
401.286	508.69
401.51	482.69
401.734	466.69
401.958	470.69
402.182	470.69
402.406	483.69
402.63	511.69
402.854	498.69
403.078	500.69
403.302	492.69
403.526	506.69
403.75	500.69
403.974	505.69
404.198	488.69
404.422	523.69
404.645	477.69
404.869	509.69
405.093	505.69
405.317	492.69
405.541	512.69
405.765	514.69
405.988	503.69
406.212	496.69
406.436	517.69
406.66	520.69
406.883	520.69
407.107	538.69
407.331	563.69
407.555	574.69
407.778	550.69
408.002	556.69
408.226	551.69
408.449	542.69
408.673	553.69
408.896	524.69
409.12	514.69
409.344	503.69
409.567	481.69
409.791	490.69
410.014	523.69
410.238	500.69
410.461	510.69
410.685	487.69
410.908	526.69
411.132	525.69
411.355	506.69
411.578	499.69
411.802	499.69
412.025	503.69
412.249	501.69
412.472	499.69
412.695	480.69
412.919	485.69
413.142	479.69
413.365	488.69
413.589	472.69
413.812	479.69
414.035	498.69
414.258	475.69
414.482	492.69
414.705	500.69
414.928	500.69
415.151	474.69
415.374	482.69
415.597	470.69
415.821	456.69
416.044	457.69
416.267	462.69
416.49	469.69
416.713	468.69
416.936	481.69
417.159	465.69
417.382	459.69
417.605	463.69
417.828	462.69
418.051	473.69
418.274	474.69
418.497	468.69
418.72	468.69
418.943	457.69
419.166	489.69
419.389	487.69
419.611	503.69
419.834	483.69
420.057	452.69
420.28	471.69
420.503	474.69
420.726	461.69
420.948	455.69
421.171	466.69
421.394	467.69
421.617	467.69
421.839	458.69
422.062	456.69
422.285	477.69
422.507	460.69
422.73	460.69
422.953	457.69
423.175	477.69
423.398	461.69
423.621	462.69
423.843	470.69
424.066	480.69
424.288	456.69
424.511	457.69
424.733	470.69
424.956	456.69
425.178	449.69
425.401	452.69
425.623	457.69
425.846	456.69
426.068	449.69
426.291	448.69
426.513	438.69
426.735	449.69
426.958	455.69
427.18	448.69
427.402	453.69
427.625	409.69
427.847	432.69
428.069	441.69
428.292	428.69
428.514	449.69
428.736	416.69
428.958	432.69
429.181	412.69
429.403	422.69
429.625	430.69
429.847	416.69
430.069	412.69
430.292	433.69
430.514	440.69
430.736	449.69
430.958	442.69
431.18	393.69
431.402	448.69
431.624	448.69
431.846	422.69
432.068	432.69
432.29	430.69
432.512	421.69
432.734	438.69
432.956	436.69
433.178	436.69
433.4	427.69
433.622	442.69
433.844	445.69
434.066	430.69
434.287	440.69
434.509	441.69
434.731	459.69
434.953	473.69
435.175	453.69
435.397	427.69
435.618	442.69
435.84	433.69
436.062	426.69
436.284	448.69
436.505	432.69
436.727	402.69
436.949	429.69
437.17	439.69
437.392	428.69
437.614	427.69
437.835	414.69
438.057	415.69
438.278	430.69
438.5	407.69
438.721	413.69
438.943	421.69
439.165	421.69
439.386	417.69
439.608	424.69
439.829	429.69
440.05	428.69
440.272	437.69
440.493	447.69
440.715	448.69
440.936	460.69
441.158	435.69
441.379	443.69
441.6	460.69
441.822	442.69
442.043	433.69
442.264	441.69
442.486	456.69
442.707	449.69
442.928	446.69
443.149	452.69
443.371	472.69
443.592	451.69
443.813	468.69
444.034	453.69
444.255	462.69
444.476	460.69
444.698	490.69
444.919	481.69
445.14	563.69
445.361	505.69
445.582	456.69
445.803	448.69
446.024	451.69
446.245	445.69
446.466	457.69
446.687	452.69
446.908	435.69
447.129	418.69
447.35	429.69
447.571	411.69
447.792	406.69
448.013	409.69
448.234	422.69
448.455	406.69
448.675	402.69
448.896	418.69
449.117	398.69
449.338	390.69
449.559	395.69
449.779	408.69
450	384.69
450.221	401.69
450.442	386.69
450.662	392.69
450.883	414.69
451.104	403.69
451.324	394.69
451.545	386.69
451.766	409.69
451.986	378.69
452.207	386.69
452.428	389.69
452.648	381.69
452.869	383.69
453.089	390.69
453.31	378.69
453.53	376.69
453.751	388.69
453.971	386.69
454.192	406.69
454.412	399.69
454.633	372.69
454.853	386.69
455.073	374.69
455.294	358.69
455.514	389.69
455.734	368.69
455.955	374.69
456.175	372.69
456.395	371.69
456.616	369.69
456.836	371.69
457.056	387.69
457.276	350.69
457.497	386.69
457.717	378.69
457.937	374.69
458.157	398.69
458.377	397.69
458.598	380.69
458.818	412.69
459.038	425.69
459.258	418.69
459.478	444.69
459.698	424.69
459.918	444.69
460.138	457.69
460.358	460.69
460.578	467.69
460.798	448.69
461.018	455.69
461.238	476.69
461.458	478.69
461.678	478.69
461.898	473.69
462.118	487.69
462.338	502.69
462.558	516.69
462.777	529.69
462.997	546.69
463.217	537.69
463.437	545.69
463.657	548.69
463.876	536.69
464.096	531.69
464.316	514.69
464.536	533.69
464.755	510.69
464.975	491.69
465.195	483.69
465.414	472.69
465.634	445.69
465.854	422.69
466.073	447.69
466.293	427.69
466.512	415.69
466.732	430.69
466.951	408.69
467.171	406.69
467.391	417.69
467.61	415.69
467.829	412.69
468.049	404.69
468.268	407.69
468.488	408.69
468.707	414.69
468.927	408.69
469.146	390.69
469.365	407.69
469.585	427.69
469.804	406.69
470.023	423.69
470.243	414.69
470.462	421.69
470.681	436.69
470.901	440.69
471.12	408.69
471.339	415.69
471.558	418.69
471.777	414.69
471.997	393.69
472.216	414.69
472.435	402.69
472.654	418.69
472.873	407.69
473.092	404.69
473.311	429.69
473.53	395.69
473.749	413.69
473.968	425.69
474.187	387.69
474.406	408.69
474.625	406.69
474.844	411.69
475.063	412.69
475.282	421.69
475.501	415.69
475.72	423.69
475.939	416.69
476.158	423.69
476.377	442.69
476.596	418.69
476.814	444.69
477.033	427.69
477.252	455.69
477.471	432.69
477.69	466.69
477.908	455.69
478.127	456.69
478.346	478.69
478.564	466.69
478.783	494.69
479.002	497.69
479.22	482.69
479.439	485.69
479.658	510.69
479.876	500.69
480.095	505.69
480.313	502.69
480.532	515.69
480.751	507.69
480.969	501.69
481.188	491.69
481.406	493.69
481.624	483.69
481.843	480.69
482.061	469.69
482.28	459.69
482.498	455.69
482.717	470.69
482.935	473.69
483.153	448.69
483.372	466.69
483.59	470.69
483.808	461.69
484.027	462.69
484.245	496.69
484.463	477.69
484.681	485.69
484.9	491.69
485.118	483.69
485.336	471.69
485.554	486.69
485.772	502.69
485.99	495.69
486.209	484.69
486.427	494.69
486.645	480.69
486.863	485.69
487.081	469.69
487.299	481.69
487.517	490.69
487.735	474.69
487.953	482.69
488.171	482.69
488.389	494.69
488.607	463.69
488.825	477.69
489.043	474.69
489.261	489.69
489.479	481.69
489.696	496.69
489.914	478.69
490.132	512.69
490.35	496.69
490.568	493.69
490.786	488.69
491.003	492.69
491.221	497.69
491.439	505.69
491.657	485.69
491.874	476.69
492.092	486.69
492.31	500.69
492.527	513.69
492.745	514.69
492.963	492.69
493.18	488.69
493.398	509.69
493.615	500.69
493.833	498.69
494.05	504.69
494.268	497.69
494.485	500.69
494.703	509.69
494.92	499.69
495.138	529.69
495.355	496.69
495.573	527.69
495.79	503.69
496.008	527.69
496.225	522.69
496.442	548.69
496.66	556.69
496.877	563.69
497.094	570.69
497.312	589.69
497.529	580.69
497.746	587.69
497.963	618.69
498.181	602.69
498.398	641.69
498.615	656.69
498.832	695.69
499.049	737.69
499.267	776.69
499.484	804.69
499.701	853.69
499.918	892.69
500.135	932.69
500.352	980.69
500.569	990.69
500.786	964.69
501.003	936.69
501.22	906.69
501.437	850.69
501.654	794.69
501.871	746.69
502.088	704.69
502.305	700.69
502.522	711.69
502.739	673.69
502.956	615.69
503.172	598.69
503.389	605.69
503.606	572.69
503.823	587.69
504.04	561.69
504.256	572.69
504.473	567.69
504.69	564.69
504.907	560.69
505.123	544.69
505.34	521.69
505.557	512.69
505.773	505.69
505.99	508.69
506.207	493.69
506.423	489.69
506.64	486.69
506.856	501.69
507.073	468.69
507.289	469.69
507.506	476.69
507.722	440.69
507.939	466.69
508.155	457.69
508.372	462.69
508.588	443.69
508.805	456.69
509.021	436.69
509.238	437.69
509.454	439.69
509.67	433.69
509.887	424.69
510.103	434.69
510.319	434.69
510.536	432.69
510.752	435.69
510.968	438.69
511.184	421.69
511.401	440.69
511.617	439.69
511.833	425.69
512.049	457.69
512.265	434.69
512.481	423.69
512.698	424.69
512.914	426.69
513.13	435.69
513.346	417.69
513.562	436.69
513.778	419.69
513.994	460.69
514.21	438.69
514.426	438.69
514.642	433.69
514.858	441.69
515.074	426.69
515.29	449.69
515.506	440.69
515.721	438.69
515.937	441.69
516.153	456.69
516.369	461.69
516.585	482.69
516.801	494.69
517.016	495.69
517.232	490.69
517.448	518.69
517.664	498.69
517.879	472.69
518.095	504.69
518.311	493.69
518.527	484.69
518.742	477.69
518.958	495.69
519.173	477.69
519.389	457.69
519.605	448.69
519.82	463.69
520.036	461.69
520.251	430.69
520.467	437.69
520.682	412.69
520.898	426.69
521.113	439.69
521.329	440.69
521.544	409.69
521.76	408.69
521.975	412.69
522.19	405.69
522.406	408.69
522.621	404.69
522.836	420.69
523.052	396.69
523.267	396.69
523.482	430.69
523.698	392.69
523.913	386.69
524.128	402.69
524.343	393.69
524.559	415.69
524.774	402.69
524.989	396.69
525.204	382.69
525.419	382.69
525.634	391.69
525.849	393.69
526.064	396.69
526.28	385.69
526.495	410.69
526.71	400.69
526.925	381.69
527.14	394.69
527.355	392.69
527.57	406.69
527.785	396.69
527.999	379.69
528.214	360.69
528.429	362.69
528.644	388.69
528.859	389.69
529.074	385.69
529.289	395.69
529.503	399.69
529.718	402.69
529.933	401.69
530.148	396.69
530.363	388.69
530.577	390.69
530.792	400.69
531.007	394.69
531.221	377.69
531.436	398.69
531.651	394.69
531.865	383.69
532.08	379.69
532.295	396.69
532.509	376.69
532.724	395.69
532.938	375.69
533.153	386.69
533.367	392.69
533.582	373.69
533.796	381.69
534.011	381.69
534.225	392.69
534.44	365.69
534.654	374.69
534.868	381.69
535.083	370.69
535.297	370.69
535.511	396.69
535.726	382.69
535.94	375.69
536.154	372.69
536.369	370.69
536.583	373.69
536.797	359.69
537.011	374.69
537.225	381.69
537.44	365.69
537.654	387.69
537.868	362.69
538.082	363.69
538.296	355.69
538.51	373.69
538.724	368.69
538.938	361.69
539.153	368.69
539.367	373.69
539.581	354.69
539.795	357.69
540.009	354.69
540.222	361.69
540.436	351.69
540.65	362.69
540.864	347.69
541.078	357.69
541.292	351.69
541.506	363.69
541.72	363.69
541.934	356.69
542.147	360.69
542.361	368.69
542.575	364.69
542.789	354.69
543.002	355.69
543.216	358.69
543.43	351.69
543.644	345.69
543.857	352.69
544.071	380.69
544.285	352.69
544.498	359.69
544.712	367.69
544.925	356.69
545.139	363.69
545.352	358.69
545.566	350.69
545.779	357.69
545.993	370.69
546.206	378.69
546.42	380.69
546.633	352.69
546.847	368.69
547.06	368.69
547.274	361.69
547.487	367.69
547.7	376.69
547.914	364.69
548.127	384.69
548.34	352.69
548.554	349.69
548.767	376.69
548.98	350.69
549.193	357.69
549.407	365.69
549.62	375.69
549.833	349.69
550.046	344.69
550.259	358.69
550.473	360.69
550.686	365.69
550.899	368.69
551.112	359.69
551.325	360.69
551.538	367.69
551.751	362.69
551.964	376.69
552.177	359.69
552.39	357.69
552.603	374.69
552.816	385.69
553.029	388.69
553.242	387.69
553.455	393.69
553.667	397.69
553.88	383.69
554.093	384.69
554.306	358.69
554.519	374.69
554.732	356.69
554.944	370.69
555.157	357.69
555.37	330.69
555.583	334.69
555.795	346.69
556.008	324.69
556.221	328.69
556.433	329.69
556.646	330.69
556.859	322.69
557.071	338.69
557.284	326.69
557.496	339.69
557.709	315.69
557.921	300.69
558.134	331.69
558.346	322.69
558.559	314.69
558.771	318.69
558.984	329.69
559.196	337.69
559.409	309.69
559.621	312.69
559.833	322.69
560.046	339.69
560.258	328.69
560.47	316.69
560.683	322.69
560.895	314.69
561.107	306.69
561.32	330.69
561.532	306.69
561.744	313.69
561.956	307.69
562.168	320.69
562.381	320.69
562.593	325.69
562.805	306.69
563.017	322.69
563.229	312.69
563.441	329.69
563.653	314.69
563.865	313.69
564.077	321.69
564.289	320.69
564.501	325.69
564.713	320.69
564.925	324.69
565.137	338.69
565.349	336.69
565.561	361.69
565.773	341.69
565.985	371.69
566.197	386.69
566.408	404.69
566.62	395.69
566.832	391.69
567.044	421.69
567.255	403.69
567.467	432.69
567.679	426.69
567.891	428.69
568.102	437.69
568.314	427.69
568.526	406.69
568.737	397.69
568.949	368.69
569.161	355.69
569.372	344.69
569.584	361.69
569.795	346.69
570.007	313.69
570.218	328.69
570.43	318.69
570.641	310.69
570.853	332.69
571.064	305.69
571.276	326.69
571.487	296.69
571.698	285.69
571.91	291.69
572.121	280.69
572.333	288.69
572.544	294.69
572.755	292.69
572.966	290.69
573.178	268.69
573.389	266.69
573.6	243.69
573.811	272.69
574.023	277.69
574.234	302.69
574.445	277.69
574.656	264.69
574.867	260.69
575.078	257.69
575.289	277.69
575.501	240.69
575.712	266.69
575.923	260.69
576.134	243.69
576.345	247.69
576.556	260.69
576.767	247.69
576.978	260.69
577.188	261.69
577.399	243.69
577.61	260.69
577.821	249.69
578.032	259.69
578.243	252.69
578.454	236.69
578.665	247.69
578.875	221.69
579.086	253.69
579.297	260.69
579.508	248.69
579.718	238.69
579.929	246.69
580.14	237.69
580.35	250.69
580.561	241.69
580.772	241.69
580.982	224.69
581.193	228.69
581.403	238.69
581.614	230.69
581.825	215.69
582.035	256.69
582.246	251.69
582.456	221.69
582.667	217.69
582.877	247.69
583.087	245.69
583.298	234.69
583.508	231.69
583.719	238.69
583.929	241.69
584.139	244.69
584.35	242.69
584.56	252.69
584.77	244.69
584.981	238.69
585.191	241.69
585.401	223.69
585.611	219.69
585.821	219.69
586.032	232.69
586.242	239.69
586.452	230.69
586.662	233.69
586.872	220.69
587.082	228.69
587.292	220.69
587.502	229.69
587.713	228.69
587.923	224.69
588.133	230.69
588.343	248.69
588.553	232.69
588.762	219.69
588.972	231.69
589.182	262.69
589.392	227.69
589.602	235.69
589.812	234.69
590.022	214.69
590.232	213.69
590.441	227.69
590.651	222.69
590.861	215.69
591.071	212.69
591.281	243.69
591.49	220.69
591.7	221.69
591.91	235.69
592.119	234.69
592.329	226.69
592.539	261.69
592.748	248.69
592.958	246.69
593.167	252.69
593.377	249.69
593.587	241.69
593.796	246.69
594.006	241.69
594.215	259.69
594.424	245.69
594.634	237.69
594.843	256.69
595.053	220.69
595.262	242.69
595.472	235.69
595.681	216.69
595.89	218.69
596.1	235.69
596.309	239.69
596.518	205.69
596.727	220.69
596.937	234.69
597.146	218.69
597.355	240.69
597.564	203.69
597.774	200.69
597.983	210.69
598.192	215.69
598.401	217.69
598.61	211.69
598.819	209.69
599.028	201.69
599.237	206.69
599.446	224.69
599.655	211.69
599.864	213.69
600.073	207.69
600.282	205.69
600.491	189.69
600.7	193.69
600.909	203.69
601.118	205.69
601.327	197.69
601.536	181.69
601.745	216.69
601.953	189.69
602.162	197.69
602.371	207.69
602.58	192.69
602.789	183.69
602.997	186.69
603.206	192.69
603.415	186.69
603.623	190.69
603.832	204.69
604.041	194.69
604.249	190.69
604.458	200.69
604.666	198.69
604.875	196.69
605.084	205.69
605.292	189.69
605.501	187.69
605.709	181.69
605.918	168.69
606.126	196.69
606.334	193.69
606.543	195.69
606.751	189.69
606.96	180.69
607.168	193.69
607.376	189.69
607.585	204.69
607.793	178.69
608.001	194.69
608.21	200.69
608.418	186.69
608.626	190.69
608.834	202.69
609.043	178.69
609.251	181.69
609.459	177.69
609.667	189.69
609.875	188.69
610.083	197.69
610.291	178.69
610.499	186.69
610.707	192.69
610.916	194.69
611.124	184.69
611.332	185.69
611.54	188.69
611.748	200.69
611.955	196.69
612.163	181.69
612.371	184.69
612.579	177.69
612.787	177.69
612.995	187.69
613.203	184.69
613.411	184.69
613.618	178.69
613.826	180.69
614.034	181.69
614.242	172.69
614.449	183.69
614.657	186.69
614.865	190.69
615.072	188.69
615.28	178.69
615.488	174.69
615.695	189.69
615.903	179.69
616.111	193.69
616.318	189.69
616.526	186.69
616.733	197.69
616.941	168.69
617.148	184.69
617.356	176.69
617.563	188.69
617.771	181.69
617.978	176.69
618.185	178.69
618.393	174.69
618.6	180.69
618.807	169.69
619.015	171.69
619.222	176.69
619.429	178.69
619.637	172.69
619.844	180.69
620.051	182.69
620.258	173.69
620.466	173.69
620.673	165.69
620.88	161.69
621.087	162.69
621.294	171.69
621.501	169.69
621.708	154.69
621.915	186.69
622.122	189.69
622.329	164.69
622.536	170.69
622.743	192.69
622.95	174.69
623.157	162.69
623.364	160.69
623.571	168.69
623.778	183.69
623.985	178.69
624.192	170.69
624.399	164.69
624.606	179.69
624.812	162.69
625.019	176.69
625.226	154.69
625.433	174.69
625.639	148.69
625.846	162.69
626.053	171.69
626.259	178.69
626.466	160.69
626.673	174.69
626.879	175.69
627.086	174.69
627.293	165.69
627.499	172.69
627.706	178.69
627.912	173.69
628.119	150.69
628.325	158.69
628.532	172.69
628.738	165.69
628.945	158.69
629.151	158.69
629.357	158.69
629.564	158.69
629.77	161.69
629.976	151.69
630.183	156.69
630.389	155.69
630.595	162.69
630.802	172.69
631.008	159.69
631.214	162.69
631.42	156.69
631.627	164.69
631.833	157.69
632.039	160.69
632.245	170.69
632.451	156.69
632.657	153.69
632.863	139.69
633.069	153.69
633.275	157.69
633.481	150.69
633.688	160.69
633.893	168.69
634.099	151.69
634.305	170.69
634.511	145.69
634.717	156.69
634.923	148.69
635.129	156.69
635.335	151.69
635.541	141.69
635.747	160.69
635.952	171.69
636.158	140.69
636.364	163.69
636.57	150.69
636.775	155.69
636.981	166.69
637.187	166.69
637.392	164.69
637.598	147.69
637.804	158.69
638.009	149.69
638.215	168.69
638.421	160.69
638.626	144.69
638.832	138.69
639.037	152.69
639.243	154.69
639.448	161.69
639.654	151.69
639.859	157.69
640.065	146.69
640.27	154.69
640.475	142.69
640.681	163.69
640.886	166.69
641.091	157.69
641.297	146.69
641.502	158.69
641.707	144.69
641.913	159.69
642.118	145.69
642.323	155.69
642.528	147.69
642.733	138.69
642.939	136.69
643.144	156.69
643.349	161.69
643.554	164.69
643.759	143.69
643.964	147.69
644.169	163.69
644.374	156.69
644.579	146.69
644.784	140.69
644.989	140.69
645.194	156.69
645.399	156.69
645.604	158.69
645.809	136.69
646.014	162.69
646.219	147.69
646.423	156.69
646.628	164.69
646.833	148.69
647.038	159.69
647.243	153.69
647.447	167.69
647.652	171.69
647.857	149.69
648.062	174.69
648.266	166.69
648.471	159.69
648.676	165.69
648.88	163.69
649.085	141.69
649.289	162.69
649.494	148.69
649.698	155.69
649.903	155.69
650.107	160.69
650.312	159.69
650.516	149.69
650.721	157.69
650.925	149.69
651.13	138.69
651.334	140.69
651.539	157.69
651.743	143.69
651.947	161.69
652.152	160.69
652.356	148.69
652.56	134.69
652.764	143.69
652.969	155.69
653.173	143.69
653.377	146.69
653.581	143.69
653.785	148.69
653.99	138.69
654.194	138.69
654.398	131.69
654.602	140.69
654.806	151.69
655.01	151.69
655.214	147.69
655.418	129.69
655.622	152.69
655.826	140.69
656.03	142.69
656.234	150.69
656.438	155.69
656.642	152.69
656.846	148.69
657.049	151.69
657.253	159.69
657.457	132.69
657.661	132.69
657.865	154.69
658.068	136.69
658.272	138.69
658.476	138.69
658.68	123.69
658.883	114.69
659.087	112.69
659.291	117.69
659.494	127.69
659.698	101.69
659.901	105.69
660.105	104.69
660.309	96.69
660.512	109.69
660.716	116.69
660.919	104.69
661.123	101.69
661.326	109.69
661.53	89.69
661.733	98.69
661.936	88.69
662.14	92.69
662.343	98.69
662.546	80.69
662.75	94.69
662.953	88.69
663.156	92.69
663.36	88.69
663.563	86.69
663.766	92.69
663.969	81.69
664.173	98.69
664.376	91.69
664.579	90.69
664.782	89.69
664.985	89.69
665.188	92.69
665.391	92.69
665.594	85.69
665.797	83.69
666	89.69
666.203	84.69
666.406	74.69
666.609	87.69
666.812	89.69
667.015	60.69
667.218	89.69
667.421	83.69
667.624	88.69
667.827	88.69
668.03	87.69
668.232	86.69
668.435	83.69
668.638	93.69
668.841	89.69
669.043	85.69
669.246	85.69
669.449	92.69
669.651	80.69
669.854	91.69
670.057	77.69
670.259	79.69
670.462	98.69
670.665	91.69
670.867	83.69
671.07	108.69
671.272	88.69
671.475	83.69
671.677	86.69
671.88	83.69
672.082	66.69
672.284	81.69
672.487	93.69
672.689	91.69
672.892	91.69
