Data from Fe(NO3)3@0.0125M.TitratingCurve.Agarose3%dH2O.NegLispCup.LampEnergy10.LIBS07252019_HRD10591_16-59-05-340.txt Node
Date: Thu Jul 25 16:59:05 EDT 2019
User: cochatt
Spectrometer: HR+D1059
Trigger mode: 1
Integration Time (sec): 1.000000E-1
Scans to average: 1
Electric dark correction enabled: true
Nonlinearity correction enabled: false
Boxcar width: 0
XAxis mode: Wavelengths
Number of Pixels in Spectrum: 2048
>>>>>Begin Spectral Data<<<<<
223.165	-9.31
223.4	-9.31
223.635	-9.31
223.869	-23.31
224.104	-13.31
224.338	-3.31
224.573	-30.31
224.808	-15.31
225.042	-2.31
225.277	-3.31
225.511	-3.31
225.746	8.69
225.98	8.69
226.215	3.69
226.449	7.69
226.683	15.69
226.918	25.69
227.152	33.69
227.387	28.69
227.621	44.69
227.856	52.69
228.09	30.69
228.324	44.69
228.559	56.69
228.793	66.69
229.027	92.69
229.262	90.69
229.496	97.69
229.73	98.69
229.964	97.69
230.199	105.69
230.433	114.69
230.667	116.69
230.901	112.69
231.136	112.69
231.37	104.69
231.604	122.69
231.838	114.69
232.072	124.69
232.306	118.69
232.541	123.69
232.775	131.69
233.009	127.69
233.243	127.69
233.477	120.69
233.711	134.69
233.945	125.69
234.179	131.69
234.413	119.69
234.647	129.69
234.881	123.69
235.115	123.69
235.349	138.69
235.583	133.69
235.817	139.69
236.051	136.69
236.285	127.69
236.519	129.69
236.753	145.69
236.987	125.69
237.221	134.69
237.455	152.69
237.689	116.69
237.922	128.69
238.156	147.69
238.39	143.69
238.624	154.69
238.858	150.69
239.091	134.69
239.325	140.69
239.559	139.69
239.793	155.69
240.027	163.69
240.26	165.69
240.494	142.69
240.728	141.69
240.961	154.69
241.195	156.69
241.429	144.69
241.662	141.69
241.896	157.69
242.13	145.69
242.363	164.69
242.597	147.69
242.83	160.69
243.064	143.69
243.298	154.69
243.531	153.69
243.765	160.69
243.998	151.69
244.232	148.69
244.465	156.69
244.699	173.69
244.932	169.69
245.166	173.69
245.399	169.69
245.633	177.69
245.866	175.69
246.099	180.69
246.333	160.69
246.566	175.69
246.8	179.69
247.033	179.69
247.266	198.69
247.5	167.69
247.733	188.69
247.966	181.69
248.2	188.69
248.433	179.69
248.666	181.69
248.899	201.69
249.133	180.69
249.366	207.69
249.599	196.69
249.832	208.69
250.066	181.69
250.299	184.69
250.532	196.69
250.765	205.69
250.998	200.69
251.231	178.69
251.465	201.69
251.698	204.69
251.931	192.69
252.164	203.69
252.397	212.69
252.63	201.69
252.863	204.69
253.096	225.69
253.329	201.69
253.562	198.69
253.795	217.69
254.028	218.69
254.261	223.69
254.494	223.69
254.727	226.69
254.96	211.69
255.193	205.69
255.426	225.69
255.659	210.69
255.892	218.69
256.124	213.69
256.357	213.69
256.59	230.69
256.823	225.69
257.056	225.69
257.289	218.69
257.521	237.69
257.754	220.69
257.987	239.69
258.22	233.69
258.452	240.69
258.685	247.69
258.918	229.69
259.151	253.69
259.383	252.69
259.616	247.69
259.849	266.69
260.081	244.69
260.314	257.69
260.547	265.69
260.779	248.69
261.012	241.69
261.244	258.69
261.477	255.69
261.71	246.69
261.942	259.69
262.175	262.69
262.407	264.69
262.64	246.69
262.872	245.69
263.105	268.69
263.337	269.69
263.57	271.69
263.802	262.69
264.035	261.69
264.267	275.69
264.499	275.69
264.732	264.69
264.964	260.69
265.197	254.69
265.429	257.69
265.661	266.69
265.894	279.69
266.126	270.69
266.358	275.69
266.591	256.69
266.823	291.69
267.055	273.69
267.287	284.69
267.52	307.69
267.752	306.69
267.984	292.69
268.216	289.69
268.448	297.69
268.681	276.69
268.913	292.69
269.145	294.69
269.377	297.69
269.609	272.69
269.841	278.69
270.073	306.69
270.306	307.69
270.538	291.69
270.77	293.69
271.002	295.69
271.234	303.69
271.466	309.69
271.698	296.69
271.93	308.69
272.162	327.69
272.394	324.69
272.626	309.69
272.858	314.69
273.09	324.69
273.322	312.69
273.553	324.69
273.785	330.69
274.017	323.69
274.249	328.69
274.481	361.69
274.713	322.69
274.945	348.69
275.176	327.69
275.408	358.69
275.64	341.69
275.872	356.69
276.104	334.69
276.335	320.69
276.567	351.69
276.799	328.69
277.031	348.69
277.262	333.69
277.494	352.69
277.726	343.69
277.957	362.69
278.189	339.69
278.421	359.69
278.652	342.69
278.884	349.69
279.115	360.69
279.347	347.69
279.579	350.69
279.81	343.69
280.042	327.69
280.273	353.69
280.505	360.69
280.736	351.69
280.968	349.69
281.199	359.69
281.431	372.69
281.662	379.69
281.894	347.69
282.125	368.69
282.356	373.69
282.588	359.69
282.819	379.69
283.051	360.69
283.282	375.69
283.513	387.69
283.745	378.69
283.976	383.69
284.207	367.69
284.439	385.69
284.67	390.69
284.901	402.69
285.132	383.69
285.364	385.69
285.595	389.69
285.826	387.69
286.057	398.69
286.288	394.69
286.52	417.69
286.751	392.69
286.982	416.69
287.213	404.69
287.444	398.69
287.675	428.69
287.906	399.69
288.138	404.69
288.369	422.69
288.6	394.69
288.831	417.69
289.062	410.69
289.293	417.69
289.524	403.69
289.755	400.69
289.986	424.69
290.217	431.69
290.448	423.69
290.679	438.69
290.91	431.69
291.141	406.69
291.371	391.69
291.602	407.69
291.833	426.69
292.064	436.69
292.295	397.69
292.526	430.69
292.757	409.69
292.987	421.69
293.218	420.69
293.449	412.69
293.68	424.69
293.91	411.69
294.141	424.69
294.372	435.69
294.603	443.69
294.833	427.69
295.064	455.69
295.295	417.69
295.525	415.69
295.756	440.69
295.987	430.69
296.217	443.69
296.448	445.69
296.679	437.69
296.909	441.69
297.14	436.69
297.37	436.69
297.601	452.69
297.831	453.69
298.062	441.69
298.292	460.69
298.523	443.69
298.753	448.69
298.984	467.69
299.214	467.69
299.445	479.69
299.675	437.69
299.905	465.69
300.136	460.69
300.366	461.69
300.597	471.69
300.827	465.69
301.057	463.69
301.288	471.69
301.518	473.69
301.748	468.69
301.979	469.69
302.209	476.69
302.439	490.69
302.669	491.69
302.9	480.69
303.13	479.69
303.36	497.69
303.59	474.69
303.82	491.69
304.051	500.69
304.281	521.69
304.511	491.69
304.741	474.69
304.971	519.69
305.201	497.69
305.431	517.69
305.661	502.69
305.891	517.69
306.121	503.69
306.352	501.69
306.582	488.69
306.812	513.69
307.042	508.69
307.272	490.69
307.502	492.69
307.731	496.69
307.961	526.69
308.191	515.69
308.421	523.69
308.651	534.69
308.881	505.69
309.111	510.69
309.341	509.69
309.571	517.69
309.8	531.69
310.03	525.69
310.26	513.69
310.49	533.69
310.72	523.69
310.949	531.69
311.179	523.69
311.409	513.69
311.639	520.69
311.868	543.69
312.098	541.69
312.328	514.69
312.557	524.69
312.787	549.69
313.017	522.69
313.246	539.69
313.476	531.69
313.706	557.69
313.935	555.69
314.165	567.69
314.394	543.69
314.624	558.69
314.853	538.69
315.083	556.69
315.312	557.69
315.542	553.69
315.771	564.69
316.001	565.69
316.23	577.69
316.46	574.69
316.689	577.69
316.919	579.69
317.148	584.69
317.377	575.69
317.607	570.69
317.836	579.69
318.065	577.69
318.295	593.69
318.524	566.69
318.753	568.69
318.983	579.69
319.212	578.69
319.441	560.69
319.67	566.69
319.9	578.69
320.129	583.69
320.358	596.69
320.587	601.69
320.816	591.69
321.046	592.69
321.275	601.69
321.504	591.69
321.733	586.69
321.962	609.69
322.191	582.69
322.42	609.69
322.649	602.69
322.878	599.69
323.108	611.69
323.337	613.69
323.566	592.69
323.795	602.69
324.024	620.69
324.253	610.69
324.482	608.69
324.71	607.69
324.939	586.69
325.168	608.69
325.397	603.69
325.626	617.69
325.855	610.69
326.084	632.69
326.313	633.69
326.542	619.69
326.77	608.69
326.999	631.69
327.228	629.69
327.457	639.69
327.686	627.69
327.914	642.69
328.143	641.69
328.372	623.69
328.6	634.69
328.829	640.69
329.058	629.69
329.287	635.69
329.515	643.69
329.744	620.69
329.972	660.69
330.201	632.69
330.43	644.69
330.658	659.69
330.887	640.69
331.115	653.69
331.344	651.69
331.572	637.69
331.801	660.69
332.03	665.69
332.258	645.69
332.486	670.69
332.715	654.69
332.943	644.69
333.172	643.69
333.4	649.69
333.629	677.69
333.857	642.69
334.085	693.69
334.314	688.69
334.542	657.69
334.771	679.69
334.999	671.69
335.227	661.69
335.455	691.69
335.684	709.69
335.912	689.69
336.14	696.69
336.369	699.69
336.597	667.69
336.825	706.69
337.053	689.69
337.281	692.69
337.51	680.69
337.738	690.69
337.966	687.69
338.194	674.69
338.422	675.69
338.65	665.69
338.878	694.69
339.106	682.69
339.334	683.69
339.562	651.69
339.79	697.69
340.018	675.69
340.246	659.69
340.474	679.69
340.702	690.69
340.93	659.69
341.158	691.69
341.386	678.69
341.614	684.69
341.842	661.69
342.07	691.69
342.298	663.69
342.526	665.69
342.754	680.69
342.981	679.69
343.209	700.69
343.437	680.69
343.665	691.69
343.893	678.69
344.12	687.69
344.348	684.69
344.576	718.69
344.804	673.69
345.031	680.69
345.259	692.69
345.487	675.69
345.714	674.69
345.942	682.69
346.17	680.69
346.397	680.69
346.625	690.69
346.853	681.69
347.08	682.69
347.308	661.69
347.535	656.69
347.763	659.69
347.99	675.69
348.218	667.69
348.445	682.69
348.673	652.69
348.9	654.69
349.128	651.69
349.355	659.69
349.583	649.69
349.81	677.69
350.037	652.69
350.265	663.69
350.492	666.69
350.72	656.69
350.947	652.69
351.174	654.69
351.402	649.69
351.629	677.69
351.856	664.69
352.083	668.69
352.311	643.69
352.538	653.69
352.765	644.69
352.992	678.69
353.22	643.69
353.447	638.69
353.674	635.69
353.901	659.69
354.128	657.69
354.355	668.69
354.583	651.69
354.81	646.69
355.037	661.69
355.264	641.69
355.491	671.69
355.718	673.69
355.945	688.69
356.172	662.69
356.399	636.69
356.626	658.69
356.853	681.69
357.08	687.69
357.307	640.69
357.534	668.69
357.761	659.69
357.988	675.69
358.215	696.69
358.441	674.69
358.668	676.69
358.895	660.69
359.122	652.69
359.349	645.69
359.576	673.69
359.802	676.69
360.029	663.69
360.256	659.69
360.483	678.69
360.709	706.69
360.936	673.69
361.163	698.69
361.39	667.69
361.616	685.69
361.843	673.69
362.07	687.69
362.296	655.69
362.523	662.69
362.749	665.69
362.976	684.69
363.203	680.69
363.429	680.69
363.656	669.69
363.882	691.69
364.109	671.69
364.335	662.69
364.562	675.69
364.788	674.69
365.015	696.69
365.241	690.69
365.468	686.69
365.694	679.69
365.92	673.69
366.147	683.69
366.373	705.69
366.599	691.69
366.826	667.69
367.052	701.69
367.278	681.69
367.505	707.69
367.731	715.69
367.957	706.69
368.184	700.69
368.41	713.69
368.636	692.69
368.862	700.69
369.089	700.69
369.315	706.69
369.541	709.69
369.767	692.69
369.993	706.69
370.219	699.69
370.445	721.69
370.672	711.69
370.898	706.69
371.124	713.69
371.35	689.69
371.576	708.69
371.802	721.69
372.028	712.69
372.254	702.69
372.48	696.69
372.706	721.69
372.932	708.69
373.158	742.69
373.384	711.69
373.61	707.69
373.835	693.69
374.061	732.69
374.287	729.69
374.513	737.69
374.739	752.69
374.965	724.69
375.191	728.69
375.416	736.69
375.642	737.69
375.868	733.69
376.094	727.69
376.319	709.69
376.545	717.69
376.771	715.69
376.997	701.69
377.222	742.69
377.448	711.69
377.674	691.69
377.899	701.69
378.125	718.69
378.35	701.69
378.576	699.69
378.802	710.69
379.027	719.69
379.253	711.69
379.478	711.69
379.704	724.69
379.929	709.69
380.155	720.69
380.38	703.69
380.606	709.69
380.831	712.69
381.057	723.69
381.282	725.69
381.507	709.69
381.733	747.69
381.958	739.69
382.184	729.69
382.409	717.69
382.634	762.69
382.86	731.69
383.085	747.69
383.31	730.69
383.535	737.69
383.761	711.69
383.986	718.69
384.211	753.69
384.436	769.69
384.662	745.69
384.887	747.69
385.112	754.69
385.337	719.69
385.562	745.69
385.787	748.69
386.013	754.69
386.238	775.69
386.463	774.69
386.688	772.69
386.913	772.69
387.138	760.69
387.363	760.69
387.588	784.69
387.813	763.69
388.038	796.69
388.263	782.69
388.488	771.69
388.713	759.69
388.938	768.69
389.163	776.69
389.387	779.69
389.612	770.69
389.837	783.69
390.062	777.69
390.287	780.69
390.512	770.69
390.736	790.69
390.961	785.69
391.186	785.69
391.411	809.69
391.636	787.69
391.86	763.69
392.085	787.69
392.31	802.69
392.534	809.69
392.759	791.69
392.984	789.69
393.208	780.69
393.433	805.69
393.658	806.69
393.882	805.69
394.107	761.69
394.331	758.69
394.556	773.69
394.78	764.69
395.005	802.69
395.229	780.69
395.454	788.69
395.678	784.69
395.903	793.69
396.127	802.69
396.352	805.69
396.576	803.69
396.801	806.69
397.025	829.69
397.249	819.69
397.474	817.69
397.698	801.69
397.922	828.69
398.147	821.69
398.371	832.69
398.595	853.69
398.82	815.69
399.044	848.69
399.268	863.69
399.492	882.69
399.717	864.69
399.941	862.69
400.165	853.69
400.389	885.69
400.613	868.69
400.837	854.69
401.062	857.69
401.286	857.69
401.51	875.69
401.734	858.69
401.958	836.69
402.182	841.69
402.406	835.69
402.63	817.69
402.854	846.69
403.078	835.69
403.302	834.69
403.526	836.69
403.75	838.69
403.974	836.69
404.198	837.69
404.422	867.69
404.645	852.69
404.869	847.69
405.093	824.69
405.317	821.69
405.541	840.69
405.765	861.69
405.988	884.69
406.212	841.69
406.436	868.69
406.66	871.69
406.883	873.69
407.107	884.69
407.331	895.69
407.555	903.69
407.778	886.69
408.002	874.69
408.226	904.69
408.449	909.69
408.673	884.69
408.896	890.69
409.12	866.69
409.344	870.69
409.567	862.69
409.791	866.69
410.014	861.69
410.238	871.69
410.461	859.69
410.685	863.69
410.908	867.69
411.132	845.69
411.355	867.69
411.578	866.69
411.802	860.69
412.025	836.69
412.249	852.69
412.472	861.69
412.695	858.69
412.919	842.69
413.142	839.69
413.365	870.69
413.589	860.69
413.812	816.69
414.035	857.69
414.258	825.69
414.482	842.69
414.705	830.69
414.928	803.69
415.151	832.69
415.374	821.69
415.597	837.69
415.821	804.69
416.044	821.69
416.267	816.69
416.49	831.69
416.713	804.69
416.936	820.69
417.159	826.69
417.382	784.69
417.605	789.69
417.828	803.69
418.051	794.69
418.274	811.69
418.497	789.69
418.72	802.69
418.943	799.69
419.166	807.69
419.389	845.69
419.611	844.69
419.834	824.69
420.057	796.69
420.28	797.69
420.503	769.69
420.726	766.69
420.948	796.69
421.171	775.69
421.394	805.69
421.617	781.69
421.839	767.69
422.062	795.69
422.285	784.69
422.507	786.69
422.73	768.69
422.953	765.69
423.175	805.69
423.398	794.69
423.621	802.69
423.843	813.69
424.066	793.69
424.288	799.69
424.511	789.69
424.733	792.69
424.956	791.69
425.178	793.69
425.401	791.69
425.623	776.69
425.846	800.69
426.068	803.69
426.291	805.69
426.513	800.69
426.735	789.69
426.958	802.69
427.18	774.69
427.402	771.69
427.625	783.69
427.847	775.69
428.069	773.69
428.292	777.69
428.514	772.69
428.736	800.69
428.958	807.69
429.181	772.69
429.403	773.69
429.625	741.69
429.847	771.69
430.069	773.69
430.292	763.69
430.514	771.69
430.736	778.69
430.958	784.69
431.18	784.69
431.402	786.69
431.624	759.69
431.846	743.69
432.068	780.69
432.29	793.69
432.512	766.69
432.734	791.69
432.956	777.69
433.178	757.69
433.4	778.69
433.622	783.69
433.844	795.69
434.066	797.69
434.287	771.69
434.509	808.69
434.731	788.69
434.953	771.69
435.175	763.69
435.397	778.69
435.618	791.69
435.84	760.69
436.062	738.69
436.284	771.69
436.505	777.69
436.727	745.69
436.949	761.69
437.17	770.69
437.392	742.69
437.614	732.69
437.835	757.69
438.057	755.69
438.278	762.69
438.5	751.69
438.721	749.69
438.943	761.69
439.165	768.69
439.386	755.69
439.608	755.69
439.829	772.69
440.05	745.69
440.272	761.69
440.493	774.69
440.715	764.69
440.936	748.69
441.158	775.69
441.379	757.69
441.6	769.69
441.822	775.69
442.043	763.69
442.264	759.69
442.486	767.69
442.707	776.69
442.928	771.69
443.149	779.69
443.371	780.69
443.592	777.69
443.813	795.69
444.034	739.69
444.255	732.69
444.476	746.69
444.698	784.69
444.919	778.69
445.14	876.69
445.361	800.69
445.582	771.69
445.803	773.69
446.024	752.69
446.245	744.69
446.466	739.69
446.687	725.69
446.908	771.69
447.129	727.69
447.35	768.69
447.571	748.69
447.792	717.69
448.013	744.69
448.234	710.69
448.455	728.69
448.675	732.69
448.896	751.69
449.117	725.69
449.338	732.69
449.559	710.69
449.779	723.69
450	718.69
450.221	737.69
450.442	729.69
450.662	717.69
450.883	730.69
451.104	719.69
451.324	747.69
451.545	727.69
451.766	687.69
451.986	697.69
452.207	691.69
452.428	707.69
452.648	719.69
452.869	697.69
453.089	688.69
453.31	712.69
453.53	685.69
453.751	713.69
453.971	711.69
454.192	699.69
454.412	703.69
454.633	704.69
454.853	711.69
455.073	693.69
455.294	684.69
455.514	697.69
455.734	694.69
455.955	673.69
456.175	693.69
456.395	690.69
456.616	710.69
456.836	714.69
457.056	703.69
457.276	732.69
457.497	702.69
457.717	710.69
457.937	712.69
458.157	723.69
458.377	712.69
458.598	711.69
458.818	722.69
459.038	708.69
459.258	737.69
459.478	736.69
459.698	753.69
459.918	765.69
460.138	730.69
460.358	759.69
460.578	723.69
460.798	747.69
461.018	761.69
461.238	778.69
461.458	767.69
461.678	767.69
461.898	769.69
462.118	749.69
462.338	799.69
462.558	796.69
462.777	789.69
462.997	793.69
463.217	797.69
463.437	816.69
463.657	791.69
463.876	813.69
464.096	807.69
464.316	790.69
464.536	775.69
464.755	804.69
464.975	771.69
465.195	790.69
465.414	762.69
465.634	746.69
465.854	750.69
466.073	746.69
466.293	749.69
466.512	763.69
466.732	785.69
466.951	738.69
467.171	746.69
467.391	780.69
467.61	728.69
467.829	741.69
468.049	748.69
468.268	764.69
468.488	742.69
468.707	775.69
468.927	760.69
469.146	764.69
469.365	724.69
469.585	739.69
469.804	761.69
470.023	779.69
470.243	715.69
470.462	752.69
470.681	745.69
470.901	781.69
471.12	730.69
471.339	764.69
471.558	743.69
471.777	767.69
471.997	754.69
472.216	769.69
472.435	771.69
472.654	763.69
472.873	763.69
473.092	755.69
473.311	778.69
473.53	786.69
473.749	757.69
473.968	806.69
474.187	800.69
474.406	770.69
474.625	801.69
474.844	782.69
475.063	792.69
475.282	801.69
475.501	804.69
475.72	819.69
475.939	806.69
476.158	817.69
476.377	843.69
476.596	842.69
476.814	846.69
477.033	844.69
477.252	837.69
477.471	848.69
477.69	841.69
477.908	827.69
478.127	859.69
478.346	844.69
478.564	871.69
478.783	869.69
479.002	867.69
479.22	901.69
479.439	903.69
479.658	891.69
479.876	929.69
480.095	911.69
480.313	923.69
480.532	908.69
480.751	916.69
480.969	915.69
481.188	915.69
481.406	894.69
481.624	924.69
481.843	895.69
482.061	934.69
482.28	914.69
482.498	901.69
482.717	925.69
482.935	936.69
483.153	925.69
483.372	917.69
483.59	931.69
483.808	932.69
484.027	922.69
484.245	958.69
484.463	945.69
484.681	985.69
484.9	956.69
485.118	936.69
485.336	951.69
485.554	956.69
485.772	932.69
485.99	920.69
486.209	950.69
486.427	923.69
486.645	969.69
486.863	937.69
487.081	970.69
487.299	970.69
487.517	969.69
487.735	966.69
487.953	955.69
488.171	965.69
488.389	987.69
488.607	956.69
488.825	939.69
489.043	949.69
489.261	943.69
489.479	937.69
489.696	972.69
489.914	964.69
490.132	957.69
490.35	983.69
490.568	979.69
490.786	970.69
491.003	968.69
491.221	970.69
491.439	987.69
491.657	965.69
491.874	968.69
492.092	974.69
492.31	967.69
492.527	973.69
492.745	973.69
492.963	977.69
493.18	978.69
493.398	978.69
493.615	970.69
493.833	994.69
494.05	972.69
494.268	996.69
494.485	968.69
494.703	988.69
494.92	989.69
495.138	976.69
495.355	1016.69
495.573	998.69
495.79	1004.69
496.008	1012.69
496.225	1013.69
496.442	988.69
496.66	1023.69
496.877	1023.69
497.094	1027.69
497.312	1052.69
497.529	1036.69
497.746	1065.69
497.963	1060.69
498.181	1079.69
498.398	1068.69
498.615	1083.69
498.832	1088.69
499.049	1087.69
499.267	1110.69
499.484	1144.69
499.701	1161.69
499.918	1176.69
500.135	1168.69
500.352	1214.69
500.569	1194.69
500.786	1176.69
501.003	1202.69
501.22	1154.69
501.437	1183.69
501.654	1148.69
501.871	1148.69
502.088	1112.69
502.305	1114.69
502.522	1108.69
502.739	1084.69
502.956	1054.69
503.172	1031.69
503.389	1018.69
503.606	1030.69
503.823	1009.69
504.04	996.69
504.256	988.69
504.473	978.69
504.69	988.69
504.907	985.69
505.123	985.69
505.34	967.69
505.557	962.69
505.773	975.69
505.99	956.69
506.207	929.69
506.423	925.69
506.64	917.69
506.856	920.69
507.073	936.69
507.289	896.69
507.506	913.69
507.722	885.69
507.939	889.69
508.155	908.69
508.372	866.69
508.588	879.69
508.805	870.69
509.021	850.69
509.238	862.69
509.454	838.69
509.67	838.69
509.887	865.69
510.103	853.69
510.319	844.69
510.536	856.69
510.752	844.69
510.968	836.69
511.184	869.69
511.401	835.69
511.617	823.69
511.833	827.69
512.049	842.69
512.265	845.69
512.481	852.69
512.698	845.69
512.914	831.69
513.13	838.69
513.346	845.69
513.562	817.69
513.778	820.69
513.994	841.69
514.21	834.69
514.426	823.69
514.642	833.69
514.858	821.69
515.074	829.69
515.29	847.69
515.506	844.69
515.721	847.69
515.937	819.69
516.153	831.69
516.369	855.69
516.585	835.69
516.801	823.69
517.016	845.69
517.232	869.69
517.448	868.69
517.664	865.69
517.879	845.69
518.095	852.69
518.311	840.69
518.527	835.69
518.742	839.69
518.958	832.69
519.173	843.69
519.389	867.69
519.605	834.69
519.82	837.69
520.036	846.69
520.251	813.69
520.467	835.69
520.682	803.69
520.898	813.69
521.113	820.69
521.329	817.69
521.544	804.69
521.76	826.69
521.975	785.69
522.19	803.69
522.406	778.69
522.621	800.69
522.836	785.69
523.052	803.69
523.267	801.69
523.482	778.69
523.698	767.69
523.913	768.69
524.128	778.69
524.343	761.69
524.559	776.69
524.774	770.69
524.989	777.69
525.204	779.69
525.419	779.69
525.634	775.69
525.849	778.69
526.064	765.69
526.28	777.69
526.495	763.69
526.71	759.69
526.925	762.69
527.14	742.69
527.355	756.69
527.57	761.69
527.785	763.69
527.999	748.69
528.214	753.69
528.429	736.69
528.644	754.69
528.859	773.69
529.074	754.69
529.289	738.69
529.503	742.69
529.718	741.69
529.933	731.69
530.148	745.69
530.363	743.69
530.577	721.69
530.792	729.69
531.007	756.69
531.221	709.69
531.436	746.69
531.651	749.69
531.865	728.69
532.08	740.69
532.295	766.69
532.509	724.69
532.724	727.69
532.938	742.69
533.153	711.69
533.367	727.69
533.582	721.69
533.796	716.69
534.011	716.69
534.225	712.69
534.44	713.69
534.654	720.69
534.868	721.69
535.083	712.69
535.297	728.69
535.511	712.69
535.726	713.69
535.94	689.69
536.154	701.69
536.369	702.69
536.583	696.69
536.797	710.69
537.011	675.69
537.225	688.69
537.44	692.69
537.654	692.69
537.868	717.69
538.082	698.69
538.296	705.69
538.51	689.69
538.724	687.69
538.938	682.69
539.153	683.69
539.367	706.69
539.581	684.69
539.795	667.69
540.009	703.69
540.222	692.69
540.436	709.69
540.65	685.69
540.864	685.69
541.078	669.69
541.292	665.69
541.506	657.69
541.72	677.69
541.934	676.69
542.147	685.69
542.361	676.69
542.575	670.69
542.789	674.69
543.002	678.69
543.216	669.69
543.43	659.69
543.644	675.69
543.857	677.69
544.071	649.69
544.285	663.69
544.498	667.69
544.712	677.69
544.925	655.69
545.139	659.69
545.352	665.69
545.566	661.69
545.779	631.69
545.993	644.69
546.206	680.69
546.42	652.69
546.633	657.69
546.847	673.69
547.06	659.69
547.274	643.69
547.487	657.69
547.7	667.69
547.914	665.69
548.127	670.69
548.34	672.69
548.554	646.69
548.767	677.69
548.98	654.69
549.193	642.69
549.407	639.69
549.62	648.69
549.833	666.69
550.046	632.69
550.259	652.69
550.473	634.69
550.686	650.69
550.899	631.69
551.112	632.69
551.325	643.69
551.538	643.69
551.751	667.69
551.964	624.69
552.177	636.69
552.39	607.69
552.603	647.69
552.816	646.69
553.029	632.69
553.242	653.69
553.455	664.69
553.667	659.69
553.88	626.69
554.093	623.69
554.306	639.69
554.519	612.69
554.732	608.69
554.944	635.69
555.157	634.69
555.37	615.69
555.583	605.69
555.795	602.69
556.008	592.69
556.221	617.69
556.433	600.69
556.646	583.69
556.859	599.69
557.071	586.69
557.284	601.69
557.496	593.69
557.709	585.69
557.921	600.69
558.134	589.69
558.346	590.69
558.559	574.69
558.771	588.69
558.984	565.69
559.196	571.69
559.409	579.69
559.621	576.69
559.833	566.69
560.046	580.69
560.258	559.69
560.47	576.69
560.683	561.69
560.895	566.69
561.107	574.69
561.32	577.69
561.532	579.69
561.744	558.69
561.956	566.69
562.168	565.69
562.381	577.69
562.593	581.69
562.805	551.69
563.017	575.69
563.229	553.69
563.441	543.69
563.653	557.69
563.865	568.69
564.077	576.69
564.289	565.69
564.501	567.69
564.713	571.69
564.925	573.69
565.137	600.69
565.349	560.69
565.561	567.69
565.773	574.69
565.985	595.69
566.197	571.69
566.408	594.69
566.62	590.69
566.832	574.69
567.044	578.69
567.255	582.69
567.467	589.69
567.679	584.69
567.891	580.69
568.102	585.69
568.314	573.69
568.526	557.69
568.737	554.69
568.949	559.69
569.161	535.69
569.372	524.69
569.584	529.69
569.795	547.69
570.007	524.69
570.218	516.69
570.43	521.69
570.641	504.69
570.853	536.69
571.064	520.69
571.276	512.69
571.487	504.69
571.698	498.69
571.91	489.69
572.121	491.69
572.333	501.69
572.544	481.69
572.755	486.69
572.966	484.69
573.178	469.69
573.389	500.69
573.6	472.69
573.811	470.69
574.023	474.69
574.234	436.69
574.445	467.69
574.656	458.69
574.867	458.69
575.078	439.69
575.289	455.69
575.501	447.69
575.712	453.69
575.923	446.69
576.134	454.69
576.345	457.69
576.556	459.69
576.767	434.69
576.978	425.69
577.188	439.69
577.399	435.69
577.61	406.69
577.821	446.69
578.032	417.69
578.243	437.69
578.454	438.69
578.665	445.69
578.875	444.69
579.086	414.69
579.297	427.69
579.508	425.69
579.718	413.69
579.929	420.69
580.14	404.69
580.35	421.69
580.561	424.69
580.772	398.69
580.982	420.69
581.193	413.69
581.403	403.69
581.614	401.69
581.825	415.69
582.035	409.69
582.246	412.69
582.456	412.69
582.667	419.69
582.877	388.69
583.087	395.69
583.298	375.69
583.508	387.69
583.719	404.69
583.929	384.69
584.139	396.69
584.35	385.69
584.56	384.69
584.77	395.69
584.981	384.69
585.191	385.69
585.401	361.69
585.611	377.69
585.821	379.69
586.032	368.69
586.242	384.69
586.452	372.69
586.662	381.69
586.872	378.69
587.082	384.69
587.292	398.69
587.502	379.69
587.713	372.69
587.923	360.69
588.133	380.69
588.343	373.69
588.553	374.69
588.762	373.69
588.972	387.69
589.182	387.69
589.392	397.69
589.602	368.69
589.812	397.69
590.022	365.69
590.232	367.69
590.441	372.69
590.651	393.69
590.861	373.69
591.071	367.69
591.281	371.69
591.49	346.69
591.7	340.69
591.91	374.69
592.119	369.69
592.329	361.69
592.539	340.69
592.748	369.69
592.958	357.69
593.167	366.69
593.377	369.69
593.587	360.69
593.796	352.69
594.006	356.69
594.215	355.69
594.424	357.69
594.634	343.69
594.843	351.69
595.053	349.69
595.262	364.69
595.472	358.69
595.681	354.69
595.89	343.69
596.1	353.69
596.309	314.69
596.518	322.69
596.727	324.69
596.937	331.69
597.146	346.69
597.355	333.69
597.564	360.69
597.774	335.69
597.983	349.69
598.192	349.69
598.401	338.69
598.61	341.69
598.819	335.69
599.028	327.69
599.237	332.69
599.446	339.69
599.655	321.69
599.864	340.69
600.073	311.69
600.282	320.69
600.491	325.69
600.7	332.69
600.909	334.69
601.118	314.69
601.327	336.69
601.536	319.69
601.745	299.69
601.953	316.69
602.162	322.69
602.371	296.69
602.58	313.69
602.789	316.69
602.997	321.69
603.206	295.69
603.415	315.69
603.623	321.69
603.832	303.69
604.041	284.69
604.249	279.69
604.458	303.69
604.666	301.69
604.875	295.69
605.084	299.69
605.292	287.69
605.501	296.69
605.709	296.69
605.918	307.69
606.126	303.69
606.334	303.69
606.543	286.69
606.751	308.69
606.96	300.69
607.168	293.69
607.376	282.69
607.585	307.69
607.793	295.69
608.001	287.69
608.21	312.69
608.418	308.69
608.626	291.69
608.834	283.69
609.043	280.69
609.251	294.69
609.459	298.69
609.667	290.69
609.875	308.69
610.083	293.69
610.291	299.69
610.499	300.69
610.707	291.69
610.916	263.69
611.124	287.69
611.332	282.69
611.54	282.69
611.748	278.69
611.955	283.69
612.163	292.69
612.371	287.69
612.579	270.69
612.787	291.69
612.995	299.69
613.203	298.69
613.411	281.69
613.618	280.69
613.826	281.69
614.034	279.69
614.242	264.69
614.449	279.69
614.657	277.69
614.865	283.69
615.072	275.69
615.28	277.69
615.488	269.69
615.695	275.69
615.903	265.69
616.111	285.69
616.318	287.69
616.526	273.69
616.733	273.69
616.941	285.69
617.148	283.69
617.356	259.69
617.563	273.69
617.771	290.69
617.978	267.69
618.185	284.69
618.393	259.69
618.6	273.69
618.807	259.69
619.015	281.69
619.222	275.69
619.429	276.69
619.637	279.69
619.844	244.69
620.051	266.69
620.258	267.69
620.466	241.69
620.673	243.69
620.88	257.69
621.087	246.69
621.294	243.69
621.501	258.69
621.708	263.69
621.915	264.69
622.122	250.69
622.329	235.69
622.536	259.69
622.743	252.69
622.95	260.69
623.157	261.69
623.364	259.69
623.571	224.69
623.778	253.69
623.985	259.69
624.192	258.69
624.399	234.69
624.606	241.69
624.812	227.69
625.019	272.69
625.226	243.69
625.433	243.69
625.639	255.69
625.846	226.69
626.053	240.69
626.259	243.69
626.466	242.69
626.673	234.69
626.879	241.69
627.086	213.69
627.293	231.69
627.499	235.69
627.706	233.69
627.912	240.69
628.119	232.69
628.325	229.69
628.532	241.69
628.738	235.69
628.945	233.69
629.151	236.69
629.357	240.69
629.564	221.69
629.77	234.69
629.976	219.69
630.183	233.69
630.389	236.69
630.595	229.69
630.802	241.69
631.008	221.69
631.214	228.69
631.42	233.69
631.627	229.69
631.833	234.69
632.039	231.69
632.245	220.69
632.451	222.69
632.657	217.69
632.863	204.69
633.069	208.69
633.275	227.69
633.481	216.69
633.688	205.69
633.893	222.69
634.099	229.69
634.305	194.69
634.511	215.69
634.717	203.69
634.923	218.69
635.129	217.69
635.335	228.69
635.541	209.69
635.747	201.69
635.952	210.69
636.158	225.69
636.364	215.69
636.57	216.69
636.775	209.69
636.981	207.69
637.187	226.69
637.392	207.69
637.598	223.69
637.804	200.69
638.009	208.69
638.215	202.69
638.421	193.69
638.626	209.69
638.832	223.69
639.037	205.69
639.243	210.69
639.448	204.69
639.654	205.69
639.859	200.69
640.065	188.69
640.27	210.69
640.475	212.69
640.681	191.69
640.886	200.69
641.091	203.69
641.297	207.69
641.502	188.69
641.707	187.69
641.913	184.69
642.118	198.69
642.323	201.69
642.528	199.69
642.733	220.69
642.939	212.69
643.144	196.69
643.349	205.69
643.554	197.69
643.759	198.69
643.964	212.69
644.169	212.69
644.374	200.69
644.579	205.69
644.784	188.69
644.989	206.69
645.194	191.69
645.399	194.69
645.604	198.69
645.809	211.69
646.014	192.69
646.219	205.69
646.423	202.69
646.628	209.69
646.833	205.69
647.038	202.69
647.243	203.69
647.447	198.69
647.652	208.69
647.857	199.69
648.062	204.69
648.266	201.69
648.471	205.69
648.676	197.69
648.88	205.69
649.085	207.69
649.289	192.69
649.494	198.69
649.698	209.69
649.903	190.69
650.107	191.69
650.312	193.69
650.516	192.69
650.721	202.69
650.925	206.69
651.13	193.69
651.334	195.69
651.539	194.69
651.743	189.69
651.947	178.69
652.152	183.69
652.356	170.69
652.56	189.69
652.764	185.69
652.969	177.69
653.173	195.69
653.377	186.69
653.581	186.69
653.785	157.69
653.99	196.69
654.194	197.69
654.398	183.69
654.602	191.69
654.806	179.69
655.01	183.69
655.214	172.69
655.418	166.69
655.622	172.69
655.826	180.69
656.03	170.69
656.234	175.69
656.438	173.69
656.642	182.69
656.846	155.69
657.049	168.69
657.253	168.69
657.457	151.69
657.661	135.69
657.865	149.69
658.068	134.69
658.272	137.69
658.476	147.69
658.68	127.69
658.883	137.69
659.087	121.69
659.291	130.69
659.494	123.69
659.698	111.69
659.901	113.69
660.105	113.69
660.309	117.69
660.512	93.69
660.716	98.69
660.919	96.69
661.123	101.69
661.326	97.69
661.53	92.69
661.733	91.69
661.936	93.69
662.14	85.69
662.343	107.69
662.546	83.69
662.75	100.69
662.953	87.69
663.156	81.69
663.36	89.69
663.563	76.69
663.766	87.69
663.969	87.69
664.173	77.69
664.376	92.69
664.579	85.69
664.782	89.69
664.985	94.69
665.188	98.69
665.391	83.69
665.594	84.69
665.797	77.69
666	77.69
666.203	83.69
666.406	77.69
666.609	83.69
666.812	80.69
667.015	70.69
667.218	69.69
667.421	74.69
667.624	65.69
667.827	79.69
668.03	72.69
668.232	76.69
668.435	72.69
668.638	88.69
668.841	89.69
669.043	77.69
669.246	88.69
669.449	70.69
669.651	85.69
669.854	81.69
670.057	89.69
670.259	68.69
670.462	86.69
670.665	73.69
670.867	90.69
671.07	73.69
671.272	87.69
671.475	58.69
671.677	68.69
671.88	80.69
672.082	59.69
672.284	87.69
672.487	91.69
672.689	80.69
672.892	91.69
