Data from Fe(NO3)3@0.05M.TitratingCurve.Agarose3%dH2O.NegLispCup.LampEnergy10.LIBS07252019_HRD10591_16-46-20-333.txt Node
Date: Thu Jul 25 16:46:20 EDT 2019
User: cochatt
Spectrometer: HR+D1059
Trigger mode: 1
Integration Time (sec): 1.000000E-1
Scans to average: 1
Electric dark correction enabled: true
Nonlinearity correction enabled: false
Boxcar width: 0
XAxis mode: Wavelengths
Number of Pixels in Spectrum: 2048
>>>>>Begin Spectral Data<<<<<
223.165	-18.94
223.4	-18.94
223.635	-18.94
223.869	-5.94
224.104	-17.94
224.338	-17.94
224.573	-18.94
224.808	-6.94
225.042	-8.94
225.277	-9.94
225.511	-9.94
225.746	10.06
225.98	13.06
226.215	9.06
226.449	9.06
226.683	17.06
226.918	29.06
227.152	28.06
227.387	25.06
227.621	49.06
227.856	41.06
228.09	58.06
228.324	37.06
228.559	49.06
228.793	81.06
229.027	134.06
229.262	159.06
229.496	171.06
229.73	156.06
229.964	169.06
230.199	193.06
230.433	180.06
230.667	188.06
230.901	180.06
231.136	190.06
231.37	178.06
231.604	202.06
231.838	187.06
232.072	208.06
232.306	206.06
232.541	213.06
232.775	205.06
233.009	212.06
233.243	202.06
233.477	203.06
233.711	222.06
233.945	222.06
234.179	212.06
234.413	234.06
234.647	221.06
234.881	251.06
235.115	247.06
235.349	245.06
235.583	234.06
235.817	261.06
236.051	247.06
236.285	235.06
236.519	236.06
236.753	254.06
236.987	258.06
237.221	267.06
237.455	253.06
237.689	247.06
237.922	254.06
238.156	285.06
238.39	284.06
238.624	301.06
238.858	297.06
239.091	290.06
239.325	285.06
239.559	287.06
239.793	313.06
240.027	317.06
240.26	306.06
240.494	305.06
240.728	321.06
240.961	317.06
241.195	324.06
241.429	321.06
241.662	309.06
241.896	311.06
242.13	318.06
242.363	321.06
242.597	296.06
242.83	313.06
243.064	337.06
243.298	342.06
243.531	339.06
243.765	350.06
243.998	348.06
244.232	362.06
244.465	342.06
244.699	332.06
244.932	347.06
245.166	354.06
245.399	337.06
245.633	355.06
245.866	351.06
246.099	359.06
246.333	372.06
246.566	355.06
246.8	383.06
247.033	371.06
247.266	385.06
247.5	381.06
247.733	369.06
247.966	375.06
248.2	376.06
248.433	387.06
248.666	415.06
248.899	417.06
249.133	411.06
249.366	418.06
249.599	425.06
249.832	457.06
250.066	421.06
250.299	410.06
250.532	431.06
250.765	420.06
250.998	420.06
251.231	449.06
251.465	428.06
251.698	407.06
251.931	426.06
252.164	440.06
252.397	450.06
252.63	486.06
252.863	463.06
253.096	488.06
253.329	481.06
253.562	472.06
253.795	512.06
254.028	539.06
254.261	549.06
254.494	499.06
254.727	479.06
254.96	498.06
255.193	494.06
255.426	503.06
255.659	485.06
255.892	475.06
256.124	462.06
256.357	513.06
256.59	506.06
256.823	500.06
257.056	513.06
257.289	503.06
257.521	505.06
257.754	504.06
257.987	506.06
258.22	497.06
258.452	511.06
258.685	546.06
258.918	545.06
259.151	545.06
259.383	537.06
259.616	565.06
259.849	571.06
260.081	648.06
260.314	681.06
260.547	612.06
260.779	577.06
261.012	593.06
261.244	582.06
261.477	649.06
261.71	618.06
261.942	551.06
262.175	564.06
262.407	572.06
262.64	577.06
262.872	603.06
263.105	619.06
263.337	636.06
263.57	652.06
263.802	556.06
264.035	558.06
264.267	567.06
264.499	561.06
264.732	574.06
264.964	569.06
265.197	569.06
265.429	575.06
265.661	558.06
265.894	583.06
266.126	594.06
266.358	606.06
266.591	593.06
266.823	606.06
267.055	637.06
267.287	620.06
267.52	596.06
267.752	607.06
267.984	622.06
268.216	606.06
268.448	604.06
268.681	610.06
268.913	630.06
269.145	617.06
269.377	637.06
269.609	606.06
269.841	642.06
270.073	639.06
270.306	642.06
270.538	645.06
270.77	642.06
271.002	675.06
271.234	630.06
271.466	676.06
271.698	687.06
271.93	665.06
272.162	665.06
272.394	697.06
272.626	669.06
272.858	709.06
273.09	693.06
273.322	685.06
273.553	687.06
273.785	737.06
274.017	797.06
274.249	839.06
274.481	812.06
274.713	877.06
274.945	889.06
275.176	912.06
275.408	855.06
275.64	843.06
275.872	831.06
276.104	780.06
276.335	724.06
276.567	730.06
276.799	746.06
277.031	753.06
277.262	735.06
277.494	734.06
277.726	734.06
277.957	721.06
278.189	759.06
278.421	767.06
278.652	757.06
278.884	736.06
279.115	718.06
279.347	761.06
279.579	753.06
279.81	767.06
280.042	770.06
280.273	757.06
280.505	753.06
280.736	754.06
280.968	766.06
281.199	783.06
281.431	787.06
281.662	800.06
281.894	786.06
282.125	784.06
282.356	799.06
282.588	781.06
282.819	787.06
283.051	793.06
283.282	779.06
283.513	800.06
283.745	804.06
283.976	818.06
284.207	835.06
284.439	798.06
284.67	850.06
284.901	808.06
285.132	828.06
285.364	822.06
285.595	838.06
285.826	836.06
286.057	842.06
286.288	843.06
286.52	855.06
286.751	823.06
286.982	807.06
287.213	844.06
287.444	834.06
287.675	867.06
287.906	844.06
288.138	859.06
288.369	831.06
288.6	856.06
288.831	878.06
289.062	862.06
289.293	860.06
289.524	886.06
289.755	869.06
289.986	849.06
290.217	840.06
290.448	867.06
290.679	872.06
290.91	857.06
291.141	865.06
291.371	871.06
291.602	889.06
291.833	837.06
292.064	875.06
292.295	854.06
292.526	864.06
292.757	885.06
292.987	856.06
293.218	876.06
293.449	876.06
293.68	871.06
293.91	871.06
294.141	866.06
294.372	858.06
294.603	890.06
294.833	894.06
295.064	886.06
295.295	886.06
295.525	911.06
295.756	893.06
295.987	895.06
296.217	889.06
296.448	918.06
296.679	924.06
296.909	939.06
297.14	916.06
297.37	935.06
297.601	922.06
297.831	947.06
298.062	933.06
298.292	929.06
298.523	940.06
298.753	959.06
298.984	958.06
299.214	939.06
299.445	901.06
299.675	956.06
299.905	952.06
300.136	927.06
300.366	934.06
300.597	932.06
300.827	966.06
301.057	986.06
301.288	960.06
301.518	937.06
301.748	977.06
301.979	1002.06
302.209	1007.06
302.439	996.06
302.669	981.06
302.9	944.06
303.13	999.06
303.36	1001.06
303.59	1002.06
303.82	979.06
304.051	1014.06
304.281	1003.06
304.511	966.06
304.741	973.06
304.971	998.06
305.201	1000.06
305.431	978.06
305.661	1013.06
305.891	968.06
306.121	997.06
306.352	993.06
306.582	1009.06
306.812	978.06
307.042	1037.06
307.272	1006.06
307.502	989.06
307.731	1011.06
307.961	999.06
308.191	1006.06
308.421	993.06
308.651	1004.06
308.881	985.06
309.111	1013.06
309.341	995.06
309.571	1004.06
309.8	1003.06
310.03	994.06
310.26	999.06
310.49	1021.06
310.72	1025.06
310.949	1013.06
311.179	1012.06
311.409	1015.06
311.639	1051.06
311.868	1059.06
312.098	1068.06
312.328	1067.06
312.557	1035.06
312.787	1051.06
313.017	1049.06
313.246	1066.06
313.476	1047.06
313.706	1069.06
313.935	1082.06
314.165	1071.06
314.394	1059.06
314.624	1116.06
314.853	1083.06
315.083	1107.06
315.312	1085.06
315.542	1104.06
315.771	1094.06
316.001	1123.06
316.23	1086.06
316.46	1085.06
316.689	1094.06
316.919	1129.06
317.148	1100.06
317.377	1105.06
317.607	1093.06
317.836	1095.06
318.065	1133.06
318.295	1123.06
318.524	1120.06
318.753	1092.06
318.983	1075.06
319.212	1104.06
319.441	1124.06
319.67	1078.06
319.9	1106.06
320.129	1118.06
320.358	1123.06
320.587	1094.06
320.816	1099.06
321.046	1126.06
321.275	1117.06
321.504	1132.06
321.733	1135.06
321.962	1138.06
322.191	1130.06
322.42	1133.06
322.649	1126.06
322.878	1101.06
323.108	1115.06
323.337	1154.06
323.566	1158.06
323.795	1134.06
324.024	1173.06
324.253	1159.06
324.482	1131.06
324.71	1168.06
324.939	1149.06
325.168	1159.06
325.397	1168.06
325.626	1173.06
325.855	1154.06
326.084	1188.06
326.313	1214.06
326.542	1187.06
326.77	1199.06
326.999	1174.06
327.228	1183.06
327.457	1190.06
327.686	1165.06
327.914	1182.06
328.143	1240.06
328.372	1193.06
328.6	1189.06
328.829	1208.06
329.058	1195.06
329.287	1218.06
329.515	1214.06
329.744	1211.06
329.972	1210.06
330.201	1235.06
330.43	1240.06
330.658	1229.06
330.887	1250.06
331.115	1257.06
331.344	1265.06
331.572	1263.06
331.801	1255.06
332.03	1302.06
332.258	1314.06
332.486	1281.06
332.715	1289.06
332.943	1302.06
333.172	1313.06
333.4	1324.06
333.629	1343.06
333.857	1365.06
334.085	1380.06
334.314	1378.06
334.542	1393.06
334.771	1401.06
334.999	1403.06
335.227	1396.06
335.455	1375.06
335.684	1370.06
335.912	1384.06
336.14	1380.06
336.369	1403.06
336.597	1397.06
336.825	1400.06
337.053	1408.06
337.281	1361.06
337.51	1329.06
337.738	1348.06
337.966	1337.06
338.194	1331.06
338.422	1347.06
338.65	1335.06
338.878	1308.06
339.106	1320.06
339.334	1326.06
339.562	1329.06
339.79	1353.06
340.018	1320.06
340.246	1290.06
340.474	1308.06
340.702	1275.06
340.93	1277.06
341.158	1274.06
341.386	1281.06
341.614	1302.06
341.842	1295.06
342.07	1273.06
342.298	1280.06
342.526	1305.06
342.754	1263.06
342.981	1303.06
343.209	1270.06
343.437	1286.06
343.665	1357.06
343.893	1358.06
344.12	1378.06
344.348	1384.06
344.576	1404.06
344.804	1375.06
345.031	1356.06
345.259	1320.06
345.487	1328.06
345.714	1303.06
345.942	1298.06
346.17	1279.06
346.397	1262.06
346.625	1272.06
346.853	1250.06
347.08	1245.06
347.308	1265.06
347.535	1211.06
347.763	1234.06
347.99	1228.06
348.218	1232.06
348.445	1251.06
348.673	1210.06
348.9	1244.06
349.128	1234.06
349.355	1237.06
349.583	1214.06
349.81	1210.06
350.037	1201.06
350.265	1191.06
350.492	1242.06
350.72	1224.06
350.947	1216.06
351.174	1204.06
351.402	1201.06
351.629	1223.06
351.856	1195.06
352.083	1212.06
352.311	1221.06
352.538	1207.06
352.765	1217.06
352.992	1206.06
353.22	1203.06
353.447	1229.06
353.674	1213.06
353.901	1202.06
354.128	1220.06
354.355	1215.06
354.583	1187.06
354.81	1193.06
355.037	1230.06
355.264	1219.06
355.491	1225.06
355.718	1217.06
355.945	1210.06
356.172	1241.06
356.399	1186.06
356.626	1251.06
356.853	1237.06
357.08	1254.06
357.307	1240.06
357.534	1242.06
357.761	1223.06
357.988	1260.06
358.215	1244.06
358.441	1252.06
358.668	1251.06
358.895	1239.06
359.122	1212.06
359.349	1201.06
359.576	1222.06
359.802	1226.06
360.029	1222.06
360.256	1238.06
360.483	1243.06
360.709	1235.06
360.936	1204.06
361.163	1244.06
361.39	1225.06
361.616	1231.06
361.843	1258.06
362.07	1250.06
362.296	1233.06
362.523	1268.06
362.749	1260.06
362.976	1257.06
363.203	1224.06
363.429	1266.06
363.656	1263.06
363.882	1236.06
364.109	1240.06
364.335	1220.06
364.562	1230.06
364.788	1237.06
365.015	1268.06
365.241	1275.06
365.468	1236.06
365.694	1233.06
365.92	1258.06
366.147	1237.06
366.373	1230.06
366.599	1246.06
366.826	1239.06
367.052	1272.06
367.278	1257.06
367.505	1238.06
367.731	1301.06
367.957	1265.06
368.184	1293.06
368.41	1294.06
368.636	1293.06
368.862	1317.06
369.089	1314.06
369.315	1334.06
369.541	1293.06
369.767	1286.06
369.993	1293.06
370.219	1252.06
370.445	1307.06
370.672	1313.06
370.898	1348.06
371.124	1319.06
371.35	1353.06
371.576	1339.06
371.802	1347.06
372.028	1330.06
372.254	1371.06
372.48	1341.06
372.706	1383.06
372.932	1396.06
373.158	1363.06
373.384	1383.06
373.61	1430.06
373.835	1401.06
374.061	1361.06
374.287	1382.06
374.513	1377.06
374.739	1433.06
374.965	1451.06
375.191	1451.06
375.416	1422.06
375.642	1374.06
375.868	1409.06
376.094	1398.06
376.319	1374.06
376.545	1425.06
376.771	1405.06
376.997	1355.06
377.222	1335.06
377.448	1353.06
377.674	1357.06
377.899	1347.06
378.125	1340.06
378.35	1301.06
378.576	1345.06
378.802	1328.06
379.027	1343.06
379.253	1364.06
379.478	1337.06
379.704	1354.06
379.929	1355.06
380.155	1361.06
380.38	1333.06
380.606	1336.06
380.831	1359.06
381.057	1365.06
381.282	1351.06
381.507	1380.06
381.733	1415.06
381.958	1419.06
382.184	1434.06
382.409	1437.06
382.634	1441.06
382.86	1421.06
383.085	1445.06
383.31	1432.06
383.535	1429.06
383.761	1478.06
383.986	1449.06
384.211	1506.06
384.436	1508.06
384.662	1524.06
384.887	1491.06
385.112	1500.06
385.337	1559.06
385.562	1547.06
385.787	1526.06
386.013	1583.06
386.238	1565.06
386.463	1572.06
386.688	1554.06
386.913	1572.06
387.138	1544.06
387.363	1531.06
387.588	1550.06
387.813	1608.06
388.038	1606.06
388.263	1583.06
388.488	1622.06
388.713	1607.06
388.938	1610.06
389.163	1596.06
389.387	1595.06
389.612	1581.06
389.837	1628.06
390.062	1582.06
390.287	1608.06
390.512	1598.06
390.736	1609.06
390.961	1606.06
391.186	1603.06
391.411	1631.06
391.636	1655.06
391.86	1675.06
392.085	1680.06
392.31	1673.06
392.534	1693.06
392.759	1723.06
392.984	1670.06
393.208	1631.06
393.433	1655.06
393.658	1663.06
393.882	1610.06
394.107	1624.06
394.331	1687.06
394.556	1627.06
394.78	1677.06
395.005	1671.06
395.229	1680.06
395.454	1679.06
395.678	1716.06
395.903	1750.06
396.127	1719.06
396.352	1678.06
396.576	1709.06
396.801	1713.06
397.025	1754.06
397.249	1753.06
397.474	1783.06
397.698	1764.06
397.922	1822.06
398.147	1765.06
398.371	1851.06
398.595	1864.06
398.82	1902.06
399.044	1966.06
399.268	2041.06
399.492	2053.06
399.717	2166.06
399.941	2246.06
400.165	2165.06
400.389	2138.06
400.613	2073.06
400.837	2007.06
401.062	1977.06
401.286	1937.06
401.51	1953.06
401.734	1912.06
401.958	1934.06
402.182	1935.06
402.406	1894.06
402.63	1921.06
402.854	1890.06
403.078	1933.06
403.302	1921.06
403.526	1931.06
403.75	1942.06
403.974	1949.06
404.198	1913.06
404.422	1955.06
404.645	1963.06
404.869	1943.06
405.093	1983.06
405.317	1949.06
405.541	1978.06
405.765	1987.06
405.988	2017.06
406.212	2020.06
406.436	2037.06
406.66	2112.06
406.883	2088.06
407.107	2108.06
407.331	2184.06
407.555	2222.06
407.778	2184.06
408.002	2203.06
408.226	2187.06
408.449	2177.06
408.673	2141.06
408.896	2078.06
409.12	2092.06
409.344	2114.06
409.567	2024.06
409.791	2066.06
410.014	2049.06
410.238	2026.06
410.461	2045.06
410.685	2021.06
410.908	1988.06
411.132	1973.06
411.355	1944.06
411.578	1950.06
411.802	1982.06
412.025	2019.06
412.249	2011.06
412.472	2001.06
412.695	1990.06
412.919	1936.06
413.142	1960.06
413.365	1919.06
413.589	1978.06
413.812	1936.06
414.035	1902.06
414.258	1939.06
414.482	1927.06
414.705	1941.06
414.928	1921.06
415.151	1949.06
415.374	1914.06
415.597	1907.06
415.821	1891.06
416.044	1846.06
416.267	1857.06
416.49	1874.06
416.713	1836.06
416.936	1862.06
417.159	1861.06
417.382	1877.06
417.605	1831.06
417.828	1832.06
418.051	1833.06
418.274	1888.06
418.497	1812.06
418.72	1882.06
418.943	1805.06
419.166	1915.06
419.389	1996.06
419.611	1986.06
419.834	1954.06
420.057	1901.06
420.28	1869.06
420.503	1819.06
420.726	1811.06
420.948	1814.06
421.171	1805.06
421.394	1793.06
421.617	1787.06
421.839	1830.06
422.062	1772.06
422.285	1777.06
422.507	1827.06
422.73	1814.06
422.953	1825.06
423.175	1841.06
423.398	1819.06
423.621	1761.06
423.843	1807.06
424.066	1811.06
424.288	1778.06
424.511	1829.06
424.733	1807.06
424.956	1805.06
425.178	1786.06
425.401	1794.06
425.623	1842.06
425.846	1761.06
426.068	1801.06
426.291	1792.06
426.513	1786.06
426.735	1723.06
426.958	1763.06
427.18	1730.06
427.402	1765.06
427.625	1778.06
427.847	1730.06
428.069	1740.06
428.292	1762.06
428.514	1703.06
428.736	1684.06
428.958	1722.06
429.181	1704.06
429.403	1699.06
429.625	1703.06
429.847	1673.06
430.069	1725.06
430.292	1724.06
430.514	1706.06
430.736	1734.06
430.958	1677.06
431.18	1766.06
431.402	1720.06
431.624	1730.06
431.846	1714.06
432.068	1732.06
432.29	1780.06
432.512	1769.06
432.734	1772.06
432.956	1762.06
433.178	1760.06
433.4	1772.06
433.622	1781.06
433.844	1744.06
434.066	1757.06
434.287	1739.06
434.509	1792.06
434.731	1805.06
434.953	1785.06
435.175	1827.06
435.397	1817.06
435.618	1811.06
435.84	1759.06
436.062	1740.06
436.284	1796.06
436.505	1752.06
436.727	1747.06
436.949	1743.06
437.17	1725.06
437.392	1719.06
437.614	1677.06
437.835	1687.06
438.057	1713.06
438.278	1687.06
438.5	1691.06
438.721	1703.06
438.943	1723.06
439.165	1647.06
439.386	1697.06
439.608	1731.06
439.829	1711.06
440.05	1699.06
440.272	1743.06
440.493	1717.06
440.715	1741.06
440.936	1711.06
441.158	1734.06
441.379	1766.06
441.6	1768.06
441.822	1757.06
442.043	1782.06
442.264	1767.06
442.486	1744.06
442.707	1779.06
442.928	1833.06
443.149	1802.06
443.371	1815.06
443.592	1765.06
443.813	1749.06
444.034	1808.06
444.255	1842.06
444.476	1845.06
444.698	1857.06
444.919	1878.06
445.14	2003.06
445.361	1918.06
445.582	1843.06
445.803	1779.06
446.024	1763.06
446.245	1742.06
446.466	1771.06
446.687	1715.06
446.908	1715.06
447.129	1704.06
447.35	1685.06
447.571	1665.06
447.792	1615.06
448.013	1633.06
448.234	1609.06
448.455	1595.06
448.675	1580.06
448.896	1623.06
449.117	1579.06
449.338	1590.06
449.559	1579.06
449.779	1576.06
450	1548.06
450.221	1571.06
450.442	1597.06
450.662	1546.06
450.883	1522.06
451.104	1540.06
451.324	1561.06
451.545	1565.06
451.766	1547.06
451.986	1566.06
452.207	1521.06
452.428	1522.06
452.648	1569.06
452.869	1491.06
453.089	1523.06
453.31	1530.06
453.53	1508.06
453.751	1527.06
453.971	1553.06
454.192	1540.06
454.412	1488.06
454.633	1499.06
454.853	1476.06
455.073	1478.06
455.294	1494.06
455.514	1539.06
455.734	1491.06
455.955	1470.06
456.175	1487.06
456.395	1505.06
456.616	1493.06
456.836	1512.06
457.056	1509.06
457.276	1518.06
457.497	1530.06
457.717	1525.06
457.937	1500.06
458.157	1545.06
458.377	1571.06
458.598	1558.06
458.818	1600.06
459.038	1617.06
459.258	1659.06
459.478	1714.06
459.698	1679.06
459.918	1718.06
460.138	1743.06
460.358	1817.06
460.578	1779.06
460.798	1838.06
461.018	1854.06
461.238	1868.06
461.458	1887.06
461.678	1830.06
461.898	1903.06
462.118	1875.06
462.338	1941.06
462.558	1976.06
462.777	1992.06
462.997	2022.06
463.217	2122.06
463.437	2084.06
463.657	2033.06
463.876	2060.06
464.096	2025.06
464.316	2006.06
464.536	1992.06
464.755	1975.06
464.975	1974.06
465.195	1919.06
465.414	1868.06
465.634	1789.06
465.854	1767.06
466.073	1769.06
466.293	1742.06
466.512	1734.06
466.732	1737.06
466.951	1695.06
467.171	1724.06
467.391	1663.06
467.61	1661.06
467.829	1686.06
468.049	1678.06
468.268	1598.06
468.488	1630.06
468.707	1654.06
468.927	1681.06
469.146	1682.06
469.365	1653.06
469.585	1618.06
469.804	1667.06
470.023	1663.06
470.243	1687.06
470.462	1701.06
470.681	1659.06
470.901	1685.06
471.12	1661.06
471.339	1681.06
471.558	1634.06
471.777	1656.06
471.997	1653.06
472.216	1716.06
472.435	1703.06
472.654	1668.06
472.873	1629.06
473.092	1691.06
473.311	1697.06
473.53	1653.06
473.749	1654.06
473.968	1649.06
474.187	1679.06
474.406	1681.06
474.625	1718.06
474.844	1664.06
475.063	1655.06
475.282	1706.06
475.501	1704.06
475.72	1710.06
475.939	1692.06
476.158	1753.06
476.377	1763.06
476.596	1813.06
476.814	1864.06
477.033	1813.06
477.252	1818.06
477.471	1818.06
477.69	1852.06
477.908	1831.06
478.127	1897.06
478.346	1886.06
478.564	1945.06
478.783	1958.06
479.002	1961.06
479.22	2029.06
479.439	2055.06
479.658	2065.06
479.876	2002.06
480.095	2058.06
480.313	2057.06
480.532	2023.06
480.751	2085.06
480.969	2003.06
481.188	2079.06
481.406	2046.06
481.624	2007.06
481.843	2042.06
482.061	2032.06
482.28	2014.06
482.498	2075.06
482.717	1957.06
482.935	2020.06
483.153	2000.06
483.372	2007.06
483.59	1980.06
483.808	2005.06
484.027	2010.06
484.245	2029.06
484.463	2033.06
484.681	2033.06
484.9	2010.06
485.118	2088.06
485.336	2026.06
485.554	2058.06
485.772	2077.06
485.99	2076.06
486.209	2040.06
486.427	2095.06
486.645	2104.06
486.863	2080.06
487.081	2080.06
487.299	2118.06
487.517	2100.06
487.735	2124.06
487.953	2083.06
488.171	2114.06
488.389	2084.06
488.607	2069.06
488.825	2049.06
489.043	2049.06
489.261	2082.06
489.479	2102.06
489.696	2069.06
489.914	2078.06
490.132	2075.06
490.35	2120.06
490.568	2067.06
490.786	2079.06
491.003	2082.06
491.221	2113.06
491.439	2073.06
491.657	2121.06
491.874	2106.06
492.092	2132.06
492.31	2129.06
492.527	2111.06
492.745	2091.06
492.963	2141.06
493.18	2127.06
493.398	2153.06
493.615	2142.06
493.833	2120.06
494.05	2150.06
494.268	2164.06
494.485	2109.06
494.703	2131.06
494.92	2165.06
495.138	2137.06
495.355	2154.06
495.573	2199.06
495.79	2196.06
496.008	2207.06
496.225	2246.06
496.442	2255.06
496.66	2250.06
496.877	2271.06
497.094	2327.06
497.312	2285.06
497.529	2325.06
497.746	2362.06
497.963	2456.06
498.181	2559.06
498.398	2552.06
498.615	2658.06
498.832	2741.06
499.049	2823.06
499.267	2970.06
499.484	3055.06
499.701	3182.06
499.918	3272.06
500.135	3423.06
500.352	3578.06
500.569	3625.06
500.786	3674.06
501.003	3588.06
501.22	3467.06
501.437	3331.06
501.654	3140.06
501.871	3040.06
502.088	2905.06
502.305	2794.06
502.522	2736.06
502.739	2628.06
502.956	2536.06
503.172	2483.06
503.389	2416.06
503.606	2343.06
503.823	2369.06
504.04	2279.06
504.256	2282.06
504.473	2326.06
504.69	2276.06
504.907	2229.06
505.123	2210.06
505.34	2164.06
505.557	2081.06
505.773	2043.06
505.99	2068.06
506.207	2034.06
506.423	1932.06
506.64	1935.06
506.856	1909.06
507.073	1857.06
507.289	1889.06
507.506	1891.06
507.722	1929.06
507.939	1889.06
508.155	1845.06
508.372	1818.06
508.588	1791.06
508.805	1803.06
509.021	1776.06
509.238	1796.06
509.454	1753.06
509.67	1730.06
509.887	1729.06
510.103	1756.06
510.319	1725.06
510.536	1685.06
510.752	1682.06
510.968	1697.06
511.184	1673.06
511.401	1699.06
511.617	1674.06
511.833	1674.06
512.049	1650.06
512.265	1669.06
512.481	1684.06
512.698	1683.06
512.914	1711.06
513.13	1685.06
513.346	1661.06
513.562	1693.06
513.778	1717.06
513.994	1665.06
514.21	1690.06
514.426	1681.06
514.642	1685.06
514.858	1682.06
515.074	1688.06
515.29	1709.06
515.506	1727.06
515.721	1709.06
515.937	1741.06
516.153	1763.06
516.369	1745.06
516.585	1779.06
516.801	1815.06
517.016	1805.06
517.232	1879.06
517.448	1898.06
517.664	1927.06
517.879	1895.06
518.095	1900.06
518.311	1888.06
518.527	1859.06
518.742	1841.06
518.958	1805.06
519.173	1785.06
519.389	1766.06
519.605	1721.06
519.82	1727.06
520.036	1788.06
520.251	1726.06
520.467	1671.06
520.682	1677.06
520.898	1636.06
521.113	1636.06
521.329	1607.06
521.544	1603.06
521.76	1610.06
521.975	1552.06
522.19	1601.06
522.406	1602.06
522.621	1568.06
522.836	1587.06
523.052	1570.06
523.267	1512.06
523.482	1567.06
523.698	1541.06
523.913	1547.06
524.128	1534.06
524.343	1522.06
524.559	1510.06
524.774	1477.06
524.989	1516.06
525.204	1526.06
525.419	1499.06
525.634	1514.06
525.849	1503.06
526.064	1479.06
526.28	1496.06
526.495	1502.06
526.71	1483.06
526.925	1463.06
527.14	1445.06
527.355	1451.06
527.57	1489.06
527.785	1454.06
527.999	1446.06
528.214	1434.06
528.429	1438.06
528.644	1466.06
528.859	1447.06
529.074	1427.06
529.289	1458.06
529.503	1436.06
529.718	1471.06
529.933	1443.06
530.148	1435.06
530.363	1462.06
530.577	1441.06
530.792	1429.06
531.007	1417.06
531.221	1427.06
531.436	1389.06
531.651	1419.06
531.865	1427.06
532.08	1419.06
532.295	1398.06
532.509	1415.06
532.724	1411.06
532.938	1392.06
533.153	1413.06
533.367	1384.06
533.582	1383.06
533.796	1393.06
534.011	1388.06
534.225	1364.06
534.44	1372.06
534.654	1361.06
534.868	1378.06
535.083	1405.06
535.297	1359.06
535.511	1390.06
535.726	1372.06
535.94	1347.06
536.154	1350.06
536.369	1360.06
536.583	1325.06
536.797	1348.06
537.011	1307.06
537.225	1349.06
537.44	1310.06
537.654	1363.06
537.868	1285.06
538.082	1293.06
538.296	1295.06
538.51	1301.06
538.724	1313.06
538.938	1293.06
539.153	1304.06
539.367	1321.06
539.581	1323.06
539.795	1279.06
540.009	1271.06
540.222	1290.06
540.436	1293.06
540.65	1278.06
540.864	1281.06
541.078	1302.06
541.292	1329.06
541.506	1269.06
541.72	1251.06
541.934	1270.06
542.147	1258.06
542.361	1275.06
542.575	1299.06
542.789	1282.06
543.002	1247.06
543.216	1245.06
543.43	1258.06
543.644	1270.06
543.857	1252.06
544.071	1264.06
544.285	1247.06
544.498	1251.06
544.712	1266.06
544.925	1276.06
545.139	1237.06
545.352	1257.06
545.566	1293.06
545.779	1291.06
545.993	1266.06
546.206	1253.06
546.42	1224.06
546.633	1272.06
546.847	1257.06
547.06	1254.06
547.274	1266.06
547.487	1261.06
547.7	1269.06
547.914	1291.06
548.127	1271.06
548.34	1269.06
548.554	1282.06
548.767	1267.06
548.98	1267.06
549.193	1245.06
549.407	1281.06
549.62	1307.06
549.833	1283.06
550.046	1287.06
550.259	1323.06
550.473	1265.06
550.686	1234.06
550.899	1241.06
551.112	1226.06
551.325	1238.06
551.538	1292.06
551.751	1245.06
551.964	1233.06
552.177	1241.06
552.39	1248.06
552.603	1251.06
552.816	1258.06
553.029	1255.06
553.242	1262.06
553.455	1285.06
553.667	1280.06
553.88	1293.06
554.093	1246.06
554.306	1211.06
554.519	1239.06
554.732	1212.06
554.944	1203.06
555.157	1201.06
555.37	1195.06
555.583	1177.06
555.795	1175.06
556.008	1138.06
556.221	1124.06
556.433	1144.06
556.646	1118.06
556.859	1129.06
557.071	1122.06
557.284	1129.06
557.496	1115.06
557.709	1098.06
557.921	1061.06
558.134	1086.06
558.346	1067.06
558.559	1086.06
558.771	1071.06
558.984	1076.06
559.196	1074.06
559.409	1077.06
559.621	1043.06
559.833	1067.06
560.046	1071.06
560.258	1036.06
560.47	1063.06
560.683	1046.06
560.895	1058.06
561.107	1044.06
561.32	1028.06
561.532	1044.06
561.744	1057.06
561.956	1047.06
562.168	1038.06
562.381	1043.06
562.593	1060.06
562.805	1076.06
563.017	1035.06
563.229	1062.06
563.441	1092.06
563.653	1057.06
563.865	1081.06
564.077	1070.06
564.289	1086.06
564.501	1100.06
564.713	1133.06
564.925	1130.06
565.137	1125.06
565.349	1139.06
565.561	1155.06
565.773	1189.06
565.985	1190.06
566.197	1227.06
566.408	1235.06
566.62	1292.06
566.832	1336.06
567.044	1326.06
567.255	1346.06
567.467	1365.06
567.679	1417.06
567.891	1379.06
568.102	1358.06
568.314	1348.06
568.526	1279.06
568.737	1266.06
568.949	1245.06
569.161	1159.06
569.372	1111.06
569.584	1097.06
569.795	1058.06
570.007	1075.06
570.218	1051.06
570.43	1045.06
570.641	1053.06
570.853	1014.06
571.064	1014.06
571.276	993.06
571.487	966.06
571.698	954.06
571.91	963.06
572.121	938.06
572.333	912.06
572.544	890.06
572.755	906.06
572.966	903.06
573.178	892.06
573.389	894.06
573.6	877.06
573.811	853.06
574.023	845.06
574.234	859.06
574.445	841.06
574.656	848.06
574.867	862.06
575.078	854.06
575.289	843.06
575.501	835.06
575.712	822.06
575.923	791.06
576.134	808.06
576.345	826.06
576.556	830.06
576.767	797.06
576.978	824.06
577.188	793.06
577.399	798.06
577.61	781.06
577.821	771.06
578.032	767.06
578.243	779.06
578.454	775.06
578.665	779.06
578.875	740.06
579.086	770.06
579.297	752.06
579.508	728.06
579.718	717.06
579.929	739.06
580.14	728.06
580.35	745.06
580.561	726.06
580.772	733.06
580.982	713.06
581.193	716.06
581.403	705.06
581.614	741.06
581.825	733.06
582.035	714.06
582.246	721.06
582.456	727.06
582.667	722.06
582.877	728.06
583.087	697.06
583.298	694.06
583.508	709.06
583.719	709.06
583.929	706.06
584.139	690.06
584.35	692.06
584.56	695.06
584.77	687.06
584.981	715.06
585.191	666.06
585.401	674.06
585.611	681.06
585.821	686.06
586.032	686.06
586.242	716.06
586.452	662.06
586.662	643.06
586.872	670.06
587.082	682.06
587.292	680.06
587.502	686.06
587.713	682.06
587.923	684.06
588.133	684.06
588.343	659.06
588.553	669.06
588.762	645.06
588.972	668.06
589.182	723.06
589.392	692.06
589.602	678.06
589.812	689.06
590.022	643.06
590.232	660.06
590.441	643.06
590.651	668.06
590.861	663.06
591.071	676.06
591.281	671.06
591.49	685.06
591.7	684.06
591.91	703.06
592.119	692.06
592.329	701.06
592.539	705.06
592.748	701.06
592.958	698.06
593.167	702.06
593.377	694.06
593.587	740.06
593.796	700.06
594.006	686.06
594.215	714.06
594.424	698.06
594.634	706.06
594.843	689.06
595.053	699.06
595.262	691.06
595.472	690.06
595.681	649.06
595.89	663.06
596.1	637.06
596.309	638.06
596.518	639.06
596.727	626.06
596.937	599.06
597.146	602.06
597.355	605.06
597.564	600.06
597.774	579.06
597.983	587.06
598.192	582.06
598.401	571.06
598.61	581.06
598.819	612.06
599.028	569.06
599.237	557.06
599.446	580.06
599.655	556.06
599.864	587.06
600.073	555.06
600.282	554.06
600.491	537.06
600.7	547.06
600.909	543.06
601.118	546.06
601.327	566.06
601.536	540.06
601.745	538.06
601.953	537.06
602.162	528.06
602.371	550.06
602.58	521.06
602.789	515.06
602.997	528.06
603.206	525.06
603.415	541.06
603.623	514.06
603.832	503.06
604.041	517.06
604.249	526.06
604.458	497.06
604.666	499.06
604.875	524.06
605.084	498.06
605.292	506.06
605.501	498.06
605.709	518.06
605.918	509.06
606.126	508.06
606.334	522.06
606.543	526.06
606.751	506.06
606.96	502.06
607.168	500.06
607.376	494.06
607.585	500.06
607.793	485.06
608.001	506.06
608.21	490.06
608.418	499.06
608.626	492.06
608.834	485.06
609.043	478.06
609.251	507.06
609.459	507.06
609.667	479.06
609.875	480.06
610.083	489.06
610.291	469.06
610.499	476.06
610.707	472.06
610.916	481.06
611.124	484.06
611.332	483.06
611.54	475.06
611.748	477.06
611.955	466.06
612.163	470.06
612.371	476.06
612.579	447.06
612.787	481.06
612.995	463.06
613.203	477.06
613.411	441.06
613.618	481.06
613.826	454.06
614.034	458.06
614.242	466.06
614.449	443.06
614.657	461.06
614.865	454.06
615.072	451.06
615.28	468.06
615.488	463.06
615.695	442.06
615.903	460.06
616.111	457.06
616.318	470.06
616.526	463.06
616.733	468.06
616.941	468.06
617.148	456.06
617.356	443.06
617.563	458.06
617.771	442.06
617.978	441.06
618.185	430.06
618.393	442.06
618.6	453.06
618.807	446.06
619.015	445.06
619.222	429.06
619.429	436.06
619.637	437.06
619.844	450.06
620.051	435.06
620.258	430.06
620.466	430.06
620.673	432.06
620.88	416.06
621.087	412.06
621.294	409.06
621.501	412.06
621.708	415.06
621.915	400.06
622.122	407.06
622.329	446.06
622.536	421.06
622.743	413.06
622.95	406.06
623.157	435.06
623.364	419.06
623.571	411.06
623.778	410.06
623.985	420.06
624.192	415.06
624.399	410.06
624.606	404.06
624.812	407.06
625.019	419.06
625.226	421.06
625.433	411.06
625.639	371.06
625.846	406.06
626.053	391.06
626.259	387.06
626.466	381.06
626.673	408.06
626.879	381.06
627.086	380.06
627.293	397.06
627.499	397.06
627.706	384.06
627.912	396.06
628.119	394.06
628.325	383.06
628.532	393.06
628.738	375.06
628.945	376.06
629.151	385.06
629.357	361.06
629.564	371.06
629.77	375.06
629.976	357.06
630.183	382.06
630.389	377.06
630.595	385.06
630.802	356.06
631.008	377.06
631.214	352.06
631.42	371.06
631.627	369.06
631.833	363.06
632.039	358.06
632.245	381.06
632.451	376.06
632.657	359.06
632.863	343.06
633.069	357.06
633.275	361.06
633.481	341.06
633.688	337.06
633.893	355.06
634.099	358.06
634.305	351.06
634.511	353.06
634.717	357.06
634.923	356.06
635.129	343.06
635.335	328.06
635.541	327.06
635.747	327.06
635.952	346.06
636.158	340.06
636.364	342.06
636.57	330.06
636.775	321.06
636.981	323.06
637.187	324.06
637.392	333.06
637.598	326.06
637.804	328.06
638.009	333.06
638.215	339.06
638.421	325.06
638.626	317.06
638.832	342.06
639.037	326.06
639.243	324.06
639.448	337.06
639.654	340.06
639.859	316.06
640.065	331.06
640.27	324.06
640.475	327.06
640.681	314.06
640.886	338.06
641.091	325.06
641.297	327.06
641.502	329.06
641.707	310.06
641.913	335.06
642.118	332.06
642.323	317.06
642.528	327.06
642.733	317.06
642.939	300.06
643.144	308.06
643.349	325.06
643.554	330.06
643.759	329.06
643.964	303.06
644.169	334.06
644.374	334.06
644.579	336.06
644.784	321.06
644.989	326.06
645.194	325.06
645.399	332.06
645.604	327.06
645.809	321.06
646.014	327.06
646.219	317.06
646.423	317.06
646.628	333.06
646.833	337.06
647.038	341.06
647.243	327.06
647.447	317.06
647.652	340.06
647.857	339.06
648.062	315.06
648.266	347.06
648.471	333.06
648.676	354.06
648.88	324.06
649.085	365.06
649.289	326.06
649.494	329.06
649.698	331.06
649.903	336.06
650.107	339.06
650.312	352.06
650.516	342.06
650.721	332.06
650.925	326.06
651.13	317.06
651.334	318.06
651.539	321.06
651.743	345.06
651.947	333.06
652.152	333.06
652.356	326.06
652.56	309.06
652.764	317.06
652.969	302.06
653.173	329.06
653.377	306.06
653.581	329.06
653.785	322.06
653.99	308.06
654.194	308.06
654.398	301.06
654.602	309.06
654.806	317.06
655.01	327.06
655.214	328.06
655.418	302.06
655.622	310.06
655.826	328.06
656.03	332.06
656.234	348.06
656.438	345.06
656.642	314.06
656.846	313.06
657.049	310.06
657.253	277.06
657.457	275.06
657.661	254.06
657.865	255.06
658.068	227.06
658.272	203.06
658.476	211.06
658.68	209.06
658.883	186.06
659.087	178.06
659.291	154.06
659.494	170.06
659.698	157.06
659.901	151.06
660.105	156.06
660.309	133.06
660.512	127.06
660.716	122.06
660.919	124.06
661.123	125.06
661.326	126.06
661.53	107.06
661.733	111.06
661.936	111.06
662.14	82.06
662.343	89.06
662.546	103.06
662.75	105.06
662.953	90.06
663.156	83.06
663.36	87.06
663.563	73.06
663.766	77.06
663.969	97.06
664.173	88.06
664.376	85.06
664.579	87.06
664.782	97.06
664.985	91.06
665.188	94.06
665.391	71.06
665.594	101.06
665.797	73.06
666	80.06
666.203	87.06
666.406	75.06
666.609	85.06
666.812	72.06
667.015	89.06
667.218	84.06
667.421	95.06
667.624	92.06
667.827	90.06
668.03	84.06
668.232	79.06
668.435	79.06
668.638	75.06
668.841	79.06
669.043	74.06
669.246	73.06
669.449	75.06
669.651	89.06
669.854	92.06
670.057	75.06
670.259	74.06
670.462	77.06
670.665	84.06
670.867	102.06
671.07	77.06
671.272	87.06
671.475	84.06
671.677	91.06
671.88	84.06
672.082	90.06
672.284	96.06
672.487	92.06
672.689	91.06
672.892	85.06
