Data from Fe(NO3)3@0.0125M.TitratingCurve.Agarose3%dH2O.NegLispCup.LampEnergy10.LIBS07252019_HRD10591_17-00-15-337.txt Node
Date: Thu Jul 25 17:00:15 EDT 2019
User: cochatt
Spectrometer: HR+D1059
Trigger mode: 1
Integration Time (sec): 1.000000E-1
Scans to average: 1
Electric dark correction enabled: true
Nonlinearity correction enabled: false
Boxcar width: 0
XAxis mode: Wavelengths
Number of Pixels in Spectrum: 2048
>>>>>Begin Spectral Data<<<<<
223.165	-17.12
223.4	-17.12
223.635	-17.12
223.869	-0.12
224.104	-24.12
224.338	-13.12
224.573	0.88
224.808	-13.12
225.042	-19.12
225.277	-8.12
225.511	-14.12
225.746	15.88
225.98	14.88
226.215	11.88
226.449	18.88
226.683	4.88
226.918	13.88
227.152	27.88
227.387	34.88
227.621	35.88
227.856	48.88
228.09	57.88
228.324	45.88
228.559	56.88
228.793	74.88
229.027	90.88
229.262	97.88
229.496	89.88
229.73	99.88
229.964	100.88
230.199	109.88
230.433	104.88
230.667	83.88
230.901	101.88
231.136	99.88
231.37	84.88
231.604	96.88
231.838	97.88
232.072	94.88
232.306	114.88
232.541	102.88
232.775	104.88
233.009	104.88
233.243	109.88
233.477	112.88
233.711	114.88
233.945	126.88
234.179	115.88
234.413	122.88
234.647	121.88
234.881	118.88
235.115	122.88
235.349	123.88
235.583	116.88
235.817	115.88
236.051	105.88
236.285	98.88
236.519	130.88
236.753	120.88
236.987	123.88
237.221	121.88
237.455	114.88
237.689	124.88
237.922	109.88
238.156	119.88
238.39	119.88
238.624	120.88
238.858	117.88
239.091	109.88
239.325	128.88
239.559	122.88
239.793	127.88
240.027	130.88
240.26	132.88
240.494	135.88
240.728	122.88
240.961	149.88
241.195	141.88
241.429	142.88
241.662	148.88
241.896	113.88
242.13	131.88
242.363	156.88
242.597	141.88
242.83	138.88
243.064	141.88
243.298	134.88
243.531	124.88
243.765	134.88
243.998	146.88
244.232	134.88
244.465	134.88
244.699	134.88
244.932	141.88
245.166	142.88
245.399	146.88
245.633	155.88
245.866	128.88
246.099	150.88
246.333	133.88
246.566	155.88
246.8	156.88
247.033	150.88
247.266	145.88
247.5	134.88
247.733	128.88
247.966	139.88
248.2	145.88
248.433	154.88
248.666	141.88
248.899	157.88
249.133	178.88
249.366	171.88
249.599	166.88
249.832	167.88
250.066	176.88
250.299	169.88
250.532	158.88
250.765	160.88
250.998	172.88
251.231	153.88
251.465	158.88
251.698	166.88
251.931	153.88
252.164	139.88
252.397	181.88
252.63	164.88
252.863	167.88
253.096	182.88
253.329	168.88
253.562	180.88
253.795	182.88
254.028	180.88
254.261	184.88
254.494	181.88
254.727	169.88
254.96	192.88
255.193	186.88
255.426	170.88
255.659	169.88
255.892	171.88
256.124	165.88
256.357	173.88
256.59	177.88
256.823	176.88
257.056	168.88
257.289	198.88
257.521	184.88
257.754	166.88
257.987	179.88
258.22	174.88
258.452	180.88
258.685	210.88
258.918	212.88
259.151	195.88
259.383	199.88
259.616	201.88
259.849	219.88
260.081	237.88
260.314	228.88
260.547	210.88
260.779	211.88
261.012	198.88
261.244	218.88
261.477	229.88
261.71	197.88
261.942	200.88
262.175	198.88
262.407	200.88
262.64	218.88
262.872	211.88
263.105	218.88
263.337	222.88
263.57	204.88
263.802	205.88
264.035	211.88
264.267	188.88
264.499	206.88
264.732	195.88
264.964	195.88
265.197	195.88
265.429	207.88
265.661	189.88
265.894	206.88
266.126	206.88
266.358	206.88
266.591	209.88
266.823	223.88
267.055	204.88
267.287	209.88
267.52	206.88
267.752	228.88
267.984	202.88
268.216	214.88
268.448	233.88
268.681	220.88
268.913	212.88
269.145	219.88
269.377	217.88
269.609	206.88
269.841	228.88
270.073	214.88
270.306	203.88
270.538	218.88
270.77	228.88
271.002	235.88
271.234	233.88
271.466	233.88
271.698	229.88
271.93	217.88
272.162	241.88
272.394	233.88
272.626	254.88
272.858	240.88
273.09	242.88
273.322	253.88
273.553	238.88
273.785	278.88
274.017	255.88
274.249	285.88
274.481	256.88
274.713	280.88
274.945	302.88
275.176	295.88
275.408	290.88
275.64	285.88
275.872	265.88
276.104	272.88
276.335	246.88
276.567	255.88
276.799	261.88
277.031	243.88
277.262	258.88
277.494	258.88
277.726	248.88
277.957	265.88
278.189	262.88
278.421	260.88
278.652	265.88
278.884	256.88
279.115	258.88
279.347	273.88
279.579	261.88
279.81	266.88
280.042	258.88
280.273	253.88
280.505	284.88
280.736	253.88
280.968	263.88
281.199	266.88
281.431	252.88
281.662	265.88
281.894	282.88
282.125	268.88
282.356	278.88
282.588	287.88
282.819	290.88
283.051	276.88
283.282	306.88
283.513	268.88
283.745	279.88
283.976	280.88
284.207	299.88
284.439	276.88
284.67	283.88
284.901	278.88
285.132	282.88
285.364	274.88
285.595	281.88
285.826	287.88
286.057	273.88
286.288	274.88
286.52	296.88
286.751	261.88
286.982	287.88
287.213	294.88
287.444	301.88
287.675	290.88
287.906	283.88
288.138	290.88
288.369	284.88
288.6	283.88
288.831	299.88
289.062	310.88
289.293	309.88
289.524	300.88
289.755	289.88
289.986	306.88
290.217	293.88
290.448	281.88
290.679	304.88
290.91	310.88
291.141	297.88
291.371	321.88
291.602	306.88
291.833	314.88
292.064	312.88
292.295	302.88
292.526	310.88
292.757	322.88
292.987	313.88
293.218	316.88
293.449	310.88
293.68	301.88
293.91	307.88
294.141	311.88
294.372	305.88
294.603	300.88
294.833	314.88
295.064	310.88
295.295	304.88
295.525	301.88
295.756	314.88
295.987	306.88
296.217	311.88
296.448	325.88
296.679	325.88
296.909	328.88
297.14	313.88
297.37	319.88
297.601	333.88
297.831	324.88
298.062	324.88
298.292	324.88
298.523	334.88
298.753	323.88
298.984	345.88
299.214	314.88
299.445	332.88
299.675	332.88
299.905	328.88
300.136	342.88
300.366	330.88
300.597	333.88
300.827	345.88
301.057	315.88
301.288	318.88
301.518	349.88
301.748	348.88
301.979	352.88
302.209	359.88
302.439	347.88
302.669	334.88
302.9	357.88
303.13	357.88
303.36	344.88
303.59	357.88
303.82	358.88
304.051	344.88
304.281	351.88
304.511	370.88
304.741	362.88
304.971	336.88
305.201	360.88
305.431	337.88
305.661	370.88
305.891	340.88
306.121	360.88
306.352	358.88
306.582	359.88
306.812	355.88
307.042	349.88
307.272	379.88
307.502	340.88
307.731	349.88
307.961	371.88
308.191	358.88
308.421	378.88
308.651	365.88
308.881	354.88
309.111	374.88
309.341	363.88
309.571	354.88
309.8	368.88
310.03	354.88
310.26	362.88
310.49	338.88
310.72	369.88
310.949	361.88
311.179	390.88
311.409	378.88
311.639	380.88
311.868	369.88
312.098	374.88
312.328	371.88
312.557	406.88
312.787	378.88
313.017	402.88
313.246	378.88
313.476	394.88
313.706	370.88
313.935	362.88
314.165	373.88
314.394	378.88
314.624	384.88
314.853	390.88
315.083	386.88
315.312	395.88
315.542	404.88
315.771	370.88
316.001	384.88
316.23	389.88
316.46	409.88
316.689	393.88
316.919	403.88
317.148	409.88
317.377	399.88
317.607	392.88
317.836	406.88
318.065	392.88
318.295	406.88
318.524	420.88
318.753	394.88
318.983	420.88
319.212	393.88
319.441	386.88
319.67	405.88
319.9	400.88
320.129	419.88
320.358	411.88
320.587	405.88
320.816	402.88
321.046	402.88
321.275	407.88
321.504	411.88
321.733	397.88
321.962	409.88
322.191	407.88
322.42	393.88
322.649	405.88
322.878	416.88
323.108	413.88
323.337	413.88
323.566	421.88
323.795	426.88
324.024	432.88
324.253	412.88
324.482	420.88
324.71	421.88
324.939	427.88
325.168	434.88
325.397	424.88
325.626	403.88
325.855	425.88
326.084	442.88
326.313	452.88
326.542	421.88
326.77	425.88
326.999	439.88
327.228	432.88
327.457	412.88
327.686	434.88
327.914	433.88
328.143	439.88
328.372	431.88
328.6	435.88
328.829	438.88
329.058	436.88
329.287	446.88
329.515	450.88
329.744	439.88
329.972	456.88
330.201	452.88
330.43	438.88
330.658	455.88
330.887	452.88
331.115	449.88
331.344	457.88
331.572	445.88
331.801	462.88
332.03	459.88
332.258	439.88
332.486	462.88
332.715	470.88
332.943	450.88
333.172	467.88
333.4	484.88
333.629	473.88
333.857	482.88
334.085	490.88
334.314	491.88
334.542	491.88
334.771	474.88
334.999	470.88
335.227	499.88
335.455	497.88
335.684	477.88
335.912	492.88
336.14	481.88
336.369	482.88
336.597	488.88
336.825	511.88
337.053	478.88
337.281	473.88
337.51	492.88
337.738	487.88
337.966	479.88
338.194	507.88
338.422	478.88
338.65	488.88
338.878	478.88
339.106	483.88
339.334	478.88
339.562	469.88
339.79	466.88
340.018	468.88
340.246	490.88
340.474	456.88
340.702	452.88
340.93	472.88
341.158	454.88
341.386	469.88
341.614	489.88
341.842	462.88
342.07	439.88
342.298	452.88
342.526	459.88
342.754	470.88
342.981	472.88
343.209	461.88
343.437	520.88
343.665	488.88
343.893	489.88
344.12	510.88
344.348	520.88
344.576	516.88
344.804	490.88
345.031	477.88
345.259	464.88
345.487	459.88
345.714	484.88
345.942	445.88
346.17	453.88
346.397	487.88
346.625	468.88
346.853	468.88
347.08	471.88
347.308	473.88
347.535	470.88
347.763	473.88
347.99	458.88
348.218	468.88
348.445	453.88
348.673	452.88
348.9	451.88
349.128	474.88
349.355	456.88
349.583	478.88
349.81	443.88
350.037	457.88
350.265	459.88
350.492	446.88
350.72	452.88
350.947	448.88
351.174	460.88
351.402	445.88
351.629	459.88
351.856	461.88
352.083	453.88
352.311	453.88
352.538	472.88
352.765	468.88
352.992	465.88
353.22	457.88
353.447	461.88
353.674	443.88
353.901	469.88
354.128	452.88
354.355	468.88
354.583	437.88
354.81	473.88
355.037	467.88
355.264	442.88
355.491	457.88
355.718	444.88
355.945	429.88
356.172	482.88
356.399	458.88
356.626	467.88
356.853	470.88
357.08	480.88
357.307	464.88
357.534	467.88
357.761	432.88
357.988	477.88
358.215	489.88
358.441	479.88
358.668	474.88
358.895	479.88
359.122	466.88
359.349	455.88
359.576	455.88
359.802	467.88
360.029	460.88
360.256	480.88
360.483	466.88
360.709	480.88
360.936	477.88
361.163	469.88
361.39	463.88
361.616	489.88
361.843	476.88
362.07	474.88
362.296	481.88
362.523	476.88
362.749	465.88
362.976	471.88
363.203	490.88
363.429	475.88
363.656	468.88
363.882	478.88
364.109	487.88
364.335	470.88
364.562	473.88
364.788	465.88
365.015	505.88
365.241	497.88
365.468	469.88
365.694	483.88
365.92	489.88
366.147	483.88
366.373	465.88
366.599	468.88
366.826	492.88
367.052	499.88
367.278	482.88
367.505	481.88
367.731	473.88
367.957	493.88
368.184	482.88
368.41	465.88
368.636	493.88
368.862	491.88
369.089	489.88
369.315	472.88
369.541	486.88
369.767	487.88
369.993	483.88
370.219	500.88
370.445	493.88
370.672	516.88
370.898	499.88
371.124	527.88
371.35	497.88
371.576	496.88
371.802	482.88
372.028	501.88
372.254	518.88
372.48	512.88
372.706	483.88
372.932	506.88
373.158	518.88
373.384	523.88
373.61	530.88
373.835	538.88
374.061	539.88
374.287	497.88
374.513	512.88
374.739	536.88
374.965	564.88
375.191	522.88
375.416	518.88
375.642	542.88
375.868	525.88
376.094	536.88
376.319	489.88
376.545	523.88
376.771	518.88
376.997	518.88
377.222	506.88
377.448	507.88
377.674	530.88
377.899	496.88
378.125	501.88
378.35	530.88
378.576	503.88
378.802	515.88
379.027	525.88
379.253	493.88
379.478	521.88
379.704	492.88
379.929	534.88
380.155	500.88
380.38	526.88
380.606	500.88
380.831	512.88
381.057	539.88
381.282	516.88
381.507	518.88
381.733	524.88
381.958	516.88
382.184	550.88
382.409	555.88
382.634	525.88
382.86	534.88
383.085	542.88
383.31	556.88
383.535	557.88
383.761	531.88
383.986	544.88
384.211	538.88
384.436	539.88
384.662	562.88
384.887	569.88
385.112	533.88
385.337	563.88
385.562	549.88
385.787	557.88
386.013	553.88
386.238	568.88
386.463	568.88
386.688	570.88
386.913	568.88
387.138	566.88
387.363	562.88
387.588	564.88
387.813	563.88
388.038	585.88
388.263	593.88
388.488	586.88
388.713	571.88
388.938	574.88
389.163	566.88
389.387	580.88
389.612	586.88
389.837	590.88
390.062	578.88
390.287	585.88
390.512	572.88
390.736	578.88
390.961	595.88
391.186	606.88
391.411	596.88
391.636	598.88
391.86	606.88
392.085	593.88
392.31	588.88
392.534	606.88
392.759	608.88
392.984	610.88
393.208	619.88
393.433	628.88
393.658	668.88
393.882	599.88
394.107	584.88
394.331	579.88
394.556	594.88
394.78	603.88
395.005	604.88
395.229	606.88
395.454	597.88
395.678	633.88
395.903	596.88
396.127	596.88
396.352	628.88
396.576	613.88
396.801	624.88
397.025	646.88
397.249	641.88
397.474	613.88
397.698	640.88
397.922	617.88
398.147	626.88
398.371	628.88
398.595	638.88
398.82	638.88
399.044	683.88
399.268	675.88
399.492	698.88
399.717	703.88
399.941	710.88
400.165	732.88
400.389	693.88
400.613	704.88
400.837	684.88
401.062	683.88
401.286	665.88
401.51	676.88
401.734	676.88
401.958	654.88
402.182	670.88
402.406	684.88
402.63	660.88
402.854	674.88
403.078	643.88
403.302	640.88
403.526	629.88
403.75	679.88
403.974	666.88
404.198	657.88
404.422	676.88
404.645	682.88
404.869	676.88
405.093	678.88
405.317	672.88
405.541	679.88
405.765	682.88
405.988	689.88
406.212	688.88
406.436	710.88
406.66	719.88
406.883	689.88
407.107	717.88
407.331	739.88
407.555	742.88
407.778	727.88
408.002	730.88
408.226	737.88
408.449	733.88
408.673	710.88
408.896	726.88
409.12	703.88
409.344	724.88
409.567	691.88
409.791	716.88
410.014	708.88
410.238	716.88
410.461	709.88
410.685	712.88
410.908	709.88
411.132	678.88
411.355	664.88
411.578	704.88
411.802	668.88
412.025	682.88
412.249	666.88
412.472	691.88
412.695	667.88
412.919	675.88
413.142	703.88
413.365	675.88
413.589	648.88
413.812	680.88
414.035	662.88
414.258	662.88
414.482	669.88
414.705	654.88
414.928	676.88
415.151	678.88
415.374	662.88
415.597	674.88
415.821	650.88
416.044	644.88
416.267	654.88
416.49	646.88
416.713	653.88
416.936	643.88
417.159	637.88
417.382	641.88
417.605	665.88
417.828	644.88
418.051	636.88
418.274	631.88
418.497	661.88
418.72	646.88
418.943	632.88
419.166	659.88
419.389	685.88
419.611	680.88
419.834	659.88
420.057	658.88
420.28	658.88
420.503	650.88
420.726	625.88
420.948	628.88
421.171	633.88
421.394	626.88
421.617	634.88
421.839	639.88
422.062	617.88
422.285	628.88
422.507	649.88
422.73	632.88
422.953	638.88
423.175	634.88
423.398	634.88
423.621	641.88
423.843	660.88
424.066	637.88
424.288	626.88
424.511	630.88
424.733	645.88
424.956	642.88
425.178	633.88
425.401	644.88
425.623	631.88
425.846	610.88
426.068	633.88
426.291	631.88
426.513	630.88
426.735	616.88
426.958	633.88
427.18	613.88
427.402	624.88
427.625	615.88
427.847	617.88
428.069	612.88
428.292	629.88
428.514	620.88
428.736	618.88
428.958	621.88
429.181	581.88
429.403	600.88
429.625	609.88
429.847	600.88
430.069	590.88
430.292	612.88
430.514	628.88
430.736	619.88
430.958	611.88
431.18	625.88
431.402	613.88
431.624	573.88
431.846	617.88
432.068	619.88
432.29	642.88
432.512	617.88
432.734	621.88
432.956	600.88
433.178	614.88
433.4	610.88
433.622	628.88
433.844	619.88
434.066	629.88
434.287	637.88
434.509	621.88
434.731	649.88
434.953	650.88
435.175	626.88
435.397	632.88
435.618	648.88
435.84	620.88
436.062	614.88
436.284	640.88
436.505	629.88
436.727	613.88
436.949	633.88
437.17	603.88
437.392	590.88
437.614	617.88
437.835	595.88
438.057	618.88
438.278	624.88
438.5	613.88
438.721	599.88
438.943	604.88
439.165	603.88
439.386	594.88
439.608	601.88
439.829	613.88
440.05	604.88
440.272	608.88
440.493	617.88
440.715	617.88
440.936	629.88
441.158	624.88
441.379	612.88
441.6	636.88
441.822	617.88
442.043	637.88
442.264	626.88
442.486	603.88
442.707	624.88
442.928	626.88
443.149	622.88
443.371	616.88
443.592	640.88
443.813	642.88
444.034	643.88
444.255	634.88
444.476	630.88
444.698	638.88
444.919	646.88
445.14	722.88
445.361	646.88
445.582	640.88
445.803	615.88
446.024	611.88
446.245	628.88
446.466	637.88
446.687	632.88
446.908	625.88
447.129	596.88
447.35	595.88
447.571	603.88
447.792	597.88
448.013	600.88
448.234	588.88
448.455	590.88
448.675	577.88
448.896	578.88
449.117	582.88
449.338	597.88
449.559	574.88
449.779	569.88
450	571.88
450.221	581.88
450.442	569.88
450.662	555.88
450.883	564.88
451.104	570.88
451.324	567.88
451.545	579.88
451.766	563.88
451.986	568.88
452.207	557.88
452.428	549.88
452.648	562.88
452.869	563.88
453.089	558.88
453.31	563.88
453.53	552.88
453.751	551.88
453.971	544.88
454.192	563.88
454.412	534.88
454.633	540.88
454.853	556.88
455.073	562.88
455.294	562.88
455.514	558.88
455.734	550.88
455.955	549.88
456.175	549.88
456.395	550.88
456.616	534.88
456.836	556.88
457.056	545.88
457.276	570.88
457.497	573.88
457.717	550.88
457.937	572.88
458.157	557.88
458.377	556.88
458.598	581.88
458.818	585.88
459.038	589.88
459.258	609.88
459.478	602.88
459.698	592.88
459.918	597.88
460.138	625.88
460.358	648.88
460.578	639.88
460.798	636.88
461.018	632.88
461.238	647.88
461.458	640.88
461.678	672.88
461.898	668.88
462.118	648.88
462.338	710.88
462.558	668.88
462.777	670.88
462.997	724.88
463.217	696.88
463.437	688.88
463.657	682.88
463.876	712.88
464.096	701.88
464.316	699.88
464.536	690.88
464.755	692.88
464.975	676.88
465.195	664.88
465.414	626.88
465.634	646.88
465.854	637.88
466.073	641.88
466.293	648.88
466.512	656.88
466.732	618.88
466.951	629.88
467.171	615.88
467.391	591.88
467.61	596.88
467.829	616.88
468.049	624.88
468.268	608.88
468.488	593.88
468.707	608.88
468.927	624.88
469.146	621.88
469.365	632.88
469.585	614.88
469.804	601.88
470.023	610.88
470.243	598.88
470.462	632.88
470.681	628.88
470.901	624.88
471.12	609.88
471.339	633.88
471.558	644.88
471.777	612.88
471.997	602.88
472.216	630.88
472.435	611.88
472.654	632.88
472.873	628.88
473.092	625.88
473.311	633.88
473.53	601.88
473.749	606.88
473.968	641.88
474.187	617.88
474.406	642.88
474.625	642.88
474.844	602.88
475.063	626.88
475.282	632.88
475.501	640.88
475.72	638.88
475.939	663.88
476.158	645.88
476.377	666.88
476.596	686.88
476.814	696.88
477.033	658.88
477.252	679.88
477.471	709.88
477.69	707.88
477.908	721.88
478.127	712.88
478.346	688.88
478.564	711.88
478.783	719.88
479.002	731.88
479.22	707.88
479.439	715.88
479.658	759.88
479.876	730.88
480.095	719.88
480.313	737.88
480.532	763.88
480.751	766.88
480.969	748.88
481.188	765.88
481.406	756.88
481.624	774.88
481.843	731.88
482.061	787.88
482.28	735.88
482.498	768.88
482.717	742.88
482.935	762.88
483.153	741.88
483.372	774.88
483.59	726.88
483.808	764.88
484.027	774.88
484.245	761.88
484.463	754.88
484.681	775.88
484.9	764.88
485.118	785.88
485.336	773.88
485.554	760.88
485.772	796.88
485.99	780.88
486.209	791.88
486.427	793.88
486.645	801.88
486.863	791.88
487.081	784.88
487.299	790.88
487.517	783.88
487.735	756.88
487.953	785.88
488.171	764.88
488.389	766.88
488.607	785.88
488.825	769.88
489.043	776.88
489.261	774.88
489.479	785.88
489.696	787.88
489.914	787.88
490.132	776.88
490.35	802.88
490.568	802.88
490.786	805.88
491.003	783.88
491.221	793.88
491.439	797.88
491.657	772.88
491.874	772.88
492.092	819.88
492.31	827.88
492.527	810.88
492.745	823.88
492.963	802.88
493.18	801.88
493.398	788.88
493.615	795.88
493.833	812.88
494.05	807.88
494.268	807.88
494.485	824.88
494.703	808.88
494.92	793.88
495.138	835.88
495.355	830.88
495.573	805.88
495.79	834.88
496.008	834.88
496.225	852.88
496.442	882.88
496.66	857.88
496.877	862.88
497.094	842.88
497.312	858.88
497.529	895.88
497.746	883.88
497.963	893.88
498.181	916.88
498.398	912.88
498.615	956.88
498.832	985.88
499.049	982.88
499.267	1031.88
499.484	1054.88
499.701	1072.88
499.918	1114.88
500.135	1114.88
500.352	1164.88
500.569	1189.88
500.786	1166.88
501.003	1179.88
501.22	1150.88
501.437	1129.88
501.654	1045.88
501.871	1033.88
502.088	1011.88
502.305	1016.88
502.522	936.88
502.739	956.88
502.956	902.88
503.172	922.88
503.389	890.88
503.606	891.88
503.823	859.88
504.04	845.88
504.256	840.88
504.473	850.88
504.69	818.88
504.907	852.88
505.123	829.88
505.34	824.88
505.557	792.88
505.773	766.88
505.99	780.88
506.207	774.88
506.423	733.88
506.64	757.88
506.856	738.88
507.073	741.88
507.289	752.88
507.506	742.88
507.722	759.88
507.939	756.88
508.155	734.88
508.372	742.88
508.588	717.88
508.805	693.88
509.021	714.88
509.238	708.88
509.454	705.88
509.67	694.88
509.887	728.88
510.103	715.88
510.319	697.88
510.536	694.88
510.752	693.88
510.968	696.88
511.184	684.88
511.401	684.88
511.617	681.88
511.833	722.88
512.049	650.88
512.265	674.88
512.481	674.88
512.698	685.88
512.914	682.88
513.13	683.88
513.346	680.88
513.562	686.88
513.778	672.88
513.994	697.88
514.21	693.88
514.426	695.88
514.642	686.88
514.858	680.88
515.074	718.88
515.29	682.88
515.506	705.88
515.721	722.88
515.937	715.88
516.153	695.88
516.369	705.88
516.585	710.88
516.801	726.88
517.016	725.88
517.232	702.88
517.448	731.88
517.664	725.88
517.879	733.88
518.095	740.88
518.311	716.88
518.527	734.88
518.742	706.88
518.958	709.88
519.173	714.88
519.389	699.88
519.605	706.88
519.82	696.88
520.036	709.88
520.251	689.88
520.467	701.88
520.682	661.88
520.898	641.88
521.113	671.88
521.329	658.88
521.544	634.88
521.76	651.88
521.975	668.88
522.19	676.88
522.406	639.88
522.621	646.88
522.836	665.88
523.052	673.88
523.267	670.88
523.482	630.88
523.698	657.88
523.913	642.88
524.128	622.88
524.343	645.88
524.559	641.88
524.774	625.88
524.989	637.88
525.204	638.88
525.419	632.88
525.634	618.88
525.849	625.88
526.064	631.88
526.28	628.88
526.495	653.88
526.71	619.88
526.925	621.88
527.14	637.88
527.355	617.88
527.57	605.88
527.785	625.88
527.999	595.88
528.214	625.88
528.429	603.88
528.644	616.88
528.859	628.88
529.074	617.88
529.289	627.88
529.503	628.88
529.718	615.88
529.933	634.88
530.148	622.88
530.363	636.88
530.577	592.88
530.792	620.88
531.007	597.88
531.221	605.88
531.436	605.88
531.651	635.88
531.865	620.88
532.08	616.88
532.295	597.88
532.509	622.88
532.724	588.88
532.938	611.88
533.153	601.88
533.367	597.88
533.582	605.88
533.796	624.88
534.011	589.88
534.225	587.88
534.44	573.88
534.654	611.88
534.868	601.88
535.083	629.88
535.297	580.88
535.511	602.88
535.726	576.88
535.94	581.88
536.154	582.88
536.369	596.88
536.583	575.88
536.797	590.88
537.011	579.88
537.225	581.88
537.44	584.88
537.654	583.88
537.868	576.88
538.082	568.88
538.296	564.88
538.51	568.88
538.724	593.88
538.938	566.88
539.153	572.88
539.367	567.88
539.581	578.88
539.795	583.88
540.009	554.88
540.222	576.88
540.436	553.88
540.65	557.88
540.864	561.88
541.078	562.88
541.292	575.88
541.506	557.88
541.72	558.88
541.934	553.88
542.147	573.88
542.361	557.88
542.575	555.88
542.789	570.88
543.002	544.88
543.216	576.88
543.43	540.88
543.644	566.88
543.857	575.88
544.071	570.88
544.285	565.88
544.498	563.88
544.712	561.88
544.925	560.88
545.139	554.88
545.352	557.88
545.566	552.88
545.779	582.88
545.993	568.88
546.206	588.88
546.42	585.88
546.633	576.88
546.847	565.88
547.06	557.88
547.274	567.88
547.487	557.88
547.7	574.88
547.914	571.88
548.127	569.88
548.34	569.88
548.554	550.88
548.767	564.88
548.98	582.88
549.193	563.88
549.407	573.88
549.62	570.88
549.833	558.88
550.046	572.88
550.259	544.88
550.473	589.88
550.686	568.88
550.899	570.88
551.112	566.88
551.325	566.88
551.538	555.88
551.751	543.88
551.964	557.88
552.177	571.88
552.39	534.88
552.603	560.88
552.816	553.88
553.029	569.88
553.242	551.88
553.455	553.88
553.667	556.88
553.88	555.88
554.093	541.88
554.306	561.88
554.519	533.88
554.732	541.88
554.944	533.88
555.157	519.88
555.37	516.88
555.583	531.88
555.795	544.88
556.008	523.88
556.221	506.88
556.433	509.88
556.646	509.88
556.859	502.88
557.071	514.88
557.284	512.88
557.496	504.88
557.709	491.88
557.921	487.88
558.134	502.88
558.346	520.88
558.559	514.88
558.771	488.88
558.984	496.88
559.196	504.88
559.409	489.88
559.621	490.88
559.833	499.88
560.046	508.88
560.258	522.88
560.47	500.88
560.683	487.88
560.895	461.88
561.107	488.88
561.32	491.88
561.532	484.88
561.744	473.88
561.956	484.88
562.168	470.88
562.381	491.88
562.593	475.88
562.805	502.88
563.017	492.88
563.229	477.88
563.441	483.88
563.653	502.88
563.865	507.88
564.077	487.88
564.289	490.88
564.501	518.88
564.713	496.88
564.925	513.88
565.137	536.88
565.349	508.88
565.561	513.88
565.773	512.88
565.985	524.88
566.197	527.88
566.408	538.88
566.62	534.88
566.832	536.88
567.044	551.88
567.255	548.88
567.467	569.88
567.679	566.88
567.891	577.88
568.102	568.88
568.314	531.88
568.526	520.88
568.737	541.88
568.949	504.88
569.161	490.88
569.372	508.88
569.584	490.88
569.795	476.88
570.007	466.88
570.218	460.88
570.43	468.88
570.641	446.88
570.853	465.88
571.064	469.88
571.276	446.88
571.487	459.88
571.698	436.88
571.91	425.88
572.121	448.88
572.333	425.88
572.544	445.88
572.755	437.88
572.966	427.88
573.178	410.88
573.389	419.88
573.6	405.88
573.811	422.88
574.023	405.88
574.234	417.88
574.445	427.88
574.656	401.88
574.867	420.88
575.078	420.88
575.289	394.88
575.501	388.88
575.712	375.88
575.923	384.88
576.134	390.88
576.345	420.88
576.556	395.88
576.767	389.88
576.978	403.88
577.188	372.88
577.399	380.88
577.61	385.88
577.821	376.88
578.032	385.88
578.243	377.88
578.454	379.88
578.665	358.88
578.875	376.88
579.086	370.88
579.297	388.88
579.508	376.88
579.718	351.88
579.929	375.88
580.14	348.88
580.35	390.88
580.561	358.88
580.772	365.88
580.982	372.88
581.193	347.88
581.403	356.88
581.614	373.88
581.825	350.88
582.035	368.88
582.246	370.88
582.456	350.88
582.667	356.88
582.877	352.88
583.087	350.88
583.298	350.88
583.508	347.88
583.719	350.88
583.929	338.88
584.139	353.88
584.35	356.88
584.56	349.88
584.77	346.88
584.981	353.88
585.191	346.88
585.401	349.88
585.611	331.88
585.821	334.88
586.032	316.88
586.242	345.88
586.452	320.88
586.662	333.88
586.872	331.88
587.082	332.88
587.292	331.88
587.502	359.88
587.713	354.88
587.923	333.88
588.133	317.88
588.343	345.88
588.553	346.88
588.762	357.88
588.972	342.88
589.182	426.88
589.392	418.88
589.602	349.88
589.812	400.88
590.022	368.88
590.232	329.88
590.441	328.88
590.651	353.88
590.861	326.88
591.071	310.88
591.281	350.88
591.49	323.88
591.7	327.88
591.91	337.88
592.119	324.88
592.329	339.88
592.539	342.88
592.748	327.88
592.958	355.88
593.167	338.88
593.377	350.88
593.587	334.88
593.796	344.88
594.006	352.88
594.215	345.88
594.424	336.88
594.634	331.88
594.843	338.88
595.053	322.88
595.262	312.88
595.472	333.88
595.681	335.88
595.89	328.88
596.1	331.88
596.309	333.88
596.518	313.88
596.727	327.88
596.937	310.88
597.146	314.88
597.355	314.88
597.564	326.88
597.774	300.88
597.983	311.88
598.192	306.88
598.401	294.88
598.61	306.88
598.819	294.88
599.028	304.88
599.237	313.88
599.446	296.88
599.655	296.88
599.864	281.88
600.073	288.88
600.282	292.88
600.491	285.88
600.7	299.88
600.909	274.88
601.118	284.88
601.327	292.88
601.536	291.88
601.745	295.88
601.953	283.88
602.162	284.88
602.371	292.88
602.58	294.88
602.789	288.88
602.997	276.88
603.206	282.88
603.415	288.88
603.623	281.88
603.832	268.88
604.041	279.88
604.249	265.88
604.458	281.88
604.666	270.88
604.875	268.88
605.084	257.88
605.292	282.88
605.501	269.88
605.709	274.88
605.918	265.88
606.126	278.88
606.334	276.88
606.543	260.88
606.751	266.88
606.96	266.88
607.168	279.88
607.376	271.88
607.585	275.88
607.793	275.88
608.001	268.88
608.21	266.88
608.418	276.88
608.626	269.88
608.834	273.88
609.043	260.88
609.251	284.88
609.459	278.88
609.667	266.88
609.875	264.88
610.083	251.88
610.291	281.88
610.499	267.88
610.707	265.88
610.916	285.88
611.124	247.88
611.332	248.88
611.54	253.88
611.748	264.88
611.955	266.88
612.163	258.88
612.371	266.88
612.579	248.88
612.787	260.88
612.995	246.88
613.203	267.88
613.411	253.88
613.618	259.88
613.826	263.88
614.034	253.88
614.242	266.88
614.449	259.88
614.657	264.88
614.865	265.88
615.072	269.88
615.28	247.88
615.488	245.88
615.695	273.88
615.903	258.88
616.111	240.88
616.318	264.88
616.526	238.88
616.733	257.88
616.941	242.88
617.148	258.88
617.356	252.88
617.563	246.88
617.771	245.88
617.978	248.88
618.185	259.88
618.393	268.88
618.6	246.88
618.807	234.88
619.015	248.88
619.222	238.88
619.429	258.88
619.637	253.88
619.844	242.88
620.051	263.88
620.258	244.88
620.466	243.88
620.673	248.88
620.88	228.88
621.087	240.88
621.294	241.88
621.501	235.88
621.708	227.88
621.915	256.88
622.122	227.88
622.329	227.88
622.536	243.88
622.743	250.88
622.95	234.88
623.157	241.88
623.364	224.88
623.571	228.88
623.778	233.88
623.985	244.88
624.192	233.88
624.399	215.88
624.606	233.88
624.812	232.88
625.019	240.88
625.226	222.88
625.433	216.88
625.639	223.88
625.846	236.88
626.053	230.88
626.259	208.88
626.466	195.88
626.673	216.88
626.879	203.88
627.086	233.88
627.293	221.88
627.499	227.88
627.706	223.88
627.912	219.88
628.119	225.88
628.325	221.88
628.532	210.88
628.738	226.88
628.945	228.88
629.151	212.88
629.357	225.88
629.564	219.88
629.77	201.88
629.976	220.88
630.183	222.88
630.389	220.88
630.595	203.88
630.802	221.88
631.008	202.88
631.214	212.88
631.42	214.88
631.627	229.88
631.833	205.88
632.039	213.88
632.245	213.88
632.451	209.88
632.657	221.88
632.863	210.88
633.069	214.88
633.275	202.88
633.481	204.88
633.688	203.88
633.893	200.88
634.099	194.88
634.305	205.88
634.511	207.88
634.717	210.88
634.923	201.88
635.129	221.88
635.335	206.88
635.541	202.88
635.747	194.88
635.952	198.88
636.158	228.88
636.364	213.88
636.57	201.88
636.775	208.88
636.981	221.88
637.187	206.88
637.392	194.88
637.598	194.88
637.804	207.88
638.009	205.88
638.215	209.88
638.421	194.88
638.626	212.88
638.832	196.88
639.037	193.88
639.243	191.88
639.448	193.88
639.654	200.88
639.859	195.88
640.065	187.88
640.27	195.88
640.475	208.88
640.681	192.88
640.886	189.88
641.091	199.88
641.297	204.88
641.502	204.88
641.707	180.88
641.913	181.88
642.118	202.88
642.323	198.88
642.528	188.88
642.733	202.88
642.939	190.88
643.144	196.88
643.349	210.88
643.554	198.88
643.759	190.88
643.964	189.88
644.169	198.88
644.374	203.88
644.579	180.88
644.784	190.88
644.989	192.88
645.194	206.88
645.399	198.88
645.604	202.88
645.809	209.88
646.014	181.88
646.219	188.88
646.423	212.88
646.628	205.88
646.833	189.88
647.038	217.88
647.243	205.88
647.447	202.88
647.652	205.88
647.857	198.88
648.062	197.88
648.266	200.88
648.471	208.88
648.676	222.88
648.88	201.88
649.085	204.88
649.289	196.88
649.494	203.88
649.698	210.88
649.903	208.88
650.107	203.88
650.312	196.88
650.516	190.88
650.721	189.88
650.925	199.88
651.13	198.88
651.334	194.88
651.539	194.88
651.743	214.88
651.947	184.88
652.152	197.88
652.356	192.88
652.56	202.88
652.764	195.88
652.969	190.88
653.173	176.88
653.377	182.88
653.581	179.88
653.785	176.88
653.99	190.88
654.194	190.88
654.398	181.88
654.602	186.88
654.806	200.88
655.01	197.88
655.214	187.88
655.418	180.88
655.622	210.88
655.826	186.88
656.03	203.88
656.234	201.88
656.438	193.88
656.642	189.88
656.846	184.88
657.049	186.88
657.253	176.88
657.457	156.88
657.661	169.88
657.865	167.88
658.068	149.88
658.272	144.88
658.476	132.88
658.68	140.88
658.883	144.88
659.087	140.88
659.291	130.88
659.494	128.88
659.698	125.88
659.901	111.88
660.105	115.88
660.309	105.88
660.512	102.88
660.716	106.88
660.919	99.88
661.123	97.88
661.326	115.88
661.53	107.88
661.733	106.88
661.936	87.88
662.14	77.88
662.343	96.88
662.546	100.88
662.75	88.88
662.953	84.88
663.156	91.88
663.36	86.88
663.563	96.88
663.766	85.88
663.969	87.88
664.173	86.88
664.376	77.88
664.579	81.88
664.782	79.88
664.985	91.88
665.188	79.88
665.391	68.88
665.594	74.88
665.797	90.88
666	87.88
666.203	99.88
666.406	90.88
666.609	89.88
666.812	84.88
667.015	83.88
667.218	84.88
667.421	92.88
667.624	72.88
667.827	93.88
668.03	78.88
668.232	77.88
668.435	76.88
668.638	77.88
668.841	93.88
669.043	82.88
669.246	81.88
669.449	84.88
669.651	83.88
669.854	88.88
670.057	75.88
670.259	82.88
670.462	76.88
670.665	74.88
670.867	75.88
671.07	91.88
671.272	98.88
671.475	80.88
671.677	82.88
671.88	80.88
672.082	81.88
672.284	90.88
672.487	84.88
672.689	73.88
672.892	86.88
