Data from Fe(NO3)3@0.0125M.TitratingCurve.Agarose3%dH2O.NegLispCup.LampEnergy10.LIBS07252019_HRD10591_16-59-07-337.txt Node
Date: Thu Jul 25 16:59:07 EDT 2019
User: cochatt
Spectrometer: HR+D1059
Trigger mode: 1
Integration Time (sec): 1.000000E-1
Scans to average: 1
Electric dark correction enabled: true
Nonlinearity correction enabled: false
Boxcar width: 0
XAxis mode: Wavelengths
Number of Pixels in Spectrum: 2048
>>>>>Begin Spectral Data<<<<<
223.165	-21.12
223.4	-21.12
223.635	-21.12
223.869	-17.12
224.104	-22.12
224.338	-11.12
224.573	-2.12
224.808	-19.12
225.042	-8.12
225.277	-7.12
225.511	12.88
225.746	1.88
225.98	17.88
226.215	6.88
226.449	7.88
226.683	1.88
226.918	28.88
227.152	29.88
227.387	27.88
227.621	40.88
227.856	41.88
228.09	42.88
228.324	56.88
228.559	66.88
228.793	62.88
229.027	93.88
229.262	89.88
229.496	102.88
229.73	97.88
229.964	93.88
230.199	114.88
230.433	111.88
230.667	118.88
230.901	126.88
231.136	109.88
231.37	127.88
231.604	126.88
231.838	122.88
232.072	124.88
232.306	123.88
232.541	116.88
232.775	128.88
233.009	125.88
233.243	120.88
233.477	142.88
233.711	128.88
233.945	131.88
234.179	130.88
234.413	134.88
234.647	131.88
234.881	136.88
235.115	129.88
235.349	131.88
235.583	142.88
235.817	135.88
236.051	145.88
236.285	125.88
236.519	134.88
236.753	135.88
236.987	132.88
237.221	130.88
237.455	130.88
237.689	128.88
237.922	128.88
238.156	143.88
238.39	146.88
238.624	153.88
238.858	133.88
239.091	155.88
239.325	154.88
239.559	141.88
239.793	157.88
240.027	145.88
240.26	131.88
240.494	158.88
240.728	162.88
240.961	143.88
241.195	150.88
241.429	167.88
241.662	178.88
241.896	167.88
242.13	155.88
242.363	172.88
242.597	156.88
242.83	179.88
243.064	168.88
243.298	169.88
243.531	180.88
243.765	180.88
243.998	174.88
244.232	178.88
244.465	161.88
244.699	173.88
244.932	161.88
245.166	164.88
245.399	181.88
245.633	170.88
245.866	164.88
246.099	179.88
246.333	173.88
246.566	180.88
246.8	195.88
247.033	176.88
247.266	195.88
247.5	197.88
247.733	173.88
247.966	178.88
248.2	198.88
248.433	202.88
248.666	211.88
248.899	179.88
249.133	194.88
249.366	196.88
249.599	192.88
249.832	208.88
250.066	199.88
250.299	198.88
250.532	198.88
250.765	211.88
250.998	213.88
251.231	206.88
251.465	212.88
251.698	209.88
251.931	198.88
252.164	197.88
252.397	211.88
252.63	210.88
252.863	222.88
253.096	220.88
253.329	211.88
253.562	218.88
253.795	221.88
254.028	227.88
254.261	220.88
254.494	230.88
254.727	221.88
254.96	222.88
255.193	217.88
255.426	233.88
255.659	226.88
255.892	221.88
256.124	225.88
256.357	227.88
256.59	244.88
256.823	227.88
257.056	249.88
257.289	248.88
257.521	216.88
257.754	230.88
257.987	223.88
258.22	232.88
258.452	243.88
258.685	245.88
258.918	236.88
259.151	259.88
259.383	251.88
259.616	262.88
259.849	250.88
260.081	281.88
260.314	288.88
260.547	274.88
260.779	248.88
261.012	242.88
261.244	270.88
261.477	280.88
261.71	265.88
261.942	258.88
262.175	290.88
262.407	269.88
262.64	276.88
262.872	258.88
263.105	265.88
263.337	270.88
263.57	283.88
263.802	272.88
264.035	264.88
264.267	262.88
264.499	272.88
264.732	278.88
264.964	285.88
265.197	285.88
265.429	272.88
265.661	280.88
265.894	277.88
266.126	299.88
266.358	287.88
266.591	285.88
266.823	289.88
267.055	288.88
267.287	289.88
267.52	301.88
267.752	287.88
267.984	278.88
268.216	295.88
268.448	294.88
268.681	301.88
268.913	293.88
269.145	283.88
269.377	292.88
269.609	312.88
269.841	325.88
270.073	290.88
270.306	294.88
270.538	301.88
270.77	305.88
271.002	313.88
271.234	310.88
271.466	329.88
271.698	319.88
271.93	333.88
272.162	326.88
272.394	319.88
272.626	306.88
272.858	342.88
273.09	325.88
273.322	308.88
273.553	320.88
273.785	334.88
274.017	350.88
274.249	362.88
274.481	347.88
274.713	353.88
274.945	356.88
275.176	377.88
275.408	366.88
275.64	345.88
275.872	358.88
276.104	360.88
276.335	347.88
276.567	341.88
276.799	354.88
277.031	366.88
277.262	347.88
277.494	361.88
277.726	344.88
277.957	346.88
278.189	369.88
278.421	376.88
278.652	362.88
278.884	364.88
279.115	376.88
279.347	373.88
279.579	353.88
279.81	379.88
280.042	363.88
280.273	355.88
280.505	370.88
280.736	394.88
280.968	376.88
281.199	372.88
281.431	388.88
281.662	380.88
281.894	381.88
282.125	369.88
282.356	390.88
282.588	384.88
282.819	394.88
283.051	395.88
283.282	394.88
283.513	382.88
283.745	392.88
283.976	399.88
284.207	419.88
284.439	414.88
284.67	408.88
284.901	414.88
285.132	386.88
285.364	409.88
285.595	424.88
285.826	412.88
286.057	406.88
286.288	402.88
286.52	401.88
286.751	438.88
286.982	411.88
287.213	410.88
287.444	430.88
287.675	423.88
287.906	422.88
288.138	441.88
288.369	414.88
288.6	419.88
288.831	409.88
289.062	424.88
289.293	434.88
289.524	439.88
289.755	441.88
289.986	434.88
290.217	426.88
290.448	419.88
290.679	403.88
290.91	442.88
291.141	409.88
291.371	426.88
291.602	438.88
291.833	419.88
292.064	425.88
292.295	423.88
292.526	414.88
292.757	447.88
292.987	468.88
293.218	436.88
293.449	453.88
293.68	450.88
293.91	440.88
294.141	439.88
294.372	450.88
294.603	447.88
294.833	452.88
295.064	461.88
295.295	449.88
295.525	482.88
295.756	464.88
295.987	461.88
296.217	469.88
296.448	474.88
296.679	475.88
296.909	474.88
297.14	441.88
297.37	459.88
297.601	471.88
297.831	455.88
298.062	477.88
298.292	482.88
298.523	475.88
298.753	496.88
298.984	471.88
299.214	485.88
299.445	498.88
299.675	480.88
299.905	474.88
300.136	473.88
300.366	474.88
300.597	494.88
300.827	496.88
301.057	496.88
301.288	497.88
301.518	459.88
301.748	507.88
301.979	507.88
302.209	503.88
302.439	493.88
302.669	479.88
302.9	517.88
303.13	513.88
303.36	501.88
303.59	524.88
303.82	515.88
304.051	501.88
304.281	515.88
304.511	538.88
304.741	517.88
304.971	536.88
305.201	514.88
305.431	514.88
305.661	529.88
305.891	510.88
306.121	532.88
306.352	510.88
306.582	524.88
306.812	534.88
307.042	517.88
307.272	521.88
307.502	526.88
307.731	533.88
307.961	539.88
308.191	517.88
308.421	518.88
308.651	523.88
308.881	522.88
309.111	523.88
309.341	533.88
309.571	527.88
309.8	556.88
310.03	526.88
310.26	554.88
310.49	555.88
310.72	549.88
310.949	550.88
311.179	553.88
311.409	545.88
311.639	547.88
311.868	549.88
312.098	552.88
312.328	560.88
312.557	587.88
312.787	559.88
313.017	563.88
313.246	568.88
313.476	565.88
313.706	583.88
313.935	582.88
314.165	562.88
314.394	550.88
314.624	583.88
314.853	571.88
315.083	552.88
315.312	593.88
315.542	577.88
315.771	566.88
316.001	576.88
316.23	587.88
316.46	586.88
316.689	591.88
316.919	573.88
317.148	604.88
317.377	581.88
317.607	582.88
317.836	585.88
318.065	613.88
318.295	594.88
318.524	609.88
318.753	605.88
318.983	593.88
319.212	591.88
319.441	612.88
319.67	605.88
319.9	587.88
320.129	613.88
320.358	629.88
320.587	616.88
320.816	618.88
321.046	620.88
321.275	606.88
321.504	632.88
321.733	620.88
321.962	611.88
322.191	643.88
322.42	607.88
322.649	618.88
322.878	634.88
323.108	607.88
323.337	626.88
323.566	636.88
323.795	649.88
324.024	620.88
324.253	660.88
324.482	622.88
324.71	613.88
324.939	642.88
325.168	640.88
325.397	646.88
325.626	636.88
325.855	631.88
326.084	654.88
326.313	644.88
326.542	649.88
326.77	665.88
326.999	646.88
327.228	644.88
327.457	646.88
327.686	647.88
327.914	645.88
328.143	662.88
328.372	646.88
328.6	673.88
328.829	610.88
329.058	662.88
329.287	648.88
329.515	646.88
329.744	665.88
329.972	688.88
330.201	656.88
330.43	662.88
330.658	678.88
330.887	665.88
331.115	664.88
331.344	661.88
331.572	654.88
331.801	677.88
332.03	683.88
332.258	677.88
332.486	688.88
332.715	672.88
332.943	664.88
333.172	712.88
333.4	702.88
333.629	694.88
333.857	691.88
334.085	702.88
334.314	683.88
334.542	715.88
334.771	720.88
334.999	699.88
335.227	719.88
335.455	718.88
335.684	721.88
335.912	705.88
336.14	716.88
336.369	713.88
336.597	729.88
336.825	709.88
337.053	707.88
337.281	715.88
337.51	731.88
337.738	675.88
337.966	692.88
338.194	716.88
338.422	716.88
338.65	673.88
338.878	730.88
339.106	710.88
339.334	696.88
339.562	684.88
339.79	688.88
340.018	698.88
340.246	710.88
340.474	701.88
340.702	711.88
340.93	709.88
341.158	701.88
341.386	711.88
341.614	706.88
341.842	705.88
342.07	708.88
342.298	725.88
342.526	706.88
342.754	703.88
342.981	684.88
343.209	674.88
343.437	739.88
343.665	725.88
343.893	711.88
344.12	730.88
344.348	729.88
344.576	727.88
344.804	724.88
345.031	712.88
345.259	707.88
345.487	707.88
345.714	696.88
345.942	697.88
346.17	713.88
346.397	693.88
346.625	697.88
346.853	712.88
347.08	688.88
347.308	689.88
347.535	684.88
347.763	690.88
347.99	701.88
348.218	685.88
348.445	685.88
348.673	661.88
348.9	691.88
349.128	671.88
349.355	708.88
349.583	700.88
349.81	700.88
350.037	698.88
350.265	691.88
350.492	679.88
350.72	671.88
350.947	654.88
351.174	665.88
351.402	700.88
351.629	677.88
351.856	685.88
352.083	676.88
352.311	671.88
352.538	708.88
352.765	694.88
352.992	681.88
353.22	652.88
353.447	653.88
353.674	683.88
353.901	694.88
354.128	675.88
354.355	668.88
354.583	682.88
354.81	696.88
355.037	684.88
355.264	678.88
355.491	683.88
355.718	684.88
355.945	675.88
356.172	679.88
356.399	694.88
356.626	681.88
356.853	714.88
357.08	675.88
357.307	679.88
357.534	676.88
357.761	672.88
357.988	684.88
358.215	705.88
358.441	688.88
358.668	700.88
358.895	701.88
359.122	694.88
359.349	711.88
359.576	663.88
359.802	682.88
360.029	680.88
360.256	701.88
360.483	696.88
360.709	685.88
360.936	682.88
361.163	663.88
361.39	673.88
361.616	680.88
361.843	676.88
362.07	709.88
362.296	697.88
362.523	689.88
362.749	697.88
362.976	706.88
363.203	690.88
363.429	700.88
363.656	693.88
363.882	691.88
364.109	713.88
364.335	714.88
364.562	703.88
364.788	715.88
365.015	700.88
365.241	683.88
365.468	684.88
365.694	707.88
365.92	704.88
366.147	715.88
366.373	711.88
366.599	722.88
366.826	693.88
367.052	704.88
367.278	703.88
367.505	706.88
367.731	704.88
367.957	715.88
368.184	716.88
368.41	734.88
368.636	728.88
368.862	710.88
369.089	729.88
369.315	727.88
369.541	711.88
369.767	727.88
369.993	729.88
370.219	724.88
370.445	754.88
370.672	722.88
370.898	746.88
371.124	746.88
371.35	774.88
371.576	736.88
371.802	755.88
372.028	737.88
372.254	755.88
372.48	752.88
372.706	760.88
372.932	738.88
373.158	729.88
373.384	747.88
373.61	770.88
373.835	719.88
374.061	768.88
374.287	756.88
374.513	742.88
374.739	742.88
374.965	747.88
375.191	735.88
375.416	739.88
375.642	732.88
375.868	770.88
376.094	750.88
376.319	769.88
376.545	750.88
376.771	774.88
376.997	708.88
377.222	726.88
377.448	737.88
377.674	738.88
377.899	716.88
378.125	762.88
378.35	754.88
378.576	742.88
378.802	721.88
379.027	737.88
379.253	768.88
379.478	724.88
379.704	738.88
379.929	737.88
380.155	740.88
380.38	737.88
380.606	733.88
380.831	747.88
381.057	741.88
381.282	735.88
381.507	753.88
381.733	748.88
381.958	747.88
382.184	787.88
382.409	740.88
382.634	768.88
382.86	739.88
383.085	766.88
383.31	756.88
383.535	746.88
383.761	761.88
383.986	786.88
384.211	772.88
384.436	790.88
384.662	797.88
384.887	778.88
385.112	772.88
385.337	790.88
385.562	800.88
385.787	791.88
386.013	804.88
386.238	815.88
386.463	820.88
386.688	809.88
386.913	806.88
387.138	796.88
387.363	805.88
387.588	834.88
387.813	786.88
388.038	802.88
388.263	825.88
388.488	802.88
388.713	816.88
388.938	813.88
389.163	824.88
389.387	838.88
389.612	786.88
389.837	806.88
390.062	826.88
390.287	813.88
390.512	804.88
390.736	809.88
390.961	813.88
391.186	812.88
391.411	829.88
391.636	818.88
391.86	808.88
392.085	826.88
392.31	858.88
392.534	832.88
392.759	852.88
392.984	809.88
393.208	829.88
393.433	850.88
393.658	803.88
393.882	837.88
394.107	813.88
394.331	840.88
394.556	826.88
394.78	827.88
395.005	850.88
395.229	833.88
395.454	851.88
395.678	839.88
395.903	855.88
396.127	857.88
396.352	844.88
396.576	837.88
396.801	839.88
397.025	864.88
397.249	836.88
397.474	829.88
397.698	889.88
397.922	830.88
398.147	858.88
398.371	896.88
398.595	899.88
398.82	901.88
399.044	907.88
399.268	897.88
399.492	902.88
399.717	933.88
399.941	939.88
400.165	923.88
400.389	930.88
400.613	918.88
400.837	906.88
401.062	921.88
401.286	887.88
401.51	896.88
401.734	898.88
401.958	902.88
402.182	901.88
402.406	903.88
402.63	886.88
402.854	899.88
403.078	885.88
403.302	894.88
403.526	913.88
403.75	882.88
403.974	893.88
404.198	898.88
404.422	911.88
404.645	913.88
404.869	905.88
405.093	898.88
405.317	875.88
405.541	925.88
405.765	921.88
405.988	907.88
406.212	935.88
406.436	917.88
406.66	940.88
406.883	923.88
407.107	920.88
407.331	942.88
407.555	936.88
407.778	958.88
408.002	925.88
408.226	965.88
408.449	985.88
408.673	930.88
408.896	931.88
409.12	936.88
409.344	950.88
409.567	941.88
409.791	973.88
410.014	914.88
410.238	915.88
410.461	923.88
410.685	918.88
410.908	918.88
411.132	896.88
411.355	898.88
411.578	896.88
411.802	897.88
412.025	914.88
412.249	928.88
412.472	904.88
412.695	902.88
412.919	945.88
413.142	903.88
413.365	877.88
413.589	920.88
413.812	910.88
414.035	891.88
414.258	891.88
414.482	880.88
414.705	918.88
414.928	883.88
415.151	887.88
415.374	883.88
415.597	860.88
415.821	852.88
416.044	890.88
416.267	882.88
416.49	884.88
416.713	858.88
416.936	879.88
417.159	862.88
417.382	840.88
417.605	841.88
417.828	825.88
418.051	874.88
418.274	855.88
418.497	833.88
418.72	849.88
418.943	860.88
419.166	887.88
419.389	924.88
419.611	915.88
419.834	896.88
420.057	881.88
420.28	846.88
420.503	846.88
420.726	851.88
420.948	817.88
421.171	850.88
421.394	862.88
421.617	829.88
421.839	816.88
422.062	836.88
422.285	801.88
422.507	845.88
422.73	848.88
422.953	858.88
423.175	837.88
423.398	833.88
423.621	845.88
423.843	838.88
424.066	844.88
424.288	844.88
424.511	826.88
424.733	829.88
424.956	844.88
425.178	820.88
425.401	857.88
425.623	837.88
425.846	846.88
426.068	874.88
426.291	825.88
426.513	820.88
426.735	840.88
426.958	831.88
427.18	796.88
427.402	849.88
427.625	827.88
427.847	854.88
428.069	817.88
428.292	842.88
428.514	817.88
428.736	812.88
428.958	838.88
429.181	819.88
429.403	800.88
429.625	828.88
429.847	824.88
430.069	809.88
430.292	843.88
430.514	825.88
430.736	838.88
430.958	832.88
431.18	826.88
431.402	827.88
431.624	823.88
431.846	809.88
432.068	824.88
432.29	814.88
432.512	785.88
432.734	832.88
432.956	811.88
433.178	854.88
433.4	813.88
433.622	840.88
433.844	847.88
434.066	810.88
434.287	810.88
434.509	844.88
434.731	830.88
434.953	823.88
435.175	845.88
435.397	861.88
435.618	829.88
435.84	825.88
436.062	826.88
436.284	806.88
436.505	816.88
436.727	830.88
436.949	804.88
437.17	826.88
437.392	812.88
437.614	778.88
437.835	797.88
438.057	814.88
438.278	782.88
438.5	794.88
438.721	808.88
438.943	806.88
439.165	805.88
439.386	800.88
439.608	816.88
439.829	823.88
440.05	811.88
440.272	820.88
440.493	793.88
440.715	841.88
440.936	842.88
441.158	830.88
441.379	805.88
441.6	867.88
441.822	846.88
442.043	834.88
442.264	833.88
442.486	792.88
442.707	837.88
442.928	830.88
443.149	799.88
443.371	818.88
443.592	797.88
443.813	832.88
444.034	822.88
444.255	806.88
444.476	827.88
444.698	816.88
444.919	820.88
445.14	929.88
445.361	850.88
445.582	820.88
445.803	795.88
446.024	832.88
446.245	795.88
446.466	805.88
446.687	772.88
446.908	784.88
447.129	804.88
447.35	776.88
447.571	801.88
447.792	782.88
448.013	776.88
448.234	764.88
448.455	775.88
448.675	760.88
448.896	782.88
449.117	778.88
449.338	778.88
449.559	774.88
449.779	743.88
450	733.88
450.221	768.88
450.442	757.88
450.662	756.88
450.883	746.88
451.104	756.88
451.324	762.88
451.545	754.88
451.766	741.88
451.986	732.88
452.207	758.88
452.428	782.88
452.648	771.88
452.869	733.88
453.089	731.88
453.31	752.88
453.53	730.88
453.751	756.88
453.971	752.88
454.192	738.88
454.412	717.88
454.633	743.88
454.853	745.88
455.073	721.88
455.294	743.88
455.514	721.88
455.734	759.88
455.955	746.88
456.175	744.88
456.395	747.88
456.616	742.88
456.836	741.88
457.056	746.88
457.276	735.88
457.497	736.88
457.717	736.88
457.937	733.88
458.157	749.88
458.377	765.88
458.598	756.88
458.818	761.88
459.038	747.88
459.258	769.88
459.478	776.88
459.698	787.88
459.918	787.88
460.138	825.88
460.358	796.88
460.578	774.88
460.798	824.88
461.018	822.88
461.238	831.88
461.458	814.88
461.678	813.88
461.898	804.88
462.118	813.88
462.338	834.88
462.558	820.88
462.777	852.88
462.997	853.88
463.217	873.88
463.437	881.88
463.657	883.88
463.876	854.88
464.096	849.88
464.316	853.88
464.536	860.88
464.755	872.88
464.975	874.88
465.195	866.88
465.414	841.88
465.634	823.88
465.854	838.88
466.073	829.88
466.293	833.88
466.512	790.88
466.732	779.88
466.951	800.88
467.171	800.88
467.391	795.88
467.61	798.88
467.829	811.88
468.049	774.88
468.268	796.88
468.488	793.88
468.707	810.88
468.927	790.88
469.146	798.88
469.365	785.88
469.585	772.88
469.804	796.88
470.023	798.88
470.243	783.88
470.462	830.88
470.681	812.88
470.901	789.88
471.12	820.88
471.339	828.88
471.558	821.88
471.777	802.88
471.997	811.88
472.216	811.88
472.435	827.88
472.654	833.88
472.873	825.88
473.092	822.88
473.311	816.88
473.53	840.88
473.749	829.88
473.968	840.88
474.187	812.88
474.406	846.88
474.625	843.88
474.844	808.88
475.063	817.88
475.282	828.88
475.501	851.88
475.72	854.88
475.939	874.88
476.158	893.88
476.377	874.88
476.596	868.88
476.814	890.88
477.033	874.88
477.252	901.88
477.471	884.88
477.69	872.88
477.908	884.88
478.127	916.88
478.346	870.88
478.564	878.88
478.783	896.88
479.002	939.88
479.22	906.88
479.439	949.88
479.658	944.88
479.876	953.88
480.095	942.88
480.313	956.88
480.532	947.88
480.751	970.88
480.969	968.88
481.188	931.88
481.406	957.88
481.624	977.88
481.843	974.88
482.061	966.88
482.28	976.88
482.498	977.88
482.717	968.88
482.935	994.88
483.153	972.88
483.372	972.88
483.59	974.88
483.808	989.88
484.027	1016.88
484.245	995.88
484.463	1009.88
484.681	1022.88
484.9	1022.88
485.118	973.88
485.336	971.88
485.554	997.88
485.772	971.88
485.99	975.88
486.209	988.88
486.427	1005.88
486.645	1008.88
486.863	988.88
487.081	1013.88
487.299	1008.88
487.517	980.88
487.735	1016.88
487.953	1021.88
488.171	1019.88
488.389	1004.88
488.607	997.88
488.825	1003.88
489.043	989.88
489.261	992.88
489.479	1008.88
489.696	1026.88
489.914	1026.88
490.132	1029.88
490.35	1012.88
490.568	1036.88
490.786	1017.88
491.003	1016.88
491.221	1027.88
491.439	1037.88
491.657	1022.88
491.874	1027.88
492.092	1054.88
492.31	1037.88
492.527	1040.88
492.745	1073.88
492.963	1045.88
493.18	1064.88
493.398	1034.88
493.615	1047.88
493.833	1027.88
494.05	1013.88
494.268	1057.88
494.485	1033.88
494.703	1050.88
494.92	1056.88
495.138	1053.88
495.355	1047.88
495.573	1078.88
495.79	1090.88
496.008	1076.88
496.225	1076.88
496.442	1080.88
496.66	1090.88
496.877	1096.88
497.094	1124.88
497.312	1128.88
497.529	1128.88
497.746	1118.88
497.963	1125.88
498.181	1112.88
498.398	1125.88
498.615	1182.88
498.832	1187.88
499.049	1201.88
499.267	1209.88
499.484	1236.88
499.701	1291.88
499.918	1272.88
500.135	1328.88
500.352	1326.88
500.569	1325.88
500.786	1309.88
501.003	1292.88
501.22	1313.88
501.437	1293.88
501.654	1243.88
501.871	1230.88
502.088	1220.88
502.305	1212.88
502.522	1169.88
502.739	1152.88
502.956	1134.88
503.172	1144.88
503.389	1093.88
503.606	1110.88
503.823	1092.88
504.04	1078.88
504.256	1062.88
504.473	1098.88
504.69	1032.88
504.907	1074.88
505.123	1056.88
505.34	1034.88
505.557	1024.88
505.773	998.88
505.99	1021.88
506.207	981.88
506.423	983.88
506.64	974.88
506.856	961.88
507.073	985.88
507.289	973.88
507.506	957.88
507.722	954.88
507.939	944.88
508.155	957.88
508.372	946.88
508.588	907.88
508.805	918.88
509.021	911.88
509.238	897.88
509.454	911.88
509.67	914.88
509.887	925.88
510.103	896.88
510.319	911.88
510.536	900.88
510.752	921.88
510.968	894.88
511.184	916.88
511.401	914.88
511.617	883.88
511.833	874.88
512.049	889.88
512.265	892.88
512.481	874.88
512.698	878.88
512.914	891.88
513.13	883.88
513.346	886.88
513.562	902.88
513.778	915.88
513.994	878.88
514.21	865.88
514.426	872.88
514.642	873.88
514.858	888.88
515.074	906.88
515.29	904.88
515.506	907.88
515.721	889.88
515.937	885.88
516.153	869.88
516.369	895.88
516.585	886.88
516.801	897.88
517.016	902.88
517.232	895.88
517.448	905.88
517.664	909.88
517.879	871.88
518.095	904.88
518.311	905.88
518.527	875.88
518.742	912.88
518.958	904.88
519.173	891.88
519.389	882.88
519.605	878.88
519.82	872.88
520.036	894.88
520.251	882.88
520.467	853.88
520.682	866.88
520.898	858.88
521.113	839.88
521.329	857.88
521.544	817.88
521.76	845.88
521.975	841.88
522.19	834.88
522.406	845.88
522.621	829.88
522.836	836.88
523.052	834.88
523.267	833.88
523.482	810.88
523.698	827.88
523.913	838.88
524.128	824.88
524.343	849.88
524.559	835.88
524.774	804.88
524.989	788.88
525.204	820.88
525.419	840.88
525.634	802.88
525.849	799.88
526.064	805.88
526.28	816.88
526.495	826.88
526.71	822.88
526.925	771.88
527.14	781.88
527.355	776.88
527.57	800.88
527.785	809.88
527.999	808.88
528.214	796.88
528.429	801.88
528.644	784.88
528.859	795.88
529.074	814.88
529.289	813.88
529.503	806.88
529.718	811.88
529.933	800.88
530.148	795.88
530.363	778.88
530.577	752.88
530.792	795.88
531.007	799.88
531.221	786.88
531.436	798.88
531.651	794.88
531.865	798.88
532.08	784.88
532.295	785.88
532.509	760.88
532.724	770.88
532.938	779.88
533.153	768.88
533.367	773.88
533.582	778.88
533.796	762.88
534.011	795.88
534.225	785.88
534.44	745.88
534.654	743.88
534.868	761.88
535.083	749.88
535.297	749.88
535.511	753.88
535.726	754.88
535.94	745.88
536.154	769.88
536.369	755.88
536.583	758.88
536.797	705.88
537.011	747.88
537.225	745.88
537.44	756.88
537.654	772.88
537.868	734.88
538.082	749.88
538.296	739.88
538.51	729.88
538.724	715.88
538.938	700.88
539.153	747.88
539.367	728.88
539.581	712.88
539.795	716.88
540.009	719.88
540.222	709.88
540.436	742.88
540.65	729.88
540.864	713.88
541.078	744.88
541.292	715.88
541.506	714.88
541.72	717.88
541.934	718.88
542.147	730.88
542.361	723.88
542.575	710.88
542.789	723.88
543.002	707.88
543.216	710.88
543.43	700.88
543.644	698.88
543.857	688.88
544.071	713.88
544.285	714.88
544.498	696.88
544.712	712.88
544.925	715.88
545.139	725.88
545.352	705.88
545.566	688.88
545.779	700.88
545.993	694.88
546.206	713.88
546.42	685.88
546.633	682.88
546.847	695.88
547.06	693.88
547.274	687.88
547.487	684.88
547.7	694.88
547.914	682.88
548.127	714.88
548.34	691.88
548.554	690.88
548.767	729.88
548.98	714.88
549.193	681.88
549.407	661.88
549.62	680.88
549.833	696.88
550.046	706.88
550.259	652.88
550.473	654.88
550.686	679.88
550.899	674.88
551.112	690.88
551.325	649.88
551.538	694.88
551.751	668.88
551.964	660.88
552.177	681.88
552.39	662.88
552.603	687.88
552.816	664.88
553.029	661.88
553.242	674.88
553.455	653.88
553.667	661.88
553.88	658.88
554.093	638.88
554.306	666.88
554.519	662.88
554.732	652.88
554.944	648.88
555.157	642.88
555.37	648.88
555.583	644.88
555.795	652.88
556.008	652.88
556.221	625.88
556.433	635.88
556.646	636.88
556.859	625.88
557.071	601.88
557.284	618.88
557.496	608.88
557.709	632.88
557.921	621.88
558.134	604.88
558.346	589.88
558.559	600.88
558.771	586.88
558.984	594.88
559.196	620.88
559.409	600.88
559.621	602.88
559.833	599.88
560.046	611.88
560.258	612.88
560.47	624.88
560.683	609.88
560.895	590.88
561.107	596.88
561.32	582.88
561.532	603.88
561.744	602.88
561.956	582.88
562.168	606.88
562.381	591.88
562.593	584.88
562.805	605.88
563.017	588.88
563.229	590.88
563.441	596.88
563.653	584.88
563.865	620.88
564.077	595.88
564.289	596.88
564.501	602.88
564.713	581.88
564.925	605.88
565.137	589.88
565.349	593.88
565.561	603.88
565.773	624.88
565.985	627.88
566.197	622.88
566.408	612.88
566.62	614.88
566.832	600.88
567.044	634.88
567.255	631.88
567.467	627.88
567.679	627.88
567.891	613.88
568.102	602.88
568.314	616.88
568.526	626.88
568.737	596.88
568.949	594.88
569.161	577.88
569.372	559.88
569.584	589.88
569.795	576.88
570.007	570.88
570.218	540.88
570.43	548.88
570.641	552.88
570.853	554.88
571.064	578.88
571.276	553.88
571.487	521.88
571.698	548.88
571.91	533.88
572.121	522.88
572.333	544.88
572.544	505.88
572.755	531.88
572.966	535.88
573.178	500.88
573.389	494.88
573.6	478.88
573.811	490.88
574.023	479.88
574.234	489.88
574.445	481.88
574.656	483.88
574.867	482.88
575.078	474.88
575.289	467.88
575.501	461.88
575.712	486.88
575.923	460.88
576.134	447.88
576.345	487.88
576.556	460.88
576.767	461.88
576.978	444.88
577.188	470.88
577.399	472.88
577.61	449.88
577.821	454.88
578.032	450.88
578.243	471.88
578.454	456.88
578.665	449.88
578.875	441.88
579.086	458.88
579.297	455.88
579.508	439.88
579.718	429.88
579.929	454.88
580.14	427.88
580.35	450.88
580.561	449.88
580.772	427.88
580.982	413.88
581.193	437.88
581.403	424.88
581.614	423.88
581.825	428.88
582.035	420.88
582.246	426.88
582.456	423.88
582.667	436.88
582.877	430.88
583.087	433.88
583.298	420.88
583.508	412.88
583.719	426.88
583.929	434.88
584.139	423.88
584.35	418.88
584.56	425.88
584.77	406.88
584.981	416.88
585.191	433.88
585.401	414.88
585.611	439.88
585.821	406.88
586.032	418.88
586.242	388.88
586.452	392.88
586.662	382.88
586.872	398.88
587.082	414.88
587.292	388.88
587.502	416.88
587.713	404.88
587.923	392.88
588.133	396.88
588.343	410.88
588.553	408.88
588.762	392.88
588.972	403.88
589.182	410.88
589.392	419.88
589.602	420.88
589.812	418.88
590.022	413.88
590.232	379.88
590.441	403.88
590.651	390.88
590.861	402.88
591.071	398.88
591.281	376.88
591.49	385.88
591.7	399.88
591.91	393.88
592.119	361.88
592.329	381.88
592.539	376.88
592.748	385.88
592.958	381.88
593.167	371.88
593.377	379.88
593.587	390.88
593.796	400.88
594.006	410.88
594.215	376.88
594.424	378.88
594.634	403.88
594.843	395.88
595.053	372.88
595.262	375.88
595.472	378.88
595.681	367.88
595.89	384.88
596.1	365.88
596.309	356.88
596.518	357.88
596.727	363.88
596.937	370.88
597.146	370.88
597.355	380.88
597.564	363.88
597.774	357.88
597.983	354.88
598.192	355.88
598.401	352.88
598.61	349.88
598.819	332.88
599.028	344.88
599.237	323.88
599.446	348.88
599.655	340.88
599.864	337.88
600.073	341.88
600.282	340.88
600.491	346.88
600.7	335.88
600.909	338.88
601.118	334.88
601.327	339.88
601.536	334.88
601.745	306.88
601.953	337.88
602.162	317.88
602.371	333.88
602.58	328.88
602.789	342.88
602.997	332.88
603.206	325.88
603.415	302.88
603.623	319.88
603.832	318.88
604.041	314.88
604.249	299.88
604.458	318.88
604.666	327.88
604.875	305.88
605.084	331.88
605.292	318.88
605.501	310.88
605.709	320.88
605.918	313.88
606.126	317.88
606.334	311.88
606.543	293.88
606.751	312.88
606.96	312.88
607.168	307.88
607.376	309.88
607.585	330.88
607.793	313.88
608.001	318.88
608.21	312.88
608.418	311.88
608.626	294.88
608.834	310.88
609.043	300.88
609.251	299.88
609.459	317.88
609.667	305.88
609.875	332.88
610.083	309.88
610.291	296.88
610.499	316.88
610.707	301.88
610.916	282.88
611.124	315.88
611.332	305.88
611.54	298.88
611.748	279.88
611.955	305.88
612.163	299.88
612.371	284.88
612.579	291.88
612.787	321.88
612.995	294.88
613.203	295.88
613.411	281.88
613.618	288.88
613.826	292.88
614.034	326.88
614.242	295.88
614.449	302.88
614.657	304.88
614.865	290.88
615.072	280.88
615.28	293.88
615.488	290.88
615.695	305.88
615.903	288.88
616.111	285.88
616.318	304.88
616.526	300.88
616.733	278.88
616.941	287.88
617.148	285.88
617.356	268.88
617.563	298.88
617.771	292.88
617.978	263.88
618.185	284.88
618.393	292.88
618.6	274.88
618.807	279.88
619.015	292.88
619.222	278.88
619.429	291.88
619.637	286.88
619.844	283.88
620.051	256.88
620.258	276.88
620.466	268.88
620.673	275.88
620.88	269.88
621.087	260.88
621.294	269.88
621.501	252.88
621.708	266.88
621.915	266.88
622.122	275.88
622.329	272.88
622.536	285.88
622.743	258.88
622.95	250.88
623.157	259.88
623.364	254.88
623.571	256.88
623.778	253.88
623.985	273.88
624.192	265.88
624.399	258.88
624.606	272.88
624.812	255.88
625.019	242.88
625.226	265.88
625.433	245.88
625.639	258.88
625.846	252.88
626.053	261.88
626.259	258.88
626.466	257.88
626.673	246.88
626.879	242.88
627.086	259.88
627.293	236.88
627.499	258.88
627.706	252.88
627.912	248.88
628.119	242.88
628.325	253.88
628.532	260.88
628.738	237.88
628.945	246.88
629.151	249.88
629.357	240.88
629.564	216.88
629.77	241.88
629.976	237.88
630.183	235.88
630.389	229.88
630.595	231.88
630.802	241.88
631.008	227.88
631.214	237.88
631.42	238.88
631.627	224.88
631.833	216.88
632.039	239.88
632.245	231.88
632.451	231.88
632.657	214.88
632.863	232.88
633.069	216.88
633.275	218.88
633.481	224.88
633.688	229.88
633.893	226.88
634.099	224.88
634.305	234.88
634.511	226.88
634.717	215.88
634.923	210.88
635.129	232.88
635.335	225.88
635.541	217.88
635.747	243.88
635.952	224.88
636.158	217.88
636.364	232.88
636.57	221.88
636.775	231.88
636.981	213.88
637.187	212.88
637.392	206.88
637.598	208.88
637.804	209.88
638.009	218.88
638.215	212.88
638.421	226.88
638.626	226.88
638.832	209.88
639.037	218.88
639.243	214.88
639.448	221.88
639.654	213.88
639.859	225.88
640.065	211.88
640.27	218.88
640.475	221.88
640.681	205.88
640.886	202.88
641.091	222.88
641.297	211.88
641.502	212.88
641.707	212.88
641.913	205.88
642.118	219.88
642.323	207.88
642.528	220.88
642.733	200.88
642.939	218.88
643.144	213.88
643.349	230.88
643.554	213.88
643.759	200.88
643.964	204.88
644.169	201.88
644.374	210.88
644.579	209.88
644.784	204.88
644.989	211.88
645.194	201.88
645.399	190.88
645.604	198.88
645.809	200.88
646.014	196.88
646.219	187.88
646.423	195.88
646.628	231.88
646.833	209.88
647.038	203.88
647.243	185.88
647.447	206.88
647.652	199.88
647.857	204.88
648.062	218.88
648.266	206.88
648.471	213.88
648.676	198.88
648.88	211.88
649.085	211.88
649.289	202.88
649.494	211.88
649.698	192.88
649.903	195.88
650.107	218.88
650.312	212.88
650.516	209.88
650.721	188.88
650.925	200.88
651.13	205.88
651.334	189.88
651.539	191.88
651.743	206.88
651.947	202.88
652.152	200.88
652.356	192.88
652.56	209.88
652.764	194.88
652.969	188.88
653.173	197.88
653.377	180.88
653.581	180.88
653.785	187.88
653.99	196.88
654.194	181.88
654.398	187.88
654.602	197.88
654.806	201.88
655.01	186.88
655.214	187.88
655.418	184.88
655.622	181.88
655.826	190.88
656.03	184.88
656.234	181.88
656.438	190.88
656.642	174.88
656.846	177.88
657.049	152.88
657.253	163.88
657.457	160.88
657.661	160.88
657.865	155.88
658.068	150.88
658.272	139.88
658.476	134.88
658.68	126.88
658.883	122.88
659.087	128.88
659.291	137.88
659.494	116.88
659.698	115.88
659.901	113.88
660.105	105.88
660.309	112.88
660.512	114.88
660.716	104.88
660.919	104.88
661.123	115.88
661.326	100.88
661.53	108.88
661.733	105.88
661.936	95.88
662.14	84.88
662.343	84.88
662.546	82.88
662.75	90.88
662.953	89.88
663.156	103.88
663.36	90.88
663.563	90.88
663.766	88.88
663.969	88.88
664.173	88.88
664.376	97.88
664.579	76.88
664.782	89.88
664.985	97.88
665.188	77.88
665.391	87.88
665.594	63.88
665.797	91.88
666	78.88
666.203	93.88
666.406	83.88
666.609	92.88
666.812	95.88
667.015	89.88
667.218	97.88
667.421	83.88
667.624	79.88
667.827	80.88
668.03	79.88
668.232	78.88
668.435	69.88
668.638	79.88
668.841	84.88
669.043	81.88
669.246	79.88
669.449	73.88
669.651	84.88
669.854	92.88
670.057	87.88
670.259	73.88
670.462	90.88
670.665	82.88
670.867	83.88
671.07	82.88
671.272	70.88
671.475	81.88
671.677	73.88
671.88	84.88
672.082	92.88
672.284	95.88
672.487	79.88
672.689	86.88
672.892	91.88
