Data from Fe(NO3)3@0.0125M.TitratingCurve.Agarose3%dH2O.NegLispCup.LampEnergy10.LIBS07252019_HRD10591_16-58-31-336.txt Node
Date: Thu Jul 25 16:58:31 EDT 2019
User: cochatt
Spectrometer: HR+D1059
Trigger mode: 1
Integration Time (sec): 1.000000E-1
Scans to average: 1
Electric dark correction enabled: true
Nonlinearity correction enabled: false
Boxcar width: 0
XAxis mode: Wavelengths
Number of Pixels in Spectrum: 2048
>>>>>Begin Spectral Data<<<<<
223.165	-10.44
223.4	-10.44
223.635	-10.44
223.869	-16.44
224.104	-19.44
224.338	-10.44
224.573	-3.44
224.808	-8.44
225.042	-11.44
225.277	-5.44
225.511	-12.44
225.746	-3.44
225.98	13.56
226.215	28.56
226.449	6.56
226.683	8.56
226.918	14.56
227.152	29.56
227.387	40.56
227.621	43.56
227.856	52.56
228.09	51.56
228.324	49.56
228.559	49.56
228.793	62.56
229.027	85.56
229.262	82.56
229.496	101.56
229.73	83.56
229.964	93.56
230.199	91.56
230.433	104.56
230.667	105.56
230.901	92.56
231.136	109.56
231.37	97.56
231.604	105.56
231.838	118.56
232.072	116.56
232.306	103.56
232.541	97.56
232.775	129.56
233.009	115.56
233.243	93.56
233.477	101.56
233.711	110.56
233.945	104.56
234.179	122.56
234.413	107.56
234.647	121.56
234.881	127.56
235.115	137.56
235.349	119.56
235.583	117.56
235.817	121.56
236.051	116.56
236.285	118.56
236.519	118.56
236.753	120.56
236.987	109.56
237.221	113.56
237.455	122.56
237.689	132.56
237.922	116.56
238.156	126.56
238.39	127.56
238.624	111.56
238.858	129.56
239.091	127.56
239.325	116.56
239.559	129.56
239.793	125.56
240.027	128.56
240.26	140.56
240.494	125.56
240.728	123.56
240.961	117.56
241.195	137.56
241.429	137.56
241.662	134.56
241.896	116.56
242.13	135.56
242.363	148.56
242.597	135.56
242.83	138.56
243.064	140.56
243.298	154.56
243.531	142.56
243.765	130.56
243.998	139.56
244.232	154.56
244.465	139.56
244.699	147.56
244.932	123.56
245.166	151.56
245.399	152.56
245.633	129.56
245.866	147.56
246.099	127.56
246.333	152.56
246.566	141.56
246.8	149.56
247.033	140.56
247.266	153.56
247.5	141.56
247.733	153.56
247.966	156.56
248.2	157.56
248.433	148.56
248.666	145.56
248.899	163.56
249.133	149.56
249.366	150.56
249.599	164.56
249.832	177.56
250.066	167.56
250.299	151.56
250.532	150.56
250.765	161.56
250.998	154.56
251.231	167.56
251.465	176.56
251.698	175.56
251.931	165.56
252.164	169.56
252.397	160.56
252.63	162.56
252.863	171.56
253.096	179.56
253.329	188.56
253.562	162.56
253.795	173.56
254.028	176.56
254.261	188.56
254.494	169.56
254.727	184.56
254.96	185.56
255.193	173.56
255.426	193.56
255.659	174.56
255.892	179.56
256.124	182.56
256.357	185.56
256.59	189.56
256.823	194.56
257.056	195.56
257.289	186.56
257.521	209.56
257.754	195.56
257.987	191.56
258.22	198.56
258.452	198.56
258.685	193.56
258.918	224.56
259.151	211.56
259.383	197.56
259.616	196.56
259.849	205.56
260.081	206.56
260.314	201.56
260.547	196.56
260.779	196.56
261.012	201.56
261.244	205.56
261.477	221.56
261.71	201.56
261.942	219.56
262.175	209.56
262.407	192.56
262.64	196.56
262.872	212.56
263.105	201.56
263.337	221.56
263.57	214.56
263.802	232.56
264.035	227.56
264.267	238.56
264.499	223.56
264.732	225.56
264.964	216.56
265.197	216.56
265.429	216.56
265.661	222.56
265.894	231.56
266.126	223.56
266.358	225.56
266.591	240.56
266.823	225.56
267.055	219.56
267.287	229.56
267.52	248.56
267.752	241.56
267.984	241.56
268.216	236.56
268.448	237.56
268.681	229.56
268.913	232.56
269.145	232.56
269.377	237.56
269.609	272.56
269.841	241.56
270.073	264.56
270.306	268.56
270.538	268.56
270.77	236.56
271.002	259.56
271.234	247.56
271.466	260.56
271.698	252.56
271.93	253.56
272.162	256.56
272.394	257.56
272.626	252.56
272.858	261.56
273.09	244.56
273.322	259.56
273.553	256.56
273.785	260.56
274.017	257.56
274.249	271.56
274.481	283.56
274.713	264.56
274.945	272.56
275.176	254.56
275.408	259.56
275.64	264.56
275.872	262.56
276.104	272.56
276.335	278.56
276.567	264.56
276.799	285.56
277.031	269.56
277.262	274.56
277.494	271.56
277.726	264.56
277.957	299.56
278.189	301.56
278.421	294.56
278.652	292.56
278.884	299.56
279.115	272.56
279.347	274.56
279.579	293.56
279.81	305.56
280.042	304.56
280.273	279.56
280.505	272.56
280.736	293.56
280.968	280.56
281.199	282.56
281.431	311.56
281.662	314.56
281.894	307.56
282.125	310.56
282.356	306.56
282.588	306.56
282.819	288.56
283.051	303.56
283.282	308.56
283.513	310.56
283.745	313.56
283.976	311.56
284.207	321.56
284.439	322.56
284.67	321.56
284.901	324.56
285.132	295.56
285.364	317.56
285.595	315.56
285.826	310.56
286.057	310.56
286.288	326.56
286.52	333.56
286.751	320.56
286.982	321.56
287.213	320.56
287.444	354.56
287.675	347.56
287.906	333.56
288.138	337.56
288.369	329.56
288.6	328.56
288.831	343.56
289.062	318.56
289.293	322.56
289.524	335.56
289.755	309.56
289.986	338.56
290.217	343.56
290.448	325.56
290.679	351.56
290.91	344.56
291.141	341.56
291.371	339.56
291.602	339.56
291.833	320.56
292.064	343.56
292.295	347.56
292.526	359.56
292.757	338.56
292.987	334.56
293.218	317.56
293.449	339.56
293.68	335.56
293.91	356.56
294.141	359.56
294.372	370.56
294.603	341.56
294.833	359.56
295.064	337.56
295.295	343.56
295.525	354.56
295.756	361.56
295.987	356.56
296.217	348.56
296.448	348.56
296.679	359.56
296.909	375.56
297.14	367.56
297.37	367.56
297.601	359.56
297.831	391.56
298.062	360.56
298.292	367.56
298.523	368.56
298.753	372.56
298.984	363.56
299.214	372.56
299.445	379.56
299.675	367.56
299.905	379.56
300.136	385.56
300.366	368.56
300.597	386.56
300.827	381.56
301.057	361.56
301.288	401.56
301.518	390.56
301.748	374.56
301.979	396.56
302.209	385.56
302.439	388.56
302.669	394.56
302.9	365.56
303.13	374.56
303.36	390.56
303.59	399.56
303.82	401.56
304.051	415.56
304.281	391.56
304.511	394.56
304.741	389.56
304.971	413.56
305.201	383.56
305.431	398.56
305.661	384.56
305.891	394.56
306.121	409.56
306.352	397.56
306.582	394.56
306.812	390.56
307.042	401.56
307.272	400.56
307.502	402.56
307.731	380.56
307.961	405.56
308.191	387.56
308.421	388.56
308.651	396.56
308.881	392.56
309.111	388.56
309.341	383.56
309.571	403.56
309.8	393.56
310.03	399.56
310.26	393.56
310.49	427.56
310.72	430.56
310.949	394.56
311.179	419.56
311.409	432.56
311.639	421.56
311.868	416.56
312.098	426.56
312.328	410.56
312.557	443.56
312.787	427.56
313.017	427.56
313.246	432.56
313.476	415.56
313.706	443.56
313.935	423.56
314.165	437.56
314.394	435.56
314.624	423.56
314.853	423.56
315.083	436.56
315.312	438.56
315.542	445.56
315.771	411.56
316.001	449.56
316.23	435.56
316.46	425.56
316.689	435.56
316.919	436.56
317.148	450.56
317.377	431.56
317.607	441.56
317.836	443.56
318.065	431.56
318.295	437.56
318.524	435.56
318.753	445.56
318.983	434.56
319.212	435.56
319.441	430.56
319.67	434.56
319.9	446.56
320.129	456.56
320.358	447.56
320.587	449.56
320.816	460.56
321.046	440.56
321.275	437.56
321.504	450.56
321.733	443.56
321.962	454.56
322.191	442.56
322.42	451.56
322.649	456.56
322.878	460.56
323.108	437.56
323.337	446.56
323.566	465.56
323.795	461.56
324.024	445.56
324.253	474.56
324.482	472.56
324.71	467.56
324.939	454.56
325.168	448.56
325.397	460.56
325.626	489.56
325.855	493.56
326.084	473.56
326.313	499.56
326.542	489.56
326.77	498.56
326.999	477.56
327.228	457.56
327.457	494.56
327.686	482.56
327.914	464.56
328.143	482.56
328.372	486.56
328.6	487.56
328.829	496.56
329.058	487.56
329.287	480.56
329.515	491.56
329.744	461.56
329.972	475.56
330.201	515.56
330.43	500.56
330.658	497.56
330.887	508.56
331.115	485.56
331.344	509.56
331.572	487.56
331.801	513.56
332.03	497.56
332.258	510.56
332.486	543.56
332.715	533.56
332.943	522.56
333.172	536.56
333.4	544.56
333.629	549.56
333.857	563.56
334.085	600.56
334.314	568.56
334.542	564.56
334.771	557.56
334.999	566.56
335.227	579.56
335.455	564.56
335.684	538.56
335.912	561.56
336.14	583.56
336.369	578.56
336.597	543.56
336.825	552.56
337.053	556.56
337.281	546.56
337.51	543.56
337.738	534.56
337.966	545.56
338.194	540.56
338.422	545.56
338.65	540.56
338.878	548.56
339.106	540.56
339.334	529.56
339.562	529.56
339.79	495.56
340.018	506.56
340.246	529.56
340.474	530.56
340.702	522.56
340.93	512.56
341.158	503.56
341.386	523.56
341.614	501.56
341.842	511.56
342.07	535.56
342.298	532.56
342.526	516.56
342.754	529.56
342.981	513.56
343.209	511.56
343.437	525.56
343.665	545.56
343.893	547.56
344.12	539.56
344.348	532.56
344.576	555.56
344.804	539.56
345.031	544.56
345.259	515.56
345.487	533.56
345.714	518.56
345.942	520.56
346.17	522.56
346.397	527.56
346.625	498.56
346.853	519.56
347.08	496.56
347.308	505.56
347.535	520.56
347.763	499.56
347.99	513.56
348.218	508.56
348.445	501.56
348.673	493.56
348.9	505.56
349.128	500.56
349.355	500.56
349.583	496.56
349.81	496.56
350.037	508.56
350.265	509.56
350.492	496.56
350.72	490.56
350.947	495.56
351.174	524.56
351.402	489.56
351.629	501.56
351.856	503.56
352.083	496.56
352.311	502.56
352.538	486.56
352.765	488.56
352.992	504.56
353.22	500.56
353.447	477.56
353.674	483.56
353.901	469.56
354.128	482.56
354.355	496.56
354.583	485.56
354.81	469.56
355.037	493.56
355.264	499.56
355.491	478.56
355.718	494.56
355.945	487.56
356.172	501.56
356.399	483.56
356.626	488.56
356.853	513.56
357.08	511.56
357.307	499.56
357.534	491.56
357.761	479.56
357.988	487.56
358.215	501.56
358.441	492.56
358.668	497.56
358.895	487.56
359.122	470.56
359.349	496.56
359.576	483.56
359.802	512.56
360.029	477.56
360.256	487.56
360.483	514.56
360.709	472.56
360.936	505.56
361.163	493.56
361.39	513.56
361.616	497.56
361.843	504.56
362.07	502.56
362.296	485.56
362.523	521.56
362.749	488.56
362.976	508.56
363.203	508.56
363.429	529.56
363.656	507.56
363.882	516.56
364.109	509.56
364.335	520.56
364.562	483.56
364.788	507.56
365.015	496.56
365.241	503.56
365.468	513.56
365.694	521.56
365.92	499.56
366.147	499.56
366.373	514.56
366.599	520.56
366.826	502.56
367.052	517.56
367.278	497.56
367.505	517.56
367.731	517.56
367.957	516.56
368.184	516.56
368.41	528.56
368.636	518.56
368.862	521.56
369.089	534.56
369.315	509.56
369.541	512.56
369.767	530.56
369.993	520.56
370.219	550.56
370.445	549.56
370.672	535.56
370.898	545.56
371.124	555.56
371.35	533.56
371.576	578.56
371.802	544.56
372.028	561.56
372.254	543.56
372.48	548.56
372.706	551.56
372.932	539.56
373.158	560.56
373.384	558.56
373.61	573.56
373.835	584.56
374.061	524.56
374.287	541.56
374.513	549.56
374.739	543.56
374.965	577.56
375.191	576.56
375.416	581.56
375.642	584.56
375.868	564.56
376.094	555.56
376.319	559.56
376.545	557.56
376.771	565.56
376.997	581.56
377.222	539.56
377.448	549.56
377.674	536.56
377.899	560.56
378.125	538.56
378.35	547.56
378.576	561.56
378.802	546.56
379.027	522.56
379.253	533.56
379.478	565.56
379.704	532.56
379.929	551.56
380.155	535.56
380.38	547.56
380.606	548.56
380.831	556.56
381.057	558.56
381.282	556.56
381.507	560.56
381.733	549.56
381.958	552.56
382.184	556.56
382.409	549.56
382.634	579.56
382.86	563.56
383.085	548.56
383.31	547.56
383.535	588.56
383.761	588.56
383.986	579.56
384.211	593.56
384.436	597.56
384.662	592.56
384.887	610.56
385.112	606.56
385.337	605.56
385.562	604.56
385.787	596.56
386.013	640.56
386.238	610.56
386.463	622.56
386.688	625.56
386.913	609.56
387.138	612.56
387.363	628.56
387.588	611.56
387.813	597.56
388.038	613.56
388.263	628.56
388.488	625.56
388.713	602.56
388.938	617.56
389.163	605.56
389.387	608.56
389.612	621.56
389.837	645.56
390.062	596.56
390.287	615.56
390.512	626.56
390.736	620.56
390.961	638.56
391.186	636.56
391.411	635.56
391.636	647.56
391.86	628.56
392.085	650.56
392.31	641.56
392.534	649.56
392.759	653.56
392.984	633.56
393.208	642.56
393.433	623.56
393.658	651.56
393.882	631.56
394.107	617.56
394.331	636.56
394.556	634.56
394.78	662.56
395.005	646.56
395.229	664.56
395.454	660.56
395.678	662.56
395.903	663.56
396.127	666.56
396.352	662.56
396.576	665.56
396.801	667.56
397.025	668.56
397.249	704.56
397.474	674.56
397.698	658.56
397.922	695.56
398.147	689.56
398.371	705.56
398.595	716.56
398.82	737.56
399.044	723.56
399.268	771.56
399.492	786.56
399.717	816.56
399.941	852.56
400.165	794.56
400.389	796.56
400.613	768.56
400.837	731.56
401.062	738.56
401.286	764.56
401.51	723.56
401.734	729.56
401.958	716.56
402.182	738.56
402.406	736.56
402.63	744.56
402.854	765.56
403.078	739.56
403.302	752.56
403.526	737.56
403.75	753.56
403.974	768.56
404.198	744.56
404.422	751.56
404.645	757.56
404.869	763.56
405.093	743.56
405.317	769.56
405.541	751.56
405.765	752.56
405.988	733.56
406.212	767.56
406.436	782.56
406.66	794.56
406.883	780.56
407.107	828.56
407.331	823.56
407.555	820.56
407.778	842.56
408.002	846.56
408.226	847.56
408.449	863.56
408.673	805.56
408.896	801.56
409.12	815.56
409.344	833.56
409.567	812.56
409.791	807.56
410.014	771.56
410.238	773.56
410.461	774.56
410.685	807.56
410.908	796.56
411.132	807.56
411.355	738.56
411.578	766.56
411.802	763.56
412.025	787.56
412.249	757.56
412.472	781.56
412.695	745.56
412.919	734.56
413.142	718.56
413.365	741.56
413.589	765.56
413.812	751.56
414.035	765.56
414.258	757.56
414.482	731.56
414.705	768.56
414.928	736.56
415.151	742.56
415.374	719.56
415.597	712.56
415.821	717.56
416.044	712.56
416.267	700.56
416.49	718.56
416.713	708.56
416.936	710.56
417.159	695.56
417.382	705.56
417.605	711.56
417.828	726.56
418.051	696.56
418.274	735.56
418.497	673.56
418.72	727.56
418.943	702.56
419.166	747.56
419.389	759.56
419.611	773.56
419.834	730.56
420.057	744.56
420.28	721.56
420.503	712.56
420.726	680.56
420.948	688.56
421.171	657.56
421.394	675.56
421.617	690.56
421.839	721.56
422.062	676.56
422.285	701.56
422.507	683.56
422.73	722.56
422.953	689.56
423.175	689.56
423.398	695.56
423.621	700.56
423.843	704.56
424.066	698.56
424.288	703.56
424.511	709.56
424.733	687.56
424.956	687.56
425.178	663.56
425.401	687.56
425.623	718.56
425.846	693.56
426.068	684.56
426.291	723.56
426.513	680.56
426.735	679.56
426.958	701.56
427.18	676.56
427.402	678.56
427.625	680.56
427.847	654.56
428.069	679.56
428.292	662.56
428.514	672.56
428.736	663.56
428.958	678.56
429.181	650.56
429.403	663.56
429.625	649.56
429.847	649.56
430.069	665.56
430.292	661.56
430.514	650.56
430.736	681.56
430.958	664.56
431.18	667.56
431.402	672.56
431.624	653.56
431.846	657.56
432.068	676.56
432.29	667.56
432.512	652.56
432.734	662.56
432.956	657.56
433.178	670.56
433.4	694.56
433.622	641.56
433.844	669.56
434.066	678.56
434.287	663.56
434.509	654.56
434.731	699.56
434.953	669.56
435.175	708.56
435.397	703.56
435.618	669.56
435.84	668.56
436.062	668.56
436.284	673.56
436.505	673.56
436.727	684.56
436.949	666.56
437.17	666.56
437.392	638.56
437.614	650.56
437.835	639.56
438.057	630.56
438.278	633.56
438.5	643.56
438.721	653.56
438.943	633.56
439.165	614.56
439.386	635.56
439.608	663.56
439.829	667.56
440.05	663.56
440.272	671.56
440.493	652.56
440.715	650.56
440.936	647.56
441.158	683.56
441.379	659.56
441.6	658.56
441.822	671.56
442.043	680.56
442.264	673.56
442.486	668.56
442.707	664.56
442.928	676.56
443.149	684.56
443.371	671.56
443.592	683.56
443.813	678.56
444.034	677.56
444.255	699.56
444.476	706.56
444.698	724.56
444.919	718.56
445.14	786.56
445.361	707.56
445.582	695.56
445.803	663.56
446.024	658.56
446.245	660.56
446.466	658.56
446.687	641.56
446.908	683.56
447.129	640.56
447.35	662.56
447.571	641.56
447.792	623.56
448.013	631.56
448.234	624.56
448.455	640.56
448.675	636.56
448.896	614.56
449.117	616.56
449.338	584.56
449.559	626.56
449.779	604.56
450	604.56
450.221	605.56
450.442	597.56
450.662	615.56
450.883	596.56
451.104	619.56
451.324	610.56
451.545	591.56
451.766	622.56
451.986	595.56
452.207	598.56
452.428	617.56
452.648	607.56
452.869	592.56
453.089	555.56
453.31	587.56
453.53	575.56
453.751	581.56
453.971	606.56
454.192	567.56
454.412	595.56
454.633	580.56
454.853	561.56
455.073	559.56
455.294	589.56
455.514	584.56
455.734	583.56
455.955	579.56
456.175	589.56
456.395	581.56
456.616	583.56
456.836	589.56
457.056	582.56
457.276	540.56
457.497	583.56
457.717	587.56
457.937	601.56
458.157	610.56
458.377	613.56
458.598	595.56
458.818	593.56
459.038	624.56
459.258	643.56
459.478	663.56
459.698	649.56
459.918	638.56
460.138	664.56
460.358	700.56
460.578	673.56
460.798	702.56
461.018	712.56
461.238	711.56
461.458	705.56
461.678	698.56
461.898	710.56
462.118	691.56
462.338	742.56
462.558	764.56
462.777	753.56
462.997	761.56
463.217	783.56
463.437	803.56
463.657	769.56
463.876	769.56
464.096	772.56
464.316	736.56
464.536	744.56
464.755	749.56
464.975	725.56
465.195	717.56
465.414	685.56
465.634	669.56
465.854	672.56
466.073	665.56
466.293	677.56
466.512	639.56
466.732	647.56
466.951	646.56
467.171	627.56
467.391	635.56
467.61	636.56
467.829	649.56
468.049	622.56
468.268	616.56
468.488	611.56
468.707	606.56
468.927	614.56
469.146	623.56
469.365	619.56
469.585	619.56
469.804	625.56
470.023	654.56
470.243	635.56
470.462	626.56
470.681	660.56
470.901	636.56
471.12	631.56
471.339	619.56
471.558	646.56
471.777	668.56
471.997	629.56
472.216	625.56
472.435	626.56
472.654	636.56
472.873	632.56
473.092	604.56
473.311	628.56
473.53	613.56
473.749	641.56
473.968	642.56
474.187	623.56
474.406	623.56
474.625	626.56
474.844	637.56
475.063	645.56
475.282	636.56
475.501	639.56
475.72	632.56
475.939	637.56
476.158	654.56
476.377	665.56
476.596	643.56
476.814	665.56
477.033	655.56
477.252	670.56
477.471	674.56
477.69	676.56
477.908	679.56
478.127	705.56
478.346	709.56
478.564	697.56
478.783	713.56
479.002	734.56
479.22	735.56
479.439	740.56
479.658	722.56
479.876	733.56
480.095	737.56
480.313	748.56
480.532	765.56
480.751	744.56
480.969	731.56
481.188	771.56
481.406	748.56
481.624	747.56
481.843	723.56
482.061	719.56
482.28	701.56
482.498	722.56
482.717	721.56
482.935	718.56
483.153	748.56
483.372	712.56
483.59	751.56
483.808	731.56
484.027	758.56
484.245	741.56
484.463	744.56
484.681	780.56
484.9	726.56
485.118	755.56
485.336	776.56
485.554	741.56
485.772	773.56
485.99	763.56
486.209	762.56
486.427	743.56
486.645	745.56
486.863	763.56
487.081	745.56
487.299	766.56
487.517	725.56
487.735	744.56
487.953	773.56
488.171	766.56
488.389	776.56
488.607	745.56
488.825	761.56
489.043	742.56
489.261	763.56
489.479	749.56
489.696	769.56
489.914	764.56
490.132	750.56
490.35	743.56
490.568	750.56
490.786	755.56
491.003	777.56
491.221	803.56
491.439	786.56
491.657	769.56
491.874	763.56
492.092	788.56
492.31	774.56
492.527	794.56
492.745	782.56
492.963	799.56
493.18	781.56
493.398	788.56
493.615	777.56
493.833	818.56
494.05	753.56
494.268	784.56
494.485	813.56
494.703	812.56
494.92	778.56
495.138	809.56
495.355	813.56
495.573	792.56
495.79	800.56
496.008	812.56
496.225	829.56
496.442	849.56
496.66	855.56
496.877	849.56
497.094	859.56
497.312	877.56
497.529	851.56
497.746	885.56
497.963	884.56
498.181	933.56
498.398	953.56
498.615	988.56
498.832	1003.56
499.049	1043.56
499.267	1087.56
499.484	1100.56
499.701	1131.56
499.918	1159.56
500.135	1299.56
500.352	1333.56
500.569	1348.56
500.786	1370.56
501.003	1309.56
501.22	1303.56
501.437	1255.56
501.654	1137.56
501.871	1113.56
502.088	1064.56
502.305	1004.56
502.522	995.56
502.739	981.56
502.956	971.56
503.172	923.56
503.389	898.56
503.606	882.56
503.823	883.56
504.04	848.56
504.256	868.56
504.473	865.56
504.69	864.56
504.907	844.56
505.123	825.56
505.34	813.56
505.557	787.56
505.773	781.56
505.99	764.56
506.207	739.56
506.423	751.56
506.64	743.56
506.856	731.56
507.073	744.56
507.289	741.56
507.506	727.56
507.722	726.56
507.939	719.56
508.155	721.56
508.372	696.56
508.588	705.56
508.805	719.56
509.021	705.56
509.238	695.56
509.454	673.56
509.67	679.56
509.887	674.56
510.103	680.56
510.319	662.56
510.536	683.56
510.752	671.56
510.968	684.56
511.184	670.56
511.401	667.56
511.617	644.56
511.833	667.56
512.049	673.56
512.265	686.56
512.481	673.56
512.698	665.56
512.914	675.56
513.13	665.56
513.346	655.56
513.562	632.56
513.778	665.56
513.994	662.56
514.21	677.56
514.426	667.56
514.642	630.56
514.858	677.56
515.074	690.56
515.29	673.56
515.506	659.56
515.721	691.56
515.937	694.56
516.153	684.56
516.369	713.56
516.585	693.56
516.801	733.56
517.016	709.56
517.232	720.56
517.448	708.56
517.664	747.56
517.879	768.56
518.095	739.56
518.311	749.56
518.527	717.56
518.742	717.56
518.958	699.56
519.173	705.56
519.389	703.56
519.605	701.56
519.82	699.56
520.036	669.56
520.251	656.56
520.467	670.56
520.682	656.56
520.898	633.56
521.113	659.56
521.329	643.56
521.544	653.56
521.76	617.56
521.975	627.56
522.19	639.56
522.406	610.56
522.621	636.56
522.836	626.56
523.052	597.56
523.267	624.56
523.482	614.56
523.698	618.56
523.913	615.56
524.128	619.56
524.343	605.56
524.559	584.56
524.774	603.56
524.989	589.56
525.204	595.56
525.419	600.56
525.634	598.56
525.849	602.56
526.064	611.56
526.28	603.56
526.495	619.56
526.71	604.56
526.925	589.56
527.14	597.56
527.355	597.56
527.57	593.56
527.785	587.56
527.999	600.56
528.214	591.56
528.429	601.56
528.644	606.56
528.859	590.56
529.074	593.56
529.289	612.56
529.503	609.56
529.718	592.56
529.933	607.56
530.148	585.56
530.363	606.56
530.577	605.56
530.792	599.56
531.007	598.56
531.221	578.56
531.436	551.56
531.651	583.56
531.865	566.56
532.08	603.56
532.295	576.56
532.509	564.56
532.724	592.56
532.938	567.56
533.153	580.56
533.367	567.56
533.582	556.56
533.796	575.56
534.011	579.56
534.225	590.56
534.44	559.56
534.654	577.56
534.868	545.56
535.083	582.56
535.297	554.56
535.511	573.56
535.726	557.56
535.94	550.56
536.154	556.56
536.369	571.56
536.583	556.56
536.797	571.56
537.011	572.56
537.225	557.56
537.44	556.56
537.654	547.56
537.868	559.56
538.082	540.56
538.296	528.56
538.51	549.56
538.724	572.56
538.938	530.56
539.153	545.56
539.367	541.56
539.581	552.56
539.795	552.56
540.009	530.56
540.222	529.56
540.436	547.56
540.65	541.56
540.864	533.56
541.078	526.56
541.292	525.56
541.506	547.56
541.72	534.56
541.934	547.56
542.147	565.56
542.361	563.56
542.575	529.56
542.789	560.56
543.002	539.56
543.216	522.56
543.43	550.56
543.644	544.56
543.857	506.56
544.071	519.56
544.285	521.56
544.498	543.56
544.712	553.56
544.925	551.56
545.139	534.56
545.352	533.56
545.566	531.56
545.779	561.56
545.993	555.56
546.206	537.56
546.42	533.56
546.633	517.56
546.847	543.56
547.06	561.56
547.274	561.56
547.487	540.56
547.7	572.56
547.914	544.56
548.127	568.56
548.34	541.56
548.554	540.56
548.767	545.56
548.98	531.56
549.193	535.56
549.407	509.56
549.62	535.56
549.833	548.56
550.046	531.56
550.259	537.56
550.473	534.56
550.686	518.56
550.899	544.56
551.112	530.56
551.325	517.56
551.538	540.56
551.751	530.56
551.964	515.56
552.177	507.56
552.39	504.56
552.603	515.56
552.816	523.56
553.029	524.56
553.242	537.56
553.455	543.56
553.667	564.56
553.88	525.56
554.093	520.56
554.306	520.56
554.519	526.56
554.732	511.56
554.944	517.56
555.157	512.56
555.37	507.56
555.583	491.56
555.795	493.56
556.008	500.56
556.221	479.56
556.433	466.56
556.646	477.56
556.859	495.56
557.071	477.56
557.284	482.56
557.496	464.56
557.709	467.56
557.921	495.56
558.134	467.56
558.346	474.56
558.559	481.56
558.771	462.56
558.984	453.56
559.196	467.56
559.409	476.56
559.621	460.56
559.833	472.56
560.046	441.56
560.258	475.56
560.47	467.56
560.683	465.56
560.895	470.56
561.107	466.56
561.32	464.56
561.532	461.56
561.744	461.56
561.956	466.56
562.168	444.56
562.381	450.56
562.593	461.56
562.805	451.56
563.017	461.56
563.229	478.56
563.441	468.56
563.653	470.56
563.865	474.56
564.077	473.56
564.289	482.56
564.501	456.56
564.713	496.56
564.925	500.56
565.137	479.56
565.349	515.56
565.561	477.56
565.773	493.56
565.985	501.56
566.197	510.56
566.408	529.56
566.62	547.56
566.832	543.56
567.044	542.56
567.255	559.56
567.467	559.56
567.679	570.56
567.891	585.56
568.102	572.56
568.314	555.56
568.526	520.56
568.737	513.56
568.949	484.56
569.161	491.56
569.372	480.56
569.584	473.56
569.795	450.56
570.007	455.56
570.218	450.56
570.43	452.56
570.641	449.56
570.853	431.56
571.064	421.56
571.276	432.56
571.487	435.56
571.698	415.56
571.91	409.56
572.121	428.56
572.333	409.56
572.544	411.56
572.755	399.56
572.966	370.56
573.178	392.56
573.389	393.56
573.6	366.56
573.811	388.56
574.023	385.56
574.234	373.56
574.445	377.56
574.656	364.56
574.867	363.56
575.078	388.56
575.289	376.56
575.501	375.56
575.712	356.56
575.923	365.56
576.134	373.56
576.345	373.56
576.556	391.56
576.767	357.56
576.978	361.56
577.188	363.56
577.399	381.56
577.61	380.56
577.821	348.56
578.032	344.56
578.243	362.56
578.454	358.56
578.665	352.56
578.875	343.56
579.086	341.56
579.297	322.56
579.508	357.56
579.718	334.56
579.929	325.56
580.14	346.56
580.35	347.56
580.561	323.56
580.772	339.56
580.982	344.56
581.193	343.56
581.403	318.56
581.614	343.56
581.825	356.56
582.035	325.56
582.246	321.56
582.456	328.56
582.667	324.56
582.877	344.56
583.087	342.56
583.298	319.56
583.508	315.56
583.719	326.56
583.929	310.56
584.139	323.56
584.35	320.56
584.56	302.56
584.77	327.56
584.981	312.56
585.191	317.56
585.401	339.56
585.611	331.56
585.821	322.56
586.032	309.56
586.242	327.56
586.452	332.56
586.662	326.56
586.872	317.56
587.082	307.56
587.292	322.56
587.502	317.56
587.713	301.56
587.923	308.56
588.133	309.56
588.343	310.56
588.553	332.56
588.762	315.56
588.972	316.56
589.182	302.56
589.392	325.56
589.602	311.56
589.812	320.56
590.022	316.56
590.232	297.56
590.441	309.56
590.651	311.56
590.861	313.56
591.071	329.56
591.281	323.56
591.49	329.56
591.7	329.56
591.91	309.56
592.119	308.56
592.329	306.56
592.539	333.56
592.748	348.56
592.958	319.56
593.167	301.56
593.377	341.56
593.587	322.56
593.796	303.56
594.006	330.56
594.215	336.56
594.424	328.56
594.634	307.56
594.843	301.56
595.053	292.56
595.262	305.56
595.472	309.56
595.681	309.56
595.89	308.56
596.1	281.56
596.309	300.56
596.518	283.56
596.727	302.56
596.937	300.56
597.146	295.56
597.355	283.56
597.564	287.56
597.774	274.56
597.983	271.56
598.192	275.56
598.401	287.56
598.61	275.56
598.819	262.56
599.028	284.56
599.237	271.56
599.446	295.56
599.655	279.56
599.864	285.56
600.073	256.56
600.282	253.56
600.491	271.56
600.7	281.56
600.909	277.56
601.118	278.56
601.327	250.56
601.536	256.56
601.745	277.56
601.953	269.56
602.162	269.56
602.371	276.56
602.58	249.56
602.789	266.56
602.997	247.56
603.206	256.56
603.415	261.56
603.623	262.56
603.832	258.56
604.041	250.56
604.249	265.56
604.458	236.56
604.666	262.56
604.875	241.56
605.084	235.56
605.292	250.56
605.501	248.56
605.709	252.56
605.918	256.56
606.126	248.56
606.334	244.56
606.543	255.56
606.751	260.56
606.96	259.56
607.168	263.56
607.376	257.56
607.585	226.56
607.793	250.56
608.001	268.56
608.21	255.56
608.418	223.56
608.626	241.56
608.834	241.56
609.043	270.56
609.251	254.56
609.459	246.56
609.667	237.56
609.875	237.56
610.083	231.56
610.291	241.56
610.499	232.56
610.707	244.56
610.916	224.56
611.124	249.56
611.332	236.56
611.54	256.56
611.748	243.56
611.955	222.56
612.163	219.56
612.371	223.56
612.579	222.56
612.787	240.56
612.995	238.56
613.203	235.56
613.411	229.56
613.618	239.56
613.826	227.56
614.034	232.56
614.242	220.56
614.449	227.56
614.657	230.56
614.865	235.56
615.072	233.56
615.28	223.56
615.488	224.56
615.695	236.56
615.903	230.56
616.111	237.56
616.318	228.56
616.526	229.56
616.733	241.56
616.941	231.56
617.148	233.56
617.356	225.56
617.563	237.56
617.771	243.56
617.978	205.56
618.185	225.56
618.393	215.56
618.6	224.56
618.807	237.56
619.015	208.56
619.222	223.56
619.429	220.56
619.637	227.56
619.844	211.56
620.051	220.56
620.258	219.56
620.466	216.56
620.673	224.56
620.88	212.56
621.087	207.56
621.294	218.56
621.501	217.56
621.708	214.56
621.915	222.56
622.122	228.56
622.329	222.56
622.536	236.56
622.743	214.56
622.95	232.56
623.157	214.56
623.364	205.56
623.571	223.56
623.778	216.56
623.985	209.56
624.192	204.56
624.399	210.56
624.606	212.56
624.812	202.56
625.019	204.56
625.226	221.56
625.433	202.56
625.639	207.56
625.846	210.56
626.053	202.56
626.259	197.56
626.466	201.56
626.673	202.56
626.879	207.56
627.086	204.56
627.293	202.56
627.499	187.56
627.706	205.56
627.912	195.56
628.119	192.56
628.325	211.56
628.532	202.56
628.738	202.56
628.945	202.56
629.151	200.56
629.357	203.56
629.564	191.56
629.77	198.56
629.976	197.56
630.183	194.56
630.389	182.56
630.595	190.56
630.802	204.56
631.008	177.56
631.214	200.56
631.42	182.56
631.627	193.56
631.833	189.56
632.039	183.56
632.245	191.56
632.451	194.56
632.657	188.56
632.863	194.56
633.069	186.56
633.275	178.56
633.481	184.56
633.688	183.56
633.893	165.56
634.099	175.56
634.305	187.56
634.511	195.56
634.717	184.56
634.923	182.56
635.129	180.56
635.335	187.56
635.541	186.56
635.747	171.56
635.952	172.56
636.158	178.56
636.364	185.56
636.57	168.56
636.775	188.56
636.981	179.56
637.187	171.56
637.392	161.56
637.598	168.56
637.804	175.56
638.009	180.56
638.215	175.56
638.421	158.56
638.626	178.56
638.832	181.56
639.037	168.56
639.243	175.56
639.448	172.56
639.654	187.56
639.859	188.56
640.065	176.56
640.27	189.56
640.475	179.56
640.681	173.56
640.886	170.56
641.091	169.56
641.297	176.56
641.502	158.56
641.707	162.56
641.913	175.56
642.118	174.56
642.323	176.56
642.528	171.56
642.733	163.56
642.939	187.56
643.144	164.56
643.349	155.56
643.554	186.56
643.759	175.56
643.964	171.56
644.169	168.56
644.374	163.56
644.579	169.56
644.784	174.56
644.989	162.56
645.194	163.56
645.399	162.56
645.604	156.56
645.809	159.56
646.014	173.56
646.219	169.56
646.423	165.56
646.628	174.56
646.833	142.56
647.038	174.56
647.243	166.56
647.447	162.56
647.652	177.56
647.857	157.56
648.062	171.56
648.266	173.56
648.471	168.56
648.676	171.56
648.88	165.56
649.085	175.56
649.289	159.56
649.494	169.56
649.698	147.56
649.903	165.56
650.107	161.56
650.312	154.56
650.516	165.56
650.721	157.56
650.925	167.56
651.13	155.56
651.334	152.56
651.539	145.56
651.743	149.56
651.947	143.56
652.152	123.56
652.356	147.56
652.56	153.56
652.764	140.56
652.969	158.56
653.173	153.56
653.377	161.56
653.581	143.56
653.785	138.56
653.99	134.56
654.194	149.56
654.398	136.56
654.602	137.56
654.806	124.56
655.01	136.56
655.214	135.56
655.418	132.56
655.622	138.56
655.826	147.56
656.03	133.56
656.234	144.56
656.438	134.56
656.642	141.56
656.846	124.56
657.049	133.56
657.253	114.56
657.457	127.56
657.661	103.56
657.865	117.56
658.068	111.56
658.272	112.56
658.476	117.56
658.68	105.56
658.883	114.56
659.087	100.56
659.291	96.56
659.494	113.56
659.698	102.56
659.901	95.56
660.105	95.56
660.309	94.56
660.512	91.56
660.716	82.56
660.919	100.56
661.123	84.56
661.326	88.56
661.53	80.56
661.733	109.56
661.936	83.56
662.14	84.56
662.343	79.56
662.546	85.56
662.75	70.56
662.953	79.56
663.156	82.56
663.36	83.56
663.563	92.56
663.766	81.56
663.969	82.56
664.173	71.56
664.376	84.56
664.579	71.56
664.782	73.56
664.985	64.56
665.188	71.56
665.391	86.56
665.594	92.56
665.797	83.56
666	75.56
666.203	74.56
666.406	69.56
666.609	78.56
666.812	73.56
667.015	79.56
667.218	81.56
667.421	81.56
667.624	67.56
667.827	79.56
668.03	82.56
668.232	80.56
668.435	87.56
668.638	83.56
668.841	85.56
669.043	80.56
669.246	68.56
669.449	72.56
669.651	80.56
669.854	73.56
670.057	82.56
670.259	78.56
670.462	75.56
670.665	84.56
670.867	69.56
671.07	82.56
671.272	82.56
671.475	83.56
671.677	74.56
671.88	70.56
672.082	59.56
672.284	77.56
672.487	86.56
672.689	81.56
672.892	80.56
