Data from Fe(NO3)3@0.1M.TitratingCurve.Agarose3%dH2O.NegLispCup.LampEnergy10.LIBS07252019_HRD10591_16-40-06-332.txt Node
Date: Thu Jul 25 16:40:06 EDT 2019
User: cochatt
Spectrometer: HR+D1059
Trigger mode: 1
Integration Time (sec): 1.000000E-1
Scans to average: 1
Electric dark correction enabled: true
Nonlinearity correction enabled: false
Boxcar width: 0
XAxis mode: Wavelengths
Number of Pixels in Spectrum: 2048
>>>>>Begin Spectral Data<<<<<
223.165	-16.31
223.4	-16.31
223.635	-16.31
223.869	0.69
224.104	-11.31
224.338	-10.31
224.573	-18.31
224.808	-12.31
225.042	-7.31
225.277	-9.31
225.511	-0.31
225.746	1.69
225.98	4.69
226.215	9.69
226.449	6.69
226.683	10.69
226.918	27.69
227.152	23.69
227.387	36.69
227.621	47.69
227.856	38.69
228.09	38.69
228.324	55.69
228.559	64.69
228.793	69.69
229.027	77.69
229.262	89.69
229.496	111.69
229.73	95.69
229.964	107.69
230.199	105.69
230.433	118.69
230.667	109.69
230.901	118.69
231.136	125.69
231.37	115.69
231.604	119.69
231.838	126.69
232.072	130.69
232.306	110.69
232.541	122.69
232.775	118.69
233.009	109.69
233.243	128.69
233.477	131.69
233.711	133.69
233.945	119.69
234.179	131.69
234.413	139.69
234.647	130.69
234.881	148.69
235.115	125.69
235.349	132.69
235.583	117.69
235.817	132.69
236.051	121.69
236.285	135.69
236.519	128.69
236.753	123.69
236.987	139.69
237.221	121.69
237.455	128.69
237.689	120.69
237.922	109.69
238.156	134.69
238.39	138.69
238.624	131.69
238.858	140.69
239.091	151.69
239.325	154.69
239.559	141.69
239.793	150.69
240.027	150.69
240.26	134.69
240.494	138.69
240.728	150.69
240.961	143.69
241.195	138.69
241.429	147.69
241.662	140.69
241.896	142.69
242.13	155.69
242.363	157.69
242.597	150.69
242.83	149.69
243.064	146.69
243.298	143.69
243.531	147.69
243.765	147.69
243.998	169.69
244.232	168.69
244.465	170.69
244.699	168.69
244.932	157.69
245.166	166.69
245.399	160.69
245.633	163.69
245.866	165.69
246.099	166.69
246.333	149.69
246.566	174.69
246.8	178.69
247.033	169.69
247.266	163.69
247.5	170.69
247.733	172.69
247.966	177.69
248.2	186.69
248.433	194.69
248.666	180.69
248.899	168.69
249.133	167.69
249.366	178.69
249.599	176.69
249.832	198.69
250.066	187.69
250.299	176.69
250.532	203.69
250.765	204.69
250.998	200.69
251.231	181.69
251.465	183.69
251.698	182.69
251.931	207.69
252.164	201.69
252.397	195.69
252.63	203.69
252.863	214.69
253.096	218.69
253.329	201.69
253.562	188.69
253.795	199.69
254.028	204.69
254.261	206.69
254.494	205.69
254.727	215.69
254.96	204.69
255.193	198.69
255.426	207.69
255.659	227.69
255.892	220.69
256.124	230.69
256.357	201.69
256.59	215.69
256.823	224.69
257.056	225.69
257.289	216.69
257.521	215.69
257.754	214.69
257.987	214.69
258.22	228.69
258.452	217.69
258.685	227.69
258.918	232.69
259.151	221.69
259.383	233.69
259.616	219.69
259.849	226.69
260.081	227.69
260.314	244.69
260.547	222.69
260.779	223.69
261.012	252.69
261.244	235.69
261.477	232.69
261.71	245.69
261.942	230.69
262.175	233.69
262.407	230.69
262.64	240.69
262.872	258.69
263.105	253.69
263.337	242.69
263.57	237.69
263.802	244.69
264.035	237.69
264.267	254.69
264.499	246.69
264.732	262.69
264.964	249.69
265.197	243.69
265.429	255.69
265.661	249.69
265.894	238.69
266.126	246.69
266.358	237.69
266.591	242.69
266.823	271.69
267.055	264.69
267.287	256.69
267.52	253.69
267.752	246.69
267.984	262.69
268.216	267.69
268.448	250.69
268.681	260.69
268.913	276.69
269.145	260.69
269.377	272.69
269.609	269.69
269.841	280.69
270.073	258.69
270.306	270.69
270.538	256.69
270.77	276.69
271.002	274.69
271.234	282.69
271.466	294.69
271.698	284.69
271.93	285.69
272.162	271.69
272.394	289.69
272.626	286.69
272.858	285.69
273.09	284.69
273.322	284.69
273.553	266.69
273.785	278.69
274.017	293.69
274.249	311.69
274.481	289.69
274.713	307.69
274.945	304.69
275.176	324.69
275.408	309.69
275.64	304.69
275.872	316.69
276.104	306.69
276.335	306.69
276.567	306.69
276.799	311.69
277.031	312.69
277.262	292.69
277.494	299.69
277.726	303.69
277.957	330.69
278.189	316.69
278.421	294.69
278.652	324.69
278.884	295.69
279.115	306.69
279.347	317.69
279.579	306.69
279.81	318.69
280.042	322.69
280.273	298.69
280.505	328.69
280.736	319.69
280.968	319.69
281.199	322.69
281.431	330.69
281.662	329.69
281.894	332.69
282.125	337.69
282.356	342.69
282.588	327.69
282.819	333.69
283.051	346.69
283.282	342.69
283.513	367.69
283.745	334.69
283.976	325.69
284.207	345.69
284.439	331.69
284.67	318.69
284.901	355.69
285.132	351.69
285.364	327.69
285.595	340.69
285.826	331.69
286.057	346.69
286.288	351.69
286.52	351.69
286.751	344.69
286.982	336.69
287.213	339.69
287.444	359.69
287.675	357.69
287.906	345.69
288.138	351.69
288.369	351.69
288.6	361.69
288.831	378.69
289.062	360.69
289.293	348.69
289.524	347.69
289.755	367.69
289.986	382.69
290.217	355.69
290.448	367.69
290.679	367.69
290.91	355.69
291.141	356.69
291.371	369.69
291.602	338.69
291.833	342.69
292.064	389.69
292.295	362.69
292.526	379.69
292.757	374.69
292.987	361.69
293.218	356.69
293.449	372.69
293.68	378.69
293.91	363.69
294.141	368.69
294.372	369.69
294.603	369.69
294.833	371.69
295.064	376.69
295.295	368.69
295.525	382.69
295.756	358.69
295.987	342.69
296.217	360.69
296.448	372.69
296.679	382.69
296.909	386.69
297.14	373.69
297.37	390.69
297.601	380.69
297.831	382.69
298.062	379.69
298.292	373.69
298.523	396.69
298.753	399.69
298.984	391.69
299.214	388.69
299.445	392.69
299.675	393.69
299.905	378.69
300.136	389.69
300.366	412.69
300.597	394.69
300.827	384.69
301.057	412.69
301.288	397.69
301.518	402.69
301.748	402.69
301.979	400.69
302.209	410.69
302.439	413.69
302.669	410.69
302.9	398.69
303.13	399.69
303.36	400.69
303.59	391.69
303.82	411.69
304.051	426.69
304.281	431.69
304.511	407.69
304.741	408.69
304.971	405.69
305.201	406.69
305.431	419.69
305.661	386.69
305.891	418.69
306.121	422.69
306.352	414.69
306.582	399.69
306.812	413.69
307.042	407.69
307.272	387.69
307.502	400.69
307.731	414.69
307.961	409.69
308.191	414.69
308.421	398.69
308.651	410.69
308.881	413.69
309.111	420.69
309.341	398.69
309.571	413.69
309.8	422.69
310.03	421.69
310.26	403.69
310.49	395.69
310.72	411.69
310.949	416.69
311.179	412.69
311.409	404.69
311.639	408.69
311.868	419.69
312.098	417.69
312.328	436.69
312.557	415.69
312.787	404.69
313.017	414.69
313.246	423.69
313.476	413.69
313.706	435.69
313.935	443.69
314.165	445.69
314.394	430.69
314.624	444.69
314.853	401.69
315.083	426.69
315.312	427.69
315.542	434.69
315.771	446.69
316.001	423.69
316.23	434.69
316.46	438.69
316.689	410.69
316.919	436.69
317.148	445.69
317.377	437.69
317.607	429.69
317.836	414.69
318.065	420.69
318.295	418.69
318.524	422.69
318.753	431.69
318.983	428.69
319.212	427.69
319.441	428.69
319.67	410.69
319.9	455.69
320.129	446.69
320.358	452.69
320.587	445.69
320.816	428.69
321.046	427.69
321.275	435.69
321.504	435.69
321.733	454.69
321.962	442.69
322.191	444.69
322.42	427.69
322.649	430.69
322.878	447.69
323.108	448.69
323.337	445.69
323.566	442.69
323.795	444.69
324.024	454.69
324.253	443.69
324.482	461.69
324.71	452.69
324.939	472.69
325.168	464.69
325.397	462.69
325.626	465.69
325.855	458.69
326.084	462.69
326.313	461.69
326.542	488.69
326.77	490.69
326.999	484.69
327.228	464.69
327.457	491.69
327.686	471.69
327.914	452.69
328.143	470.69
328.372	494.69
328.6	475.69
328.829	488.69
329.058	465.69
329.287	476.69
329.515	470.69
329.744	467.69
329.972	481.69
330.201	494.69
330.43	498.69
330.658	474.69
330.887	480.69
331.115	478.69
331.344	505.69
331.572	496.69
331.801	479.69
332.03	512.69
332.258	518.69
332.486	540.69
332.715	523.69
332.943	564.69
333.172	565.69
333.4	574.69
333.629	590.69
333.857	608.69
334.085	607.69
334.314	605.69
334.542	610.69
334.771	610.69
334.999	589.69
335.227	579.69
335.455	599.69
335.684	600.69
335.912	571.69
336.14	565.69
336.369	546.69
336.597	568.69
336.825	555.69
337.053	590.69
337.281	566.69
337.51	528.69
337.738	544.69
337.966	515.69
338.194	539.69
338.422	526.69
338.65	530.69
338.878	549.69
339.106	545.69
339.334	518.69
339.562	502.69
339.79	490.69
340.018	494.69
340.246	518.69
340.474	509.69
340.702	491.69
340.93	514.69
341.158	514.69
341.386	487.69
341.614	489.69
341.842	492.69
342.07	492.69
342.298	479.69
342.526	484.69
342.754	511.69
342.981	495.69
343.209	501.69
343.437	528.69
343.665	554.69
343.893	554.69
344.12	558.69
344.348	579.69
344.576	550.69
344.804	524.69
345.031	523.69
345.259	516.69
345.487	518.69
345.714	512.69
345.942	491.69
346.17	500.69
346.397	487.69
346.625	480.69
346.853	479.69
347.08	483.69
347.308	495.69
347.535	491.69
347.763	486.69
347.99	493.69
348.218	503.69
348.445	488.69
348.673	484.69
348.9	496.69
349.128	474.69
349.355	477.69
349.583	479.69
349.81	472.69
350.037	492.69
350.265	487.69
350.492	477.69
350.72	469.69
350.947	483.69
351.174	477.69
351.402	469.69
351.629	473.69
351.856	461.69
352.083	495.69
352.311	463.69
352.538	442.69
352.765	480.69
352.992	471.69
353.22	469.69
353.447	471.69
353.674	475.69
353.901	463.69
354.128	454.69
354.355	457.69
354.583	480.69
354.81	481.69
355.037	469.69
355.264	490.69
355.491	454.69
355.718	472.69
355.945	484.69
356.172	472.69
356.399	475.69
356.626	483.69
356.853	500.69
357.08	467.69
357.307	464.69
357.534	471.69
357.761	477.69
357.988	489.69
358.215	478.69
358.441	473.69
358.668	491.69
358.895	479.69
359.122	462.69
359.349	468.69
359.576	469.69
359.802	472.69
360.029	478.69
360.256	470.69
360.483	488.69
360.709	485.69
360.936	470.69
361.163	482.69
361.39	476.69
361.616	458.69
361.843	473.69
362.07	487.69
362.296	474.69
362.523	487.69
362.749	450.69
362.976	481.69
363.203	491.69
363.429	464.69
363.656	489.69
363.882	471.69
364.109	481.69
364.335	471.69
364.562	481.69
364.788	469.69
365.015	469.69
365.241	473.69
365.468	484.69
365.694	488.69
365.92	470.69
366.147	493.69
366.373	488.69
366.599	475.69
366.826	491.69
367.052	463.69
367.278	484.69
367.505	501.69
367.731	477.69
367.957	473.69
368.184	471.69
368.41	483.69
368.636	502.69
368.862	487.69
369.089	498.69
369.315	520.69
369.541	477.69
369.767	512.69
369.993	504.69
370.219	515.69
370.445	531.69
370.672	512.69
370.898	516.69
371.124	503.69
371.35	511.69
371.576	543.69
371.802	531.69
372.028	524.69
372.254	532.69
372.48	500.69
372.706	539.69
372.932	536.69
373.158	518.69
373.384	523.69
373.61	516.69
373.835	520.69
374.061	520.69
374.287	544.69
374.513	526.69
374.739	549.69
374.965	559.69
375.191	583.69
375.416	591.69
375.642	562.69
375.868	540.69
376.094	578.69
376.319	529.69
376.545	539.69
376.771	542.69
376.997	505.69
377.222	542.69
377.448	521.69
377.674	516.69
377.899	521.69
378.125	514.69
378.35	534.69
378.576	511.69
378.802	537.69
379.027	532.69
379.253	511.69
379.478	525.69
379.704	520.69
379.929	522.69
380.155	522.69
380.38	518.69
380.606	533.69
380.831	532.69
381.057	526.69
381.282	528.69
381.507	512.69
381.733	553.69
381.958	542.69
382.184	543.69
382.409	546.69
382.634	547.69
382.86	573.69
383.085	548.69
383.31	562.69
383.535	568.69
383.761	555.69
383.986	576.69
384.211	582.69
384.436	583.69
384.662	604.69
384.887	615.69
385.112	607.69
385.337	618.69
385.562	615.69
385.787	621.69
386.013	627.69
386.238	622.69
386.463	630.69
386.688	618.69
386.913	593.69
387.138	637.69
387.363	618.69
387.588	616.69
387.813	624.69
388.038	641.69
388.263	623.69
388.488	650.69
388.713	635.69
388.938	618.69
389.163	621.69
389.387	610.69
389.612	627.69
389.837	628.69
390.062	629.69
390.287	637.69
390.512	645.69
390.736	631.69
390.961	638.69
391.186	639.69
391.411	655.69
391.636	690.69
391.86	690.69
392.085	669.69
392.31	682.69
392.534	661.69
392.759	675.69
392.984	683.69
393.208	660.69
393.433	656.69
393.658	676.69
393.882	662.69
394.107	661.69
394.331	683.69
394.556	667.69
394.78	677.69
395.005	692.69
395.229	675.69
395.454	715.69
395.678	688.69
395.903	699.69
396.127	695.69
396.352	681.69
396.576	647.69
396.801	677.69
397.025	690.69
397.249	703.69
397.474	694.69
397.698	713.69
397.922	724.69
398.147	717.69
398.371	724.69
398.595	744.69
398.82	767.69
399.044	800.69
399.268	874.69
399.492	938.69
399.717	1024.69
399.941	1065.69
400.165	982.69
400.389	911.69
400.613	873.69
400.837	824.69
401.062	821.69
401.286	777.69
401.51	782.69
401.734	775.69
401.958	790.69
402.182	824.69
402.406	790.69
402.63	791.69
402.854	816.69
403.078	814.69
403.302	812.69
403.526	860.69
403.75	848.69
403.974	828.69
404.198	830.69
404.422	853.69
404.645	857.69
404.869	833.69
405.093	852.69
405.317	827.69
405.541	856.69
405.765	843.69
405.988	859.69
406.212	835.69
406.436	824.69
406.66	879.69
406.883	899.69
407.107	913.69
407.331	966.69
407.555	982.69
407.778	1012.69
408.002	966.69
408.226	947.69
408.449	934.69
408.673	926.69
408.896	879.69
409.12	874.69
409.344	915.69
409.567	869.69
409.791	916.69
410.014	900.69
410.238	876.69
410.461	898.69
410.685	888.69
410.908	857.69
411.132	847.69
411.355	839.69
411.578	840.69
411.802	821.69
412.025	826.69
412.249	845.69
412.472	858.69
412.695	792.69
412.919	805.69
413.142	813.69
413.365	823.69
413.589	811.69
413.812	778.69
414.035	819.69
414.258	794.69
414.482	807.69
414.705	808.69
414.928	818.69
415.151	821.69
415.374	810.69
415.597	802.69
415.821	801.69
416.044	793.69
416.267	793.69
416.49	761.69
416.713	774.69
416.936	796.69
417.159	767.69
417.382	750.69
417.605	756.69
417.828	783.69
418.051	785.69
418.274	800.69
418.497	774.69
418.72	821.69
418.943	788.69
419.166	826.69
419.389	886.69
419.611	878.69
419.834	818.69
420.057	831.69
420.28	834.69
420.503	784.69
420.726	749.69
420.948	762.69
421.171	778.69
421.394	763.69
421.617	773.69
421.839	774.69
422.062	781.69
422.285	765.69
422.507	775.69
422.73	779.69
422.953	793.69
423.175	792.69
423.398	803.69
423.621	788.69
423.843	835.69
424.066	796.69
424.288	794.69
424.511	777.69
424.733	781.69
424.956	783.69
425.178	776.69
425.401	789.69
425.623	781.69
425.846	747.69
426.068	752.69
426.291	757.69
426.513	735.69
426.735	736.69
426.958	764.69
427.18	730.69
427.402	727.69
427.625	753.69
427.847	713.69
428.069	716.69
428.292	725.69
428.514	721.69
428.736	716.69
428.958	721.69
429.181	728.69
429.403	688.69
429.625	702.69
429.847	701.69
430.069	705.69
430.292	739.69
430.514	698.69
430.736	715.69
430.958	694.69
431.18	686.69
431.402	702.69
431.624	706.69
431.846	730.69
432.068	715.69
432.29	750.69
432.512	728.69
432.734	730.69
432.956	708.69
433.178	699.69
433.4	724.69
433.622	751.69
433.844	746.69
434.066	744.69
434.287	736.69
434.509	771.69
434.731	772.69
434.953	795.69
435.175	781.69
435.397	777.69
435.618	736.69
435.84	752.69
436.062	764.69
436.284	755.69
436.505	724.69
436.727	717.69
436.949	729.69
437.17	718.69
437.392	724.69
437.614	702.69
437.835	683.69
438.057	696.69
438.278	691.69
438.5	691.69
438.721	688.69
438.943	680.69
439.165	693.69
439.386	702.69
439.608	707.69
439.829	705.69
440.05	757.69
440.272	740.69
440.493	746.69
440.715	705.69
440.936	720.69
441.158	743.69
441.379	782.69
441.6	784.69
441.822	791.69
442.043	804.69
442.264	772.69
442.486	768.69
442.707	785.69
442.928	776.69
443.149	759.69
443.371	777.69
443.592	767.69
443.813	763.69
444.034	798.69
444.255	824.69
444.476	855.69
444.698	870.69
444.919	911.69
445.14	962.69
445.361	882.69
445.582	812.69
445.803	824.69
446.024	798.69
446.245	752.69
446.466	744.69
446.687	724.69
446.908	731.69
447.129	715.69
447.35	716.69
447.571	738.69
447.792	700.69
448.013	710.69
448.234	692.69
448.455	694.69
448.675	678.69
448.896	680.69
449.117	666.69
449.338	664.69
449.559	661.69
449.779	667.69
450	676.69
450.221	678.69
450.442	668.69
450.662	681.69
450.883	655.69
451.104	663.69
451.324	692.69
451.545	664.69
451.766	666.69
451.986	669.69
452.207	660.69
452.428	642.69
452.648	634.69
452.869	640.69
453.089	637.69
453.31	666.69
453.53	662.69
453.751	654.69
453.971	622.69
454.192	626.69
454.412	613.69
454.633	626.69
454.853	626.69
455.073	621.69
455.294	648.69
455.514	630.69
455.734	628.69
455.955	600.69
456.175	623.69
456.395	606.69
456.616	612.69
456.836	619.69
457.056	635.69
457.276	628.69
457.497	643.69
457.717	645.69
457.937	644.69
458.157	638.69
458.377	638.69
458.598	642.69
458.818	662.69
459.038	657.69
459.258	681.69
459.478	711.69
459.698	716.69
459.918	752.69
460.138	773.69
460.358	784.69
460.578	801.69
460.798	797.69
461.018	819.69
461.238	798.69
461.458	807.69
461.678	816.69
461.898	843.69
462.118	840.69
462.338	864.69
462.558	866.69
462.777	910.69
462.997	964.69
463.217	1011.69
463.437	998.69
463.657	975.69
463.876	938.69
464.096	935.69
464.316	913.69
464.536	905.69
464.755	899.69
464.975	896.69
465.195	819.69
465.414	814.69
465.634	767.69
465.854	747.69
466.073	747.69
466.293	722.69
466.512	698.69
466.732	715.69
466.951	698.69
467.171	728.69
467.391	713.69
467.61	687.69
467.829	692.69
468.049	703.69
468.268	664.69
468.488	652.69
468.707	678.69
468.927	663.69
469.146	654.69
469.365	688.69
469.585	668.69
469.804	709.69
470.023	668.69
470.243	692.69
470.462	699.69
470.681	709.69
470.901	720.69
471.12	694.69
471.339	669.69
471.558	690.69
471.777	669.69
471.997	678.69
472.216	669.69
472.435	660.69
472.654	620.69
472.873	633.69
473.092	636.69
473.311	648.69
473.53	659.69
473.749	678.69
473.968	647.69
474.187	656.69
474.406	673.69
474.625	668.69
474.844	645.69
475.063	635.69
475.282	660.69
475.501	634.69
475.72	675.69
475.939	656.69
476.158	682.69
476.377	671.69
476.596	677.69
476.814	688.69
477.033	688.69
477.252	683.69
477.471	715.69
477.69	725.69
477.908	723.69
478.127	737.69
478.346	746.69
478.564	750.69
478.783	788.69
479.002	782.69
479.22	775.69
479.439	767.69
479.658	784.69
479.876	764.69
480.095	805.69
480.313	808.69
480.532	820.69
480.751	816.69
480.969	795.69
481.188	771.69
481.406	754.69
481.624	752.69
481.843	730.69
482.061	744.69
482.28	750.69
482.498	729.69
482.717	749.69
482.935	724.69
483.153	744.69
483.372	721.69
483.59	731.69
483.808	734.69
484.027	718.69
484.245	735.69
484.463	736.69
484.681	747.69
484.9	749.69
485.118	748.69
485.336	774.69
485.554	786.69
485.772	779.69
485.99	774.69
486.209	780.69
486.427	782.69
486.645	765.69
486.863	770.69
487.081	772.69
487.299	782.69
487.517	760.69
487.735	784.69
487.953	798.69
488.171	778.69
488.389	760.69
488.607	764.69
488.825	750.69
489.043	730.69
489.261	743.69
489.479	769.69
489.696	739.69
489.914	760.69
490.132	779.69
490.35	770.69
490.568	748.69
490.786	777.69
491.003	777.69
491.221	797.69
491.439	764.69
491.657	792.69
491.874	801.69
492.092	782.69
492.31	794.69
492.527	775.69
492.745	797.69
492.963	778.69
493.18	815.69
493.398	791.69
493.615	805.69
493.833	803.69
494.05	823.69
494.268	821.69
494.485	810.69
494.703	825.69
494.92	837.69
495.138	819.69
495.355	828.69
495.573	810.69
495.79	821.69
496.008	840.69
496.225	830.69
496.442	851.69
496.66	829.69
496.877	850.69
497.094	870.69
497.312	878.69
497.529	917.69
497.746	952.69
497.963	959.69
498.181	1004.69
498.398	1044.69
498.615	1055.69
498.832	1127.69
499.049	1184.69
499.267	1270.69
499.484	1387.69
499.701	1474.69
499.918	1609.69
500.135	1744.69
500.352	1933.69
500.569	2006.69
500.786	1999.69
501.003	1886.69
501.22	1726.69
501.437	1612.69
501.654	1445.69
501.871	1348.69
502.088	1260.69
502.305	1178.69
502.522	1140.69
502.739	1071.69
502.956	1039.69
503.172	1010.69
503.389	990.69
503.606	957.69
503.823	923.69
504.04	939.69
504.256	921.69
504.473	919.69
504.69	939.69
504.907	937.69
505.123	876.69
505.34	845.69
505.557	797.69
505.773	792.69
505.99	783.69
506.207	748.69
506.423	738.69
506.64	747.69
506.856	748.69
507.073	727.69
507.289	735.69
507.506	713.69
507.722	735.69
507.939	705.69
508.155	712.69
508.372	691.69
508.588	680.69
508.805	703.69
509.021	687.69
509.238	693.69
509.454	692.69
509.67	693.69
509.887	658.69
510.103	684.69
510.319	659.69
510.536	662.69
510.752	656.69
510.968	642.69
511.184	657.69
511.401	634.69
511.617	660.69
511.833	655.69
512.049	641.69
512.265	668.69
512.481	673.69
512.698	656.69
512.914	667.69
513.13	670.69
513.346	666.69
513.562	674.69
513.778	642.69
513.994	648.69
514.21	699.69
514.426	656.69
514.642	674.69
514.858	668.69
515.074	688.69
515.29	679.69
515.506	692.69
515.721	703.69
515.937	713.69
516.153	716.69
516.369	717.69
516.585	739.69
516.801	771.69
517.016	774.69
517.232	805.69
517.448	833.69
517.664	854.69
517.879	838.69
518.095	849.69
518.311	849.69
518.527	828.69
518.742	799.69
518.958	769.69
519.173	736.69
519.389	708.69
519.605	725.69
519.82	711.69
520.036	690.69
520.251	698.69
520.467	678.69
520.682	659.69
520.898	658.69
521.113	666.69
521.329	652.69
521.544	634.69
521.76	631.69
521.975	640.69
522.19	638.69
522.406	636.69
522.621	643.69
522.836	631.69
523.052	605.69
523.267	622.69
523.482	620.69
523.698	636.69
523.913	591.69
524.128	617.69
524.343	600.69
524.559	621.69
524.774	609.69
524.989	637.69
525.204	623.69
525.419	597.69
525.634	586.69
525.849	601.69
526.064	610.69
526.28	559.69
526.495	601.69
526.71	617.69
526.925	588.69
527.14	598.69
527.355	600.69
527.57	559.69
527.785	575.69
527.999	590.69
528.214	587.69
528.429	603.69
528.644	592.69
528.859	600.69
529.074	589.69
529.289	601.69
529.503	600.69
529.718	591.69
529.933	602.69
530.148	592.69
530.363	582.69
530.577	590.69
530.792	590.69
531.007	583.69
531.221	598.69
531.436	595.69
531.651	589.69
531.865	604.69
532.08	592.69
532.295	593.69
532.509	578.69
532.724	585.69
532.938	589.69
533.153	586.69
533.367	582.69
533.582	580.69
533.796	601.69
534.011	581.69
534.225	570.69
534.44	571.69
534.654	573.69
534.868	579.69
535.083	547.69
535.297	556.69
535.511	572.69
535.726	552.69
535.94	586.69
536.154	554.69
536.369	560.69
536.583	539.69
536.797	544.69
537.011	551.69
537.225	538.69
537.44	548.69
537.654	555.69
537.868	547.69
538.082	535.69
538.296	547.69
538.51	548.69
538.724	556.69
538.938	551.69
539.153	547.69
539.367	518.69
539.581	537.69
539.795	522.69
540.009	533.69
540.222	529.69
540.436	527.69
540.65	546.69
540.864	572.69
541.078	548.69
541.292	551.69
541.506	542.69
541.72	549.69
541.934	504.69
542.147	555.69
542.361	542.69
542.575	521.69
542.789	505.69
543.002	515.69
543.216	519.69
543.43	524.69
543.644	527.69
543.857	545.69
544.071	532.69
544.285	533.69
544.498	542.69
544.712	525.69
544.925	544.69
545.139	536.69
545.352	545.69
545.566	553.69
545.779	534.69
545.993	559.69
546.206	544.69
546.42	547.69
546.633	536.69
546.847	554.69
547.06	537.69
547.274	534.69
547.487	567.69
547.7	552.69
547.914	556.69
548.127	541.69
548.34	556.69
548.554	548.69
548.767	545.69
548.98	562.69
549.193	548.69
549.407	541.69
549.62	569.69
549.833	575.69
550.046	550.69
550.259	550.69
550.473	513.69
550.686	543.69
550.899	529.69
551.112	562.69
551.325	565.69
551.538	544.69
551.751	527.69
551.964	546.69
552.177	530.69
552.39	552.69
552.603	543.69
552.816	557.69
553.029	556.69
553.242	576.69
553.455	595.69
553.667	580.69
553.88	587.69
554.093	543.69
554.306	565.69
554.519	545.69
554.732	531.69
554.944	528.69
555.157	526.69
555.37	512.69
555.583	512.69
555.795	506.69
556.008	499.69
556.221	492.69
556.433	489.69
556.646	476.69
556.859	472.69
557.071	497.69
557.284	480.69
557.496	472.69
557.709	452.69
557.921	467.69
558.134	486.69
558.346	479.69
558.559	481.69
558.771	460.69
558.984	486.69
559.196	452.69
559.409	461.69
559.621	450.69
559.833	464.69
560.046	462.69
560.258	461.69
560.47	485.69
560.683	456.69
560.895	468.69
561.107	487.69
561.32	437.69
561.532	452.69
561.744	486.69
561.956	457.69
562.168	450.69
562.381	477.69
562.593	455.69
562.805	464.69
563.017	462.69
563.229	476.69
563.441	472.69
563.653	469.69
563.865	477.69
564.077	489.69
564.289	472.69
564.501	488.69
564.713	498.69
564.925	489.69
565.137	498.69
565.349	502.69
565.561	519.69
565.773	535.69
565.985	553.69
566.197	584.69
566.408	588.69
566.62	648.69
566.832	648.69
567.044	647.69
567.255	702.69
567.467	683.69
567.679	733.69
567.891	743.69
568.102	732.69
568.314	724.69
568.526	676.69
568.737	630.69
568.949	589.69
569.161	540.69
569.372	535.69
569.584	526.69
569.795	522.69
570.007	483.69
570.218	470.69
570.43	491.69
570.641	465.69
570.853	452.69
571.064	470.69
571.276	456.69
571.487	469.69
571.698	455.69
571.91	442.69
572.121	424.69
572.333	415.69
572.544	420.69
572.755	407.69
572.966	415.69
573.178	412.69
573.389	423.69
573.6	389.69
573.811	400.69
574.023	378.69
574.234	384.69
574.445	383.69
574.656	372.69
574.867	388.69
575.078	389.69
575.289	398.69
575.501	400.69
575.712	373.69
575.923	376.69
576.134	345.69
576.345	382.69
576.556	368.69
576.767	359.69
576.978	369.69
577.188	367.69
577.399	356.69
577.61	348.69
577.821	357.69
578.032	351.69
578.243	347.69
578.454	351.69
578.665	331.69
578.875	342.69
579.086	331.69
579.297	358.69
579.508	365.69
579.718	351.69
579.929	342.69
580.14	336.69
580.35	354.69
580.561	332.69
580.772	330.69
580.982	314.69
581.193	332.69
581.403	341.69
581.614	341.69
581.825	332.69
582.035	351.69
582.246	330.69
582.456	332.69
582.667	323.69
582.877	321.69
583.087	318.69
583.298	324.69
583.508	311.69
583.719	316.69
583.929	319.69
584.139	311.69
584.35	323.69
584.56	334.69
584.77	318.69
584.981	323.69
585.191	344.69
585.401	331.69
585.611	302.69
585.821	319.69
586.032	304.69
586.242	325.69
586.452	323.69
586.662	324.69
586.872	326.69
587.082	323.69
587.292	317.69
587.502	329.69
587.713	291.69
587.923	297.69
588.133	328.69
588.343	326.69
588.553	326.69
588.762	317.69
588.972	304.69
589.182	311.69
589.392	309.69
589.602	330.69
589.812	320.69
590.022	306.69
590.232	313.69
590.441	315.69
590.651	320.69
590.861	327.69
591.071	322.69
591.281	323.69
591.49	333.69
591.7	314.69
591.91	334.69
592.119	341.69
592.329	335.69
592.539	334.69
592.748	361.69
592.958	363.69
593.167	356.69
593.377	378.69
593.587	354.69
593.796	370.69
594.006	349.69
594.215	372.69
594.424	380.69
594.634	357.69
594.843	358.69
595.053	345.69
595.262	331.69
595.472	340.69
595.681	335.69
595.89	330.69
596.1	310.69
596.309	312.69
596.518	304.69
596.727	314.69
596.937	303.69
597.146	296.69
597.355	297.69
597.564	301.69
597.774	294.69
597.983	281.69
598.192	287.69
598.401	296.69
598.61	288.69
598.819	282.69
599.028	280.69
599.237	288.69
599.446	299.69
599.655	272.69
599.864	282.69
600.073	278.69
600.282	248.69
600.491	270.69
600.7	272.69
600.909	278.69
601.118	271.69
601.327	268.69
601.536	253.69
601.745	268.69
601.953	262.69
602.162	275.69
602.371	260.69
602.58	249.69
602.789	266.69
602.997	276.69
603.206	271.69
603.415	264.69
603.623	252.69
603.832	265.69
604.041	244.69
604.249	237.69
604.458	238.69
604.666	259.69
604.875	258.69
605.084	269.69
605.292	280.69
605.501	251.69
605.709	258.69
605.918	264.69
606.126	245.69
606.334	257.69
606.543	247.69
606.751	251.69
606.96	260.69
607.168	250.69
607.376	249.69
607.585	264.69
607.793	239.69
608.001	243.69
608.21	260.69
608.418	260.69
608.626	247.69
608.834	243.69
609.043	237.69
609.251	250.69
609.459	245.69
609.667	258.69
609.875	239.69
610.083	238.69
610.291	242.69
610.499	223.69
610.707	248.69
610.916	252.69
611.124	235.69
611.332	246.69
611.54	230.69
611.748	237.69
611.955	221.69
612.163	236.69
612.371	240.69
612.579	242.69
612.787	222.69
612.995	239.69
613.203	237.69
613.411	218.69
613.618	246.69
613.826	241.69
614.034	226.69
614.242	227.69
614.449	233.69
614.657	247.69
614.865	222.69
615.072	237.69
615.28	234.69
615.488	230.69
615.695	230.69
615.903	229.69
616.111	225.69
616.318	235.69
616.526	240.69
616.733	234.69
616.941	237.69
617.148	238.69
617.356	239.69
617.563	221.69
617.771	230.69
617.978	228.69
618.185	231.69
618.393	243.69
618.6	221.69
618.807	234.69
619.015	229.69
619.222	232.69
619.429	220.69
619.637	248.69
619.844	226.69
620.051	231.69
620.258	218.69
620.466	216.69
620.673	218.69
620.88	218.69
621.087	231.69
621.294	234.69
621.501	220.69
621.708	221.69
621.915	208.69
622.122	206.69
622.329	227.69
622.536	207.69
622.743	210.69
622.95	222.69
623.157	215.69
623.364	219.69
623.571	208.69
623.778	217.69
623.985	198.69
624.192	192.69
624.399	210.69
624.606	215.69
624.812	212.69
625.019	230.69
625.226	222.69
625.433	220.69
625.639	199.69
625.846	216.69
626.053	210.69
626.259	211.69
626.466	203.69
626.673	196.69
626.879	197.69
627.086	207.69
627.293	208.69
627.499	200.69
627.706	202.69
627.912	201.69
628.119	185.69
628.325	195.69
628.532	199.69
628.738	209.69
628.945	186.69
629.151	212.69
629.357	189.69
629.564	196.69
629.77	181.69
629.976	182.69
630.183	178.69
630.389	189.69
630.595	176.69
630.802	190.69
631.008	187.69
631.214	182.69
631.42	187.69
631.627	178.69
631.833	184.69
632.039	188.69
632.245	201.69
632.451	195.69
632.657	189.69
632.863	190.69
633.069	190.69
633.275	190.69
633.481	192.69
633.688	165.69
633.893	181.69
634.099	184.69
634.305	195.69
634.511	179.69
634.717	173.69
634.923	168.69
635.129	180.69
635.335	172.69
635.541	183.69
635.747	186.69
635.952	194.69
636.158	168.69
636.364	177.69
636.57	172.69
636.775	175.69
636.981	183.69
637.187	171.69
637.392	169.69
637.598	184.69
637.804	169.69
638.009	169.69
638.215	180.69
638.421	179.69
638.626	176.69
638.832	182.69
639.037	184.69
639.243	179.69
639.448	171.69
639.654	192.69
639.859	156.69
640.065	178.69
640.27	163.69
640.475	168.69
640.681	184.69
640.886	170.69
641.091	166.69
641.297	185.69
641.502	157.69
641.707	158.69
641.913	166.69
642.118	182.69
642.323	176.69
642.528	180.69
642.733	155.69
642.939	171.69
643.144	172.69
643.349	176.69
643.554	171.69
643.759	181.69
643.964	180.69
644.169	165.69
644.374	158.69
644.579	148.69
644.784	179.69
644.989	179.69
645.194	172.69
645.399	171.69
645.604	176.69
645.809	166.69
646.014	162.69
646.219	157.69
646.423	185.69
646.628	182.69
646.833	170.69
647.038	164.69
647.243	156.69
647.447	160.69
647.652	152.69
647.857	143.69
648.062	175.69
648.266	186.69
648.471	182.69
648.676	172.69
648.88	166.69
649.085	154.69
649.289	170.69
649.494	165.69
649.698	155.69
649.903	173.69
650.107	151.69
650.312	169.69
650.516	163.69
650.721	167.69
650.925	154.69
651.13	150.69
651.334	162.69
651.539	141.69
651.743	158.69
651.947	146.69
652.152	171.69
652.356	141.69
652.56	150.69
652.764	143.69
652.969	148.69
653.173	134.69
653.377	128.69
653.581	137.69
653.785	148.69
653.99	136.69
654.194	137.69
654.398	150.69
654.602	134.69
654.806	140.69
655.01	139.69
655.214	134.69
655.418	122.69
655.622	108.69
655.826	126.69
656.03	135.69
656.234	137.69
656.438	133.69
656.642	141.69
656.846	152.69
657.049	109.69
657.253	136.69
657.457	130.69
657.661	122.69
657.865	101.69
658.068	108.69
658.272	115.69
658.476	114.69
658.68	99.69
658.883	106.69
659.087	93.69
659.291	107.69
659.494	94.69
659.698	99.69
659.901	107.69
660.105	101.69
660.309	104.69
660.512	87.69
660.716	77.69
660.919	91.69
661.123	107.69
661.326	90.69
661.53	92.69
661.733	90.69
661.936	90.69
662.14	81.69
662.343	99.69
662.546	91.69
662.75	90.69
662.953	91.69
663.156	88.69
663.36	79.69
663.563	84.69
663.766	79.69
663.969	82.69
664.173	90.69
664.376	81.69
664.579	89.69
664.782	85.69
664.985	89.69
665.188	81.69
665.391	84.69
665.594	86.69
665.797	86.69
666	78.69
666.203	95.69
666.406	87.69
666.609	86.69
666.812	90.69
667.015	90.69
667.218	84.69
667.421	93.69
667.624	67.69
667.827	91.69
668.03	91.69
668.232	83.69
668.435	76.69
668.638	89.69
668.841	88.69
669.043	87.69
669.246	103.69
669.449	86.69
669.651	94.69
669.854	94.69
670.057	71.69
670.259	90.69
670.462	85.69
670.665	89.69
670.867	92.69
671.07	98.69
671.272	90.69
671.475	97.69
671.677	92.69
671.88	78.69
672.082	82.69
672.284	69.69
672.487	87.69
672.689	86.69
672.892	79.69
