Data from Fe(NO3)3@0.025M.TitratingCurve.Agarose3%dH2O.NegLispCup.LampEnergy10.LIBS07252019_HRD10591_16-56-41-335.txt Node
Date: Thu Jul 25 16:56:41 EDT 2019
User: cochatt
Spectrometer: HR+D1059
Trigger mode: 1
Integration Time (sec): 1.000000E-1
Scans to average: 1
Electric dark correction enabled: true
Nonlinearity correction enabled: false
Boxcar width: 0
XAxis mode: Wavelengths
Number of Pixels in Spectrum: 2048
>>>>>Begin Spectral Data<<<<<
223.165	-10.12
223.4	-10.12
223.635	-10.12
223.869	-21.12
224.104	-17.12
224.338	-1.12
224.573	-21.12
224.808	-16.12
225.042	-18.12
225.277	-1.12
225.511	6.88
225.746	-6.12
225.98	14.88
226.215	6.88
226.449	20.88
226.683	25.88
226.918	23.88
227.152	12.88
227.387	38.88
227.621	21.88
227.856	51.88
228.09	41.88
228.324	49.88
228.559	73.88
228.793	58.88
229.027	64.88
229.262	68.88
229.496	64.88
229.73	71.88
229.964	69.88
230.199	81.88
230.433	92.88
230.667	94.88
230.901	88.88
231.136	75.88
231.37	74.88
231.604	97.88
231.838	79.88
232.072	81.88
232.306	101.88
232.541	94.88
232.775	67.88
233.009	85.88
233.243	95.88
233.477	83.88
233.711	78.88
233.945	90.88
234.179	91.88
234.413	99.88
234.647	103.88
234.881	77.88
235.115	87.88
235.349	87.88
235.583	82.88
235.817	82.88
236.051	81.88
236.285	82.88
236.519	82.88
236.753	71.88
236.987	80.88
237.221	80.88
237.455	81.88
237.689	94.88
237.922	77.88
238.156	91.88
238.39	92.88
238.624	92.88
238.858	72.88
239.091	66.88
239.325	85.88
239.559	90.88
239.793	92.88
240.027	97.88
240.26	89.88
240.494	82.88
240.728	75.88
240.961	85.88
241.195	82.88
241.429	79.88
241.662	69.88
241.896	79.88
242.13	71.88
242.363	86.88
242.597	100.88
242.83	104.88
243.064	91.88
243.298	82.88
243.531	84.88
243.765	92.88
243.998	106.88
244.232	99.88
244.465	85.88
244.699	82.88
244.932	78.88
245.166	78.88
245.399	90.88
245.633	106.88
245.866	79.88
246.099	101.88
246.333	96.88
246.566	100.88
246.8	92.88
247.033	97.88
247.266	92.88
247.5	88.88
247.733	94.88
247.966	92.88
248.2	85.88
248.433	85.88
248.666	90.88
248.899	80.88
249.133	77.88
249.366	101.88
249.599	94.88
249.832	97.88
250.066	106.88
250.299	91.88
250.532	91.88
250.765	87.88
250.998	95.88
251.231	98.88
251.465	105.88
251.698	105.88
251.931	98.88
252.164	99.88
252.397	99.88
252.63	104.88
252.863	93.88
253.096	99.88
253.329	88.88
253.562	91.88
253.795	104.88
254.028	98.88
254.261	90.88
254.494	101.88
254.727	105.88
254.96	105.88
255.193	98.88
255.426	90.88
255.659	84.88
255.892	91.88
256.124	97.88
256.357	99.88
256.59	107.88
256.823	84.88
257.056	105.88
257.289	88.88
257.521	96.88
257.754	98.88
257.987	105.88
258.22	96.88
258.452	85.88
258.685	99.88
258.918	86.88
259.151	99.88
259.383	100.88
259.616	115.88
259.849	87.88
260.081	103.88
260.314	115.88
260.547	96.88
260.779	80.88
261.012	106.88
261.244	107.88
261.477	101.88
261.71	96.88
261.942	106.88
262.175	93.88
262.407	109.88
262.64	107.88
262.872	113.88
263.105	109.88
263.337	95.88
263.57	98.88
263.802	104.88
264.035	107.88
264.267	114.88
264.499	113.88
264.732	97.88
264.964	97.88
265.197	110.88
265.429	112.88
265.661	111.88
265.894	96.88
266.126	107.88
266.358	108.88
266.591	94.88
266.823	104.88
267.055	96.88
267.287	103.88
267.52	101.88
267.752	105.88
267.984	108.88
268.216	111.88
268.448	111.88
268.681	104.88
268.913	117.88
269.145	125.88
269.377	109.88
269.609	109.88
269.841	99.88
270.073	102.88
270.306	111.88
270.538	100.88
270.77	107.88
271.002	111.88
271.234	106.88
271.466	100.88
271.698	114.88
271.93	99.88
272.162	106.88
272.394	113.88
272.626	109.88
272.858	105.88
273.09	111.88
273.322	129.88
273.553	102.88
273.785	107.88
274.017	119.88
274.249	107.88
274.481	109.88
274.713	110.88
274.945	121.88
275.176	110.88
275.408	94.88
275.64	104.88
275.872	97.88
276.104	118.88
276.335	119.88
276.567	101.88
276.799	104.88
277.031	101.88
277.262	118.88
277.494	117.88
277.726	127.88
277.957	114.88
278.189	113.88
278.421	102.88
278.652	109.88
278.884	126.88
279.115	110.88
279.347	111.88
279.579	119.88
279.81	108.88
280.042	107.88
280.273	113.88
280.505	115.88
280.736	125.88
280.968	110.88
281.199	126.88
281.431	104.88
281.662	123.88
281.894	109.88
282.125	119.88
282.356	129.88
282.588	133.88
282.819	115.88
283.051	133.88
283.282	110.88
283.513	123.88
283.745	118.88
283.976	118.88
284.207	119.88
284.439	110.88
284.67	119.88
284.901	110.88
285.132	118.88
285.364	130.88
285.595	117.88
285.826	127.88
286.057	133.88
286.288	113.88
286.52	115.88
286.751	123.88
286.982	114.88
287.213	122.88
287.444	115.88
287.675	115.88
287.906	130.88
288.138	122.88
288.369	119.88
288.6	121.88
288.831	113.88
289.062	121.88
289.293	123.88
289.524	120.88
289.755	117.88
289.986	109.88
290.217	129.88
290.448	112.88
290.679	127.88
290.91	123.88
291.141	130.88
291.371	119.88
291.602	123.88
291.833	123.88
292.064	127.88
292.295	119.88
292.526	121.88
292.757	126.88
292.987	116.88
293.218	123.88
293.449	126.88
293.68	133.88
293.91	134.88
294.141	113.88
294.372	129.88
294.603	114.88
294.833	122.88
295.064	115.88
295.295	124.88
295.525	118.88
295.756	135.88
295.987	133.88
296.217	130.88
296.448	138.88
296.679	129.88
296.909	125.88
297.14	136.88
297.37	127.88
297.601	135.88
297.831	131.88
298.062	130.88
298.292	129.88
298.523	135.88
298.753	125.88
298.984	133.88
299.214	138.88
299.445	129.88
299.675	136.88
299.905	124.88
300.136	144.88
300.366	113.88
300.597	127.88
300.827	143.88
301.057	144.88
301.288	129.88
301.518	147.88
301.748	138.88
301.979	137.88
302.209	131.88
302.439	129.88
302.669	129.88
302.9	131.88
303.13	137.88
303.36	130.88
303.59	135.88
303.82	144.88
304.051	131.88
304.281	115.88
304.511	130.88
304.741	130.88
304.971	136.88
305.201	144.88
305.431	122.88
305.661	140.88
305.891	139.88
306.121	149.88
306.352	119.88
306.582	117.88
306.812	130.88
307.042	127.88
307.272	116.88
307.502	125.88
307.731	135.88
307.961	142.88
308.191	129.88
308.421	139.88
308.651	138.88
308.881	131.88
309.111	142.88
309.341	126.88
309.571	126.88
309.8	125.88
310.03	127.88
310.26	127.88
310.49	134.88
310.72	133.88
310.949	123.88
311.179	135.88
311.409	137.88
311.639	137.88
311.868	159.88
312.098	120.88
312.328	112.88
312.557	138.88
312.787	144.88
313.017	156.88
313.246	125.88
313.476	135.88
313.706	143.88
313.935	139.88
314.165	134.88
314.394	147.88
314.624	145.88
314.853	142.88
315.083	143.88
315.312	142.88
315.542	142.88
315.771	142.88
316.001	132.88
316.23	134.88
316.46	111.88
316.689	128.88
316.919	147.88
317.148	133.88
317.377	131.88
317.607	130.88
317.836	126.88
318.065	132.88
318.295	149.88
318.524	134.88
318.753	129.88
318.983	143.88
319.212	128.88
319.441	131.88
319.67	137.88
319.9	147.88
320.129	132.88
320.358	125.88
320.587	138.88
320.816	146.88
321.046	135.88
321.275	143.88
321.504	145.88
321.733	154.88
321.962	147.88
322.191	142.88
322.42	150.88
322.649	148.88
322.878	143.88
323.108	137.88
323.337	130.88
323.566	134.88
323.795	151.88
324.024	147.88
324.253	146.88
324.482	147.88
324.71	133.88
324.939	139.88
325.168	131.88
325.397	151.88
325.626	151.88
325.855	154.88
326.084	150.88
326.313	150.88
326.542	156.88
326.77	154.88
326.999	141.88
327.228	153.88
327.457	150.88
327.686	141.88
327.914	134.88
328.143	157.88
328.372	150.88
328.6	140.88
328.829	143.88
329.058	141.88
329.287	150.88
329.515	151.88
329.744	155.88
329.972	158.88
330.201	148.88
330.43	144.88
330.658	154.88
330.887	143.88
331.115	146.88
331.344	157.88
331.572	133.88
331.801	150.88
332.03	158.88
332.258	156.88
332.486	149.88
332.715	153.88
332.943	162.88
333.172	158.88
333.4	172.88
333.629	167.88
333.857	166.88
334.085	167.88
334.314	171.88
334.542	156.88
334.771	158.88
334.999	156.88
335.227	158.88
335.455	177.88
335.684	166.88
335.912	168.88
336.14	146.88
336.369	143.88
336.597	150.88
336.825	155.88
337.053	166.88
337.281	163.88
337.51	160.88
337.738	166.88
337.966	146.88
338.194	149.88
338.422	155.88
338.65	166.88
338.878	166.88
339.106	149.88
339.334	160.88
339.562	161.88
339.79	155.88
340.018	172.88
340.246	171.88
340.474	157.88
340.702	151.88
340.93	158.88
341.158	157.88
341.386	150.88
341.614	157.88
341.842	155.88
342.07	169.88
342.298	160.88
342.526	166.88
342.754	155.88
342.981	155.88
343.209	165.88
343.437	156.88
343.665	155.88
343.893	171.88
344.12	164.88
344.348	152.88
344.576	151.88
344.804	162.88
345.031	170.88
345.259	159.88
345.487	151.88
345.714	137.88
345.942	144.88
346.17	143.88
346.397	141.88
346.625	147.88
346.853	152.88
347.08	142.88
347.308	157.88
347.535	155.88
347.763	154.88
347.99	160.88
348.218	151.88
348.445	143.88
348.673	151.88
348.9	151.88
349.128	150.88
349.355	154.88
349.583	148.88
349.81	161.88
350.037	135.88
350.265	138.88
350.492	147.88
350.72	161.88
350.947	141.88
351.174	155.88
351.402	161.88
351.629	140.88
351.856	144.88
352.083	151.88
352.311	155.88
352.538	139.88
352.765	158.88
352.992	139.88
353.22	147.88
353.447	149.88
353.674	151.88
353.901	145.88
354.128	144.88
354.355	161.88
354.583	159.88
354.81	161.88
355.037	155.88
355.264	147.88
355.491	150.88
355.718	150.88
355.945	170.88
356.172	154.88
356.399	138.88
356.626	141.88
356.853	153.88
357.08	161.88
357.307	169.88
357.534	161.88
357.761	156.88
357.988	139.88
358.215	135.88
358.441	149.88
358.668	138.88
358.895	134.88
359.122	139.88
359.349	157.88
359.576	143.88
359.802	148.88
360.029	147.88
360.256	149.88
360.483	153.88
360.709	159.88
360.936	161.88
361.163	142.88
361.39	156.88
361.616	153.88
361.843	160.88
362.07	137.88
362.296	155.88
362.523	141.88
362.749	145.88
362.976	147.88
363.203	164.88
363.429	162.88
363.656	149.88
363.882	157.88
364.109	139.88
364.335	167.88
364.562	163.88
364.788	157.88
365.015	165.88
365.241	141.88
365.468	178.88
365.694	156.88
365.92	147.88
366.147	137.88
366.373	147.88
366.599	164.88
366.826	144.88
367.052	164.88
367.278	157.88
367.505	149.88
367.731	150.88
367.957	146.88
368.184	156.88
368.41	146.88
368.636	149.88
368.862	165.88
369.089	159.88
369.315	157.88
369.541	162.88
369.767	175.88
369.993	147.88
370.219	167.88
370.445	152.88
370.672	143.88
370.898	149.88
371.124	157.88
371.35	154.88
371.576	172.88
371.802	180.88
372.028	164.88
372.254	173.88
372.48	184.88
372.706	166.88
372.932	149.88
373.158	174.88
373.384	177.88
373.61	157.88
373.835	174.88
374.061	167.88
374.287	165.88
374.513	158.88
374.739	168.88
374.965	157.88
375.191	174.88
375.416	148.88
375.642	156.88
375.868	173.88
376.094	165.88
376.319	163.88
376.545	152.88
376.771	156.88
376.997	156.88
377.222	148.88
377.448	153.88
377.674	172.88
377.899	177.88
378.125	159.88
378.35	161.88
378.576	169.88
378.802	168.88
379.027	154.88
379.253	158.88
379.478	161.88
379.704	151.88
379.929	146.88
380.155	166.88
380.38	147.88
380.606	150.88
380.831	174.88
381.057	164.88
381.282	151.88
381.507	154.88
381.733	162.88
381.958	162.88
382.184	153.88
382.409	159.88
382.634	151.88
382.86	150.88
383.085	151.88
383.31	173.88
383.535	173.88
383.761	161.88
383.986	172.88
384.211	181.88
384.436	166.88
384.662	172.88
384.887	177.88
385.112	183.88
385.337	171.88
385.562	161.88
385.787	164.88
386.013	168.88
386.238	186.88
386.463	179.88
386.688	175.88
386.913	161.88
387.138	181.88
387.363	177.88
387.588	173.88
387.813	183.88
388.038	167.88
388.263	159.88
388.488	163.88
388.713	181.88
388.938	166.88
389.163	156.88
389.387	165.88
389.612	169.88
389.837	189.88
390.062	168.88
390.287	177.88
390.512	158.88
390.736	192.88
390.961	180.88
391.186	186.88
391.411	168.88
391.636	183.88
391.86	177.88
392.085	190.88
392.31	177.88
392.534	174.88
392.759	186.88
392.984	190.88
393.208	187.88
393.433	191.88
393.658	187.88
393.882	184.88
394.107	187.88
394.331	189.88
394.556	198.88
394.78	169.88
395.005	171.88
395.229	187.88
395.454	197.88
395.678	186.88
395.903	195.88
396.127	185.88
396.352	179.88
396.576	183.88
396.801	205.88
397.025	191.88
397.249	171.88
397.474	190.88
397.698	189.88
397.922	175.88
398.147	208.88
398.371	199.88
398.595	209.88
398.82	207.88
399.044	212.88
399.268	219.88
399.492	243.88
399.717	230.88
399.941	233.88
400.165	228.88
400.389	220.88
400.613	198.88
400.837	196.88
401.062	210.88
401.286	202.88
401.51	212.88
401.734	199.88
401.958	188.88
402.182	205.88
402.406	203.88
402.63	199.88
402.854	229.88
403.078	200.88
403.302	205.88
403.526	202.88
403.75	196.88
403.974	226.88
404.198	210.88
404.422	208.88
404.645	213.88
404.869	221.88
405.093	218.88
405.317	206.88
405.541	218.88
405.765	211.88
405.988	195.88
406.212	203.88
406.436	201.88
406.66	220.88
406.883	217.88
407.107	213.88
407.331	238.88
407.555	223.88
407.778	227.88
408.002	227.88
408.226	226.88
408.449	219.88
408.673	214.88
408.896	218.88
409.12	211.88
409.344	216.88
409.567	197.88
409.791	210.88
410.014	204.88
410.238	206.88
410.461	207.88
410.685	207.88
410.908	218.88
411.132	226.88
411.355	203.88
411.578	208.88
411.802	203.88
412.025	204.88
412.249	195.88
412.472	193.88
412.695	199.88
412.919	207.88
413.142	201.88
413.365	218.88
413.589	199.88
413.812	186.88
414.035	211.88
414.258	195.88
414.482	203.88
414.705	201.88
414.928	201.88
415.151	204.88
415.374	203.88
415.597	195.88
415.821	214.88
416.044	198.88
416.267	197.88
416.49	195.88
416.713	206.88
416.936	209.88
417.159	208.88
417.382	190.88
417.605	175.88
417.828	194.88
418.051	191.88
418.274	189.88
418.497	180.88
418.72	209.88
418.943	191.88
419.166	209.88
419.389	199.88
419.611	213.88
419.834	186.88
420.057	205.88
420.28	182.88
420.503	189.88
420.726	197.88
420.948	194.88
421.171	190.88
421.394	202.88
421.617	197.88
421.839	189.88
422.062	211.88
422.285	196.88
422.507	198.88
422.73	181.88
422.953	202.88
423.175	197.88
423.398	201.88
423.621	177.88
423.843	181.88
424.066	200.88
424.288	198.88
424.511	171.88
424.733	201.88
424.956	204.88
425.178	197.88
425.401	198.88
425.623	195.88
425.846	194.88
426.068	204.88
426.291	190.88
426.513	205.88
426.735	186.88
426.958	197.88
427.18	188.88
427.402	192.88
427.625	188.88
427.847	165.88
428.069	165.88
428.292	182.88
428.514	190.88
428.736	183.88
428.958	191.88
429.181	170.88
429.403	179.88
429.625	174.88
429.847	175.88
430.069	205.88
430.292	189.88
430.514	183.88
430.736	181.88
430.958	182.88
431.18	188.88
431.402	199.88
431.624	182.88
431.846	186.88
432.068	185.88
432.29	192.88
432.512	165.88
432.734	187.88
432.956	171.88
433.178	168.88
433.4	183.88
433.622	193.88
433.844	181.88
434.066	177.88
434.287	182.88
434.509	195.88
434.731	193.88
434.953	178.88
435.175	190.88
435.397	193.88
435.618	178.88
435.84	162.88
436.062	185.88
436.284	169.88
436.505	190.88
436.727	173.88
436.949	162.88
437.17	190.88
437.392	178.88
437.614	161.88
437.835	177.88
438.057	172.88
438.278	181.88
438.5	191.88
438.721	194.88
438.943	181.88
439.165	183.88
439.386	173.88
439.608	191.88
439.829	165.88
440.05	181.88
440.272	181.88
440.493	197.88
440.715	178.88
440.936	188.88
441.158	172.88
441.379	190.88
441.6	189.88
441.822	176.88
442.043	197.88
442.264	187.88
442.486	190.88
442.707	189.88
442.928	197.88
443.149	199.88
443.371	195.88
443.592	186.88
443.813	221.88
444.034	179.88
444.255	198.88
444.476	183.88
444.698	198.88
444.919	199.88
445.14	268.88
445.361	229.88
445.582	191.88
445.803	193.88
446.024	186.88
446.245	209.88
446.466	198.88
446.687	185.88
446.908	182.88
447.129	191.88
447.35	162.88
447.571	187.88
447.792	185.88
448.013	188.88
448.234	187.88
448.455	181.88
448.675	170.88
448.896	171.88
449.117	174.88
449.338	168.88
449.559	180.88
449.779	165.88
450	175.88
450.221	178.88
450.442	181.88
450.662	181.88
450.883	173.88
451.104	175.88
451.324	161.88
451.545	172.88
451.766	177.88
451.986	179.88
452.207	174.88
452.428	167.88
452.648	191.88
452.869	161.88
453.089	167.88
453.31	161.88
453.53	179.88
453.751	165.88
453.971	164.88
454.192	172.88
454.412	167.88
454.633	140.88
454.853	179.88
455.073	160.88
455.294	156.88
455.514	178.88
455.734	166.88
455.955	145.88
456.175	157.88
456.395	162.88
456.616	166.88
456.836	161.88
457.056	162.88
457.276	166.88
457.497	165.88
457.717	177.88
457.937	158.88
458.157	161.88
458.377	168.88
458.598	169.88
458.818	178.88
459.038	174.88
459.258	183.88
459.478	181.88
459.698	202.88
459.918	201.88
460.138	175.88
460.358	195.88
460.578	198.88
460.798	187.88
461.018	194.88
461.238	181.88
461.458	213.88
461.678	194.88
461.898	203.88
462.118	206.88
462.338	205.88
462.558	195.88
462.777	205.88
462.997	217.88
463.217	225.88
463.437	234.88
463.657	223.88
463.876	217.88
464.096	216.88
464.316	206.88
464.536	213.88
464.755	215.88
464.975	202.88
465.195	206.88
465.414	189.88
465.634	174.88
465.854	169.88
466.073	187.88
466.293	178.88
466.512	169.88
466.732	169.88
466.951	179.88
467.171	188.88
467.391	181.88
467.61	170.88
467.829	169.88
468.049	168.88
468.268	167.88
468.488	182.88
468.707	175.88
468.927	183.88
469.146	184.88
469.365	169.88
469.585	181.88
469.804	187.88
470.023	201.88
470.243	179.88
470.462	190.88
470.681	179.88
470.901	191.88
471.12	179.88
471.339	183.88
471.558	198.88
471.777	191.88
471.997	182.88
472.216	185.88
472.435	171.88
472.654	172.88
472.873	178.88
473.092	184.88
473.311	192.88
473.53	164.88
473.749	172.88
473.968	188.88
474.187	194.88
474.406	172.88
474.625	197.88
474.844	172.88
475.063	202.88
475.282	170.88
475.501	167.88
475.72	185.88
475.939	181.88
476.158	181.88
476.377	191.88
476.596	187.88
476.814	190.88
477.033	178.88
477.252	186.88
477.471	190.88
477.69	189.88
477.908	177.88
478.127	211.88
478.346	201.88
478.564	207.88
478.783	196.88
479.002	206.88
479.22	206.88
479.439	204.88
479.658	196.88
479.876	202.88
480.095	209.88
480.313	205.88
480.532	205.88
480.751	206.88
480.969	201.88
481.188	185.88
481.406	189.88
481.624	187.88
481.843	186.88
482.061	211.88
482.28	194.88
482.498	178.88
482.717	188.88
482.935	201.88
483.153	206.88
483.372	199.88
483.59	207.88
483.808	198.88
484.027	196.88
484.245	200.88
484.463	198.88
484.681	203.88
484.9	200.88
485.118	195.88
485.336	205.88
485.554	211.88
485.772	193.88
485.99	206.88
486.209	196.88
486.427	202.88
486.645	191.88
486.863	215.88
487.081	198.88
487.299	203.88
487.517	193.88
487.735	213.88
487.953	211.88
488.171	214.88
488.389	207.88
488.607	189.88
488.825	212.88
489.043	208.88
489.261	189.88
489.479	195.88
489.696	188.88
489.914	200.88
490.132	216.88
490.35	206.88
490.568	191.88
490.786	207.88
491.003	206.88
491.221	185.88
491.439	196.88
491.657	206.88
491.874	195.88
492.092	195.88
492.31	196.88
492.527	209.88
492.745	208.88
492.963	212.88
493.18	201.88
493.398	210.88
493.615	201.88
493.833	225.88
494.05	207.88
494.268	202.88
494.485	192.88
494.703	212.88
494.92	207.88
495.138	211.88
495.355	233.88
495.573	223.88
495.79	203.88
496.008	206.88
496.225	210.88
496.442	207.88
496.66	212.88
496.877	232.88
497.094	223.88
497.312	210.88
497.529	223.88
497.746	238.88
497.963	237.88
498.181	235.88
498.398	237.88
498.615	257.88
498.832	269.88
499.049	279.88
499.267	281.88
499.484	295.88
499.701	324.88
499.918	329.88
500.135	345.88
500.352	371.88
500.569	381.88
500.786	351.88
501.003	354.88
501.22	329.88
501.437	327.88
501.654	310.88
501.871	286.88
502.088	284.88
502.305	265.88
502.522	261.88
502.739	244.88
502.956	231.88
503.172	234.88
503.389	226.88
503.606	210.88
503.823	217.88
504.04	232.88
504.256	245.88
504.473	223.88
504.69	212.88
504.907	230.88
505.123	212.88
505.34	226.88
505.557	215.88
505.773	188.88
505.99	202.88
506.207	203.88
506.423	196.88
506.64	189.88
506.856	199.88
507.073	197.88
507.289	203.88
507.506	196.88
507.722	205.88
507.939	197.88
508.155	206.88
508.372	186.88
508.588	193.88
508.805	181.88
509.021	192.88
509.238	192.88
509.454	203.88
509.67	175.88
509.887	184.88
510.103	186.88
510.319	195.88
510.536	185.88
510.752	172.88
510.968	204.88
511.184	182.88
511.401	178.88
511.617	182.88
511.833	181.88
512.049	185.88
512.265	178.88
512.481	163.88
512.698	183.88
512.914	181.88
513.13	182.88
513.346	176.88
513.562	193.88
513.778	182.88
513.994	180.88
514.21	200.88
514.426	195.88
514.642	182.88
514.858	189.88
515.074	185.88
515.29	176.88
515.506	181.88
515.721	181.88
515.937	194.88
516.153	198.88
516.369	197.88
516.585	206.88
516.801	186.88
517.016	200.88
517.232	191.88
517.448	195.88
517.664	214.88
517.879	205.88
518.095	210.88
518.311	187.88
518.527	199.88
518.742	194.88
518.958	187.88
519.173	204.88
519.389	183.88
519.605	189.88
519.82	182.88
520.036	193.88
520.251	182.88
520.467	177.88
520.682	169.88
520.898	200.88
521.113	172.88
521.329	174.88
521.544	192.88
521.76	182.88
521.975	179.88
522.19	183.88
522.406	189.88
522.621	172.88
522.836	172.88
523.052	196.88
523.267	181.88
523.482	161.88
523.698	188.88
523.913	181.88
524.128	193.88
524.343	183.88
524.559	176.88
524.774	172.88
524.989	187.88
525.204	180.88
525.419	168.88
525.634	172.88
525.849	172.88
526.064	171.88
526.28	179.88
526.495	170.88
526.71	179.88
526.925	172.88
527.14	179.88
527.355	174.88
527.57	169.88
527.785	168.88
527.999	153.88
528.214	167.88
528.429	180.88
528.644	172.88
528.859	163.88
529.074	173.88
529.289	166.88
529.503	174.88
529.718	163.88
529.933	188.88
530.148	168.88
530.363	163.88
530.577	168.88
530.792	166.88
531.007	172.88
531.221	169.88
531.436	165.88
531.651	182.88
531.865	179.88
532.08	152.88
532.295	174.88
532.509	187.88
532.724	167.88
532.938	183.88
533.153	171.88
533.367	187.88
533.582	177.88
533.796	160.88
534.011	175.88
534.225	183.88
534.44	172.88
534.654	155.88
534.868	169.88
535.083	180.88
535.297	171.88
535.511	181.88
535.726	159.88
535.94	193.88
536.154	183.88
536.369	158.88
536.583	158.88
536.797	167.88
537.011	151.88
537.225	172.88
537.44	168.88
537.654	182.88
537.868	158.88
538.082	160.88
538.296	173.88
538.51	154.88
538.724	172.88
538.938	149.88
539.153	143.88
539.367	175.88
539.581	159.88
539.795	161.88
540.009	165.88
540.222	171.88
540.436	146.88
540.65	159.88
540.864	170.88
541.078	166.88
541.292	173.88
541.506	176.88
541.72	166.88
541.934	168.88
542.147	165.88
542.361	168.88
542.575	168.88
542.789	164.88
543.002	153.88
543.216	170.88
543.43	156.88
543.644	161.88
543.857	166.88
544.071	156.88
544.285	150.88
544.498	171.88
544.712	171.88
544.925	166.88
545.139	160.88
545.352	164.88
545.566	158.88
545.779	141.88
545.993	163.88
546.206	151.88
546.42	178.88
546.633	164.88
546.847	177.88
547.06	159.88
547.274	160.88
547.487	166.88
547.7	164.88
547.914	173.88
548.127	167.88
548.34	166.88
548.554	162.88
548.767	175.88
548.98	166.88
549.193	187.88
549.407	183.88
549.62	163.88
549.833	164.88
550.046	165.88
550.259	168.88
550.473	175.88
550.686	165.88
550.899	181.88
551.112	166.88
551.325	180.88
551.538	164.88
551.751	153.88
551.964	165.88
552.177	164.88
552.39	161.88
552.603	181.88
552.816	170.88
553.029	170.88
553.242	175.88
553.455	165.88
553.667	186.88
553.88	162.88
554.093	159.88
554.306	155.88
554.519	173.88
554.732	163.88
554.944	161.88
555.157	158.88
555.37	158.88
555.583	153.88
555.795	164.88
556.008	158.88
556.221	165.88
556.433	141.88
556.646	150.88
556.859	145.88
557.071	139.88
557.284	138.88
557.496	156.88
557.709	155.88
557.921	146.88
558.134	150.88
558.346	156.88
558.559	153.88
558.771	146.88
558.984	146.88
559.196	166.88
559.409	136.88
559.621	152.88
559.833	142.88
560.046	144.88
560.258	153.88
560.47	153.88
560.683	149.88
560.895	151.88
561.107	152.88
561.32	156.88
561.532	149.88
561.744	138.88
561.956	149.88
562.168	155.88
562.381	156.88
562.593	157.88
562.805	142.88
563.017	148.88
563.229	148.88
563.441	165.88
563.653	163.88
563.865	150.88
564.077	155.88
564.289	158.88
564.501	149.88
564.713	166.88
564.925	147.88
565.137	154.88
565.349	151.88
565.561	172.88
565.773	165.88
565.985	165.88
566.197	180.88
566.408	177.88
566.62	181.88
566.832	190.88
567.044	183.88
567.255	179.88
567.467	180.88
567.679	167.88
567.891	193.88
568.102	186.88
568.314	174.88
568.526	161.88
568.737	181.88
568.949	176.88
569.161	167.88
569.372	162.88
569.584	153.88
569.795	149.88
570.007	141.88
570.218	150.88
570.43	152.88
570.641	149.88
570.853	141.88
571.064	150.88
571.276	149.88
571.487	146.88
571.698	140.88
571.91	137.88
572.121	129.88
572.333	140.88
572.544	145.88
572.755	139.88
572.966	137.88
573.178	150.88
573.389	143.88
573.6	131.88
573.811	137.88
574.023	132.88
574.234	143.88
574.445	138.88
574.656	131.88
574.867	138.88
575.078	136.88
575.289	137.88
575.501	138.88
575.712	135.88
575.923	134.88
576.134	122.88
576.345	126.88
576.556	119.88
576.767	118.88
576.978	120.88
577.188	140.88
577.399	126.88
577.61	129.88
577.821	135.88
578.032	118.88
578.243	121.88
578.454	133.88
578.665	124.88
578.875	129.88
579.086	123.88
579.297	131.88
579.508	130.88
579.718	127.88
579.929	128.88
580.14	129.88
580.35	125.88
580.561	125.88
580.772	125.88
580.982	142.88
581.193	123.88
581.403	145.88
581.614	129.88
581.825	143.88
582.035	128.88
582.246	130.88
582.456	128.88
582.667	132.88
582.877	130.88
583.087	125.88
583.298	119.88
583.508	143.88
583.719	126.88
583.929	133.88
584.139	127.88
584.35	135.88
584.56	120.88
584.77	129.88
584.981	119.88
585.191	138.88
585.401	125.88
585.611	142.88
585.821	115.88
586.032	121.88
586.242	127.88
586.452	117.88
586.662	121.88
586.872	129.88
587.082	130.88
587.292	117.88
587.502	129.88
587.713	123.88
587.923	124.88
588.133	125.88
588.343	117.88
588.553	126.88
588.762	125.88
588.972	128.88
589.182	122.88
589.392	137.88
589.602	127.88
589.812	121.88
590.022	136.88
590.232	118.88
590.441	133.88
590.651	135.88
590.861	126.88
591.071	122.88
591.281	127.88
591.49	121.88
591.7	119.88
591.91	133.88
592.119	133.88
592.329	129.88
592.539	125.88
592.748	128.88
592.958	135.88
593.167	130.88
593.377	125.88
593.587	137.88
593.796	122.88
594.006	125.88
594.215	135.88
594.424	119.88
594.634	127.88
594.843	128.88
595.053	133.88
595.262	123.88
595.472	148.88
595.681	124.88
595.89	123.88
596.1	125.88
596.309	125.88
596.518	125.88
596.727	133.88
596.937	124.88
597.146	123.88
597.355	126.88
597.564	107.88
597.774	121.88
597.983	129.88
598.192	123.88
598.401	104.88
598.61	113.88
598.819	125.88
599.028	125.88
599.237	128.88
599.446	115.88
599.655	107.88
599.864	116.88
600.073	132.88
600.282	130.88
600.491	121.88
600.7	109.88
600.909	111.88
601.118	124.88
601.327	124.88
601.536	113.88
601.745	117.88
601.953	109.88
602.162	124.88
602.371	115.88
602.58	119.88
602.789	118.88
602.997	110.88
603.206	104.88
603.415	110.88
603.623	115.88
603.832	113.88
604.041	142.88
604.249	117.88
604.458	119.88
604.666	123.88
604.875	116.88
605.084	131.88
605.292	122.88
605.501	119.88
605.709	109.88
605.918	126.88
606.126	114.88
606.334	113.88
606.543	118.88
606.751	119.88
606.96	117.88
607.168	109.88
607.376	124.88
607.585	104.88
607.793	112.88
608.001	97.88
608.21	106.88
608.418	115.88
608.626	118.88
608.834	136.88
609.043	122.88
609.251	106.88
609.459	119.88
609.667	106.88
609.875	117.88
610.083	125.88
610.291	119.88
610.499	109.88
610.707	116.88
610.916	103.88
611.124	103.88
611.332	122.88
611.54	118.88
611.748	113.88
611.955	116.88
612.163	106.88
612.371	114.88
612.579	123.88
612.787	115.88
612.995	105.88
613.203	122.88
613.411	118.88
613.618	118.88
613.826	103.88
614.034	122.88
614.242	117.88
614.449	99.88
614.657	99.88
614.865	92.88
615.072	101.88
615.28	107.88
615.488	112.88
615.695	111.88
615.903	113.88
616.111	118.88
616.318	113.88
616.526	102.88
616.733	108.88
616.941	111.88
617.148	114.88
617.356	115.88
617.563	114.88
617.771	121.88
617.978	109.88
618.185	118.88
618.393	126.88
618.6	111.88
618.807	95.88
619.015	109.88
619.222	95.88
619.429	111.88
619.637	104.88
619.844	106.88
620.051	113.88
620.258	99.88
620.466	103.88
620.673	111.88
620.88	101.88
621.087	119.88
621.294	111.88
621.501	111.88
621.708	98.88
621.915	99.88
622.122	105.88
622.329	103.88
622.536	103.88
622.743	111.88
622.95	118.88
623.157	101.88
623.364	105.88
623.571	115.88
623.778	112.88
623.985	114.88
624.192	115.88
624.399	110.88
624.606	115.88
624.812	113.88
625.019	110.88
625.226	115.88
625.433	107.88
625.639	109.88
625.846	125.88
626.053	102.88
626.259	107.88
626.466	101.88
626.673	99.88
626.879	125.88
627.086	99.88
627.293	117.88
627.499	120.88
627.706	113.88
627.912	100.88
628.119	103.88
628.325	116.88
628.532	108.88
628.738	102.88
628.945	102.88
629.151	105.88
629.357	108.88
629.564	111.88
629.77	98.88
629.976	104.88
630.183	100.88
630.389	100.88
630.595	114.88
630.802	101.88
631.008	86.88
631.214	100.88
631.42	113.88
631.627	93.88
631.833	103.88
632.039	109.88
632.245	106.88
632.451	92.88
632.657	113.88
632.863	92.88
633.069	92.88
633.275	109.88
633.481	114.88
633.688	106.88
633.893	108.88
634.099	100.88
634.305	108.88
634.511	117.88
634.717	109.88
634.923	101.88
635.129	104.88
635.335	94.88
635.541	110.88
635.747	111.88
635.952	92.88
636.158	108.88
636.364	111.88
636.57	92.88
636.775	92.88
636.981	110.88
637.187	109.88
637.392	101.88
637.598	89.88
637.804	99.88
638.009	106.88
638.215	107.88
638.421	102.88
638.626	111.88
638.832	112.88
639.037	102.88
639.243	99.88
639.448	114.88
639.654	101.88
639.859	102.88
640.065	89.88
640.27	103.88
640.475	118.88
640.681	91.88
640.886	104.88
641.091	99.88
641.297	102.88
641.502	104.88
641.707	103.88
641.913	110.88
642.118	100.88
642.323	104.88
642.528	107.88
642.733	113.88
642.939	119.88
643.144	105.88
643.349	109.88
643.554	101.88
643.759	102.88
643.964	120.88
644.169	99.88
644.374	93.88
644.579	102.88
644.784	106.88
644.989	118.88
645.194	113.88
645.399	85.88
645.604	102.88
645.809	99.88
646.014	109.88
646.219	103.88
646.423	102.88
646.628	103.88
646.833	109.88
647.038	101.88
647.243	94.88
647.447	113.88
647.652	88.88
647.857	106.88
648.062	90.88
648.266	105.88
648.471	97.88
648.676	97.88
648.88	106.88
649.085	101.88
649.289	111.88
649.494	96.88
649.698	102.88
649.903	108.88
650.107	111.88
650.312	115.88
650.516	97.88
650.721	115.88
650.925	97.88
651.13	102.88
651.334	95.88
651.539	96.88
651.743	110.88
651.947	92.88
652.152	108.88
652.356	95.88
652.56	104.88
652.764	113.88
652.969	106.88
653.173	109.88
653.377	99.88
653.581	113.88
653.785	94.88
653.99	86.88
654.194	101.88
654.398	91.88
654.602	99.88
654.806	98.88
655.01	121.88
655.214	104.88
655.418	104.88
655.622	105.88
655.826	105.88
656.03	113.88
656.234	102.88
656.438	116.88
656.642	115.88
656.846	112.88
657.049	101.88
657.253	103.88
657.457	98.88
657.661	111.88
657.865	103.88
658.068	82.88
658.272	102.88
658.476	99.88
658.68	103.88
658.883	92.88
659.087	91.88
659.291	106.88
659.494	86.88
659.698	94.88
659.901	99.88
660.105	80.88
660.309	88.88
660.512	75.88
660.716	96.88
660.919	91.88
661.123	100.88
661.326	95.88
661.53	95.88
661.733	86.88
661.936	94.88
662.14	77.88
662.343	86.88
662.546	79.88
662.75	89.88
662.953	88.88
663.156	88.88
663.36	84.88
663.563	74.88
663.766	83.88
663.969	79.88
664.173	85.88
664.376	85.88
664.579	93.88
664.782	80.88
664.985	94.88
665.188	89.88
665.391	71.88
665.594	73.88
665.797	95.88
666	89.88
666.203	80.88
666.406	73.88
666.609	75.88
666.812	85.88
667.015	62.88
667.218	76.88
667.421	75.88
667.624	86.88
667.827	81.88
668.03	70.88
668.232	71.88
668.435	75.88
668.638	92.88
668.841	94.88
669.043	85.88
669.246	81.88
669.449	82.88
669.651	81.88
669.854	87.88
670.057	75.88
670.259	87.88
670.462	74.88
670.665	82.88
670.867	72.88
671.07	82.88
671.272	85.88
671.475	85.88
671.677	88.88
671.88	82.88
672.082	84.88
672.284	83.88
672.487	78.88
672.689	90.88
672.892	99.88
