Data from Fe(NO3)3@0.05M.TitratingCurve.Agarose3%dH2O.NegLispCup.LampEnergy10.LIBS07252019_HRD10591_16-46-34-334.txt Node
Date: Thu Jul 25 16:46:34 EDT 2019
User: cochatt
Spectrometer: HR+D1059
Trigger mode: 1
Integration Time (sec): 1.000000E-1
Scans to average: 1
Electric dark correction enabled: true
Nonlinearity correction enabled: false
Boxcar width: 0
XAxis mode: Wavelengths
Number of Pixels in Spectrum: 2048
>>>>>Begin Spectral Data<<<<<
223.165	-31.62
223.4	-31.62
223.635	-31.62
223.869	-20.62
224.104	-22.62
224.338	-11.62
224.573	-24.62
224.808	-3.62
225.042	-3.62
225.277	-5.62
225.511	2.38
225.746	6.38
225.98	1.38
226.215	6.38
226.449	12.38
226.683	28.38
226.918	33.38
227.152	33.38
227.387	36.38
227.621	39.38
227.856	33.38
228.09	56.38
228.324	46.38
228.559	67.38
228.793	64.38
229.027	105.38
229.262	113.38
229.496	112.38
229.73	118.38
229.964	135.38
230.199	138.38
230.433	132.38
230.667	131.38
230.901	139.38
231.136	148.38
231.37	131.38
231.604	140.38
231.838	151.38
232.072	136.38
232.306	134.38
232.541	142.38
232.775	166.38
233.009	159.38
233.243	160.38
233.477	147.38
233.711	155.38
233.945	177.38
234.179	169.38
234.413	152.38
234.647	176.38
234.881	167.38
235.115	162.38
235.349	172.38
235.583	166.38
235.817	175.38
236.051	172.38
236.285	175.38
236.519	176.38
236.753	184.38
236.987	170.38
237.221	167.38
237.455	188.38
237.689	173.38
237.922	189.38
238.156	198.38
238.39	196.38
238.624	204.38
238.858	219.38
239.091	189.38
239.325	200.38
239.559	178.38
239.793	198.38
240.027	208.38
240.26	212.38
240.494	204.38
240.728	225.38
240.961	222.38
241.195	214.38
241.429	215.38
241.662	222.38
241.896	190.38
242.13	219.38
242.363	210.38
242.597	213.38
242.83	215.38
243.064	220.38
243.298	210.38
243.531	229.38
243.765	217.38
243.998	246.38
244.232	233.38
244.465	245.38
244.699	231.38
244.932	237.38
245.166	235.38
245.399	239.38
245.633	242.38
245.866	244.38
246.099	236.38
246.333	256.38
246.566	282.38
246.8	282.38
247.033	244.38
247.266	259.38
247.5	257.38
247.733	257.38
247.966	248.38
248.2	250.38
248.433	289.38
248.666	276.38
248.899	276.38
249.133	269.38
249.366	289.38
249.599	282.38
249.832	294.38
250.066	293.38
250.299	263.38
250.532	278.38
250.765	271.38
250.998	266.38
251.231	296.38
251.465	280.38
251.698	294.38
251.931	279.38
252.164	296.38
252.397	308.38
252.63	323.38
252.863	342.38
253.096	323.38
253.329	318.38
253.562	327.38
253.795	331.38
254.028	330.38
254.261	320.38
254.494	324.38
254.727	296.38
254.96	306.38
255.193	317.38
255.426	324.38
255.659	325.38
255.892	318.38
256.124	321.38
256.357	328.38
256.59	363.38
256.823	339.38
257.056	339.38
257.289	325.38
257.521	319.38
257.754	338.38
257.987	333.38
258.22	343.38
258.452	352.38
258.685	348.38
258.918	355.38
259.151	351.38
259.383	361.38
259.616	371.38
259.849	383.38
260.081	407.38
260.314	443.38
260.547	381.38
260.779	382.38
261.012	375.38
261.244	376.38
261.477	410.38
261.71	393.38
261.942	377.38
262.175	364.38
262.407	374.38
262.64	356.38
262.872	390.38
263.105	382.38
263.337	411.38
263.57	418.38
263.802	405.38
264.035	378.38
264.267	388.38
264.499	363.38
264.732	376.38
264.964	383.38
265.197	388.38
265.429	392.38
265.661	377.38
265.894	367.38
266.126	375.38
266.358	395.38
266.591	368.38
266.823	402.38
267.055	398.38
267.287	402.38
267.52	408.38
267.752	405.38
267.984	406.38
268.216	393.38
268.448	413.38
268.681	414.38
268.913	407.38
269.145	421.38
269.377	412.38
269.609	432.38
269.841	423.38
270.073	420.38
270.306	425.38
270.538	436.38
270.77	437.38
271.002	425.38
271.234	422.38
271.466	448.38
271.698	446.38
271.93	435.38
272.162	457.38
272.394	455.38
272.626	433.38
272.858	472.38
273.09	459.38
273.322	477.38
273.553	455.38
273.785	468.38
274.017	501.38
274.249	508.38
274.481	522.38
274.713	530.38
274.945	561.38
275.176	578.38
275.408	542.38
275.64	530.38
275.872	552.38
276.104	512.38
276.335	481.38
276.567	475.38
276.799	494.38
277.031	489.38
277.262	468.38
277.494	496.38
277.726	496.38
277.957	479.38
278.189	502.38
278.421	483.38
278.652	490.38
278.884	495.38
279.115	487.38
279.347	489.38
279.579	493.38
279.81	496.38
280.042	497.38
280.273	498.38
280.505	515.38
280.736	494.38
280.968	512.38
281.199	541.38
281.431	511.38
281.662	511.38
281.894	496.38
282.125	500.38
282.356	527.38
282.588	516.38
282.819	546.38
283.051	520.38
283.282	534.38
283.513	531.38
283.745	535.38
283.976	517.38
284.207	544.38
284.439	531.38
284.67	537.38
284.901	550.38
285.132	533.38
285.364	533.38
285.595	548.38
285.826	538.38
286.057	538.38
286.288	545.38
286.52	566.38
286.751	562.38
286.982	550.38
287.213	553.38
287.444	553.38
287.675	564.38
287.906	553.38
288.138	582.38
288.369	564.38
288.6	551.38
288.831	556.38
289.062	547.38
289.293	560.38
289.524	569.38
289.755	565.38
289.986	568.38
290.217	574.38
290.448	566.38
290.679	562.38
290.91	560.38
291.141	558.38
291.371	583.38
291.602	560.38
291.833	554.38
292.064	552.38
292.295	575.38
292.526	572.38
292.757	574.38
292.987	579.38
293.218	571.38
293.449	584.38
293.68	574.38
293.91	582.38
294.141	578.38
294.372	578.38
294.603	591.38
294.833	596.38
295.064	594.38
295.295	594.38
295.525	595.38
295.756	604.38
295.987	591.38
296.217	588.38
296.448	595.38
296.679	597.38
296.909	584.38
297.14	594.38
297.37	595.38
297.601	612.38
297.831	601.38
298.062	593.38
298.292	605.38
298.523	634.38
298.753	658.38
298.984	634.38
299.214	634.38
299.445	630.38
299.675	635.38
299.905	636.38
300.136	609.38
300.366	620.38
300.597	627.38
300.827	652.38
301.057	629.38
301.288	668.38
301.518	648.38
301.748	640.38
301.979	674.38
302.209	660.38
302.439	651.38
302.669	652.38
302.9	660.38
303.13	651.38
303.36	672.38
303.59	681.38
303.82	646.38
304.051	664.38
304.281	680.38
304.511	648.38
304.741	668.38
304.971	664.38
305.201	666.38
305.431	681.38
305.661	650.38
305.891	666.38
306.121	662.38
306.352	663.38
306.582	672.38
306.812	652.38
307.042	672.38
307.272	670.38
307.502	661.38
307.731	638.38
307.961	662.38
308.191	655.38
308.421	683.38
308.651	672.38
308.881	667.38
309.111	654.38
309.341	672.38
309.571	658.38
309.8	660.38
310.03	675.38
310.26	670.38
310.49	672.38
310.72	679.38
310.949	681.38
311.179	693.38
311.409	711.38
311.639	687.38
311.868	675.38
312.098	701.38
312.328	703.38
312.557	711.38
312.787	672.38
313.017	686.38
313.246	684.38
313.476	707.38
313.706	700.38
313.935	712.38
314.165	726.38
314.394	726.38
314.624	722.38
314.853	708.38
315.083	715.38
315.312	720.38
315.542	739.38
315.771	712.38
316.001	741.38
316.23	736.38
316.46	702.38
316.689	694.38
316.919	714.38
317.148	730.38
317.377	732.38
317.607	713.38
317.836	710.38
318.065	741.38
318.295	733.38
318.524	736.38
318.753	711.38
318.983	722.38
319.212	714.38
319.441	730.38
319.67	703.38
319.9	731.38
320.129	722.38
320.358	735.38
320.587	755.38
320.816	743.38
321.046	732.38
321.275	743.38
321.504	730.38
321.733	720.38
321.962	752.38
322.191	728.38
322.42	761.38
322.649	742.38
322.878	745.38
323.108	738.38
323.337	773.38
323.566	761.38
323.795	762.38
324.024	777.38
324.253	747.38
324.482	745.38
324.71	748.38
324.939	757.38
325.168	754.38
325.397	761.38
325.626	778.38
325.855	776.38
326.084	796.38
326.313	787.38
326.542	801.38
326.77	804.38
326.999	784.38
327.228	785.38
327.457	772.38
327.686	803.38
327.914	771.38
328.143	794.38
328.372	769.38
328.6	786.38
328.829	789.38
329.058	800.38
329.287	790.38
329.515	814.38
329.744	818.38
329.972	816.38
330.201	782.38
330.43	802.38
330.658	797.38
330.887	820.38
331.115	810.38
331.344	810.38
331.572	827.38
331.801	826.38
332.03	858.38
332.258	845.38
332.486	832.38
332.715	878.38
332.943	883.38
333.172	896.38
333.4	911.38
333.629	922.38
333.857	928.38
334.085	909.38
334.314	919.38
334.542	930.38
334.771	944.38
334.999	938.38
335.227	907.38
335.455	948.38
335.684	935.38
335.912	914.38
336.14	924.38
336.369	915.38
336.597	909.38
336.825	940.38
337.053	927.38
337.281	914.38
337.51	902.38
337.738	879.38
337.966	881.38
338.194	886.38
338.422	872.38
338.65	868.38
338.878	867.38
339.106	873.38
339.334	871.38
339.562	844.38
339.79	858.38
340.018	855.38
340.246	834.38
340.474	836.38
340.702	842.38
340.93	873.38
341.158	839.38
341.386	839.38
341.614	827.38
341.842	835.38
342.07	855.38
342.298	857.38
342.526	854.38
342.754	854.38
342.981	857.38
343.209	858.38
343.437	872.38
343.665	899.38
343.893	895.38
344.12	928.38
344.348	963.38
344.576	942.38
344.804	880.38
345.031	911.38
345.259	860.38
345.487	846.38
345.714	865.38
345.942	820.38
346.17	832.38
346.397	808.38
346.625	830.38
346.853	822.38
347.08	806.38
347.308	802.38
347.535	811.38
347.763	820.38
347.99	818.38
348.218	793.38
348.445	800.38
348.673	813.38
348.9	810.38
349.128	789.38
349.355	800.38
349.583	829.38
349.81	814.38
350.037	840.38
350.265	801.38
350.492	793.38
350.72	774.38
350.947	817.38
351.174	814.38
351.402	787.38
351.629	809.38
351.856	807.38
352.083	806.38
352.311	789.38
352.538	795.38
352.765	795.38
352.992	818.38
353.22	786.38
353.447	787.38
353.674	820.38
353.901	773.38
354.128	796.38
354.355	790.38
354.583	816.38
354.81	785.38
355.037	783.38
355.264	785.38
355.491	802.38
355.718	805.38
355.945	786.38
356.172	816.38
356.399	792.38
356.626	800.38
356.853	831.38
357.08	833.38
357.307	819.38
357.534	810.38
357.761	788.38
357.988	814.38
358.215	817.38
358.441	842.38
358.668	831.38
358.895	810.38
359.122	795.38
359.349	806.38
359.576	812.38
359.802	818.38
360.029	809.38
360.256	833.38
360.483	825.38
360.709	798.38
360.936	822.38
361.163	815.38
361.39	799.38
361.616	810.38
361.843	799.38
362.07	827.38
362.296	822.38
362.523	826.38
362.749	842.38
362.976	820.38
363.203	808.38
363.429	832.38
363.656	826.38
363.882	832.38
364.109	843.38
364.335	838.38
364.562	830.38
364.788	867.38
365.015	831.38
365.241	838.38
365.468	836.38
365.694	816.38
365.92	827.38
366.147	830.38
366.373	818.38
366.599	827.38
366.826	826.38
367.052	835.38
367.278	823.38
367.505	843.38
367.731	821.38
367.957	814.38
368.184	843.38
368.41	867.38
368.636	848.38
368.862	878.38
369.089	872.38
369.315	851.38
369.541	885.38
369.767	885.38
369.993	858.38
370.219	862.38
370.445	857.38
370.672	858.38
370.898	877.38
371.124	892.38
371.35	891.38
371.576	891.38
371.802	887.38
372.028	908.38
372.254	911.38
372.48	932.38
372.706	902.38
372.932	923.38
373.158	916.38
373.384	935.38
373.61	954.38
373.835	960.38
374.061	914.38
374.287	933.38
374.513	916.38
374.739	936.38
374.965	964.38
375.191	974.38
375.416	924.38
375.642	938.38
375.868	946.38
376.094	939.38
376.319	898.38
376.545	925.38
376.771	895.38
376.997	898.38
377.222	902.38
377.448	874.38
377.674	897.38
377.899	896.38
378.125	914.38
378.35	906.38
378.576	898.38
378.802	905.38
379.027	904.38
379.253	889.38
379.478	875.38
379.704	879.38
379.929	894.38
380.155	900.38
380.38	898.38
380.606	891.38
380.831	907.38
381.057	908.38
381.282	894.38
381.507	917.38
381.733	945.38
381.958	920.38
382.184	966.38
382.409	933.38
382.634	951.38
382.86	951.38
383.085	971.38
383.31	988.38
383.535	979.38
383.761	954.38
383.986	986.38
384.211	1003.38
384.436	999.38
384.662	1013.38
384.887	1017.38
385.112	1011.38
385.337	1014.38
385.562	1011.38
385.787	1028.38
386.013	1065.38
386.238	1058.38
386.463	1076.38
386.688	1044.38
386.913	1048.38
387.138	1050.38
387.363	1072.38
387.588	1086.38
387.813	1060.38
388.038	1060.38
388.263	1045.38
388.488	1080.38
388.713	1088.38
388.938	1053.38
389.163	1046.38
389.387	1059.38
389.612	1046.38
389.837	1082.38
390.062	1047.38
390.287	1062.38
390.512	1054.38
390.736	1080.38
390.961	1092.38
391.186	1107.38
391.411	1115.38
391.636	1151.38
391.86	1128.38
392.085	1138.38
392.31	1134.38
392.534	1149.38
392.759	1144.38
392.984	1138.38
393.208	1126.38
393.433	1128.38
393.658	1114.38
393.882	1115.38
394.107	1117.38
394.331	1093.38
394.556	1088.38
394.78	1127.38
395.005	1127.38
395.229	1131.38
395.454	1163.38
395.678	1163.38
395.903	1149.38
396.127	1159.38
396.352	1153.38
396.576	1156.38
396.801	1125.38
397.025	1198.38
397.249	1191.38
397.474	1215.38
397.698	1205.38
397.922	1230.38
398.147	1216.38
398.371	1218.38
398.595	1256.38
398.82	1271.38
399.044	1358.38
399.268	1398.38
399.492	1420.38
399.717	1504.38
399.941	1555.38
400.165	1535.38
400.389	1433.38
400.613	1406.38
400.837	1385.38
401.062	1340.38
401.286	1321.38
401.51	1307.38
401.734	1306.38
401.958	1307.38
402.182	1337.38
402.406	1253.38
402.63	1267.38
402.854	1313.38
403.078	1290.38
403.302	1299.38
403.526	1332.38
403.75	1332.38
403.974	1327.38
404.198	1339.38
404.422	1356.38
404.645	1350.38
404.869	1337.38
405.093	1350.38
405.317	1344.38
405.541	1358.38
405.765	1355.38
405.988	1382.38
406.212	1398.38
406.436	1390.38
406.66	1406.38
406.883	1394.38
407.107	1491.38
407.331	1497.38
407.555	1527.38
407.778	1526.38
408.002	1522.38
408.226	1502.38
408.449	1525.38
408.673	1425.38
408.896	1438.38
409.12	1396.38
409.344	1444.38
409.567	1384.38
409.791	1422.38
410.014	1398.38
410.238	1383.38
410.461	1361.38
410.685	1382.38
410.908	1369.38
411.132	1356.38
411.355	1324.38
411.578	1317.38
411.802	1346.38
412.025	1346.38
412.249	1362.38
412.472	1357.38
412.695	1322.38
412.919	1346.38
413.142	1340.38
413.365	1319.38
413.589	1321.38
413.812	1318.38
414.035	1306.38
414.258	1332.38
414.482	1310.38
414.705	1349.38
414.928	1304.38
415.151	1282.38
415.374	1302.38
415.597	1295.38
415.821	1263.38
416.044	1256.38
416.267	1287.38
416.49	1267.38
416.713	1265.38
416.936	1245.38
417.159	1248.38
417.382	1252.38
417.605	1237.38
417.828	1238.38
418.051	1246.38
418.274	1267.38
418.497	1238.38
418.72	1264.38
418.943	1253.38
419.166	1312.38
419.389	1401.38
419.611	1395.38
419.834	1351.38
420.057	1324.38
420.28	1304.38
420.503	1268.38
420.726	1228.38
420.948	1227.38
421.171	1242.38
421.394	1231.38
421.617	1247.38
421.839	1265.38
422.062	1245.38
422.285	1207.38
422.507	1264.38
422.73	1248.38
422.953	1239.38
423.175	1230.38
423.398	1256.38
423.621	1239.38
423.843	1270.38
424.066	1272.38
424.288	1265.38
424.511	1244.38
424.733	1237.38
424.956	1253.38
425.178	1239.38
425.401	1247.38
425.623	1260.38
425.846	1232.38
426.068	1202.38
426.291	1227.38
426.513	1200.38
426.735	1198.38
426.958	1224.38
427.18	1208.38
427.402	1217.38
427.625	1195.38
427.847	1179.38
428.069	1188.38
428.292	1185.38
428.514	1187.38
428.736	1158.38
428.958	1180.38
429.181	1189.38
429.403	1170.38
429.625	1193.38
429.847	1160.38
430.069	1198.38
430.292	1176.38
430.514	1160.38
430.736	1158.38
430.958	1208.38
431.18	1169.38
431.402	1173.38
431.624	1195.38
431.846	1166.38
432.068	1171.38
432.29	1208.38
432.512	1144.38
432.734	1207.38
432.956	1185.38
433.178	1200.38
433.4	1181.38
433.622	1205.38
433.844	1236.38
434.066	1187.38
434.287	1181.38
434.509	1217.38
434.731	1245.38
434.953	1230.38
435.175	1221.38
435.397	1236.38
435.618	1229.38
435.84	1174.38
436.062	1209.38
436.284	1174.38
436.505	1168.38
436.727	1202.38
436.949	1191.38
437.17	1180.38
437.392	1168.38
437.614	1170.38
437.835	1142.38
438.057	1137.38
438.278	1146.38
438.5	1181.38
438.721	1166.38
438.943	1160.38
439.165	1126.38
439.386	1170.38
439.608	1150.38
439.829	1163.38
440.05	1147.38
440.272	1183.38
440.493	1183.38
440.715	1202.38
440.936	1164.38
441.158	1184.38
441.379	1234.38
441.6	1247.38
441.822	1211.38
442.043	1234.38
442.264	1214.38
442.486	1217.38
442.707	1250.38
442.928	1224.38
443.149	1212.38
443.371	1194.38
443.592	1212.38
443.813	1240.38
444.034	1236.38
444.255	1253.38
444.476	1264.38
444.698	1288.38
444.919	1318.38
445.14	1399.38
445.361	1312.38
445.582	1257.38
445.803	1226.38
446.024	1215.38
446.245	1195.38
446.466	1199.38
446.687	1145.38
446.908	1154.38
447.129	1156.38
447.35	1135.38
447.571	1158.38
447.792	1120.38
448.013	1124.38
448.234	1091.38
448.455	1094.38
448.675	1093.38
448.896	1096.38
449.117	1082.38
449.338	1090.38
449.559	1083.38
449.779	1068.38
450	1052.38
450.221	1093.38
450.442	1096.38
450.662	1076.38
450.883	1063.38
451.104	1074.38
451.324	1078.38
451.545	1070.38
451.766	1050.38
451.986	1066.38
452.207	1048.38
452.428	1045.38
452.648	1031.38
452.869	1025.38
453.089	1003.38
453.31	1048.38
453.53	1054.38
453.751	1026.38
453.971	1038.38
454.192	1026.38
454.412	1024.38
454.633	1034.38
454.853	1044.38
455.073	1007.38
455.294	1009.38
455.514	1032.38
455.734	983.38
455.955	1036.38
456.175	979.38
456.395	1030.38
456.616	1027.38
456.836	1020.38
457.056	1035.38
457.276	1013.38
457.497	1026.38
457.717	1030.38
457.937	1036.38
458.157	1056.38
458.377	1080.38
458.598	1075.38
458.818	1113.38
459.038	1094.38
459.258	1095.38
459.478	1150.38
459.698	1156.38
459.918	1156.38
460.138	1207.38
460.358	1242.38
460.578	1273.38
460.798	1226.38
461.018	1268.38
461.238	1290.38
461.458	1278.38
461.678	1259.38
461.898	1299.38
462.118	1323.38
462.338	1372.38
462.558	1338.38
462.777	1379.38
462.997	1408.38
463.217	1457.38
463.437	1518.38
463.657	1438.38
463.876	1446.38
464.096	1407.38
464.316	1397.38
464.536	1388.38
464.755	1404.38
464.975	1355.38
465.195	1306.38
465.414	1234.38
465.634	1227.38
465.854	1230.38
466.073	1202.38
466.293	1164.38
466.512	1185.38
466.732	1129.38
466.951	1149.38
467.171	1140.38
467.391	1116.38
467.61	1143.38
467.829	1136.38
468.049	1147.38
468.268	1112.38
468.488	1128.38
468.707	1117.38
468.927	1154.38
469.146	1116.38
469.365	1156.38
469.585	1136.38
469.804	1150.38
470.023	1129.38
470.243	1129.38
470.462	1155.38
470.681	1157.38
470.901	1176.38
471.12	1150.38
471.339	1154.38
471.558	1155.38
471.777	1120.38
471.997	1142.38
472.216	1138.38
472.435	1163.38
472.654	1129.38
472.873	1128.38
473.092	1097.38
473.311	1121.38
473.53	1129.38
473.749	1125.38
473.968	1121.38
474.187	1122.38
474.406	1119.38
474.625	1126.38
474.844	1111.38
475.063	1166.38
475.282	1131.38
475.501	1148.38
475.72	1158.38
475.939	1155.38
476.158	1180.38
476.377	1201.38
476.596	1236.38
476.814	1247.38
477.033	1222.38
477.252	1209.38
477.471	1238.38
477.69	1258.38
477.908	1282.38
478.127	1295.38
478.346	1262.38
478.564	1292.38
478.783	1286.38
479.002	1342.38
479.22	1360.38
479.439	1394.38
479.658	1348.38
479.876	1375.38
480.095	1372.38
480.313	1410.38
480.532	1336.38
480.751	1352.38
480.969	1382.38
481.188	1353.38
481.406	1373.38
481.624	1392.38
481.843	1332.38
482.061	1358.38
482.28	1331.38
482.498	1337.38
482.717	1351.38
482.935	1366.38
483.153	1337.38
483.372	1313.38
483.59	1338.38
483.808	1360.38
484.027	1324.38
484.245	1374.38
484.463	1351.38
484.681	1361.38
484.9	1362.38
485.118	1375.38
485.336	1346.38
485.554	1370.38
485.772	1394.38
485.99	1379.38
486.209	1384.38
486.427	1380.38
486.645	1388.38
486.863	1391.38
487.081	1353.38
487.299	1362.38
487.517	1403.38
487.735	1371.38
487.953	1414.38
488.171	1419.38
488.389	1388.38
488.607	1364.38
488.825	1390.38
489.043	1357.38
489.261	1369.38
489.479	1364.38
489.696	1362.38
489.914	1368.38
490.132	1370.38
490.35	1402.38
490.568	1398.38
490.786	1384.38
491.003	1366.38
491.221	1383.38
491.439	1406.38
491.657	1422.38
491.874	1418.38
492.092	1426.38
492.31	1451.38
492.527	1426.38
492.745	1468.38
492.963	1407.38
493.18	1456.38
493.398	1429.38
493.615	1438.38
493.833	1428.38
494.05	1433.38
494.268	1404.38
494.485	1426.38
494.703	1432.38
494.92	1439.38
495.138	1436.38
495.355	1460.38
495.573	1436.38
495.79	1476.38
496.008	1509.38
496.225	1489.38
496.442	1507.38
496.66	1527.38
496.877	1542.38
497.094	1571.38
497.312	1588.38
497.529	1603.38
497.746	1651.38
497.963	1643.38
498.181	1687.38
498.398	1746.38
498.615	1838.38
498.832	1899.38
499.049	1960.38
499.267	2002.38
499.484	2130.38
499.701	2232.38
499.918	2337.38
500.135	2442.38
500.352	2576.38
500.569	2641.38
500.786	2613.38
501.003	2576.38
501.22	2470.38
501.437	2331.38
501.654	2194.38
501.871	2086.38
502.088	2004.38
502.305	1963.38
502.522	1881.38
502.739	1850.38
502.956	1777.38
503.172	1725.38
503.389	1662.38
503.606	1609.38
503.823	1627.38
504.04	1547.38
504.256	1555.38
504.473	1523.38
504.69	1551.38
504.907	1502.38
505.123	1516.38
505.34	1437.38
505.557	1444.38
505.773	1409.38
505.99	1369.38
506.207	1345.38
506.423	1329.38
506.64	1324.38
506.856	1282.38
507.073	1265.38
507.289	1243.38
507.506	1248.38
507.722	1264.38
507.939	1249.38
508.155	1256.38
508.372	1225.38
508.588	1227.38
508.805	1207.38
509.021	1203.38
509.238	1188.38
509.454	1179.38
509.67	1159.38
509.887	1176.38
510.103	1168.38
510.319	1158.38
510.536	1144.38
510.752	1130.38
510.968	1105.38
511.184	1140.38
511.401	1146.38
511.617	1111.38
511.833	1117.38
512.049	1121.38
512.265	1112.38
512.481	1131.38
512.698	1127.38
512.914	1131.38
513.13	1149.38
513.346	1118.38
513.562	1101.38
513.778	1106.38
513.994	1148.38
514.21	1161.38
514.426	1150.38
514.642	1153.38
514.858	1128.38
515.074	1136.38
515.29	1137.38
515.506	1152.38
515.721	1171.38
515.937	1174.38
516.153	1184.38
516.369	1213.38
516.585	1191.38
516.801	1212.38
517.016	1279.38
517.232	1271.38
517.448	1310.38
517.664	1297.38
517.879	1321.38
518.095	1299.38
518.311	1335.38
518.527	1254.38
518.742	1280.38
518.958	1235.38
519.173	1229.38
519.389	1204.38
519.605	1197.38
519.82	1177.38
520.036	1184.38
520.251	1180.38
520.467	1150.38
520.682	1115.38
520.898	1095.38
521.113	1107.38
521.329	1082.38
521.544	1081.38
521.76	1066.38
521.975	1061.38
522.19	1059.38
522.406	1047.38
522.621	1081.38
522.836	1082.38
523.052	1057.38
523.267	1005.38
523.482	1056.38
523.698	1034.38
523.913	1038.38
524.128	1056.38
524.343	1030.38
524.559	1024.38
524.774	1021.38
524.989	979.38
525.204	1005.38
525.419	1024.38
525.634	1013.38
525.849	1015.38
526.064	1027.38
526.28	997.38
526.495	1004.38
526.71	1020.38
526.925	999.38
527.14	1015.38
527.355	993.38
527.57	982.38
527.785	996.38
527.999	1002.38
528.214	981.38
528.429	1006.38
528.644	971.38
528.859	998.38
529.074	964.38
529.289	1013.38
529.503	962.38
529.718	997.38
529.933	969.38
530.148	951.38
530.363	990.38
530.577	946.38
530.792	987.38
531.007	980.38
531.221	966.38
531.436	987.38
531.651	945.38
531.865	936.38
532.08	969.38
532.295	939.38
532.509	958.38
532.724	929.38
532.938	964.38
533.153	983.38
533.367	953.38
533.582	946.38
533.796	946.38
534.011	926.38
534.225	938.38
534.44	925.38
534.654	930.38
534.868	929.38
535.083	928.38
535.297	918.38
535.511	910.38
535.726	915.38
535.94	914.38
536.154	912.38
536.369	894.38
536.583	909.38
536.797	898.38
537.011	905.38
537.225	911.38
537.44	874.38
537.654	887.38
537.868	894.38
538.082	879.38
538.296	922.38
538.51	895.38
538.724	904.38
538.938	916.38
539.153	892.38
539.367	899.38
539.581	873.38
539.795	869.38
540.009	892.38
540.222	878.38
540.436	879.38
540.65	878.38
540.864	856.38
541.078	892.38
541.292	878.38
541.506	856.38
541.72	892.38
541.934	900.38
542.147	875.38
542.361	890.38
542.575	872.38
542.789	859.38
543.002	878.38
543.216	863.38
543.43	837.38
543.644	843.38
543.857	870.38
544.071	871.38
544.285	884.38
544.498	866.38
544.712	869.38
544.925	857.38
545.139	886.38
545.352	871.38
545.566	886.38
545.779	873.38
545.993	914.38
546.206	890.38
546.42	873.38
546.633	864.38
546.847	882.38
547.06	856.38
547.274	874.38
547.487	898.38
547.7	880.38
547.914	881.38
548.127	894.38
548.34	879.38
548.554	874.38
548.767	865.38
548.98	888.38
549.193	892.38
549.407	881.38
549.62	896.38
549.833	879.38
550.046	908.38
550.259	891.38
550.473	860.38
550.686	874.38
550.899	887.38
551.112	873.38
551.325	853.38
551.538	887.38
551.751	851.38
551.964	912.38
552.177	880.38
552.39	853.38
552.603	888.38
552.816	875.38
553.029	882.38
553.242	878.38
553.455	897.38
553.667	872.38
553.88	888.38
554.093	852.38
554.306	854.38
554.519	842.38
554.732	846.38
554.944	840.38
555.157	803.38
555.37	830.38
555.583	796.38
555.795	814.38
556.008	784.38
556.221	790.38
556.433	778.38
556.646	806.38
556.859	740.38
557.071	754.38
557.284	758.38
557.496	787.38
557.709	770.38
557.921	769.38
558.134	740.38
558.346	766.38
558.559	747.38
558.771	741.38
558.984	738.38
559.196	724.38
559.409	739.38
559.621	746.38
559.833	732.38
560.046	742.38
560.258	742.38
560.47	733.38
560.683	730.38
560.895	718.38
561.107	719.38
561.32	710.38
561.532	757.38
561.744	737.38
561.956	754.38
562.168	737.38
562.381	738.38
562.593	737.38
562.805	770.38
563.017	742.38
563.229	743.38
563.441	746.38
563.653	752.38
563.865	734.38
564.077	742.38
564.289	739.38
564.501	760.38
564.713	803.38
564.925	778.38
565.137	805.38
565.349	826.38
565.561	820.38
565.773	843.38
565.985	849.38
566.197	856.38
566.408	893.38
566.62	935.38
566.832	920.38
567.044	962.38
567.255	968.38
567.467	983.38
567.679	968.38
567.891	991.38
568.102	1010.38
568.314	973.38
568.526	922.38
568.737	912.38
568.949	862.38
569.161	845.38
569.372	811.38
569.584	801.38
569.795	761.38
570.007	741.38
570.218	739.38
570.43	716.38
570.641	714.38
570.853	712.38
571.064	688.38
571.276	688.38
571.487	683.38
571.698	698.38
571.91	675.38
572.121	652.38
572.333	646.38
572.544	651.38
572.755	638.38
572.966	640.38
573.178	611.38
573.389	612.38
573.6	586.38
573.811	599.38
574.023	596.38
574.234	617.38
574.445	626.38
574.656	590.38
574.867	569.38
575.078	574.38
575.289	578.38
575.501	553.38
575.712	568.38
575.923	565.38
576.134	544.38
576.345	584.38
576.556	566.38
576.767	554.38
576.978	564.38
577.188	550.38
577.399	553.38
577.61	558.38
577.821	539.38
578.032	565.38
578.243	561.38
578.454	551.38
578.665	535.38
578.875	548.38
579.086	528.38
579.297	549.38
579.508	524.38
579.718	536.38
579.929	545.38
580.14	531.38
580.35	532.38
580.561	522.38
580.772	517.38
580.982	522.38
581.193	489.38
581.403	507.38
581.614	542.38
581.825	506.38
582.035	491.38
582.246	490.38
582.456	516.38
582.667	510.38
582.877	495.38
583.087	506.38
583.298	478.38
583.508	488.38
583.719	492.38
583.929	498.38
584.139	498.38
584.35	492.38
584.56	507.38
584.77	471.38
584.981	484.38
585.191	484.38
585.401	495.38
585.611	494.38
585.821	483.38
586.032	471.38
586.242	484.38
586.452	466.38
586.662	479.38
586.872	476.38
587.082	466.38
587.292	469.38
587.502	480.38
587.713	480.38
587.923	469.38
588.133	480.38
588.343	481.38
588.553	503.38
588.762	451.38
588.972	484.38
589.182	508.38
589.392	479.38
589.602	478.38
589.812	490.38
590.022	497.38
590.232	474.38
590.441	464.38
590.651	444.38
590.861	471.38
591.071	446.38
591.281	470.38
591.49	486.38
591.7	500.38
591.91	498.38
592.119	480.38
592.329	485.38
592.539	483.38
592.748	511.38
592.958	503.38
593.167	503.38
593.377	523.38
593.587	516.38
593.796	523.38
594.006	523.38
594.215	536.38
594.424	518.38
594.634	500.38
594.843	504.38
595.053	504.38
595.262	488.38
595.472	475.38
595.681	466.38
595.89	477.38
596.1	476.38
596.309	435.38
596.518	470.38
596.727	442.38
596.937	445.38
597.146	450.38
597.355	432.38
597.564	443.38
597.774	419.38
597.983	414.38
598.192	430.38
598.401	419.38
598.61	432.38
598.819	402.38
599.028	411.38
599.237	403.38
599.446	411.38
599.655	403.38
599.864	402.38
600.073	392.38
600.282	415.38
600.491	396.38
600.7	396.38
600.909	386.38
601.118	397.38
601.327	390.38
601.536	386.38
601.745	403.38
601.953	405.38
602.162	391.38
602.371	373.38
602.58	372.38
602.789	386.38
602.997	363.38
603.206	379.38
603.415	378.38
603.623	374.38
603.832	356.38
604.041	360.38
604.249	369.38
604.458	382.38
604.666	376.38
604.875	361.38
605.084	360.38
605.292	356.38
605.501	354.38
605.709	361.38
605.918	376.38
606.126	361.38
606.334	369.38
606.543	352.38
606.751	388.38
606.96	380.38
607.168	357.38
607.376	359.38
607.585	360.38
607.793	362.38
608.001	362.38
608.21	367.38
608.418	376.38
608.626	348.38
608.834	356.38
609.043	373.38
609.251	359.38
609.459	366.38
609.667	368.38
609.875	355.38
610.083	345.38
610.291	344.38
610.499	340.38
610.707	351.38
610.916	344.38
611.124	352.38
611.332	343.38
611.54	338.38
611.748	346.38
611.955	349.38
612.163	350.38
612.371	349.38
612.579	340.38
612.787	342.38
612.995	366.38
613.203	345.38
613.411	340.38
613.618	331.38
613.826	329.38
614.034	343.38
614.242	327.38
614.449	338.38
614.657	331.38
614.865	325.38
615.072	328.38
615.28	332.38
615.488	317.38
615.695	349.38
615.903	361.38
616.111	328.38
616.318	346.38
616.526	323.38
616.733	331.38
616.941	316.38
617.148	330.38
617.356	322.38
617.563	333.38
617.771	315.38
617.978	324.38
618.185	328.38
618.393	324.38
618.6	340.38
618.807	332.38
619.015	334.38
619.222	320.38
619.429	304.38
619.637	319.38
619.844	318.38
620.051	319.38
620.258	298.38
620.466	326.38
620.673	314.38
620.88	298.38
621.087	326.38
621.294	315.38
621.501	307.38
621.708	292.38
621.915	294.38
622.122	309.38
622.329	310.38
622.536	329.38
622.743	288.38
622.95	305.38
623.157	302.38
623.364	308.38
623.571	327.38
623.778	311.38
623.985	310.38
624.192	296.38
624.399	304.38
624.606	306.38
624.812	297.38
625.019	289.38
625.226	303.38
625.433	305.38
625.639	293.38
625.846	271.38
626.053	295.38
626.259	297.38
626.466	297.38
626.673	281.38
626.879	277.38
627.086	300.38
627.293	292.38
627.499	317.38
627.706	298.38
627.912	281.38
628.119	288.38
628.325	290.38
628.532	297.38
628.738	280.38
628.945	290.38
629.151	278.38
629.357	288.38
629.564	272.38
629.77	282.38
629.976	278.38
630.183	265.38
630.389	260.38
630.595	282.38
630.802	288.38
631.008	287.38
631.214	279.38
631.42	274.38
631.627	267.38
631.833	273.38
632.039	265.38
632.245	286.38
632.451	268.38
632.657	256.38
632.863	256.38
633.069	269.38
633.275	281.38
633.481	259.38
633.688	260.38
633.893	265.38
634.099	261.38
634.305	279.38
634.511	268.38
634.717	265.38
634.923	255.38
635.129	250.38
635.335	254.38
635.541	251.38
635.747	260.38
635.952	258.38
636.158	261.38
636.364	256.38
636.57	266.38
636.775	265.38
636.981	239.38
637.187	247.38
637.392	239.38
637.598	283.38
637.804	241.38
638.009	253.38
638.215	239.38
638.421	229.38
638.626	246.38
638.832	260.38
639.037	236.38
639.243	245.38
639.448	258.38
639.654	240.38
639.859	256.38
640.065	226.38
640.27	249.38
640.475	241.38
640.681	244.38
640.886	239.38
641.091	262.38
641.297	242.38
641.502	241.38
641.707	257.38
641.913	248.38
642.118	248.38
642.323	246.38
642.528	256.38
642.733	242.38
642.939	238.38
643.144	229.38
643.349	245.38
643.554	264.38
643.759	249.38
643.964	247.38
644.169	265.38
644.374	232.38
644.579	258.38
644.784	242.38
644.989	242.38
645.194	242.38
645.399	248.38
645.604	247.38
645.809	248.38
646.014	251.38
646.219	245.38
646.423	255.38
646.628	228.38
646.833	231.38
647.038	243.38
647.243	240.38
647.447	229.38
647.652	242.38
647.857	236.38
648.062	258.38
648.266	248.38
648.471	252.38
648.676	263.38
648.88	250.38
649.085	246.38
649.289	264.38
649.494	256.38
649.698	280.38
649.903	238.38
650.107	239.38
650.312	252.38
650.516	255.38
650.721	228.38
650.925	227.38
651.13	243.38
651.334	235.38
651.539	233.38
651.743	245.38
651.947	238.38
652.152	239.38
652.356	226.38
652.56	232.38
652.764	222.38
652.969	222.38
653.173	239.38
653.377	229.38
653.581	230.38
653.785	230.38
653.99	240.38
654.194	247.38
654.398	245.38
654.602	225.38
654.806	217.38
655.01	241.38
655.214	231.38
655.418	233.38
655.622	237.38
655.826	240.38
656.03	252.38
656.234	242.38
656.438	228.38
656.642	238.38
656.846	233.38
657.049	212.38
657.253	210.38
657.457	211.38
657.661	210.38
657.865	186.38
658.068	172.38
658.272	156.38
658.476	155.38
658.68	141.38
658.883	150.38
659.087	128.38
659.291	124.38
659.494	123.38
659.698	128.38
659.901	135.38
660.105	118.38
660.309	119.38
660.512	126.38
660.716	126.38
660.919	128.38
661.123	102.38
661.326	96.38
661.53	101.38
661.733	96.38
661.936	97.38
662.14	102.38
662.343	100.38
662.546	76.38
662.75	70.38
662.953	99.38
663.156	88.38
663.36	80.38
663.563	71.38
663.766	95.38
663.969	101.38
664.173	84.38
664.376	75.38
664.579	88.38
664.782	85.38
664.985	82.38
665.188	66.38
665.391	79.38
665.594	82.38
665.797	80.38
666	79.38
666.203	80.38
666.406	87.38
666.609	82.38
666.812	85.38
667.015	82.38
667.218	71.38
667.421	82.38
667.624	80.38
667.827	83.38
668.03	85.38
668.232	81.38
668.435	80.38
668.638	79.38
668.841	91.38
669.043	86.38
669.246	77.38
669.449	82.38
669.651	82.38
669.854	86.38
670.057	87.38
670.259	80.38
670.462	95.38
670.665	96.38
670.867	84.38
671.07	83.38
671.272	80.38
671.475	72.38
671.677	88.38
671.88	89.38
672.082	86.38
672.284	84.38
672.487	81.38
672.689	82.38
672.892	84.38
