Data from Fe(NO3)3@0.025M.TitratingCurve.Agarose3%dH2O.NegLispCup.LampEnergy10.LIBS07252019_HRD10591_16-56-08-336.txt Node
Date: Thu Jul 25 16:56:08 EDT 2019
User: cochatt
Spectrometer: HR+D1059
Trigger mode: 1
Integration Time (sec): 1.000000E-1
Scans to average: 1
Electric dark correction enabled: true
Nonlinearity correction enabled: false
Boxcar width: 0
XAxis mode: Wavelengths
Number of Pixels in Spectrum: 2048
>>>>>Begin Spectral Data<<<<<
223.165	-13.12
223.4	-13.12
223.635	-13.12
223.869	-14.12
224.104	-24.12
224.338	-17.12
224.573	-17.12
224.808	-17.12
225.042	-5.12
225.277	-8.12
225.511	-0.12
225.746	1.88
225.98	2.88
226.215	11.88
226.449	13.88
226.683	19.88
226.918	30.88
227.152	34.88
227.387	25.88
227.621	35.88
227.856	38.88
228.09	39.88
228.324	51.88
228.559	51.88
228.793	62.88
229.027	60.88
229.262	62.88
229.496	69.88
229.73	68.88
229.964	93.88
230.199	88.88
230.433	81.88
230.667	85.88
230.901	100.88
231.136	75.88
231.37	86.88
231.604	87.88
231.838	76.88
232.072	84.88
232.306	97.88
232.541	84.88
232.775	86.88
233.009	93.88
233.243	77.88
233.477	94.88
233.711	94.88
233.945	84.88
234.179	90.88
234.413	102.88
234.647	98.88
234.881	85.88
235.115	100.88
235.349	74.88
235.583	87.88
235.817	81.88
236.051	100.88
236.285	79.88
236.519	85.88
236.753	95.88
236.987	89.88
237.221	82.88
237.455	89.88
237.689	83.88
237.922	91.88
238.156	86.88
238.39	85.88
238.624	93.88
238.858	99.88
239.091	86.88
239.325	84.88
239.559	88.88
239.793	95.88
240.027	100.88
240.26	75.88
240.494	97.88
240.728	90.88
240.961	90.88
241.195	81.88
241.429	95.88
241.662	99.88
241.896	103.88
242.13	96.88
242.363	85.88
242.597	99.88
242.83	90.88
243.064	99.88
243.298	86.88
243.531	96.88
243.765	101.88
243.998	101.88
244.232	85.88
244.465	101.88
244.699	84.88
244.932	115.88
245.166	101.88
245.399	105.88
245.633	106.88
245.866	101.88
246.099	97.88
246.333	106.88
246.566	102.88
246.8	101.88
247.033	103.88
247.266	103.88
247.5	90.88
247.733	102.88
247.966	106.88
248.2	90.88
248.433	83.88
248.666	106.88
248.899	107.88
249.133	95.88
249.366	122.88
249.599	109.88
249.832	97.88
250.066	95.88
250.299	106.88
250.532	116.88
250.765	109.88
250.998	99.88
251.231	110.88
251.465	85.88
251.698	107.88
251.931	113.88
252.164	107.88
252.397	121.88
252.63	105.88
252.863	111.88
253.096	103.88
253.329	124.88
253.562	130.88
253.795	110.88
254.028	111.88
254.261	84.88
254.494	116.88
254.727	127.88
254.96	118.88
255.193	114.88
255.426	109.88
255.659	111.88
255.892	115.88
256.124	116.88
256.357	108.88
256.59	118.88
256.823	101.88
257.056	115.88
257.289	111.88
257.521	127.88
257.754	117.88
257.987	128.88
258.22	113.88
258.452	125.88
258.685	114.88
258.918	125.88
259.151	119.88
259.383	133.88
259.616	125.88
259.849	112.88
260.081	129.88
260.314	123.88
260.547	115.88
260.779	134.88
261.012	119.88
261.244	117.88
261.477	127.88
261.71	113.88
261.942	115.88
262.175	120.88
262.407	127.88
262.64	125.88
262.872	113.88
263.105	135.88
263.337	125.88
263.57	129.88
263.802	121.88
264.035	139.88
264.267	132.88
264.499	136.88
264.732	137.88
264.964	136.88
265.197	138.88
265.429	125.88
265.661	136.88
265.894	135.88
266.126	133.88
266.358	126.88
266.591	131.88
266.823	133.88
267.055	133.88
267.287	121.88
267.52	127.88
267.752	134.88
267.984	129.88
268.216	139.88
268.448	137.88
268.681	143.88
268.913	141.88
269.145	139.88
269.377	137.88
269.609	154.88
269.841	153.88
270.073	154.88
270.306	127.88
270.538	148.88
270.77	147.88
271.002	137.88
271.234	137.88
271.466	134.88
271.698	147.88
271.93	139.88
272.162	148.88
272.394	135.88
272.626	136.88
272.858	149.88
273.09	134.88
273.322	161.88
273.553	155.88
273.785	152.88
274.017	154.88
274.249	154.88
274.481	154.88
274.713	142.88
274.945	151.88
275.176	158.88
275.408	164.88
275.64	173.88
275.872	154.88
276.104	148.88
276.335	159.88
276.567	166.88
276.799	143.88
277.031	155.88
277.262	157.88
277.494	146.88
277.726	162.88
277.957	163.88
278.189	150.88
278.421	175.88
278.652	153.88
278.884	159.88
279.115	164.88
279.347	154.88
279.579	166.88
279.81	167.88
280.042	174.88
280.273	153.88
280.505	154.88
280.736	174.88
280.968	148.88
281.199	165.88
281.431	163.88
281.662	169.88
281.894	192.88
282.125	151.88
282.356	164.88
282.588	169.88
282.819	175.88
283.051	172.88
283.282	163.88
283.513	173.88
283.745	177.88
283.976	159.88
284.207	181.88
284.439	166.88
284.67	183.88
284.901	177.88
285.132	175.88
285.364	179.88
285.595	182.88
285.826	168.88
286.057	177.88
286.288	167.88
286.52	169.88
286.751	173.88
286.982	174.88
287.213	188.88
287.444	157.88
287.675	173.88
287.906	182.88
288.138	169.88
288.369	180.88
288.6	179.88
288.831	183.88
289.062	180.88
289.293	196.88
289.524	185.88
289.755	189.88
289.986	176.88
290.217	194.88
290.448	177.88
290.679	166.88
290.91	177.88
291.141	191.88
291.371	189.88
291.602	191.88
291.833	194.88
292.064	192.88
292.295	179.88
292.526	178.88
292.757	192.88
292.987	182.88
293.218	188.88
293.449	172.88
293.68	178.88
293.91	188.88
294.141	186.88
294.372	183.88
294.603	182.88
294.833	187.88
295.064	191.88
295.295	190.88
295.525	178.88
295.756	185.88
295.987	193.88
296.217	198.88
296.448	180.88
296.679	196.88
296.909	198.88
297.14	213.88
297.37	210.88
297.601	210.88
297.831	198.88
298.062	210.88
298.292	195.88
298.523	201.88
298.753	195.88
298.984	214.88
299.214	201.88
299.445	205.88
299.675	205.88
299.905	199.88
300.136	212.88
300.366	211.88
300.597	214.88
300.827	193.88
301.057	203.88
301.288	204.88
301.518	198.88
301.748	200.88
301.979	206.88
302.209	202.88
302.439	209.88
302.669	220.88
302.9	221.88
303.13	201.88
303.36	205.88
303.59	212.88
303.82	231.88
304.051	211.88
304.281	202.88
304.511	227.88
304.741	220.88
304.971	190.88
305.201	228.88
305.431	212.88
305.661	198.88
305.891	209.88
306.121	204.88
306.352	229.88
306.582	212.88
306.812	198.88
307.042	216.88
307.272	215.88
307.502	206.88
307.731	219.88
307.961	204.88
308.191	218.88
308.421	217.88
308.651	203.88
308.881	222.88
309.111	218.88
309.341	210.88
309.571	219.88
309.8	213.88
310.03	210.88
310.26	218.88
310.49	214.88
310.72	213.88
310.949	212.88
311.179	236.88
311.409	228.88
311.639	230.88
311.868	213.88
312.098	226.88
312.328	229.88
312.557	231.88
312.787	234.88
313.017	235.88
313.246	239.88
313.476	230.88
313.706	229.88
313.935	217.88
314.165	239.88
314.394	231.88
314.624	218.88
314.853	231.88
315.083	226.88
315.312	222.88
315.542	226.88
315.771	229.88
316.001	235.88
316.23	224.88
316.46	237.88
316.689	240.88
316.919	244.88
317.148	222.88
317.377	237.88
317.607	242.88
317.836	241.88
318.065	227.88
318.295	211.88
318.524	224.88
318.753	240.88
318.983	229.88
319.212	233.88
319.441	237.88
319.67	239.88
319.9	227.88
320.129	225.88
320.358	234.88
320.587	234.88
320.816	259.88
321.046	249.88
321.275	246.88
321.504	223.88
321.733	237.88
321.962	247.88
322.191	239.88
322.42	249.88
322.649	241.88
322.878	227.88
323.108	249.88
323.337	253.88
323.566	252.88
323.795	249.88
324.024	258.88
324.253	249.88
324.482	239.88
324.71	251.88
324.939	248.88
325.168	262.88
325.397	255.88
325.626	255.88
325.855	244.88
326.084	237.88
326.313	259.88
326.542	255.88
326.77	261.88
326.999	250.88
327.228	257.88
327.457	257.88
327.686	258.88
327.914	255.88
328.143	255.88
328.372	261.88
328.6	263.88
328.829	263.88
329.058	263.88
329.287	261.88
329.515	268.88
329.744	254.88
329.972	264.88
330.201	255.88
330.43	272.88
330.658	270.88
330.887	261.88
331.115	268.88
331.344	269.88
331.572	274.88
331.801	261.88
332.03	297.88
332.258	283.88
332.486	271.88
332.715	267.88
332.943	290.88
333.172	294.88
333.4	305.88
333.629	303.88
333.857	270.88
334.085	297.88
334.314	320.88
334.542	307.88
334.771	305.88
334.999	313.88
335.227	305.88
335.455	312.88
335.684	318.88
335.912	294.88
336.14	306.88
336.369	284.88
336.597	288.88
336.825	304.88
337.053	298.88
337.281	307.88
337.51	293.88
337.738	306.88
337.966	285.88
338.194	291.88
338.422	273.88
338.65	284.88
338.878	289.88
339.106	279.88
339.334	276.88
339.562	273.88
339.79	286.88
340.018	279.88
340.246	277.88
340.474	285.88
340.702	258.88
340.93	278.88
341.158	279.88
341.386	280.88
341.614	281.88
341.842	285.88
342.07	270.88
342.298	266.88
342.526	293.88
342.754	283.88
342.981	268.88
343.209	285.88
343.437	306.88
343.665	288.88
343.893	313.88
344.12	319.88
344.348	286.88
344.576	286.88
344.804	283.88
345.031	302.88
345.259	277.88
345.487	261.88
345.714	275.88
345.942	265.88
346.17	285.88
346.397	275.88
346.625	289.88
346.853	275.88
347.08	276.88
347.308	278.88
347.535	275.88
347.763	266.88
347.99	261.88
348.218	273.88
348.445	261.88
348.673	255.88
348.9	292.88
349.128	287.88
349.355	276.88
349.583	266.88
349.81	270.88
350.037	270.88
350.265	255.88
350.492	275.88
350.72	270.88
350.947	274.88
351.174	261.88
351.402	265.88
351.629	262.88
351.856	278.88
352.083	273.88
352.311	263.88
352.538	285.88
352.765	277.88
352.992	269.88
353.22	260.88
353.447	245.88
353.674	272.88
353.901	270.88
354.128	284.88
354.355	262.88
354.583	271.88
354.81	261.88
355.037	281.88
355.264	278.88
355.491	273.88
355.718	268.88
355.945	258.88
356.172	264.88
356.399	252.88
356.626	266.88
356.853	294.88
357.08	268.88
357.307	266.88
357.534	283.88
357.761	266.88
357.988	271.88
358.215	299.88
358.441	270.88
358.668	269.88
358.895	280.88
359.122	258.88
359.349	270.88
359.576	290.88
359.802	277.88
360.029	277.88
360.256	266.88
360.483	256.88
360.709	265.88
360.936	285.88
361.163	279.88
361.39	269.88
361.616	297.88
361.843	282.88
362.07	262.88
362.296	265.88
362.523	273.88
362.749	267.88
362.976	270.88
363.203	289.88
363.429	284.88
363.656	261.88
363.882	276.88
364.109	295.88
364.335	290.88
364.562	285.88
364.788	280.88
365.015	281.88
365.241	277.88
365.468	267.88
365.694	273.88
365.92	259.88
366.147	277.88
366.373	273.88
366.599	282.88
366.826	271.88
367.052	281.88
367.278	283.88
367.505	281.88
367.731	282.88
367.957	291.88
368.184	278.88
368.41	265.88
368.636	301.88
368.862	293.88
369.089	283.88
369.315	288.88
369.541	279.88
369.767	297.88
369.993	273.88
370.219	283.88
370.445	275.88
370.672	289.88
370.898	288.88
371.124	298.88
371.35	316.88
371.576	299.88
371.802	300.88
372.028	296.88
372.254	291.88
372.48	319.88
372.706	303.88
372.932	309.88
373.158	297.88
373.384	304.88
373.61	312.88
373.835	286.88
374.061	305.88
374.287	295.88
374.513	310.88
374.739	318.88
374.965	319.88
375.191	316.88
375.416	316.88
375.642	309.88
375.868	310.88
376.094	295.88
376.319	305.88
376.545	307.88
376.771	326.88
376.997	288.88
377.222	299.88
377.448	314.88
377.674	308.88
377.899	307.88
378.125	309.88
378.35	301.88
378.576	286.88
378.802	297.88
379.027	288.88
379.253	285.88
379.478	304.88
379.704	281.88
379.929	290.88
380.155	281.88
380.38	299.88
380.606	294.88
380.831	295.88
381.057	310.88
381.282	302.88
381.507	288.88
381.733	301.88
381.958	303.88
382.184	298.88
382.409	309.88
382.634	297.88
382.86	324.88
383.085	325.88
383.31	301.88
383.535	331.88
383.761	313.88
383.986	322.88
384.211	318.88
384.436	338.88
384.662	324.88
384.887	333.88
385.112	332.88
385.337	319.88
385.562	322.88
385.787	345.88
386.013	353.88
386.238	335.88
386.463	349.88
386.688	340.88
386.913	330.88
387.138	336.88
387.363	328.88
387.588	348.88
387.813	333.88
388.038	328.88
388.263	344.88
388.488	338.88
388.713	350.88
388.938	334.88
389.163	341.88
389.387	338.88
389.612	319.88
389.837	333.88
390.062	337.88
390.287	371.88
390.512	354.88
390.736	335.88
390.961	346.88
391.186	361.88
391.411	346.88
391.636	344.88
391.86	357.88
392.085	365.88
392.31	373.88
392.534	361.88
392.759	379.88
392.984	345.88
393.208	359.88
393.433	342.88
393.658	356.88
393.882	363.88
394.107	373.88
394.331	364.88
394.556	359.88
394.78	355.88
395.005	366.88
395.229	349.88
395.454	357.88
395.678	373.88
395.903	369.88
396.127	383.88
396.352	356.88
396.576	370.88
396.801	389.88
397.025	364.88
397.249	366.88
397.474	386.88
397.698	399.88
397.922	402.88
398.147	399.88
398.371	404.88
398.595	425.88
398.82	438.88
399.044	436.88
399.268	476.88
399.492	476.88
399.717	529.88
399.941	483.88
400.165	479.88
400.389	448.88
400.613	445.88
400.837	430.88
401.062	439.88
401.286	419.88
401.51	397.88
401.734	389.88
401.958	407.88
402.182	400.88
402.406	398.88
402.63	425.88
402.854	412.88
403.078	413.88
403.302	434.88
403.526	429.88
403.75	415.88
403.974	443.88
404.198	409.88
404.422	431.88
404.645	430.88
404.869	432.88
405.093	418.88
405.317	424.88
405.541	421.88
405.765	426.88
405.988	416.88
406.212	429.88
406.436	450.88
406.66	444.88
406.883	460.88
407.107	460.88
407.331	463.88
407.555	466.88
407.778	447.88
408.002	478.88
408.226	466.88
408.449	460.88
408.673	439.88
408.896	433.88
409.12	452.88
409.344	443.88
409.567	407.88
409.791	413.88
410.014	443.88
410.238	429.88
410.461	419.88
410.685	431.88
410.908	422.88
411.132	423.88
411.355	397.88
411.578	431.88
411.802	413.88
412.025	397.88
412.249	426.88
412.472	407.88
412.695	428.88
412.919	414.88
413.142	421.88
413.365	414.88
413.589	413.88
413.812	405.88
414.035	402.88
414.258	401.88
414.482	401.88
414.705	397.88
414.928	402.88
415.151	407.88
415.374	399.88
415.597	385.88
415.821	383.88
416.044	396.88
416.267	395.88
416.49	381.88
416.713	402.88
416.936	390.88
417.159	401.88
417.382	392.88
417.605	379.88
417.828	395.88
418.051	400.88
418.274	404.88
418.497	412.88
418.72	400.88
418.943	382.88
419.166	421.88
419.389	430.88
419.611	403.88
419.834	406.88
420.057	407.88
420.28	401.88
420.503	394.88
420.726	400.88
420.948	387.88
421.171	413.88
421.394	387.88
421.617	407.88
421.839	381.88
422.062	397.88
422.285	392.88
422.507	397.88
422.73	390.88
422.953	388.88
423.175	398.88
423.398	395.88
423.621	389.88
423.843	379.88
424.066	404.88
424.288	397.88
424.511	416.88
424.733	384.88
424.956	389.88
425.178	386.88
425.401	383.88
425.623	391.88
425.846	378.88
426.068	389.88
426.291	369.88
426.513	363.88
426.735	370.88
426.958	368.88
427.18	373.88
427.402	367.88
427.625	373.88
427.847	359.88
428.069	370.88
428.292	355.88
428.514	367.88
428.736	371.88
428.958	352.88
429.181	342.88
429.403	344.88
429.625	357.88
429.847	339.88
430.069	367.88
430.292	369.88
430.514	357.88
430.736	366.88
430.958	365.88
431.18	354.88
431.402	362.88
431.624	366.88
431.846	366.88
432.068	353.88
432.29	364.88
432.512	361.88
432.734	373.88
432.956	373.88
433.178	367.88
433.4	356.88
433.622	391.88
433.844	374.88
434.066	367.88
434.287	382.88
434.509	394.88
434.731	377.88
434.953	373.88
435.175	368.88
435.397	391.88
435.618	387.88
435.84	372.88
436.062	364.88
436.284	357.88
436.505	378.88
436.727	367.88
436.949	372.88
437.17	371.88
437.392	356.88
437.614	357.88
437.835	364.88
438.057	361.88
438.278	349.88
438.5	346.88
438.721	342.88
438.943	346.88
439.165	351.88
439.386	353.88
439.608	358.88
439.829	353.88
440.05	347.88
440.272	345.88
440.493	365.88
440.715	352.88
440.936	370.88
441.158	379.88
441.379	380.88
441.6	380.88
441.822	391.88
442.043	381.88
442.264	365.88
442.486	361.88
442.707	378.88
442.928	387.88
443.149	368.88
443.371	380.88
443.592	366.88
443.813	385.88
444.034	406.88
444.255	402.88
444.476	404.88
444.698	397.88
444.919	423.88
445.14	485.88
445.361	427.88
445.582	409.88
445.803	376.88
446.024	395.88
446.245	381.88
446.466	384.88
446.687	353.88
446.908	354.88
447.129	356.88
447.35	360.88
447.571	335.88
447.792	339.88
448.013	345.88
448.234	327.88
448.455	344.88
448.675	346.88
448.896	348.88
449.117	334.88
449.338	341.88
449.559	345.88
449.779	339.88
450	334.88
450.221	335.88
450.442	334.88
450.662	338.88
450.883	329.88
451.104	333.88
451.324	302.88
451.545	318.88
451.766	333.88
451.986	334.88
452.207	323.88
452.428	331.88
452.648	336.88
452.869	314.88
453.089	321.88
453.31	321.88
453.53	331.88
453.751	331.88
453.971	317.88
454.192	322.88
454.412	307.88
454.633	299.88
454.853	314.88
455.073	322.88
455.294	323.88
455.514	311.88
455.734	313.88
455.955	319.88
456.175	315.88
456.395	315.88
456.616	325.88
456.836	319.88
457.056	321.88
457.276	334.88
457.497	336.88
457.717	324.88
457.937	347.88
458.157	330.88
458.377	334.88
458.598	351.88
458.818	319.88
459.038	356.88
459.258	355.88
459.478	359.88
459.698	361.88
459.918	377.88
460.138	378.88
460.358	381.88
460.578	391.88
460.798	393.88
461.018	408.88
461.238	401.88
461.458	409.88
461.678	403.88
461.898	397.88
462.118	428.88
462.338	435.88
462.558	428.88
462.777	454.88
462.997	448.88
463.217	475.88
463.437	512.88
463.657	469.88
463.876	453.88
464.096	460.88
464.316	439.88
464.536	438.88
464.755	425.88
464.975	441.88
465.195	414.88
465.414	376.88
465.634	373.88
465.854	383.88
466.073	362.88
466.293	371.88
466.512	365.88
466.732	349.88
466.951	335.88
467.171	354.88
467.391	362.88
467.61	349.88
467.829	349.88
468.049	331.88
468.268	358.88
468.488	339.88
468.707	333.88
468.927	346.88
469.146	339.88
469.365	366.88
469.585	359.88
469.804	344.88
470.023	373.88
470.243	351.88
470.462	361.88
470.681	346.88
470.901	353.88
471.12	355.88
471.339	355.88
471.558	377.88
471.777	334.88
471.997	346.88
472.216	353.88
472.435	330.88
472.654	345.88
472.873	355.88
473.092	349.88
473.311	324.88
473.53	338.88
473.749	359.88
473.968	365.88
474.187	351.88
474.406	349.88
474.625	362.88
474.844	326.88
475.063	339.88
475.282	346.88
475.501	366.88
475.72	354.88
475.939	361.88
476.158	359.88
476.377	366.88
476.596	352.88
476.814	383.88
477.033	368.88
477.252	382.88
477.471	373.88
477.69	393.88
477.908	386.88
478.127	395.88
478.346	389.88
478.564	391.88
478.783	411.88
479.002	404.88
479.22	405.88
479.439	399.88
479.658	429.88
479.876	427.88
480.095	417.88
480.313	431.88
480.532	436.88
480.751	415.88
480.969	405.88
481.188	415.88
481.406	421.88
481.624	414.88
481.843	395.88
482.061	395.88
482.28	392.88
482.498	422.88
482.717	409.88
482.935	413.88
483.153	390.88
483.372	404.88
483.59	385.88
483.808	398.88
484.027	413.88
484.245	389.88
484.463	398.88
484.681	421.88
484.9	417.88
485.118	411.88
485.336	393.88
485.554	403.88
485.772	409.88
485.99	436.88
486.209	407.88
486.427	425.88
486.645	409.88
486.863	404.88
487.081	404.88
487.299	414.88
487.517	381.88
487.735	421.88
487.953	403.88
488.171	399.88
488.389	403.88
488.607	420.88
488.825	403.88
489.043	395.88
489.261	400.88
489.479	400.88
489.696	407.88
489.914	422.88
490.132	405.88
490.35	414.88
490.568	415.88
490.786	402.88
491.003	408.88
491.221	412.88
491.439	410.88
491.657	399.88
491.874	427.88
492.092	415.88
492.31	420.88
492.527	413.88
492.745	422.88
492.963	418.88
493.18	412.88
493.398	425.88
493.615	429.88
493.833	438.88
494.05	436.88
494.268	438.88
494.485	423.88
494.703	426.88
494.92	442.88
495.138	440.88
495.355	423.88
495.573	433.88
495.79	433.88
496.008	442.88
496.225	454.88
496.442	441.88
496.66	455.88
496.877	470.88
497.094	461.88
497.312	461.88
497.529	480.88
497.746	469.88
497.963	492.88
498.181	509.88
498.398	549.88
498.615	569.88
498.832	574.88
499.049	612.88
499.267	624.88
499.484	679.88
499.701	701.88
499.918	730.88
500.135	798.88
500.352	838.88
500.569	864.88
500.786	843.88
501.003	823.88
501.22	784.88
501.437	743.88
501.654	693.88
501.871	648.88
502.088	635.88
502.305	579.88
502.522	588.88
502.739	562.88
502.956	531.88
503.172	539.88
503.389	485.88
503.606	473.88
503.823	496.88
504.04	490.88
504.256	482.88
504.473	489.88
504.69	461.88
504.907	483.88
505.123	452.88
505.34	444.88
505.557	433.88
505.773	450.88
505.99	410.88
506.207	406.88
506.423	409.88
506.64	390.88
506.856	396.88
507.073	397.88
507.289	378.88
507.506	404.88
507.722	370.88
507.939	392.88
508.155	406.88
508.372	388.88
508.588	376.88
508.805	369.88
509.021	373.88
509.238	374.88
509.454	361.88
509.67	377.88
509.887	368.88
510.103	361.88
510.319	343.88
510.536	367.88
510.752	365.88
510.968	342.88
511.184	375.88
511.401	351.88
511.617	382.88
511.833	353.88
512.049	354.88
512.265	357.88
512.481	368.88
512.698	348.88
512.914	336.88
513.13	342.88
513.346	369.88
513.562	350.88
513.778	356.88
513.994	382.88
514.21	364.88
514.426	368.88
514.642	346.88
514.858	371.88
515.074	359.88
515.29	374.88
515.506	367.88
515.721	362.88
515.937	369.88
516.153	381.88
516.369	401.88
516.585	413.88
516.801	405.88
517.016	395.88
517.232	417.88
517.448	422.88
517.664	434.88
517.879	425.88
518.095	425.88
518.311	427.88
518.527	413.88
518.742	400.88
518.958	392.88
519.173	394.88
519.389	388.88
519.605	374.88
519.82	372.88
520.036	364.88
520.251	364.88
520.467	365.88
520.682	349.88
520.898	345.88
521.113	376.88
521.329	341.88
521.544	342.88
521.76	349.88
521.975	371.88
522.19	346.88
522.406	346.88
522.621	348.88
522.836	349.88
523.052	342.88
523.267	320.88
523.482	342.88
523.698	328.88
523.913	316.88
524.128	333.88
524.343	317.88
524.559	326.88
524.774	315.88
524.989	326.88
525.204	338.88
525.419	330.88
525.634	333.88
525.849	323.88
526.064	326.88
526.28	311.88
526.495	338.88
526.71	325.88
526.925	323.88
527.14	316.88
527.355	318.88
527.57	345.88
527.785	335.88
527.999	331.88
528.214	329.88
528.429	309.88
528.644	324.88
528.859	328.88
529.074	314.88
529.289	322.88
529.503	321.88
529.718	336.88
529.933	326.88
530.148	314.88
530.363	339.88
530.577	318.88
530.792	326.88
531.007	332.88
531.221	329.88
531.436	311.88
531.651	340.88
531.865	333.88
532.08	314.88
532.295	348.88
532.509	309.88
532.724	321.88
532.938	316.88
533.153	318.88
533.367	313.88
533.582	325.88
533.796	322.88
534.011	317.88
534.225	313.88
534.44	304.88
534.654	319.88
534.868	319.88
535.083	329.88
535.297	321.88
535.511	299.88
535.726	300.88
535.94	314.88
536.154	303.88
536.369	313.88
536.583	299.88
536.797	308.88
537.011	307.88
537.225	313.88
537.44	317.88
537.654	324.88
537.868	313.88
538.082	317.88
538.296	301.88
538.51	298.88
538.724	321.88
538.938	304.88
539.153	300.88
539.367	297.88
539.581	278.88
539.795	296.88
540.009	305.88
540.222	286.88
540.436	301.88
540.65	286.88
540.864	289.88
541.078	305.88
541.292	305.88
541.506	304.88
541.72	323.88
541.934	323.88
542.147	319.88
542.361	306.88
542.575	285.88
542.789	291.88
543.002	280.88
543.216	291.88
543.43	302.88
543.644	291.88
543.857	284.88
544.071	297.88
544.285	301.88
544.498	278.88
544.712	291.88
544.925	301.88
545.139	306.88
545.352	301.88
545.566	300.88
545.779	317.88
545.993	311.88
546.206	302.88
546.42	329.88
546.633	312.88
546.847	302.88
547.06	300.88
547.274	312.88
547.487	318.88
547.7	297.88
547.914	310.88
548.127	293.88
548.34	303.88
548.554	303.88
548.767	314.88
548.98	323.88
549.193	295.88
549.407	321.88
549.62	303.88
549.833	290.88
550.046	325.88
550.259	314.88
550.473	328.88
550.686	314.88
550.899	304.88
551.112	310.88
551.325	299.88
551.538	292.88
551.751	292.88
551.964	291.88
552.177	307.88
552.39	293.88
552.603	309.88
552.816	319.88
553.029	308.88
553.242	324.88
553.455	308.88
553.667	312.88
553.88	317.88
554.093	307.88
554.306	295.88
554.519	318.88
554.732	298.88
554.944	279.88
555.157	308.88
555.37	317.88
555.583	276.88
555.795	287.88
556.008	271.88
556.221	282.88
556.433	267.88
556.646	279.88
556.859	271.88
557.071	270.88
557.284	267.88
557.496	283.88
557.709	281.88
557.921	276.88
558.134	267.88
558.346	272.88
558.559	268.88
558.771	269.88
558.984	281.88
559.196	283.88
559.409	273.88
559.621	253.88
559.833	248.88
560.046	266.88
560.258	251.88
560.47	251.88
560.683	274.88
560.895	278.88
561.107	268.88
561.32	256.88
561.532	247.88
561.744	274.88
561.956	265.88
562.168	274.88
562.381	260.88
562.593	277.88
562.805	278.88
563.017	267.88
563.229	255.88
563.441	253.88
563.653	267.88
563.865	272.88
564.077	269.88
564.289	275.88
564.501	269.88
564.713	280.88
564.925	285.88
565.137	294.88
565.349	308.88
565.561	314.88
565.773	300.88
565.985	299.88
566.197	310.88
566.408	318.88
566.62	333.88
566.832	355.88
567.044	358.88
567.255	349.88
567.467	357.88
567.679	372.88
567.891	367.88
568.102	373.88
568.314	356.88
568.526	369.88
568.737	333.88
568.949	314.88
569.161	305.88
569.372	285.88
569.584	287.88
569.795	282.88
570.007	267.88
570.218	268.88
570.43	271.88
570.641	257.88
570.853	256.88
571.064	267.88
571.276	255.88
571.487	251.88
571.698	246.88
571.91	235.88
572.121	247.88
572.333	226.88
572.544	236.88
572.755	234.88
572.966	238.88
573.178	240.88
573.389	237.88
573.6	221.88
573.811	236.88
574.023	219.88
574.234	208.88
574.445	238.88
574.656	217.88
574.867	229.88
575.078	242.88
575.289	224.88
575.501	237.88
575.712	219.88
575.923	218.88
576.134	236.88
576.345	221.88
576.556	197.88
576.767	212.88
576.978	214.88
577.188	217.88
577.399	203.88
577.61	212.88
577.821	201.88
578.032	213.88
578.243	215.88
578.454	201.88
578.665	215.88
578.875	199.88
579.086	203.88
579.297	185.88
579.508	184.88
579.718	211.88
579.929	218.88
580.14	209.88
580.35	201.88
580.561	214.88
580.772	189.88
580.982	207.88
581.193	198.88
581.403	207.88
581.614	201.88
581.825	202.88
582.035	209.88
582.246	206.88
582.456	203.88
582.667	198.88
582.877	206.88
583.087	196.88
583.298	207.88
583.508	178.88
583.719	192.88
583.929	215.88
584.139	197.88
584.35	193.88
584.56	183.88
584.77	206.88
584.981	193.88
585.191	209.88
585.401	190.88
585.611	199.88
585.821	178.88
586.032	185.88
586.242	199.88
586.452	177.88
586.662	196.88
586.872	205.88
587.082	204.88
587.292	188.88
587.502	196.88
587.713	178.88
587.923	157.88
588.133	181.88
588.343	185.88
588.553	193.88
588.762	195.88
588.972	193.88
589.182	218.88
589.392	205.88
589.602	189.88
589.812	194.88
590.022	211.88
590.232	184.88
590.441	185.88
590.651	205.88
590.861	199.88
591.071	197.88
591.281	214.88
591.49	193.88
591.7	197.88
591.91	207.88
592.119	205.88
592.329	204.88
592.539	199.88
592.748	191.88
592.958	195.88
593.167	201.88
593.377	226.88
593.587	205.88
593.796	203.88
594.006	209.88
594.215	210.88
594.424	211.88
594.634	221.88
594.843	195.88
595.053	202.88
595.262	208.88
595.472	205.88
595.681	198.88
595.89	197.88
596.1	196.88
596.309	199.88
596.518	205.88
596.727	177.88
596.937	179.88
597.146	188.88
597.355	159.88
597.564	177.88
597.774	179.88
597.983	180.88
598.192	172.88
598.401	185.88
598.61	167.88
598.819	196.88
599.028	160.88
599.237	167.88
599.446	171.88
599.655	178.88
599.864	177.88
600.073	169.88
600.282	175.88
600.491	174.88
600.7	166.88
600.909	162.88
601.118	167.88
601.327	166.88
601.536	182.88
601.745	172.88
601.953	165.88
602.162	189.88
602.371	179.88
602.58	175.88
602.789	190.88
602.997	181.88
603.206	176.88
603.415	191.88
603.623	166.88
603.832	153.88
604.041	174.88
604.249	145.88
604.458	150.88
604.666	152.88
604.875	171.88
605.084	178.88
605.292	165.88
605.501	157.88
605.709	164.88
605.918	165.88
606.126	162.88
606.334	166.88
606.543	175.88
606.751	175.88
606.96	169.88
607.168	174.88
607.376	170.88
607.585	167.88
607.793	169.88
608.001	156.88
608.21	170.88
608.418	155.88
608.626	153.88
608.834	158.88
609.043	159.88
609.251	173.88
609.459	156.88
609.667	163.88
609.875	158.88
610.083	157.88
610.291	154.88
610.499	168.88
610.707	147.88
610.916	166.88
611.124	163.88
611.332	166.88
611.54	171.88
611.748	159.88
611.955	149.88
612.163	153.88
612.371	155.88
612.579	161.88
612.787	158.88
612.995	163.88
613.203	176.88
613.411	163.88
613.618	160.88
613.826	153.88
614.034	151.88
614.242	162.88
614.449	151.88
614.657	155.88
614.865	146.88
615.072	155.88
615.28	164.88
615.488	148.88
615.695	152.88
615.903	166.88
616.111	147.88
616.318	163.88
616.526	152.88
616.733	173.88
616.941	159.88
617.148	164.88
617.356	173.88
617.563	159.88
617.771	160.88
617.978	139.88
618.185	149.88
618.393	153.88
618.6	163.88
618.807	162.88
619.015	169.88
619.222	162.88
619.429	162.88
619.637	150.88
619.844	147.88
620.051	146.88
620.258	144.88
620.466	142.88
620.673	148.88
620.88	145.88
621.087	135.88
621.294	144.88
621.501	143.88
621.708	167.88
621.915	150.88
622.122	155.88
622.329	140.88
622.536	152.88
622.743	138.88
622.95	145.88
623.157	169.88
623.364	150.88
623.571	148.88
623.778	149.88
623.985	134.88
624.192	132.88
624.399	150.88
624.606	139.88
624.812	145.88
625.019	165.88
625.226	159.88
625.433	164.88
625.639	143.88
625.846	142.88
626.053	131.88
626.259	139.88
626.466	149.88
626.673	142.88
626.879	142.88
627.086	148.88
627.293	148.88
627.499	146.88
627.706	142.88
627.912	134.88
628.119	148.88
628.325	140.88
628.532	155.88
628.738	140.88
628.945	145.88
629.151	149.88
629.357	139.88
629.564	149.88
629.77	135.88
629.976	135.88
630.183	135.88
630.389	143.88
630.595	144.88
630.802	132.88
631.008	135.88
631.214	155.88
631.42	136.88
631.627	140.88
631.833	138.88
632.039	138.88
632.245	137.88
632.451	131.88
632.657	147.88
632.863	126.88
633.069	134.88
633.275	129.88
633.481	134.88
633.688	130.88
633.893	141.88
634.099	125.88
634.305	158.88
634.511	139.88
634.717	129.88
634.923	144.88
635.129	135.88
635.335	145.88
635.541	142.88
635.747	125.88
635.952	132.88
636.158	139.88
636.364	141.88
636.57	141.88
636.775	151.88
636.981	157.88
637.187	155.88
637.392	123.88
637.598	137.88
637.804	140.88
638.009	141.88
638.215	127.88
638.421	139.88
638.626	135.88
638.832	146.88
639.037	143.88
639.243	138.88
639.448	127.88
639.654	133.88
639.859	117.88
640.065	129.88
640.27	141.88
640.475	129.88
640.681	127.88
640.886	130.88
641.091	129.88
641.297	142.88
641.502	139.88
641.707	152.88
641.913	133.88
642.118	135.88
642.323	133.88
642.528	137.88
642.733	141.88
642.939	136.88
643.144	139.88
643.349	140.88
643.554	127.88
643.759	127.88
643.964	139.88
644.169	145.88
644.374	123.88
644.579	131.88
644.784	129.88
644.989	128.88
645.194	140.88
645.399	147.88
645.604	134.88
645.809	127.88
646.014	133.88
646.219	134.88
646.423	123.88
646.628	141.88
646.833	116.88
647.038	133.88
647.243	144.88
647.447	140.88
647.652	125.88
647.857	148.88
648.062	143.88
648.266	127.88
648.471	136.88
648.676	135.88
648.88	136.88
649.085	146.88
649.289	142.88
649.494	130.88
649.698	142.88
649.903	135.88
650.107	114.88
650.312	133.88
650.516	141.88
650.721	136.88
650.925	158.88
651.13	133.88
651.334	134.88
651.539	147.88
651.743	132.88
651.947	123.88
652.152	141.88
652.356	130.88
652.56	133.88
652.764	141.88
652.969	154.88
653.173	132.88
653.377	133.88
653.581	141.88
653.785	134.88
653.99	142.88
654.194	135.88
654.398	133.88
654.602	137.88
654.806	128.88
655.01	130.88
655.214	124.88
655.418	139.88
655.622	126.88
655.826	133.88
656.03	137.88
656.234	140.88
656.438	132.88
656.642	136.88
656.846	135.88
657.049	139.88
657.253	133.88
657.457	135.88
657.661	129.88
657.865	120.88
658.068	120.88
658.272	111.88
658.476	107.88
658.68	117.88
658.883	122.88
659.087	107.88
659.291	95.88
659.494	109.88
659.698	107.88
659.901	97.88
660.105	83.88
660.309	90.88
660.512	86.88
660.716	81.88
660.919	91.88
661.123	89.88
661.326	93.88
661.53	82.88
661.733	78.88
661.936	96.88
662.14	87.88
662.343	75.88
662.546	72.88
662.75	83.88
662.953	79.88
663.156	82.88
663.36	93.88
663.563	85.88
663.766	71.88
663.969	75.88
664.173	66.88
664.376	77.88
664.579	73.88
664.782	68.88
664.985	66.88
665.188	87.88
665.391	65.88
665.594	68.88
665.797	66.88
666	78.88
666.203	77.88
666.406	86.88
666.609	78.88
666.812	60.88
667.015	79.88
667.218	75.88
667.421	79.88
667.624	85.88
667.827	68.88
668.03	73.88
668.232	70.88
668.435	86.88
668.638	86.88
668.841	98.88
669.043	77.88
669.246	64.88
669.449	83.88
669.651	84.88
669.854	73.88
670.057	83.88
670.259	90.88
670.462	71.88
670.665	80.88
670.867	75.88
671.07	55.88
671.272	73.88
671.475	79.88
671.677	88.88
671.88	65.88
672.082	55.88
672.284	67.88
672.487	87.88
672.689	85.88
672.892	75.88
