Data from Fe(NO3)3@0.0125M.TitratingCurve.Agarose3%dH2O.NegLispCup.LampEnergy10.LIBS07252019_HRD10591_16-59-45-336.txt Node
Date: Thu Jul 25 16:59:45 EDT 2019
User: cochatt
Spectrometer: HR+D1059
Trigger mode: 1
Integration Time (sec): 1.000000E-1
Scans to average: 1
Electric dark correction enabled: true
Nonlinearity correction enabled: false
Boxcar width: 0
XAxis mode: Wavelengths
Number of Pixels in Spectrum: 2048
>>>>>Begin Spectral Data<<<<<
223.165	-7.06
223.4	-7.06
223.635	-7.06
223.869	-15.06
224.104	-21.06
224.338	-21.06
224.573	-9.06
224.808	-4.06
225.042	-11.06
225.277	-7.06
225.511	4.94
225.746	2.94
225.98	-0.06
226.215	5.94
226.449	3.94
226.683	24.94
226.918	18.94
227.152	33.94
227.387	39.94
227.621	26.94
227.856	49.94
228.09	40.94
228.324	61.94
228.559	57.94
228.793	64.94
229.027	62.94
229.262	64.94
229.496	74.94
229.73	89.94
229.964	73.94
230.199	102.94
230.433	96.94
230.667	79.94
230.901	83.94
231.136	87.94
231.37	92.94
231.604	92.94
231.838	88.94
232.072	87.94
232.306	79.94
232.541	82.94
232.775	84.94
233.009	96.94
233.243	102.94
233.477	99.94
233.711	99.94
233.945	110.94
234.179	93.94
234.413	86.94
234.647	91.94
234.881	88.94
235.115	106.94
235.349	92.94
235.583	100.94
235.817	97.94
236.051	91.94
236.285	96.94
236.519	91.94
236.753	89.94
236.987	86.94
237.221	98.94
237.455	96.94
237.689	85.94
237.922	107.94
238.156	106.94
238.39	104.94
238.624	90.94
238.858	100.94
239.091	88.94
239.325	91.94
239.559	100.94
239.793	107.94
240.027	89.94
240.26	96.94
240.494	100.94
240.728	98.94
240.961	104.94
241.195	90.94
241.429	102.94
241.662	83.94
241.896	90.94
242.13	91.94
242.363	93.94
242.597	108.94
242.83	97.94
243.064	92.94
243.298	113.94
243.531	99.94
243.765	116.94
243.998	104.94
244.232	116.94
244.465	102.94
244.699	97.94
244.932	84.94
245.166	102.94
245.399	102.94
245.633	89.94
245.866	110.94
246.099	90.94
246.333	117.94
246.566	108.94
246.8	105.94
247.033	87.94
247.266	111.94
247.5	110.94
247.733	107.94
247.966	105.94
248.2	99.94
248.433	107.94
248.666	110.94
248.899	86.94
249.133	102.94
249.366	117.94
249.599	106.94
249.832	106.94
250.066	112.94
250.299	110.94
250.532	113.94
250.765	121.94
250.998	120.94
251.231	120.94
251.465	124.94
251.698	112.94
251.931	110.94
252.164	130.94
252.397	106.94
252.63	115.94
252.863	96.94
253.096	108.94
253.329	119.94
253.562	109.94
253.795	119.94
254.028	116.94
254.261	116.94
254.494	117.94
254.727	114.94
254.96	120.94
255.193	124.94
255.426	110.94
255.659	123.94
255.892	118.94
256.124	107.94
256.357	111.94
256.59	109.94
256.823	127.94
257.056	125.94
257.289	116.94
257.521	123.94
257.754	115.94
257.987	132.94
258.22	142.94
258.452	112.94
258.685	119.94
258.918	130.94
259.151	142.94
259.383	119.94
259.616	145.94
259.849	134.94
260.081	132.94
260.314	120.94
260.547	137.94
260.779	126.94
261.012	140.94
261.244	146.94
261.477	131.94
261.71	142.94
261.942	136.94
262.175	140.94
262.407	120.94
262.64	132.94
262.872	142.94
263.105	129.94
263.337	140.94
263.57	131.94
263.802	147.94
264.035	142.94
264.267	132.94
264.499	119.94
264.732	146.94
264.964	130.94
265.197	129.94
265.429	135.94
265.661	132.94
265.894	149.94
266.126	141.94
266.358	136.94
266.591	136.94
266.823	138.94
267.055	140.94
267.287	130.94
267.52	121.94
267.752	127.94
267.984	139.94
268.216	149.94
268.448	146.94
268.681	144.94
268.913	152.94
269.145	152.94
269.377	155.94
269.609	133.94
269.841	143.94
270.073	133.94
270.306	138.94
270.538	153.94
270.77	148.94
271.002	156.94
271.234	156.94
271.466	162.94
271.698	148.94
271.93	144.94
272.162	143.94
272.394	156.94
272.626	158.94
272.858	148.94
273.09	166.94
273.322	154.94
273.553	164.94
273.785	154.94
274.017	176.94
274.249	155.94
274.481	178.94
274.713	173.94
274.945	187.94
275.176	178.94
275.408	177.94
275.64	166.94
275.872	176.94
276.104	170.94
276.335	186.94
276.567	169.94
276.799	170.94
277.031	184.94
277.262	169.94
277.494	183.94
277.726	173.94
277.957	166.94
278.189	161.94
278.421	174.94
278.652	174.94
278.884	190.94
279.115	190.94
279.347	177.94
279.579	176.94
279.81	182.94
280.042	187.94
280.273	178.94
280.505	185.94
280.736	176.94
280.968	185.94
281.199	185.94
281.431	192.94
281.662	176.94
281.894	191.94
282.125	197.94
282.356	205.94
282.588	202.94
282.819	197.94
283.051	194.94
283.282	198.94
283.513	193.94
283.745	216.94
283.976	193.94
284.207	193.94
284.439	208.94
284.67	213.94
284.901	210.94
285.132	209.94
285.364	209.94
285.595	205.94
285.826	203.94
286.057	214.94
286.288	213.94
286.52	215.94
286.751	205.94
286.982	215.94
287.213	223.94
287.444	211.94
287.675	218.94
287.906	217.94
288.138	228.94
288.369	205.94
288.6	217.94
288.831	224.94
289.062	242.94
289.293	231.94
289.524	218.94
289.755	208.94
289.986	227.94
290.217	236.94
290.448	220.94
290.679	243.94
290.91	244.94
291.141	217.94
291.371	231.94
291.602	240.94
291.833	227.94
292.064	245.94
292.295	239.94
292.526	226.94
292.757	226.94
292.987	217.94
293.218	250.94
293.449	258.94
293.68	243.94
293.91	239.94
294.141	252.94
294.372	243.94
294.603	248.94
294.833	246.94
295.064	258.94
295.295	243.94
295.525	242.94
295.756	262.94
295.987	257.94
296.217	270.94
296.448	249.94
296.679	253.94
296.909	258.94
297.14	278.94
297.37	269.94
297.601	271.94
297.831	263.94
298.062	262.94
298.292	273.94
298.523	283.94
298.753	274.94
298.984	277.94
299.214	284.94
299.445	270.94
299.675	278.94
299.905	267.94
300.136	285.94
300.366	286.94
300.597	274.94
300.827	274.94
301.057	274.94
301.288	283.94
301.518	274.94
301.748	284.94
301.979	274.94
302.209	276.94
302.439	286.94
302.669	292.94
302.9	293.94
303.13	286.94
303.36	306.94
303.59	296.94
303.82	280.94
304.051	303.94
304.281	299.94
304.511	292.94
304.741	296.94
304.971	288.94
305.201	293.94
305.431	286.94
305.661	296.94
305.891	321.94
306.121	314.94
306.352	304.94
306.582	308.94
306.812	297.94
307.042	298.94
307.272	307.94
307.502	314.94
307.731	298.94
307.961	325.94
308.191	319.94
308.421	315.94
308.651	323.94
308.881	300.94
309.111	328.94
309.341	327.94
309.571	314.94
309.8	330.94
310.03	319.94
310.26	305.94
310.49	328.94
310.72	331.94
310.949	320.94
311.179	325.94
311.409	318.94
311.639	325.94
311.868	335.94
312.098	314.94
312.328	329.94
312.557	328.94
312.787	339.94
313.017	336.94
313.246	333.94
313.476	330.94
313.706	348.94
313.935	347.94
314.165	356.94
314.394	343.94
314.624	351.94
314.853	353.94
315.083	352.94
315.312	370.94
315.542	368.94
315.771	381.94
316.001	340.94
316.23	358.94
316.46	353.94
316.689	361.94
316.919	367.94
317.148	370.94
317.377	368.94
317.607	376.94
317.836	356.94
318.065	366.94
318.295	363.94
318.524	378.94
318.753	356.94
318.983	366.94
319.212	374.94
319.441	371.94
319.67	374.94
319.9	388.94
320.129	368.94
320.358	358.94
320.587	376.94
320.816	385.94
321.046	364.94
321.275	370.94
321.504	377.94
321.733	377.94
321.962	376.94
322.191	385.94
322.42	386.94
322.649	403.94
322.878	371.94
323.108	384.94
323.337	401.94
323.566	395.94
323.795	395.94
324.024	389.94
324.253	394.94
324.482	388.94
324.71	408.94
324.939	399.94
325.168	410.94
325.397	406.94
325.626	397.94
325.855	410.94
326.084	402.94
326.313	394.94
326.542	377.94
326.77	410.94
326.999	420.94
327.228	393.94
327.457	403.94
327.686	404.94
327.914	418.94
328.143	400.94
328.372	401.94
328.6	402.94
328.829	408.94
329.058	424.94
329.287	406.94
329.515	414.94
329.744	427.94
329.972	410.94
330.201	400.94
330.43	417.94
330.658	395.94
330.887	414.94
331.115	423.94
331.344	419.94
331.572	416.94
331.801	440.94
332.03	438.94
332.258	439.94
332.486	416.94
332.715	442.94
332.943	431.94
333.172	434.94
333.4	405.94
333.629	410.94
333.857	441.94
334.085	406.94
334.314	422.94
334.542	441.94
334.771	417.94
334.999	448.94
335.227	445.94
335.455	436.94
335.684	436.94
335.912	428.94
336.14	426.94
336.369	421.94
336.597	439.94
336.825	446.94
337.053	438.94
337.281	446.94
337.51	437.94
337.738	436.94
337.966	438.94
338.194	433.94
338.422	422.94
338.65	443.94
338.878	433.94
339.106	422.94
339.334	456.94
339.562	434.94
339.79	446.94
340.018	435.94
340.246	450.94
340.474	444.94
340.702	449.94
340.93	441.94
341.158	422.94
341.386	448.94
341.614	444.94
341.842	444.94
342.07	447.94
342.298	472.94
342.526	463.94
342.754	442.94
342.981	459.94
343.209	430.94
343.437	455.94
343.665	446.94
343.893	438.94
344.12	434.94
344.348	435.94
344.576	459.94
344.804	452.94
345.031	462.94
345.259	452.94
345.487	452.94
345.714	437.94
345.942	442.94
346.17	463.94
346.397	454.94
346.625	434.94
346.853	450.94
347.08	458.94
347.308	452.94
347.535	430.94
347.763	451.94
347.99	456.94
348.218	437.94
348.445	443.94
348.673	451.94
348.9	447.94
349.128	455.94
349.355	446.94
349.583	457.94
349.81	441.94
350.037	447.94
350.265	444.94
350.492	439.94
350.72	435.94
350.947	452.94
351.174	446.94
351.402	470.94
351.629	447.94
351.856	445.94
352.083	447.94
352.311	448.94
352.538	439.94
352.765	435.94
352.992	465.94
353.22	426.94
353.447	446.94
353.674	434.94
353.901	476.94
354.128	461.94
354.355	471.94
354.583	462.94
354.81	464.94
355.037	459.94
355.264	451.94
355.491	463.94
355.718	446.94
355.945	452.94
356.172	456.94
356.399	445.94
356.626	467.94
356.853	466.94
357.08	443.94
357.307	460.94
357.534	447.94
357.761	471.94
357.988	461.94
358.215	466.94
358.441	459.94
358.668	468.94
358.895	447.94
359.122	465.94
359.349	447.94
359.576	470.94
359.802	446.94
360.029	456.94
360.256	441.94
360.483	451.94
360.709	448.94
360.936	471.94
361.163	464.94
361.39	476.94
361.616	468.94
361.843	468.94
362.07	469.94
362.296	496.94
362.523	455.94
362.749	456.94
362.976	464.94
363.203	466.94
363.429	469.94
363.656	456.94
363.882	476.94
364.109	473.94
364.335	476.94
364.562	481.94
364.788	475.94
365.015	479.94
365.241	487.94
365.468	479.94
365.694	479.94
365.92	487.94
366.147	508.94
366.373	471.94
366.599	472.94
366.826	487.94
367.052	472.94
367.278	485.94
367.505	475.94
367.731	494.94
367.957	469.94
368.184	500.94
368.41	491.94
368.636	494.94
368.862	506.94
369.089	485.94
369.315	510.94
369.541	496.94
369.767	507.94
369.993	491.94
370.219	488.94
370.445	479.94
370.672	512.94
370.898	491.94
371.124	513.94
371.35	508.94
371.576	510.94
371.802	490.94
372.028	514.94
372.254	509.94
372.48	496.94
372.706	486.94
372.932	494.94
373.158	480.94
373.384	510.94
373.61	496.94
373.835	504.94
374.061	503.94
374.287	481.94
374.513	494.94
374.739	506.94
374.965	514.94
375.191	528.94
375.416	513.94
375.642	510.94
375.868	507.94
376.094	516.94
376.319	510.94
376.545	502.94
376.771	506.94
376.997	506.94
377.222	523.94
377.448	501.94
377.674	497.94
377.899	520.94
378.125	510.94
378.35	502.94
378.576	498.94
378.802	502.94
379.027	498.94
379.253	489.94
379.478	495.94
379.704	507.94
379.929	515.94
380.155	525.94
380.38	532.94
380.606	516.94
380.831	504.94
381.057	519.94
381.282	514.94
381.507	514.94
381.733	519.94
381.958	516.94
382.184	510.94
382.409	517.94
382.634	516.94
382.86	529.94
383.085	528.94
383.31	517.94
383.535	532.94
383.761	528.94
383.986	530.94
384.211	510.94
384.436	516.94
384.662	520.94
384.887	530.94
385.112	524.94
385.337	565.94
385.562	521.94
385.787	532.94
386.013	543.94
386.238	529.94
386.463	554.94
386.688	540.94
386.913	519.94
387.138	546.94
387.363	546.94
387.588	541.94
387.813	556.94
388.038	532.94
388.263	528.94
388.488	537.94
388.713	560.94
388.938	556.94
389.163	544.94
389.387	549.94
389.612	539.94
389.837	558.94
390.062	563.94
390.287	543.94
390.512	535.94
390.736	547.94
390.961	533.94
391.186	532.94
391.411	559.94
391.636	546.94
391.86	540.94
392.085	530.94
392.31	554.94
392.534	542.94
392.759	561.94
392.984	552.94
393.208	537.94
393.433	564.94
393.658	564.94
393.882	544.94
394.107	568.94
394.331	526.94
394.556	543.94
394.78	554.94
395.005	542.94
395.229	523.94
395.454	562.94
395.678	539.94
395.903	563.94
396.127	564.94
396.352	550.94
396.576	562.94
396.801	557.94
397.025	552.94
397.249	544.94
397.474	579.94
397.698	558.94
397.922	562.94
398.147	568.94
398.371	584.94
398.595	572.94
398.82	572.94
399.044	581.94
399.268	563.94
399.492	582.94
399.717	618.94
399.941	595.94
400.165	590.94
400.389	579.94
400.613	583.94
400.837	583.94
401.062	578.94
401.286	575.94
401.51	576.94
401.734	582.94
401.958	608.94
402.182	587.94
402.406	582.94
402.63	579.94
402.854	571.94
403.078	570.94
403.302	578.94
403.526	593.94
403.75	589.94
403.974	593.94
404.198	567.94
404.422	578.94
404.645	578.94
404.869	597.94
405.093	602.94
405.317	572.94
405.541	614.94
405.765	595.94
405.988	607.94
406.212	615.94
406.436	602.94
406.66	583.94
406.883	600.94
407.107	611.94
407.331	592.94
407.555	600.94
407.778	598.94
408.002	591.94
408.226	615.94
408.449	638.94
408.673	604.94
408.896	594.94
409.12	606.94
409.344	601.94
409.567	574.94
409.791	588.94
410.014	613.94
410.238	610.94
410.461	599.94
410.685	602.94
410.908	629.94
411.132	607.94
411.355	619.94
411.578	596.94
411.802	581.94
412.025	587.94
412.249	602.94
412.472	615.94
412.695	591.94
412.919	576.94
413.142	582.94
413.365	570.94
413.589	593.94
413.812	604.94
414.035	585.94
414.258	574.94
414.482	586.94
414.705	601.94
414.928	589.94
415.151	573.94
415.374	577.94
415.597	601.94
415.821	593.94
416.044	580.94
416.267	592.94
416.49	561.94
416.713	593.94
416.936	595.94
417.159	577.94
417.382	554.94
417.605	555.94
417.828	579.94
418.051	578.94
418.274	573.94
418.497	582.94
418.72	574.94
418.943	571.94
419.166	594.94
419.389	628.94
419.611	601.94
419.834	596.94
420.057	570.94
420.28	536.94
420.503	565.94
420.726	565.94
420.948	555.94
421.171	572.94
421.394	582.94
421.617	564.94
421.839	569.94
422.062	555.94
422.285	570.94
422.507	562.94
422.73	573.94
422.953	569.94
423.175	578.94
423.398	584.94
423.621	577.94
423.843	588.94
424.066	569.94
424.288	550.94
424.511	568.94
424.733	574.94
424.956	578.94
425.178	564.94
425.401	563.94
425.623	571.94
425.846	573.94
426.068	569.94
426.291	572.94
426.513	588.94
426.735	575.94
426.958	568.94
427.18	591.94
427.402	583.94
427.625	564.94
427.847	570.94
428.069	551.94
428.292	584.94
428.514	559.94
428.736	559.94
428.958	562.94
429.181	599.94
429.403	575.94
429.625	568.94
429.847	576.94
430.069	574.94
430.292	564.94
430.514	548.94
430.736	578.94
430.958	570.94
431.18	581.94
431.402	566.94
431.624	563.94
431.846	568.94
432.068	581.94
432.29	581.94
432.512	570.94
432.734	574.94
432.956	553.94
433.178	585.94
433.4	568.94
433.622	554.94
433.844	577.94
434.066	572.94
434.287	561.94
434.509	539.94
434.731	597.94
434.953	577.94
435.175	587.94
435.397	608.94
435.618	576.94
435.84	562.94
436.062	578.94
436.284	569.94
436.505	577.94
436.727	556.94
436.949	570.94
437.17	568.94
437.392	579.94
437.614	584.94
437.835	576.94
438.057	563.94
438.278	566.94
438.5	556.94
438.721	550.94
438.943	565.94
439.165	549.94
439.386	584.94
439.608	580.94
439.829	580.94
440.05	554.94
440.272	547.94
440.493	569.94
440.715	584.94
440.936	572.94
441.158	581.94
441.379	570.94
441.6	564.94
441.822	557.94
442.043	565.94
442.264	582.94
442.486	579.94
442.707	578.94
442.928	564.94
443.149	601.94
443.371	567.94
443.592	591.94
443.813	585.94
444.034	582.94
444.255	566.94
444.476	561.94
444.698	586.94
444.919	571.94
445.14	630.94
445.361	635.94
445.582	592.94
445.803	562.94
446.024	566.94
446.245	588.94
446.466	577.94
446.687	566.94
446.908	573.94
447.129	573.94
447.35	534.94
447.571	577.94
447.792	536.94
448.013	536.94
448.234	547.94
448.455	535.94
448.675	564.94
448.896	530.94
449.117	540.94
449.338	535.94
449.559	518.94
449.779	549.94
450	536.94
450.221	555.94
450.442	550.94
450.662	550.94
450.883	563.94
451.104	551.94
451.324	538.94
451.545	551.94
451.766	550.94
451.986	535.94
452.207	552.94
452.428	541.94
452.648	549.94
452.869	560.94
453.089	550.94
453.31	544.94
453.53	528.94
453.751	538.94
453.971	542.94
454.192	556.94
454.412	546.94
454.633	542.94
454.853	541.94
455.073	506.94
455.294	542.94
455.514	548.94
455.734	522.94
455.955	517.94
456.175	531.94
456.395	540.94
456.616	537.94
456.836	523.94
457.056	515.94
457.276	545.94
457.497	547.94
457.717	541.94
457.937	535.94
458.157	542.94
458.377	548.94
458.598	555.94
458.818	562.94
459.038	539.94
459.258	576.94
459.478	562.94
459.698	544.94
459.918	571.94
460.138	530.94
460.358	561.94
460.578	559.94
460.798	579.94
461.018	553.94
461.238	559.94
461.458	568.94
461.678	555.94
461.898	560.94
462.118	570.94
462.338	580.94
462.558	571.94
462.777	549.94
462.997	567.94
463.217	598.94
463.437	594.94
463.657	582.94
463.876	600.94
464.096	614.94
464.316	578.94
464.536	572.94
464.755	592.94
464.975	572.94
465.195	583.94
465.414	597.94
465.634	572.94
465.854	572.94
466.073	564.94
466.293	598.94
466.512	594.94
466.732	588.94
466.951	596.94
467.171	570.94
467.391	575.94
467.61	586.94
467.829	579.94
468.049	600.94
468.268	562.94
468.488	571.94
468.707	571.94
468.927	593.94
469.146	593.94
469.365	581.94
469.585	601.94
469.804	597.94
470.023	610.94
470.243	590.94
470.462	576.94
470.681	561.94
470.901	599.94
471.12	585.94
471.339	578.94
471.558	574.94
471.777	604.94
471.997	608.94
472.216	599.94
472.435	628.94
472.654	610.94
472.873	616.94
473.092	618.94
473.311	633.94
473.53	628.94
473.749	611.94
473.968	614.94
474.187	634.94
474.406	643.94
474.625	643.94
474.844	630.94
475.063	620.94
475.282	626.94
475.501	619.94
475.72	636.94
475.939	631.94
476.158	630.94
476.377	633.94
476.596	661.94
476.814	659.94
477.033	644.94
477.252	658.94
477.471	654.94
477.69	670.94
477.908	690.94
478.127	663.94
478.346	660.94
478.564	660.94
478.783	675.94
479.002	664.94
479.22	666.94
479.439	675.94
479.658	694.94
479.876	688.94
480.095	709.94
480.313	713.94
480.532	722.94
480.751	685.94
480.969	684.94
481.188	710.94
481.406	734.94
481.624	724.94
481.843	706.94
482.061	717.94
482.28	720.94
482.498	716.94
482.717	705.94
482.935	730.94
483.153	732.94
483.372	755.94
483.59	737.94
483.808	758.94
484.027	726.94
484.245	750.94
484.463	738.94
484.681	760.94
484.9	738.94
485.118	760.94
485.336	747.94
485.554	752.94
485.772	763.94
485.99	739.94
486.209	754.94
486.427	757.94
486.645	770.94
486.863	745.94
487.081	760.94
487.299	792.94
487.517	755.94
487.735	776.94
487.953	779.94
488.171	762.94
488.389	746.94
488.607	746.94
488.825	763.94
489.043	754.94
489.261	764.94
489.479	747.94
489.696	735.94
489.914	775.94
490.132	761.94
490.35	759.94
490.568	778.94
490.786	791.94
491.003	758.94
491.221	796.94
491.439	770.94
491.657	775.94
491.874	798.94
492.092	790.94
492.31	770.94
492.527	779.94
492.745	784.94
492.963	780.94
493.18	799.94
493.398	778.94
493.615	808.94
493.833	776.94
494.05	791.94
494.268	779.94
494.485	808.94
494.703	778.94
494.92	809.94
495.138	796.94
495.355	790.94
495.573	810.94
495.79	798.94
496.008	802.94
496.225	788.94
496.442	814.94
496.66	843.94
496.877	792.94
497.094	816.94
497.312	802.94
497.529	782.94
497.746	824.94
497.963	779.94
498.181	818.94
498.398	820.94
498.615	796.94
498.832	839.94
499.049	862.94
499.267	852.94
499.484	867.94
499.701	869.94
499.918	867.94
500.135	853.94
500.352	895.94
500.569	889.94
500.786	885.94
501.003	867.94
501.22	857.94
501.437	870.94
501.654	858.94
501.871	861.94
502.088	841.94
502.305	846.94
502.522	844.94
502.739	849.94
502.956	822.94
503.172	809.94
503.389	811.94
503.606	799.94
503.823	798.94
504.04	791.94
504.256	814.94
504.473	795.94
504.69	776.94
504.907	772.94
505.123	799.94
505.34	784.94
505.557	773.94
505.773	798.94
505.99	759.94
506.207	784.94
506.423	758.94
506.64	745.94
506.856	750.94
507.073	750.94
507.289	741.94
507.506	746.94
507.722	748.94
507.939	732.94
508.155	774.94
508.372	726.94
508.588	716.94
508.805	708.94
509.021	742.94
509.238	704.94
509.454	729.94
509.67	722.94
509.887	735.94
510.103	704.94
510.319	729.94
510.536	718.94
510.752	702.94
510.968	719.94
511.184	718.94
511.401	699.94
511.617	700.94
511.833	681.94
512.049	711.94
512.265	698.94
512.481	710.94
512.698	714.94
512.914	706.94
513.13	713.94
513.346	694.94
513.562	687.94
513.778	708.94
513.994	690.94
514.21	721.94
514.426	695.94
514.642	716.94
514.858	720.94
515.074	711.94
515.29	704.94
515.506	704.94
515.721	713.94
515.937	711.94
516.153	714.94
516.369	723.94
516.585	717.94
516.801	732.94
517.016	666.94
517.232	709.94
517.448	695.94
517.664	717.94
517.879	706.94
518.095	708.94
518.311	687.94
518.527	702.94
518.742	699.94
518.958	688.94
519.173	686.94
519.389	698.94
519.605	695.94
519.82	680.94
520.036	711.94
520.251	712.94
520.467	703.94
520.682	695.94
520.898	688.94
521.113	702.94
521.329	684.94
521.544	663.94
521.76	693.94
521.975	660.94
522.19	674.94
522.406	673.94
522.621	706.94
522.836	671.94
523.052	687.94
523.267	692.94
523.482	686.94
523.698	701.94
523.913	670.94
524.128	664.94
524.343	661.94
524.559	683.94
524.774	689.94
524.989	660.94
525.204	695.94
525.419	686.94
525.634	683.94
525.849	680.94
526.064	681.94
526.28	660.94
526.495	650.94
526.71	674.94
526.925	663.94
527.14	673.94
527.355	688.94
527.57	646.94
527.785	660.94
527.999	652.94
528.214	656.94
528.429	658.94
528.644	657.94
528.859	658.94
529.074	653.94
529.289	655.94
529.503	666.94
529.718	679.94
529.933	677.94
530.148	669.94
530.363	662.94
530.577	655.94
530.792	648.94
531.007	630.94
531.221	650.94
531.436	667.94
531.651	630.94
531.865	658.94
532.08	646.94
532.295	641.94
532.509	656.94
532.724	654.94
532.938	651.94
533.153	636.94
533.367	644.94
533.582	645.94
533.796	656.94
534.011	648.94
534.225	661.94
534.44	656.94
534.654	624.94
534.868	633.94
535.083	643.94
535.297	649.94
535.511	626.94
535.726	651.94
535.94	636.94
536.154	618.94
536.369	634.94
536.583	638.94
536.797	623.94
537.011	641.94
537.225	631.94
537.44	626.94
537.654	638.94
537.868	634.94
538.082	615.94
538.296	630.94
538.51	616.94
538.724	634.94
538.938	627.94
539.153	617.94
539.367	622.94
539.581	600.94
539.795	606.94
540.009	602.94
540.222	589.94
540.436	614.94
540.65	594.94
540.864	622.94
541.078	605.94
541.292	607.94
541.506	611.94
541.72	613.94
541.934	626.94
542.147	627.94
542.361	608.94
542.575	608.94
542.789	610.94
543.002	601.94
543.216	605.94
543.43	606.94
543.644	584.94
543.857	588.94
544.071	584.94
544.285	626.94
544.498	587.94
544.712	582.94
544.925	616.94
545.139	598.94
545.352	608.94
545.566	578.94
545.779	622.94
545.993	604.94
546.206	581.94
546.42	598.94
546.633	593.94
546.847	603.94
547.06	574.94
547.274	574.94
547.487	603.94
547.7	590.94
547.914	588.94
548.127	566.94
548.34	603.94
548.554	594.94
548.767	573.94
548.98	581.94
549.193	579.94
549.407	594.94
549.62	574.94
549.833	589.94
550.046	571.94
550.259	569.94
550.473	570.94
550.686	573.94
550.899	578.94
551.112	576.94
551.325	573.94
551.538	586.94
551.751	588.94
551.964	572.94
552.177	579.94
552.39	550.94
552.603	565.94
552.816	592.94
553.029	562.94
553.242	588.94
553.455	561.94
553.667	578.94
553.88	569.94
554.093	576.94
554.306	542.94
554.519	556.94
554.732	559.94
554.944	546.94
555.157	538.94
555.37	527.94
555.583	552.94
555.795	546.94
556.008	548.94
556.221	545.94
556.433	535.94
556.646	531.94
556.859	554.94
557.071	526.94
557.284	528.94
557.496	523.94
557.709	540.94
557.921	547.94
558.134	545.94
558.346	554.94
558.559	534.94
558.771	528.94
558.984	519.94
559.196	530.94
559.409	546.94
559.621	542.94
559.833	536.94
560.046	537.94
560.258	523.94
560.47	517.94
560.683	504.94
560.895	522.94
561.107	521.94
561.32	511.94
561.532	530.94
561.744	528.94
561.956	530.94
562.168	513.94
562.381	524.94
562.593	508.94
562.805	534.94
563.017	513.94
563.229	516.94
563.441	527.94
563.653	512.94
563.865	501.94
564.077	524.94
564.289	505.94
564.501	503.94
564.713	523.94
564.925	495.94
565.137	518.94
565.349	491.94
565.561	490.94
565.773	504.94
565.985	507.94
566.197	506.94
566.408	505.94
566.62	494.94
566.832	502.94
567.044	513.94
567.255	517.94
567.467	476.94
567.679	512.94
567.891	506.94
568.102	476.94
568.314	479.94
568.526	497.94
568.737	489.94
568.949	494.94
569.161	485.94
569.372	474.94
569.584	469.94
569.795	483.94
570.007	471.94
570.218	465.94
570.43	458.94
570.641	490.94
570.853	471.94
571.064	462.94
571.276	465.94
571.487	444.94
571.698	440.94
571.91	465.94
572.121	450.94
572.333	437.94
572.544	461.94
572.755	451.94
572.966	433.94
573.178	455.94
573.389	424.94
573.6	438.94
573.811	436.94
574.023	439.94
574.234	442.94
574.445	444.94
574.656	438.94
574.867	426.94
575.078	433.94
575.289	425.94
575.501	447.94
575.712	426.94
575.923	419.94
576.134	424.94
576.345	406.94
576.556	428.94
576.767	422.94
576.978	422.94
577.188	427.94
577.399	388.94
577.61	419.94
577.821	397.94
578.032	417.94
578.243	430.94
578.454	424.94
578.665	411.94
578.875	410.94
579.086	396.94
579.297	407.94
579.508	422.94
579.718	416.94
579.929	419.94
580.14	376.94
580.35	394.94
580.561	405.94
580.772	408.94
580.982	406.94
581.193	394.94
581.403	374.94
581.614	384.94
581.825	395.94
582.035	377.94
582.246	368.94
582.456	406.94
582.667	404.94
582.877	395.94
583.087	385.94
583.298	379.94
583.508	391.94
583.719	379.94
583.929	373.94
584.139	382.94
584.35	370.94
584.56	372.94
584.77	386.94
584.981	362.94
585.191	359.94
585.401	374.94
585.611	366.94
585.821	385.94
586.032	375.94
586.242	371.94
586.452	372.94
586.662	373.94
586.872	355.94
587.082	371.94
587.292	366.94
587.502	383.94
587.713	376.94
587.923	360.94
588.133	367.94
588.343	358.94
588.553	365.94
588.762	354.94
588.972	361.94
589.182	381.94
589.392	393.94
589.602	358.94
589.812	394.94
590.022	370.94
590.232	355.94
590.441	349.94
590.651	346.94
590.861	340.94
591.071	348.94
591.281	356.94
591.49	350.94
591.7	335.94
591.91	360.94
592.119	359.94
592.329	345.94
592.539	366.94
592.748	374.94
592.958	336.94
593.167	350.94
593.377	355.94
593.587	361.94
593.796	359.94
594.006	349.94
594.215	337.94
594.424	341.94
594.634	327.94
594.843	310.94
595.053	336.94
595.262	338.94
595.472	337.94
595.681	341.94
595.89	334.94
596.1	340.94
596.309	323.94
596.518	340.94
596.727	338.94
596.937	333.94
597.146	336.94
597.355	336.94
597.564	335.94
597.774	334.94
597.983	335.94
598.192	324.94
598.401	327.94
598.61	321.94
598.819	327.94
599.028	312.94
599.237	308.94
599.446	320.94
599.655	310.94
599.864	302.94
600.073	305.94
600.282	316.94
600.491	326.94
600.7	321.94
600.909	300.94
601.118	312.94
601.327	315.94
601.536	298.94
601.745	311.94
601.953	309.94
602.162	312.94
602.371	324.94
602.58	289.94
602.789	313.94
602.997	309.94
603.206	300.94
603.415	299.94
603.623	310.94
603.832	302.94
604.041	282.94
604.249	318.94
604.458	302.94
604.666	308.94
604.875	302.94
605.084	306.94
605.292	291.94
605.501	288.94
605.709	296.94
605.918	306.94
606.126	302.94
606.334	296.94
606.543	306.94
606.751	295.94
606.96	288.94
607.168	284.94
607.376	289.94
607.585	276.94
607.793	296.94
608.001	290.94
608.21	295.94
608.418	271.94
608.626	280.94
608.834	305.94
609.043	294.94
609.251	278.94
609.459	304.94
609.667	302.94
609.875	281.94
610.083	265.94
610.291	278.94
610.499	292.94
610.707	289.94
610.916	284.94
611.124	302.94
611.332	289.94
611.54	285.94
611.748	278.94
611.955	269.94
612.163	274.94
612.371	307.94
612.579	279.94
612.787	272.94
612.995	294.94
613.203	278.94
613.411	276.94
613.618	280.94
613.826	281.94
614.034	275.94
614.242	273.94
614.449	273.94
614.657	263.94
614.865	267.94
615.072	277.94
615.28	276.94
615.488	290.94
615.695	290.94
615.903	286.94
616.111	264.94
616.318	260.94
616.526	278.94
616.733	291.94
616.941	272.94
617.148	274.94
617.356	262.94
617.563	268.94
617.771	268.94
617.978	265.94
618.185	268.94
618.393	266.94
618.6	259.94
618.807	256.94
619.015	258.94
619.222	251.94
619.429	253.94
619.637	282.94
619.844	262.94
620.051	255.94
620.258	272.94
620.466	275.94
620.673	246.94
620.88	254.94
621.087	258.94
621.294	272.94
621.501	261.94
621.708	256.94
621.915	262.94
622.122	252.94
622.329	254.94
622.536	258.94
622.743	255.94
622.95	247.94
623.157	255.94
623.364	254.94
623.571	246.94
623.778	246.94
623.985	263.94
624.192	256.94
624.399	258.94
624.606	256.94
624.812	241.94
625.019	266.94
625.226	247.94
625.433	248.94
625.639	258.94
625.846	245.94
626.053	257.94
626.259	250.94
626.466	246.94
626.673	233.94
626.879	236.94
627.086	246.94
627.293	244.94
627.499	263.94
627.706	236.94
627.912	253.94
628.119	244.94
628.325	224.94
628.532	219.94
628.738	239.94
628.945	238.94
629.151	236.94
629.357	219.94
629.564	235.94
629.77	212.94
629.976	241.94
630.183	240.94
630.389	236.94
630.595	236.94
630.802	239.94
631.008	224.94
631.214	224.94
631.42	225.94
631.627	228.94
631.833	219.94
632.039	227.94
632.245	205.94
632.451	222.94
632.657	230.94
632.863	225.94
633.069	244.94
633.275	238.94
633.481	227.94
633.688	208.94
633.893	229.94
634.099	235.94
634.305	222.94
634.511	210.94
634.717	207.94
634.923	202.94
635.129	223.94
635.335	228.94
635.541	226.94
635.747	222.94
635.952	216.94
636.158	211.94
636.364	193.94
636.57	215.94
636.775	220.94
636.981	211.94
637.187	205.94
637.392	234.94
637.598	224.94
637.804	227.94
638.009	208.94
638.215	218.94
638.421	210.94
638.626	203.94
638.832	201.94
639.037	225.94
639.243	219.94
639.448	208.94
639.654	226.94
639.859	191.94
640.065	218.94
640.27	206.94
640.475	207.94
640.681	190.94
640.886	191.94
641.091	212.94
641.297	227.94
641.502	212.94
641.707	218.94
641.913	200.94
642.118	192.94
642.323	209.94
642.528	222.94
642.733	193.94
642.939	203.94
643.144	215.94
643.349	197.94
643.554	210.94
643.759	202.94
643.964	206.94
644.169	204.94
644.374	193.94
644.579	193.94
644.784	201.94
644.989	184.94
645.194	204.94
645.399	224.94
645.604	205.94
645.809	199.94
646.014	193.94
646.219	200.94
646.423	195.94
646.628	199.94
646.833	195.94
647.038	192.94
647.243	199.94
647.447	201.94
647.652	213.94
647.857	202.94
648.062	193.94
648.266	205.94
648.471	199.94
648.676	200.94
648.88	206.94
649.085	199.94
649.289	198.94
649.494	188.94
649.698	204.94
649.903	189.94
650.107	216.94
650.312	200.94
650.516	181.94
650.721	187.94
650.925	198.94
651.13	201.94
651.334	191.94
651.539	191.94
651.743	196.94
651.947	192.94
652.152	174.94
652.356	175.94
652.56	186.94
652.764	170.94
652.969	166.94
653.173	186.94
653.377	179.94
653.581	168.94
653.785	156.94
653.99	160.94
654.194	165.94
654.398	170.94
654.602	172.94
654.806	166.94
655.01	166.94
655.214	172.94
655.418	159.94
655.622	170.94
655.826	160.94
656.03	153.94
656.234	148.94
656.438	160.94
656.642	151.94
656.846	146.94
657.049	137.94
657.253	148.94
657.457	137.94
657.661	134.94
657.865	136.94
658.068	134.94
658.272	132.94
658.476	122.94
658.68	111.94
658.883	120.94
659.087	110.94
659.291	110.94
659.494	122.94
659.698	106.94
659.901	114.94
660.105	109.94
660.309	106.94
660.512	94.94
660.716	110.94
660.919	104.94
661.123	98.94
661.326	104.94
661.53	90.94
661.733	90.94
661.936	95.94
662.14	91.94
662.343	88.94
662.546	79.94
662.75	84.94
662.953	92.94
663.156	74.94
663.36	76.94
663.563	103.94
663.766	77.94
663.969	85.94
664.173	75.94
664.376	79.94
664.579	81.94
664.782	89.94
664.985	82.94
665.188	75.94
665.391	86.94
665.594	74.94
665.797	75.94
666	80.94
666.203	90.94
666.406	72.94
666.609	87.94
666.812	91.94
667.015	85.94
667.218	81.94
667.421	80.94
667.624	83.94
667.827	92.94
668.03	90.94
668.232	66.94
668.435	79.94
668.638	87.94
668.841	86.94
669.043	73.94
669.246	70.94
669.449	68.94
669.651	82.94
669.854	74.94
670.057	86.94
670.259	73.94
670.462	68.94
670.665	88.94
670.867	70.94
671.07	88.94
671.272	85.94
671.475	95.94
671.677	86.94
671.88	67.94
672.082	84.94
672.284	78.94
672.487	81.94
672.689	78.94
672.892	71.94
