Data from Fe(NO3)3@0.1M.TitratingCurve.Agarose3%dH2O.NegLispCup.LampEnergy10.LIBS07252019_HRD10591_16-38-17-331.txt Node
Date: Thu Jul 25 16:38:17 EDT 2019
User: cochatt
Spectrometer: HR+D1059
Trigger mode: 1
Integration Time (sec): 1.000000E-1
Scans to average: 1
Electric dark correction enabled: true
Nonlinearity correction enabled: false
Boxcar width: 0
XAxis mode: Wavelengths
Number of Pixels in Spectrum: 2048
>>>>>Begin Spectral Data<<<<<
223.165	-26.94
223.4	-26.94
223.635	-26.94
223.869	-4.94
224.104	-12.94
224.338	-17.94
224.573	-7.94
224.808	-29.94
225.042	-11.94
225.277	-20.94
225.511	-10.94
225.746	4.06
225.98	19.06
226.215	7.06
226.449	22.06
226.683	24.06
226.918	36.06
227.152	32.06
227.387	26.06
227.621	24.06
227.856	37.06
228.09	46.06
228.324	68.06
228.559	59.06
228.793	60.06
229.027	77.06
229.262	71.06
229.496	69.06
229.73	64.06
229.964	80.06
230.199	105.06
230.433	91.06
230.667	78.06
230.901	82.06
231.136	85.06
231.37	83.06
231.604	92.06
231.838	88.06
232.072	98.06
232.306	89.06
232.541	121.06
232.775	103.06
233.009	96.06
233.243	99.06
233.477	82.06
233.711	83.06
233.945	92.06
234.179	101.06
234.413	91.06
234.647	96.06
234.881	91.06
235.115	98.06
235.349	80.06
235.583	95.06
235.817	78.06
236.051	92.06
236.285	84.06
236.519	102.06
236.753	97.06
236.987	98.06
237.221	102.06
237.455	95.06
237.689	96.06
237.922	102.06
238.156	97.06
238.39	88.06
238.624	92.06
238.858	93.06
239.091	85.06
239.325	104.06
239.559	92.06
239.793	90.06
240.027	89.06
240.26	95.06
240.494	105.06
240.728	102.06
240.961	112.06
241.195	101.06
241.429	94.06
241.662	99.06
241.896	86.06
242.13	77.06
242.363	104.06
242.597	90.06
242.83	88.06
243.064	95.06
243.298	91.06
243.531	101.06
243.765	106.06
243.998	117.06
244.232	104.06
244.465	94.06
244.699	120.06
244.932	100.06
245.166	99.06
245.399	112.06
245.633	100.06
245.866	105.06
246.099	98.06
246.333	107.06
246.566	93.06
246.8	97.06
247.033	118.06
247.266	90.06
247.5	101.06
247.733	110.06
247.966	99.06
248.2	104.06
248.433	105.06
248.666	113.06
248.899	108.06
249.133	121.06
249.366	117.06
249.599	108.06
249.832	97.06
250.066	104.06
250.299	103.06
250.532	105.06
250.765	104.06
250.998	112.06
251.231	109.06
251.465	126.06
251.698	112.06
251.931	114.06
252.164	127.06
252.397	111.06
252.63	127.06
252.863	113.06
253.096	97.06
253.329	117.06
253.562	104.06
253.795	111.06
254.028	105.06
254.261	108.06
254.494	99.06
254.727	114.06
254.96	118.06
255.193	113.06
255.426	110.06
255.659	122.06
255.892	112.06
256.124	134.06
256.357	116.06
256.59	128.06
256.823	108.06
257.056	103.06
257.289	119.06
257.521	129.06
257.754	104.06
257.987	115.06
258.22	118.06
258.452	125.06
258.685	113.06
258.918	129.06
259.151	108.06
259.383	115.06
259.616	112.06
259.849	128.06
260.081	122.06
260.314	134.06
260.547	118.06
260.779	134.06
261.012	134.06
261.244	130.06
261.477	134.06
261.71	123.06
261.942	126.06
262.175	112.06
262.407	130.06
262.64	128.06
262.872	145.06
263.105	133.06
263.337	141.06
263.57	116.06
263.802	130.06
264.035	126.06
264.267	126.06
264.499	139.06
264.732	138.06
264.964	136.06
265.197	123.06
265.429	133.06
265.661	121.06
265.894	137.06
266.126	126.06
266.358	127.06
266.591	141.06
266.823	135.06
267.055	134.06
267.287	138.06
267.52	151.06
267.752	128.06
267.984	131.06
268.216	129.06
268.448	141.06
268.681	123.06
268.913	134.06
269.145	115.06
269.377	131.06
269.609	135.06
269.841	141.06
270.073	135.06
270.306	138.06
270.538	133.06
270.77	146.06
271.002	138.06
271.234	128.06
271.466	144.06
271.698	153.06
271.93	138.06
272.162	136.06
272.394	146.06
272.626	154.06
272.858	130.06
273.09	146.06
273.322	126.06
273.553	149.06
273.785	148.06
274.017	160.06
274.249	137.06
274.481	145.06
274.713	146.06
274.945	150.06
275.176	145.06
275.408	143.06
275.64	158.06
275.872	151.06
276.104	137.06
276.335	147.06
276.567	126.06
276.799	135.06
277.031	142.06
277.262	125.06
277.494	129.06
277.726	148.06
277.957	153.06
278.189	138.06
278.421	145.06
278.652	141.06
278.884	135.06
279.115	150.06
279.347	150.06
279.579	148.06
279.81	148.06
280.042	141.06
280.273	134.06
280.505	156.06
280.736	146.06
280.968	140.06
281.199	137.06
281.431	140.06
281.662	137.06
281.894	155.06
282.125	141.06
282.356	160.06
282.588	148.06
282.819	156.06
283.051	138.06
283.282	147.06
283.513	149.06
283.745	162.06
283.976	152.06
284.207	155.06
284.439	161.06
284.67	157.06
284.901	150.06
285.132	143.06
285.364	147.06
285.595	159.06
285.826	160.06
286.057	163.06
286.288	142.06
286.52	156.06
286.751	153.06
286.982	179.06
287.213	154.06
287.444	173.06
287.675	162.06
287.906	166.06
288.138	161.06
288.369	143.06
288.6	150.06
288.831	161.06
289.062	164.06
289.293	162.06
289.524	154.06
289.755	170.06
289.986	157.06
290.217	164.06
290.448	176.06
290.679	164.06
290.91	173.06
291.141	165.06
291.371	162.06
291.602	172.06
291.833	168.06
292.064	168.06
292.295	164.06
292.526	176.06
292.757	164.06
292.987	172.06
293.218	165.06
293.449	164.06
293.68	150.06
293.91	147.06
294.141	153.06
294.372	146.06
294.603	172.06
294.833	165.06
295.064	156.06
295.295	170.06
295.525	146.06
295.756	164.06
295.987	180.06
296.217	176.06
296.448	173.06
296.679	174.06
296.909	166.06
297.14	184.06
297.37	171.06
297.601	170.06
297.831	157.06
298.062	174.06
298.292	162.06
298.523	181.06
298.753	179.06
298.984	180.06
299.214	176.06
299.445	186.06
299.675	181.06
299.905	159.06
300.136	171.06
300.366	182.06
300.597	168.06
300.827	171.06
301.057	167.06
301.288	188.06
301.518	182.06
301.748	166.06
301.979	170.06
302.209	182.06
302.439	181.06
302.669	189.06
302.9	184.06
303.13	173.06
303.36	182.06
303.59	168.06
303.82	176.06
304.051	174.06
304.281	173.06
304.511	181.06
304.741	177.06
304.971	170.06
305.201	160.06
305.431	177.06
305.661	169.06
305.891	165.06
306.121	172.06
306.352	185.06
306.582	182.06
306.812	185.06
307.042	177.06
307.272	163.06
307.502	173.06
307.731	172.06
307.961	183.06
308.191	185.06
308.421	184.06
308.651	170.06
308.881	169.06
309.111	158.06
309.341	168.06
309.571	172.06
309.8	168.06
310.03	173.06
310.26	179.06
310.49	168.06
310.72	190.06
310.949	188.06
311.179	170.06
311.409	182.06
311.639	180.06
311.868	194.06
312.098	185.06
312.328	188.06
312.557	187.06
312.787	176.06
313.017	169.06
313.246	174.06
313.476	170.06
313.706	184.06
313.935	177.06
314.165	180.06
314.394	179.06
314.624	185.06
314.853	181.06
315.083	177.06
315.312	180.06
315.542	166.06
315.771	187.06
316.001	165.06
316.23	187.06
316.46	182.06
316.689	186.06
316.919	166.06
317.148	189.06
317.377	186.06
317.607	181.06
317.836	181.06
318.065	178.06
318.295	186.06
318.524	180.06
318.753	190.06
318.983	174.06
319.212	190.06
319.441	190.06
319.67	179.06
319.9	179.06
320.129	184.06
320.358	176.06
320.587	172.06
320.816	176.06
321.046	192.06
321.275	183.06
321.504	180.06
321.733	185.06
321.962	161.06
322.191	200.06
322.42	180.06
322.649	183.06
322.878	177.06
323.108	184.06
323.337	196.06
323.566	207.06
323.795	170.06
324.024	195.06
324.253	180.06
324.482	176.06
324.71	195.06
324.939	184.06
325.168	194.06
325.397	178.06
325.626	188.06
325.855	194.06
326.084	184.06
326.313	202.06
326.542	186.06
326.77	213.06
326.999	210.06
327.228	201.06
327.457	197.06
327.686	182.06
327.914	198.06
328.143	210.06
328.372	196.06
328.6	215.06
328.829	211.06
329.058	198.06
329.287	207.06
329.515	195.06
329.744	204.06
329.972	202.06
330.201	193.06
330.43	193.06
330.658	195.06
330.887	211.06
331.115	188.06
331.344	184.06
331.572	200.06
331.801	200.06
332.03	213.06
332.258	187.06
332.486	195.06
332.715	209.06
332.943	216.06
333.172	226.06
333.4	232.06
333.629	219.06
333.857	229.06
334.085	240.06
334.314	226.06
334.542	249.06
334.771	238.06
334.999	227.06
335.227	246.06
335.455	239.06
335.684	221.06
335.912	224.06
336.14	237.06
336.369	205.06
336.597	214.06
336.825	220.06
337.053	213.06
337.281	205.06
337.51	227.06
337.738	210.06
337.966	227.06
338.194	202.06
338.422	205.06
338.65	209.06
338.878	205.06
339.106	228.06
339.334	216.06
339.562	209.06
339.79	211.06
340.018	204.06
340.246	199.06
340.474	221.06
340.702	198.06
340.93	186.06
341.158	205.06
341.386	202.06
341.614	187.06
341.842	200.06
342.07	172.06
342.298	196.06
342.526	212.06
342.754	200.06
342.981	214.06
343.209	209.06
343.437	208.06
343.665	205.06
343.893	214.06
344.12	242.06
344.348	242.06
344.576	211.06
344.804	214.06
345.031	226.06
345.259	209.06
345.487	184.06
345.714	193.06
345.942	201.06
346.17	193.06
346.397	188.06
346.625	197.06
346.853	212.06
347.08	191.06
347.308	181.06
347.535	194.06
347.763	198.06
347.99	205.06
348.218	190.06
348.445	204.06
348.673	176.06
348.9	209.06
349.128	193.06
349.355	206.06
349.583	204.06
349.81	201.06
350.037	197.06
350.265	187.06
350.492	187.06
350.72	202.06
350.947	192.06
351.174	191.06
351.402	188.06
351.629	185.06
351.856	202.06
352.083	180.06
352.311	170.06
352.538	197.06
352.765	170.06
352.992	173.06
353.22	190.06
353.447	197.06
353.674	191.06
353.901	197.06
354.128	181.06
354.355	208.06
354.583	194.06
354.81	197.06
355.037	188.06
355.264	198.06
355.491	187.06
355.718	194.06
355.945	202.06
356.172	196.06
356.399	193.06
356.626	203.06
356.853	190.06
357.08	212.06
357.307	204.06
357.534	210.06
357.761	179.06
357.988	184.06
358.215	183.06
358.441	200.06
358.668	192.06
358.895	189.06
359.122	204.06
359.349	201.06
359.576	192.06
359.802	195.06
360.029	186.06
360.256	193.06
360.483	188.06
360.709	188.06
360.936	200.06
361.163	203.06
361.39	185.06
361.616	169.06
361.843	195.06
362.07	200.06
362.296	198.06
362.523	192.06
362.749	183.06
362.976	204.06
363.203	204.06
363.429	199.06
363.656	198.06
363.882	193.06
364.109	198.06
364.335	184.06
364.562	187.06
364.788	189.06
365.015	194.06
365.241	214.06
365.468	202.06
365.694	220.06
365.92	198.06
366.147	178.06
366.373	196.06
366.599	189.06
366.826	216.06
367.052	201.06
367.278	198.06
367.505	193.06
367.731	192.06
367.957	199.06
368.184	189.06
368.41	196.06
368.636	196.06
368.862	196.06
369.089	202.06
369.315	215.06
369.541	205.06
369.767	193.06
369.993	209.06
370.219	198.06
370.445	203.06
370.672	220.06
370.898	187.06
371.124	195.06
371.35	194.06
371.576	200.06
371.802	204.06
372.028	210.06
372.254	202.06
372.48	207.06
372.706	211.06
372.932	217.06
373.158	221.06
373.384	206.06
373.61	199.06
373.835	223.06
374.061	210.06
374.287	216.06
374.513	225.06
374.739	231.06
374.965	246.06
375.191	237.06
375.416	225.06
375.642	216.06
375.868	220.06
376.094	205.06
376.319	214.06
376.545	204.06
376.771	200.06
376.997	203.06
377.222	205.06
377.448	212.06
377.674	215.06
377.899	233.06
378.125	221.06
378.35	216.06
378.576	216.06
378.802	214.06
379.027	222.06
379.253	214.06
379.478	209.06
379.704	188.06
379.929	200.06
380.155	205.06
380.38	206.06
380.606	206.06
380.831	209.06
381.057	234.06
381.282	213.06
381.507	212.06
381.733	215.06
381.958	230.06
382.184	230.06
382.409	225.06
382.634	226.06
382.86	217.06
383.085	226.06
383.31	220.06
383.535	230.06
383.761	222.06
383.986	231.06
384.211	235.06
384.436	230.06
384.662	245.06
384.887	250.06
385.112	238.06
385.337	250.06
385.562	238.06
385.787	261.06
386.013	262.06
386.238	248.06
386.463	270.06
386.688	261.06
386.913	268.06
387.138	249.06
387.363	263.06
387.588	263.06
387.813	252.06
388.038	247.06
388.263	250.06
388.488	253.06
388.713	240.06
388.938	247.06
389.163	236.06
389.387	240.06
389.612	260.06
389.837	254.06
390.062	234.06
390.287	239.06
390.512	261.06
390.736	253.06
390.961	256.06
391.186	260.06
391.411	266.06
391.636	270.06
391.86	280.06
392.085	267.06
392.31	267.06
392.534	271.06
392.759	268.06
392.984	261.06
393.208	266.06
393.433	248.06
393.658	267.06
393.882	266.06
394.107	268.06
394.331	268.06
394.556	271.06
394.78	275.06
395.005	281.06
395.229	277.06
395.454	264.06
395.678	272.06
395.903	275.06
396.127	278.06
396.352	262.06
396.576	263.06
396.801	252.06
397.025	264.06
397.249	252.06
397.474	273.06
397.698	274.06
397.922	277.06
398.147	266.06
398.371	296.06
398.595	306.06
398.82	294.06
399.044	334.06
399.268	329.06
399.492	372.06
399.717	416.06
399.941	406.06
400.165	376.06
400.389	341.06
400.613	324.06
400.837	326.06
401.062	316.06
401.286	311.06
401.51	321.06
401.734	319.06
401.958	294.06
402.182	308.06
402.406	309.06
402.63	318.06
402.854	323.06
403.078	330.06
403.302	324.06
403.526	338.06
403.75	341.06
403.974	338.06
404.198	350.06
404.422	344.06
404.645	330.06
404.869	342.06
405.093	350.06
405.317	329.06
405.541	321.06
405.765	332.06
405.988	329.06
406.212	315.06
406.436	322.06
406.66	345.06
406.883	345.06
407.107	371.06
407.331	390.06
407.555	393.06
407.778	380.06
408.002	356.06
408.226	359.06
408.449	372.06
408.673	337.06
408.896	340.06
409.12	349.06
409.344	348.06
409.567	331.06
409.791	359.06
410.014	339.06
410.238	355.06
410.461	367.06
410.685	340.06
410.908	328.06
411.132	347.06
411.355	326.06
411.578	323.06
411.802	328.06
412.025	319.06
412.249	330.06
412.472	333.06
412.695	316.06
412.919	319.06
413.142	326.06
413.365	307.06
413.589	325.06
413.812	315.06
414.035	313.06
414.258	301.06
414.482	318.06
414.705	333.06
414.928	311.06
415.151	317.06
415.374	328.06
415.597	312.06
415.821	322.06
416.044	307.06
416.267	315.06
416.49	305.06
416.713	286.06
416.936	310.06
417.159	299.06
417.382	313.06
417.605	309.06
417.828	316.06
418.051	331.06
418.274	313.06
418.497	304.06
418.72	326.06
418.943	318.06
419.166	346.06
419.389	351.06
419.611	347.06
419.834	332.06
420.057	325.06
420.28	340.06
420.503	324.06
420.726	319.06
420.948	322.06
421.171	313.06
421.394	310.06
421.617	295.06
421.839	300.06
422.062	311.06
422.285	331.06
422.507	331.06
422.73	308.06
422.953	332.06
423.175	311.06
423.398	331.06
423.621	329.06
423.843	322.06
424.066	361.06
424.288	349.06
424.511	344.06
424.733	313.06
424.956	311.06
425.178	325.06
425.401	301.06
425.623	308.06
425.846	310.06
426.068	302.06
426.291	327.06
426.513	278.06
426.735	296.06
426.958	307.06
427.18	308.06
427.402	283.06
427.625	296.06
427.847	290.06
428.069	304.06
428.292	304.06
428.514	282.06
428.736	295.06
428.958	306.06
429.181	271.06
429.403	283.06
429.625	306.06
429.847	274.06
430.069	289.06
430.292	284.06
430.514	287.06
430.736	290.06
430.958	282.06
431.18	291.06
431.402	280.06
431.624	281.06
431.846	300.06
432.068	289.06
432.29	294.06
432.512	278.06
432.734	299.06
432.956	292.06
433.178	282.06
433.4	306.06
433.622	321.06
433.844	299.06
434.066	288.06
434.287	294.06
434.509	299.06
434.731	321.06
434.953	324.06
435.175	320.06
435.397	308.06
435.618	300.06
435.84	298.06
436.062	283.06
436.284	285.06
436.505	296.06
436.727	281.06
436.949	285.06
437.17	273.06
437.392	272.06
437.614	277.06
437.835	273.06
438.057	280.06
438.278	280.06
438.5	304.06
438.721	278.06
438.943	284.06
439.165	298.06
439.386	281.06
439.608	277.06
439.829	305.06
440.05	300.06
440.272	297.06
440.493	284.06
440.715	303.06
440.936	295.06
441.158	292.06
441.379	293.06
441.6	318.06
441.822	314.06
442.043	325.06
442.264	315.06
442.486	306.06
442.707	313.06
442.928	328.06
443.149	309.06
443.371	310.06
443.592	326.06
443.813	347.06
444.034	319.06
444.255	337.06
444.476	333.06
444.698	359.06
444.919	379.06
445.14	470.06
445.361	387.06
445.582	332.06
445.803	316.06
446.024	294.06
446.245	302.06
446.466	298.06
446.687	307.06
446.908	306.06
447.129	289.06
447.35	301.06
447.571	300.06
447.792	273.06
448.013	305.06
448.234	253.06
448.455	268.06
448.675	268.06
448.896	284.06
449.117	282.06
449.338	274.06
449.559	279.06
449.779	252.06
450	262.06
450.221	262.06
450.442	283.06
450.662	276.06
450.883	278.06
451.104	279.06
451.324	285.06
451.545	269.06
451.766	283.06
451.986	271.06
452.207	272.06
452.428	260.06
452.648	261.06
452.869	258.06
453.089	268.06
453.31	284.06
453.53	285.06
453.751	283.06
453.971	282.06
454.192	277.06
454.412	276.06
454.633	263.06
454.853	249.06
455.073	256.06
455.294	253.06
455.514	258.06
455.734	261.06
455.955	264.06
456.175	264.06
456.395	257.06
456.616	262.06
456.836	253.06
457.056	269.06
457.276	263.06
457.497	256.06
457.717	257.06
457.937	252.06
458.157	256.06
458.377	251.06
458.598	269.06
458.818	275.06
459.038	283.06
459.258	284.06
459.478	287.06
459.698	307.06
459.918	300.06
460.138	300.06
460.358	331.06
460.578	337.06
460.798	320.06
461.018	350.06
461.238	336.06
461.458	337.06
461.678	336.06
461.898	350.06
462.118	344.06
462.338	343.06
462.558	335.06
462.777	341.06
462.997	386.06
463.217	411.06
463.437	403.06
463.657	375.06
463.876	373.06
464.096	378.06
464.316	374.06
464.536	378.06
464.755	367.06
464.975	347.06
465.195	333.06
465.414	337.06
465.634	316.06
465.854	316.06
466.073	300.06
466.293	296.06
466.512	293.06
466.732	279.06
466.951	283.06
467.171	299.06
467.391	288.06
467.61	291.06
467.829	278.06
468.049	270.06
468.268	269.06
468.488	272.06
468.707	275.06
468.927	294.06
469.146	276.06
469.365	282.06
469.585	294.06
469.804	284.06
470.023	276.06
470.243	284.06
470.462	295.06
470.681	278.06
470.901	286.06
471.12	291.06
471.339	294.06
471.558	281.06
471.777	285.06
471.997	277.06
472.216	294.06
472.435	279.06
472.654	261.06
472.873	258.06
473.092	265.06
473.311	268.06
473.53	267.06
473.749	267.06
473.968	268.06
474.187	260.06
474.406	254.06
474.625	280.06
474.844	273.06
475.063	267.06
475.282	284.06
475.501	269.06
475.72	253.06
475.939	263.06
476.158	287.06
476.377	281.06
476.596	285.06
476.814	275.06
477.033	300.06
477.252	303.06
477.471	296.06
477.69	301.06
477.908	285.06
478.127	321.06
478.346	316.06
478.564	315.06
478.783	319.06
479.002	305.06
479.22	330.06
479.439	324.06
479.658	323.06
479.876	335.06
480.095	346.06
480.313	351.06
480.532	328.06
480.751	337.06
480.969	332.06
481.188	314.06
481.406	316.06
481.624	300.06
481.843	312.06
482.061	282.06
482.28	302.06
482.498	309.06
482.717	301.06
482.935	323.06
483.153	284.06
483.372	277.06
483.59	312.06
483.808	304.06
484.027	305.06
484.245	294.06
484.463	322.06
484.681	320.06
484.9	313.06
485.118	303.06
485.336	311.06
485.554	318.06
485.772	335.06
485.99	323.06
486.209	306.06
486.427	322.06
486.645	314.06
486.863	314.06
487.081	329.06
487.299	354.06
487.517	316.06
487.735	308.06
487.953	315.06
488.171	323.06
488.389	313.06
488.607	307.06
488.825	314.06
489.043	310.06
489.261	301.06
489.479	308.06
489.696	321.06
489.914	311.06
490.132	313.06
490.35	321.06
490.568	312.06
490.786	318.06
491.003	332.06
491.221	302.06
491.439	310.06
491.657	330.06
491.874	325.06
492.092	336.06
492.31	326.06
492.527	320.06
492.745	315.06
492.963	326.06
493.18	318.06
493.398	323.06
493.615	328.06
493.833	309.06
494.05	325.06
494.268	345.06
494.485	330.06
494.703	334.06
494.92	336.06
495.138	316.06
495.355	314.06
495.573	310.06
495.79	328.06
496.008	344.06
496.225	351.06
496.442	337.06
496.66	344.06
496.877	358.06
497.094	361.06
497.312	369.06
497.529	361.06
497.746	371.06
497.963	372.06
498.181	379.06
498.398	396.06
498.615	410.06
498.832	423.06
499.049	454.06
499.267	476.06
499.484	552.06
499.701	582.06
499.918	626.06
500.135	674.06
500.352	773.06
500.569	814.06
500.786	818.06
501.003	728.06
501.22	661.06
501.437	605.06
501.654	536.06
501.871	504.06
502.088	499.06
502.305	462.06
502.522	457.06
502.739	424.06
502.956	408.06
503.172	392.06
503.389	380.06
503.606	374.06
503.823	359.06
504.04	348.06
504.256	377.06
504.473	365.06
504.69	394.06
504.907	368.06
505.123	328.06
505.34	330.06
505.557	309.06
505.773	327.06
505.99	312.06
506.207	303.06
506.423	292.06
506.64	297.06
506.856	286.06
507.073	298.06
507.289	287.06
507.506	309.06
507.722	285.06
507.939	293.06
508.155	301.06
508.372	273.06
508.588	292.06
508.805	282.06
509.021	295.06
509.238	288.06
509.454	288.06
509.67	304.06
509.887	272.06
510.103	288.06
510.319	297.06
510.536	289.06
510.752	267.06
510.968	275.06
511.184	284.06
511.401	274.06
511.617	287.06
511.833	278.06
512.049	278.06
512.265	269.06
512.481	283.06
512.698	279.06
512.914	274.06
513.13	280.06
513.346	266.06
513.562	261.06
513.778	291.06
513.994	265.06
514.21	272.06
514.426	289.06
514.642	285.06
514.858	271.06
515.074	292.06
515.29	294.06
515.506	292.06
515.721	285.06
515.937	289.06
516.153	297.06
516.369	302.06
516.585	320.06
516.801	322.06
517.016	331.06
517.232	332.06
517.448	345.06
517.664	366.06
517.879	338.06
518.095	340.06
518.311	359.06
518.527	335.06
518.742	324.06
518.958	320.06
519.173	324.06
519.389	312.06
519.605	285.06
519.82	297.06
520.036	284.06
520.251	288.06
520.467	270.06
520.682	285.06
520.898	280.06
521.113	282.06
521.329	261.06
521.544	261.06
521.76	288.06
521.975	269.06
522.19	267.06
522.406	283.06
522.621	265.06
522.836	278.06
523.052	275.06
523.267	260.06
523.482	270.06
523.698	260.06
523.913	266.06
524.128	273.06
524.343	256.06
524.559	261.06
524.774	260.06
524.989	271.06
525.204	264.06
525.419	249.06
525.634	261.06
525.849	264.06
526.064	259.06
526.28	246.06
526.495	266.06
526.71	267.06
526.925	252.06
527.14	257.06
527.355	256.06
527.57	269.06
527.785	253.06
527.999	252.06
528.214	246.06
528.429	255.06
528.644	261.06
528.859	262.06
529.074	254.06
529.289	247.06
529.503	261.06
529.718	259.06
529.933	246.06
530.148	241.06
530.363	251.06
530.577	256.06
530.792	268.06
531.007	265.06
531.221	266.06
531.436	261.06
531.651	247.06
531.865	246.06
532.08	264.06
532.295	260.06
532.509	248.06
532.724	258.06
532.938	249.06
533.153	241.06
533.367	260.06
533.582	274.06
533.796	234.06
534.011	252.06
534.225	252.06
534.44	252.06
534.654	240.06
534.868	273.06
535.083	245.06
535.297	257.06
535.511	242.06
535.726	278.06
535.94	249.06
536.154	234.06
536.369	239.06
536.583	258.06
536.797	252.06
537.011	238.06
537.225	226.06
537.44	231.06
537.654	244.06
537.868	244.06
538.082	240.06
538.296	221.06
538.51	240.06
538.724	256.06
538.938	247.06
539.153	253.06
539.367	253.06
539.581	245.06
539.795	235.06
540.009	250.06
540.222	238.06
540.436	232.06
540.65	214.06
540.864	229.06
541.078	247.06
541.292	235.06
541.506	252.06
541.72	246.06
541.934	245.06
542.147	242.06
542.361	243.06
542.575	248.06
542.789	235.06
543.002	228.06
543.216	239.06
543.43	231.06
543.644	234.06
543.857	230.06
544.071	260.06
544.285	256.06
544.498	229.06
544.712	253.06
544.925	232.06
545.139	251.06
545.352	252.06
545.566	234.06
545.779	228.06
545.993	256.06
546.206	240.06
546.42	232.06
546.633	218.06
546.847	234.06
547.06	253.06
547.274	243.06
547.487	255.06
547.7	221.06
547.914	244.06
548.127	235.06
548.34	237.06
548.554	242.06
548.767	238.06
548.98	218.06
549.193	232.06
549.407	260.06
549.62	243.06
549.833	236.06
550.046	229.06
550.259	257.06
550.473	259.06
550.686	249.06
550.899	256.06
551.112	246.06
551.325	243.06
551.538	261.06
551.751	240.06
551.964	239.06
552.177	251.06
552.39	254.06
552.603	253.06
552.816	255.06
553.029	257.06
553.242	237.06
553.455	246.06
553.667	255.06
553.88	268.06
554.093	257.06
554.306	241.06
554.519	236.06
554.732	230.06
554.944	242.06
555.157	233.06
555.37	235.06
555.583	224.06
555.795	219.06
556.008	230.06
556.221	225.06
556.433	227.06
556.646	240.06
556.859	229.06
557.071	233.06
557.284	210.06
557.496	213.06
557.709	224.06
557.921	221.06
558.134	209.06
558.346	212.06
558.559	221.06
558.771	220.06
558.984	213.06
559.196	216.06
559.409	217.06
559.621	205.06
559.833	218.06
560.046	225.06
560.258	212.06
560.47	209.06
560.683	215.06
560.895	218.06
561.107	212.06
561.32	203.06
561.532	212.06
561.744	210.06
561.956	223.06
562.168	221.06
562.381	221.06
562.593	192.06
562.805	203.06
563.017	209.06
563.229	210.06
563.441	192.06
563.653	208.06
563.865	211.06
564.077	196.06
564.289	201.06
564.501	217.06
564.713	224.06
564.925	235.06
565.137	221.06
565.349	207.06
565.561	216.06
565.773	237.06
565.985	245.06
566.197	248.06
566.408	269.06
566.62	271.06
566.832	287.06
567.044	313.06
567.255	292.06
567.467	289.06
567.679	321.06
567.891	334.06
568.102	346.06
568.314	335.06
568.526	295.06
568.737	259.06
568.949	250.06
569.161	240.06
569.372	233.06
569.584	234.06
569.795	219.06
570.007	214.06
570.218	225.06
570.43	218.06
570.641	222.06
570.853	220.06
571.064	225.06
571.276	201.06
571.487	208.06
571.698	208.06
571.91	215.06
572.121	213.06
572.333	197.06
572.544	189.06
572.755	199.06
572.966	191.06
573.178	185.06
573.389	177.06
573.6	187.06
573.811	188.06
574.023	180.06
574.234	189.06
574.445	194.06
574.656	179.06
574.867	181.06
575.078	188.06
575.289	166.06
575.501	184.06
575.712	185.06
575.923	177.06
576.134	165.06
576.345	164.06
576.556	178.06
576.767	181.06
576.978	169.06
577.188	186.06
577.399	170.06
577.61	171.06
577.821	171.06
578.032	164.06
578.243	177.06
578.454	168.06
578.665	180.06
578.875	168.06
579.086	166.06
579.297	168.06
579.508	166.06
579.718	162.06
579.929	158.06
580.14	154.06
580.35	156.06
580.561	174.06
580.772	166.06
580.982	169.06
581.193	162.06
581.403	177.06
581.614	170.06
581.825	158.06
582.035	159.06
582.246	164.06
582.456	168.06
582.667	170.06
582.877	171.06
583.087	164.06
583.298	164.06
583.508	175.06
583.719	157.06
583.929	168.06
584.139	171.06
584.35	158.06
584.56	164.06
584.77	165.06
584.981	167.06
585.191	165.06
585.401	164.06
585.611	165.06
585.821	159.06
586.032	148.06
586.242	178.06
586.452	160.06
586.662	162.06
586.872	185.06
587.082	159.06
587.292	142.06
587.502	152.06
587.713	146.06
587.923	165.06
588.133	176.06
588.343	146.06
588.553	163.06
588.762	167.06
588.972	163.06
589.182	149.06
589.392	164.06
589.602	154.06
589.812	153.06
590.022	168.06
590.232	162.06
590.441	167.06
590.651	162.06
590.861	155.06
591.071	156.06
591.281	150.06
591.49	150.06
591.7	157.06
591.91	158.06
592.119	170.06
592.329	177.06
592.539	172.06
592.748	185.06
592.958	162.06
593.167	186.06
593.377	175.06
593.587	184.06
593.796	195.06
594.006	181.06
594.215	171.06
594.424	181.06
594.634	160.06
594.843	171.06
595.053	162.06
595.262	173.06
595.472	183.06
595.681	169.06
595.89	161.06
596.1	139.06
596.309	149.06
596.518	145.06
596.727	155.06
596.937	145.06
597.146	138.06
597.355	148.06
597.564	151.06
597.774	157.06
597.983	142.06
598.192	166.06
598.401	146.06
598.61	161.06
598.819	146.06
599.028	146.06
599.237	151.06
599.446	143.06
599.655	141.06
599.864	165.06
600.073	138.06
600.282	160.06
600.491	151.06
600.7	134.06
600.909	154.06
601.118	152.06
601.327	154.06
601.536	130.06
601.745	144.06
601.953	136.06
602.162	151.06
602.371	133.06
602.58	155.06
602.789	133.06
602.997	131.06
603.206	155.06
603.415	128.06
603.623	152.06
603.832	142.06
604.041	136.06
604.249	142.06
604.458	156.06
604.666	150.06
604.875	142.06
605.084	131.06
605.292	146.06
605.501	135.06
605.709	139.06
605.918	132.06
606.126	147.06
606.334	134.06
606.543	140.06
606.751	131.06
606.96	154.06
607.168	132.06
607.376	145.06
607.585	145.06
607.793	137.06
608.001	140.06
608.21	149.06
608.418	137.06
608.626	141.06
608.834	138.06
609.043	133.06
609.251	134.06
609.459	130.06
609.667	139.06
609.875	134.06
610.083	141.06
610.291	127.06
610.499	130.06
610.707	129.06
610.916	135.06
611.124	138.06
611.332	127.06
611.54	124.06
611.748	132.06
611.955	140.06
612.163	136.06
612.371	122.06
612.579	137.06
612.787	148.06
612.995	128.06
613.203	154.06
613.411	133.06
613.618	130.06
613.826	138.06
614.034	132.06
614.242	146.06
614.449	126.06
614.657	134.06
614.865	136.06
615.072	136.06
615.28	139.06
615.488	140.06
615.695	164.06
615.903	122.06
616.111	134.06
616.318	152.06
616.526	138.06
616.733	143.06
616.941	140.06
617.148	133.06
617.356	138.06
617.563	136.06
617.771	151.06
617.978	141.06
618.185	137.06
618.393	137.06
618.6	151.06
618.807	121.06
619.015	142.06
619.222	105.06
619.429	126.06
619.637	140.06
619.844	134.06
620.051	141.06
620.258	134.06
620.466	136.06
620.673	132.06
620.88	126.06
621.087	127.06
621.294	127.06
621.501	132.06
621.708	141.06
621.915	132.06
622.122	141.06
622.329	140.06
622.536	133.06
622.743	125.06
622.95	129.06
623.157	134.06
623.364	120.06
623.571	118.06
623.778	133.06
623.985	122.06
624.192	151.06
624.399	130.06
624.606	128.06
624.812	116.06
625.019	126.06
625.226	125.06
625.433	127.06
625.639	127.06
625.846	128.06
626.053	131.06
626.259	117.06
626.466	127.06
626.673	117.06
626.879	120.06
627.086	126.06
627.293	124.06
627.499	116.06
627.706	124.06
627.912	124.06
628.119	118.06
628.325	124.06
628.532	118.06
628.738	126.06
628.945	109.06
629.151	122.06
629.357	131.06
629.564	125.06
629.77	128.06
629.976	128.06
630.183	123.06
630.389	134.06
630.595	123.06
630.802	123.06
631.008	123.06
631.214	129.06
631.42	126.06
631.627	124.06
631.833	127.06
632.039	112.06
632.245	117.06
632.451	134.06
632.657	114.06
632.863	122.06
633.069	123.06
633.275	117.06
633.481	121.06
633.688	113.06
633.893	117.06
634.099	107.06
634.305	115.06
634.511	110.06
634.717	128.06
634.923	109.06
635.129	105.06
635.335	123.06
635.541	103.06
635.747	114.06
635.952	108.06
636.158	122.06
636.364	96.06
636.57	112.06
636.775	112.06
636.981	113.06
637.187	100.06
637.392	128.06
637.598	123.06
637.804	117.06
638.009	129.06
638.215	120.06
638.421	123.06
638.626	100.06
638.832	111.06
639.037	110.06
639.243	122.06
639.448	110.06
639.654	117.06
639.859	114.06
640.065	113.06
640.27	105.06
640.475	122.06
640.681	123.06
640.886	113.06
641.091	113.06
641.297	125.06
641.502	129.06
641.707	121.06
641.913	108.06
642.118	109.06
642.323	109.06
642.528	105.06
642.733	110.06
642.939	127.06
643.144	122.06
643.349	101.06
643.554	119.06
643.759	96.06
643.964	108.06
644.169	109.06
644.374	107.06
644.579	117.06
644.784	109.06
644.989	114.06
645.194	108.06
645.399	122.06
645.604	106.06
645.809	122.06
646.014	122.06
646.219	102.06
646.423	120.06
646.628	115.06
646.833	110.06
647.038	102.06
647.243	118.06
647.447	115.06
647.652	118.06
647.857	107.06
648.062	118.06
648.266	130.06
648.471	134.06
648.676	119.06
648.88	102.06
649.085	102.06
649.289	116.06
649.494	102.06
649.698	118.06
649.903	98.06
650.107	107.06
650.312	126.06
650.516	124.06
650.721	112.06
650.925	114.06
651.13	101.06
651.334	116.06
651.539	106.06
651.743	104.06
651.947	103.06
652.152	93.06
652.356	119.06
652.56	112.06
652.764	110.06
652.969	114.06
653.173	98.06
653.377	105.06
653.581	95.06
653.785	95.06
653.99	116.06
654.194	112.06
654.398	95.06
654.602	105.06
654.806	108.06
655.01	104.06
655.214	100.06
655.418	114.06
655.622	93.06
655.826	105.06
656.03	97.06
656.234	108.06
656.438	103.06
656.642	107.06
656.846	90.06
657.049	92.06
657.253	100.06
657.457	93.06
657.661	110.06
657.865	83.06
658.068	91.06
658.272	90.06
658.476	92.06
658.68	91.06
658.883	102.06
659.087	86.06
659.291	97.06
659.494	95.06
659.698	92.06
659.901	85.06
660.105	89.06
660.309	80.06
660.512	88.06
660.716	87.06
660.919	81.06
661.123	86.06
661.326	96.06
661.53	93.06
661.733	83.06
661.936	86.06
662.14	77.06
662.343	84.06
662.546	90.06
662.75	86.06
662.953	91.06
663.156	88.06
663.36	85.06
663.563	77.06
663.766	89.06
663.969	73.06
664.173	74.06
664.376	87.06
664.579	91.06
664.782	79.06
664.985	75.06
665.188	93.06
665.391	82.06
665.594	83.06
665.797	76.06
666	79.06
666.203	90.06
666.406	75.06
666.609	87.06
666.812	77.06
667.015	87.06
667.218	92.06
667.421	85.06
667.624	84.06
667.827	78.06
668.03	84.06
668.232	89.06
668.435	80.06
668.638	71.06
668.841	88.06
669.043	88.06
669.246	96.06
669.449	92.06
669.651	92.06
669.854	76.06
670.057	87.06
670.259	71.06
670.462	68.06
670.665	75.06
670.867	70.06
671.07	81.06
671.272	78.06
671.475	81.06
671.677	70.06
671.88	73.06
672.082	78.06
672.284	79.06
672.487	73.06
672.689	69.06
672.892	74.06
