Data from Fe(NO3)3@0.1M.TitratingCurve.Agarose3%dH2O.NegLispCup.LampEnergy10.LIBS07252019_HRD10591_16-37-47-331.txt Node
Date: Thu Jul 25 16:37:47 EDT 2019
User: cochatt
Spectrometer: HR+D1059
Trigger mode: 1
Integration Time (sec): 1.000000E-1
Scans to average: 1
Electric dark correction enabled: true
Nonlinearity correction enabled: false
Boxcar width: 0
XAxis mode: Wavelengths
Number of Pixels in Spectrum: 2048
>>>>>Begin Spectral Data<<<<<
223.165	-17.62
223.4	-17.62
223.635	-17.62
223.869	-34.62
224.104	-21.62
224.338	-8.62
224.573	-17.62
224.808	-9.62
225.042	1.38
225.277	-2.62
225.511	1.38
225.746	-3.62
225.98	8.38
226.215	3.38
226.449	16.38
226.683	24.38
226.918	35.38
227.152	25.38
227.387	27.38
227.621	44.38
227.856	39.38
228.09	42.38
228.324	53.38
228.559	42.38
228.793	61.38
229.027	66.38
229.262	86.38
229.496	87.38
229.73	80.38
229.964	101.38
230.199	96.38
230.433	85.38
230.667	89.38
230.901	97.38
231.136	98.38
231.37	103.38
231.604	90.38
231.838	109.38
232.072	106.38
232.306	109.38
232.541	111.38
232.775	101.38
233.009	109.38
233.243	122.38
233.477	109.38
233.711	103.38
233.945	118.38
234.179	91.38
234.413	110.38
234.647	100.38
234.881	101.38
235.115	119.38
235.349	102.38
235.583	113.38
235.817	115.38
236.051	106.38
236.285	93.38
236.519	106.38
236.753	100.38
236.987	92.38
237.221	129.38
237.455	121.38
237.689	121.38
237.922	117.38
238.156	117.38
238.39	105.38
238.624	113.38
238.858	125.38
239.091	118.38
239.325	118.38
239.559	116.38
239.793	118.38
240.027	132.38
240.26	127.38
240.494	129.38
240.728	124.38
240.961	120.38
241.195	122.38
241.429	115.38
241.662	147.38
241.896	117.38
242.13	117.38
242.363	119.38
242.597	125.38
242.83	118.38
243.064	152.38
243.298	137.38
243.531	130.38
243.765	142.38
243.998	133.38
244.232	118.38
244.465	135.38
244.699	149.38
244.932	135.38
245.166	138.38
245.399	126.38
245.633	143.38
245.866	142.38
246.099	147.38
246.333	141.38
246.566	139.38
246.8	161.38
247.033	131.38
247.266	141.38
247.5	137.38
247.733	149.38
247.966	151.38
248.2	165.38
248.433	133.38
248.666	141.38
248.899	158.38
249.133	138.38
249.366	144.38
249.599	147.38
249.832	158.38
250.066	164.38
250.299	159.38
250.532	151.38
250.765	135.38
250.998	142.38
251.231	165.38
251.465	157.38
251.698	153.38
251.931	165.38
252.164	137.38
252.397	169.38
252.63	171.38
252.863	162.38
253.096	166.38
253.329	173.38
253.562	172.38
253.795	176.38
254.028	151.38
254.261	174.38
254.494	181.38
254.727	165.38
254.96	161.38
255.193	180.38
255.426	157.38
255.659	161.38
255.892	157.38
256.124	161.38
256.357	166.38
256.59	177.38
256.823	174.38
257.056	174.38
257.289	187.38
257.521	154.38
257.754	166.38
257.987	179.38
258.22	177.38
258.452	171.38
258.685	177.38
258.918	187.38
259.151	185.38
259.383	170.38
259.616	180.38
259.849	186.38
260.081	190.38
260.314	193.38
260.547	184.38
260.779	187.38
261.012	183.38
261.244	182.38
261.477	197.38
261.71	196.38
261.942	186.38
262.175	202.38
262.407	202.38
262.64	200.38
262.872	206.38
263.105	178.38
263.337	175.38
263.57	194.38
263.802	186.38
264.035	202.38
264.267	183.38
264.499	181.38
264.732	194.38
264.964	191.38
265.197	209.38
265.429	199.38
265.661	203.38
265.894	199.38
266.126	210.38
266.358	197.38
266.591	205.38
266.823	199.38
267.055	210.38
267.287	192.38
267.52	198.38
267.752	202.38
267.984	211.38
268.216	214.38
268.448	197.38
268.681	213.38
268.913	206.38
269.145	209.38
269.377	206.38
269.609	195.38
269.841	215.38
270.073	206.38
270.306	209.38
270.538	207.38
270.77	216.38
271.002	202.38
271.234	212.38
271.466	227.38
271.698	202.38
271.93	215.38
272.162	222.38
272.394	226.38
272.626	214.38
272.858	224.38
273.09	218.38
273.322	221.38
273.553	216.38
273.785	209.38
274.017	218.38
274.249	230.38
274.481	233.38
274.713	229.38
274.945	242.38
275.176	219.38
275.408	225.38
275.64	237.38
275.872	236.38
276.104	224.38
276.335	231.38
276.567	236.38
276.799	232.38
277.031	236.38
277.262	221.38
277.494	245.38
277.726	226.38
277.957	236.38
278.189	248.38
278.421	228.38
278.652	245.38
278.884	242.38
279.115	254.38
279.347	239.38
279.579	227.38
279.81	235.38
280.042	251.38
280.273	261.38
280.505	244.38
280.736	238.38
280.968	253.38
281.199	266.38
281.431	254.38
281.662	245.38
281.894	238.38
282.125	253.38
282.356	248.38
282.588	253.38
282.819	249.38
283.051	244.38
283.282	238.38
283.513	267.38
283.745	252.38
283.976	257.38
284.207	250.38
284.439	259.38
284.67	241.38
284.901	260.38
285.132	275.38
285.364	273.38
285.595	274.38
285.826	257.38
286.057	241.38
286.288	237.38
286.52	261.38
286.751	289.38
286.982	253.38
287.213	257.38
287.444	286.38
287.675	261.38
287.906	255.38
288.138	268.38
288.369	261.38
288.6	249.38
288.831	275.38
289.062	285.38
289.293	269.38
289.524	259.38
289.755	276.38
289.986	262.38
290.217	273.38
290.448	280.38
290.679	262.38
290.91	261.38
291.141	275.38
291.371	282.38
291.602	281.38
291.833	284.38
292.064	271.38
292.295	272.38
292.526	257.38
292.757	262.38
292.987	271.38
293.218	258.38
293.449	285.38
293.68	260.38
293.91	271.38
294.141	253.38
294.372	270.38
294.603	274.38
294.833	274.38
295.064	263.38
295.295	275.38
295.525	275.38
295.756	274.38
295.987	281.38
296.217	278.38
296.448	269.38
296.679	274.38
296.909	272.38
297.14	284.38
297.37	292.38
297.601	291.38
297.831	314.38
298.062	315.38
298.292	294.38
298.523	289.38
298.753	302.38
298.984	307.38
299.214	297.38
299.445	284.38
299.675	299.38
299.905	294.38
300.136	299.38
300.366	309.38
300.597	299.38
300.827	297.38
301.057	307.38
301.288	305.38
301.518	296.38
301.748	318.38
301.979	289.38
302.209	313.38
302.439	322.38
302.669	299.38
302.9	298.38
303.13	301.38
303.36	292.38
303.59	329.38
303.82	316.38
304.051	312.38
304.281	314.38
304.511	301.38
304.741	309.38
304.971	290.38
305.201	309.38
305.431	308.38
305.661	315.38
305.891	302.38
306.121	291.38
306.352	312.38
306.582	316.38
306.812	312.38
307.042	299.38
307.272	318.38
307.502	310.38
307.731	313.38
307.961	326.38
308.191	297.38
308.421	293.38
308.651	296.38
308.881	296.38
309.111	313.38
309.341	310.38
309.571	311.38
309.8	303.38
310.03	298.38
310.26	309.38
310.49	320.38
310.72	309.38
310.949	298.38
311.179	298.38
311.409	305.38
311.639	301.38
311.868	306.38
312.098	315.38
312.328	285.38
312.557	322.38
312.787	306.38
313.017	327.38
313.246	322.38
313.476	322.38
313.706	333.38
313.935	324.38
314.165	327.38
314.394	333.38
314.624	322.38
314.853	329.38
315.083	324.38
315.312	326.38
315.542	328.38
315.771	335.38
316.001	313.38
316.23	318.38
316.46	313.38
316.689	333.38
316.919	314.38
317.148	314.38
317.377	307.38
317.607	311.38
317.836	320.38
318.065	317.38
318.295	314.38
318.524	329.38
318.753	335.38
318.983	324.38
319.212	301.38
319.441	320.38
319.67	325.38
319.9	311.38
320.129	321.38
320.358	321.38
320.587	325.38
320.816	325.38
321.046	295.38
321.275	327.38
321.504	324.38
321.733	331.38
321.962	324.38
322.191	306.38
322.42	330.38
322.649	317.38
322.878	334.38
323.108	323.38
323.337	334.38
323.566	334.38
323.795	339.38
324.024	341.38
324.253	336.38
324.482	325.38
324.71	339.38
324.939	340.38
325.168	345.38
325.397	344.38
325.626	334.38
325.855	328.38
326.084	341.38
326.313	379.38
326.542	356.38
326.77	341.38
326.999	362.38
327.228	334.38
327.457	343.38
327.686	346.38
327.914	349.38
328.143	375.38
328.372	346.38
328.6	340.38
328.829	336.38
329.058	349.38
329.287	343.38
329.515	335.38
329.744	358.38
329.972	369.38
330.201	351.38
330.43	358.38
330.658	349.38
330.887	355.38
331.115	345.38
331.344	347.38
331.572	346.38
331.801	388.38
332.03	387.38
332.258	377.38
332.486	384.38
332.715	385.38
332.943	409.38
333.172	412.38
333.4	423.38
333.629	433.38
333.857	443.38
334.085	440.38
334.314	434.38
334.542	420.38
334.771	417.38
334.999	400.38
335.227	414.38
335.455	431.38
335.684	414.38
335.912	424.38
336.14	397.38
336.369	398.38
336.597	413.38
336.825	413.38
337.053	428.38
337.281	410.38
337.51	407.38
337.738	401.38
337.966	380.38
338.194	387.38
338.422	374.38
338.65	378.38
338.878	385.38
339.106	376.38
339.334	391.38
339.562	395.38
339.79	382.38
340.018	353.38
340.246	356.38
340.474	370.38
340.702	371.38
340.93	359.38
341.158	361.38
341.386	369.38
341.614	367.38
341.842	365.38
342.07	358.38
342.298	373.38
342.526	359.38
342.754	349.38
342.981	366.38
343.209	358.38
343.437	388.38
343.665	370.38
343.893	397.38
344.12	458.38
344.348	415.38
344.576	398.38
344.804	402.38
345.031	388.38
345.259	398.38
345.487	382.38
345.714	392.38
345.942	382.38
346.17	366.38
346.397	363.38
346.625	364.38
346.853	348.38
347.08	356.38
347.308	358.38
347.535	359.38
347.763	367.38
347.99	361.38
348.218	369.38
348.445	346.38
348.673	342.38
348.9	349.38
349.128	337.38
349.355	349.38
349.583	354.38
349.81	361.38
350.037	325.38
350.265	335.38
350.492	355.38
350.72	346.38
350.947	324.38
351.174	342.38
351.402	319.38
351.629	341.38
351.856	343.38
352.083	339.38
352.311	353.38
352.538	341.38
352.765	344.38
352.992	352.38
353.22	349.38
353.447	352.38
353.674	346.38
353.901	337.38
354.128	330.38
354.355	331.38
354.583	347.38
354.81	357.38
355.037	359.38
355.264	354.38
355.491	350.38
355.718	344.38
355.945	334.38
356.172	347.38
356.399	336.38
356.626	376.38
356.853	335.38
357.08	334.38
357.307	361.38
357.534	350.38
357.761	343.38
357.988	362.38
358.215	344.38
358.441	338.38
358.668	375.38
358.895	349.38
359.122	333.38
359.349	353.38
359.576	361.38
359.802	350.38
360.029	331.38
360.256	360.38
360.483	331.38
360.709	334.38
360.936	354.38
361.163	339.38
361.39	331.38
361.616	341.38
361.843	356.38
362.07	351.38
362.296	358.38
362.523	331.38
362.749	350.38
362.976	347.38
363.203	350.38
363.429	355.38
363.656	343.38
363.882	362.38
364.109	347.38
364.335	337.38
364.562	338.38
364.788	355.38
365.015	361.38
365.241	343.38
365.468	358.38
365.694	354.38
365.92	365.38
366.147	354.38
366.373	356.38
366.599	346.38
366.826	352.38
367.052	331.38
367.278	344.38
367.505	364.38
367.731	351.38
367.957	349.38
368.184	353.38
368.41	374.38
368.636	349.38
368.862	359.38
369.089	371.38
369.315	379.38
369.541	385.38
369.767	357.38
369.993	362.38
370.219	374.38
370.445	359.38
370.672	373.38
370.898	370.38
371.124	361.38
371.35	368.38
371.576	369.38
371.802	385.38
372.028	374.38
372.254	399.38
372.48	373.38
372.706	386.38
372.932	390.38
373.158	392.38
373.384	399.38
373.61	383.38
373.835	387.38
374.061	395.38
374.287	382.38
374.513	380.38
374.739	397.38
374.965	411.38
375.191	390.38
375.416	423.38
375.642	423.38
375.868	421.38
376.094	398.38
376.319	399.38
376.545	375.38
376.771	381.38
376.997	372.38
377.222	369.38
377.448	392.38
377.674	379.38
377.899	396.38
378.125	377.38
378.35	372.38
378.576	377.38
378.802	393.38
379.027	385.38
379.253	406.38
379.478	390.38
379.704	373.38
379.929	382.38
380.155	394.38
380.38	384.38
380.606	379.38
380.831	394.38
381.057	393.38
381.282	375.38
381.507	403.38
381.733	393.38
381.958	390.38
382.184	389.38
382.409	388.38
382.634	410.38
382.86	413.38
383.085	397.38
383.31	399.38
383.535	413.38
383.761	437.38
383.986	433.38
384.211	435.38
384.436	425.38
384.662	419.38
384.887	448.38
385.112	458.38
385.337	445.38
385.562	439.38
385.787	466.38
386.013	463.38
386.238	443.38
386.463	450.38
386.688	453.38
386.913	459.38
387.138	455.38
387.363	434.38
387.588	469.38
387.813	440.38
388.038	443.38
388.263	460.38
388.488	474.38
388.713	475.38
388.938	454.38
389.163	443.38
389.387	451.38
389.612	430.38
389.837	453.38
390.062	441.38
390.287	466.38
390.512	463.38
390.736	449.38
390.961	457.38
391.186	451.38
391.411	481.38
391.636	485.38
391.86	507.38
392.085	491.38
392.31	476.38
392.534	490.38
392.759	471.38
392.984	493.38
393.208	465.38
393.433	451.38
393.658	480.38
393.882	484.38
394.107	486.38
394.331	480.38
394.556	466.38
394.78	477.38
395.005	488.38
395.229	513.38
395.454	513.38
395.678	502.38
395.903	509.38
396.127	507.38
396.352	499.38
396.576	481.38
396.801	477.38
397.025	497.38
397.249	509.38
397.474	501.38
397.698	509.38
397.922	501.38
398.147	502.38
398.371	519.38
398.595	539.38
398.82	524.38
399.044	580.38
399.268	623.38
399.492	662.38
399.717	737.38
399.941	742.38
400.165	684.38
400.389	636.38
400.613	621.38
400.837	603.38
401.062	589.38
401.286	583.38
401.51	553.38
401.734	556.38
401.958	571.38
402.182	582.38
402.406	565.38
402.63	563.38
402.854	583.38
403.078	583.38
403.302	605.38
403.526	597.38
403.75	601.38
403.974	603.38
404.198	601.38
404.422	590.38
404.645	609.38
404.869	590.38
405.093	628.38
405.317	574.38
405.541	602.38
405.765	584.38
405.988	580.38
406.212	603.38
406.436	608.38
406.66	626.38
406.883	637.38
407.107	629.38
407.331	655.38
407.555	684.38
407.778	657.38
408.002	659.38
408.226	656.38
408.449	646.38
408.673	655.38
408.896	634.38
409.12	602.38
409.344	636.38
409.567	597.38
409.791	619.38
410.014	609.38
410.238	605.38
410.461	636.38
410.685	609.38
410.908	607.38
411.132	608.38
411.355	583.38
411.578	585.38
411.802	604.38
412.025	562.38
412.249	569.38
412.472	583.38
412.695	584.38
412.919	568.38
413.142	559.38
413.365	567.38
413.589	579.38
413.812	554.38
414.035	570.38
414.258	564.38
414.482	587.38
414.705	579.38
414.928	583.38
415.151	553.38
415.374	588.38
415.597	553.38
415.821	548.38
416.044	561.38
416.267	563.38
416.49	556.38
416.713	545.38
416.936	548.38
417.159	558.38
417.382	553.38
417.605	547.38
417.828	537.38
418.051	558.38
418.274	542.38
418.497	555.38
418.72	570.38
418.943	565.38
419.166	594.38
419.389	632.38
419.611	603.38
419.834	588.38
420.057	578.38
420.28	558.38
420.503	558.38
420.726	532.38
420.948	523.38
421.171	561.38
421.394	523.38
421.617	558.38
421.839	558.38
422.062	545.38
422.285	541.38
422.507	547.38
422.73	567.38
422.953	561.38
423.175	577.38
423.398	578.38
423.621	542.38
423.843	575.38
424.066	548.38
424.288	559.38
424.511	548.38
424.733	555.38
424.956	547.38
425.178	565.38
425.401	545.38
425.623	561.38
425.846	535.38
426.068	546.38
426.291	518.38
426.513	517.38
426.735	525.38
426.958	536.38
427.18	502.38
427.402	483.38
427.625	529.38
427.847	508.38
428.069	514.38
428.292	502.38
428.514	527.38
428.736	493.38
428.958	506.38
429.181	501.38
429.403	491.38
429.625	501.38
429.847	512.38
430.069	498.38
430.292	507.38
430.514	517.38
430.736	494.38
430.958	503.38
431.18	493.38
431.402	499.38
431.624	503.38
431.846	494.38
432.068	525.38
432.29	525.38
432.512	500.38
432.734	508.38
432.956	516.38
433.178	518.38
433.4	498.38
433.622	523.38
433.844	515.38
434.066	505.38
434.287	515.38
434.509	517.38
434.731	555.38
434.953	531.38
435.175	550.38
435.397	558.38
435.618	558.38
435.84	537.38
436.062	520.38
436.284	515.38
436.505	497.38
436.727	500.38
436.949	517.38
437.17	494.38
437.392	494.38
437.614	493.38
437.835	484.38
438.057	495.38
438.278	488.38
438.5	498.38
438.721	502.38
438.943	502.38
439.165	524.38
439.386	477.38
439.608	492.38
439.829	506.38
440.05	493.38
440.272	524.38
440.493	515.38
440.715	514.38
440.936	516.38
441.158	540.38
441.379	519.38
441.6	538.38
441.822	569.38
442.043	532.38
442.264	515.38
442.486	516.38
442.707	526.38
442.928	537.38
443.149	549.38
443.371	542.38
443.592	562.38
443.813	561.38
444.034	558.38
444.255	579.38
444.476	574.38
444.698	591.38
444.919	616.38
445.14	727.38
445.361	637.38
445.582	592.38
445.803	539.38
446.024	533.38
446.245	533.38
446.466	519.38
446.687	502.38
446.908	525.38
447.129	513.38
447.35	491.38
447.571	502.38
447.792	492.38
448.013	512.38
448.234	491.38
448.455	478.38
448.675	472.38
448.896	450.38
449.117	457.38
449.338	460.38
449.559	471.38
449.779	472.38
450	462.38
450.221	465.38
450.442	478.38
450.662	458.38
450.883	470.38
451.104	474.38
451.324	468.38
451.545	464.38
451.766	473.38
451.986	457.38
452.207	449.38
452.428	465.38
452.648	462.38
452.869	446.38
453.089	458.38
453.31	451.38
453.53	460.38
453.751	461.38
453.971	441.38
454.192	455.38
454.412	458.38
454.633	427.38
454.853	456.38
455.073	459.38
455.294	465.38
455.514	455.38
455.734	445.38
455.955	425.38
456.175	443.38
456.395	455.38
456.616	442.38
456.836	449.38
457.056	448.38
457.276	445.38
457.497	467.38
457.717	448.38
457.937	444.38
458.157	455.38
458.377	455.38
458.598	492.38
458.818	488.38
459.038	470.38
459.258	511.38
459.478	510.38
459.698	506.38
459.918	531.38
460.138	555.38
460.358	556.38
460.578	569.38
460.798	577.38
461.018	579.38
461.238	570.38
461.458	581.38
461.678	567.38
461.898	596.38
462.118	590.38
462.338	602.38
462.558	626.38
462.777	614.38
462.997	673.38
463.217	705.38
463.437	699.38
463.657	680.38
463.876	663.38
464.096	642.38
464.316	646.38
464.536	655.38
464.755	636.38
464.975	613.38
465.195	601.38
465.414	585.38
465.634	555.38
465.854	531.38
466.073	516.38
466.293	517.38
466.512	507.38
466.732	490.38
466.951	478.38
467.171	511.38
467.391	497.38
467.61	509.38
467.829	506.38
468.049	493.38
468.268	475.38
468.488	473.38
468.707	472.38
468.927	485.38
469.146	469.38
469.365	496.38
469.585	478.38
469.804	499.38
470.023	503.38
470.243	499.38
470.462	491.38
470.681	515.38
470.901	500.38
471.12	502.38
471.339	470.38
471.558	469.38
471.777	471.38
471.997	462.38
472.216	484.38
472.435	451.38
472.654	462.38
472.873	462.38
473.092	455.38
473.311	471.38
473.53	448.38
473.749	453.38
473.968	459.38
474.187	479.38
474.406	470.38
474.625	467.38
474.844	483.38
475.063	481.38
475.282	459.38
475.501	484.38
475.72	494.38
475.939	472.38
476.158	471.38
476.377	500.38
476.596	501.38
476.814	489.38
477.033	487.38
477.252	500.38
477.471	499.38
477.69	527.38
477.908	534.38
478.127	543.38
478.346	540.38
478.564	554.38
478.783	542.38
479.002	551.38
479.22	558.38
479.439	545.38
479.658	550.38
479.876	553.38
480.095	569.38
480.313	574.38
480.532	558.38
480.751	580.38
480.969	582.38
481.188	572.38
481.406	548.38
481.624	533.38
481.843	557.38
482.061	557.38
482.28	527.38
482.498	508.38
482.717	520.38
482.935	552.38
483.153	543.38
483.372	526.38
483.59	553.38
483.808	550.38
484.027	545.38
484.245	534.38
484.463	573.38
484.681	521.38
484.9	553.38
485.118	541.38
485.336	548.38
485.554	563.38
485.772	549.38
485.99	567.38
486.209	558.38
486.427	557.38
486.645	572.38
486.863	555.38
487.081	561.38
487.299	535.38
487.517	527.38
487.735	561.38
487.953	561.38
488.171	557.38
488.389	556.38
488.607	525.38
488.825	552.38
489.043	532.38
489.261	526.38
489.479	573.38
489.696	551.38
489.914	573.38
490.132	558.38
490.35	526.38
490.568	570.38
490.786	581.38
491.003	569.38
491.221	547.38
491.439	553.38
491.657	579.38
491.874	584.38
492.092	559.38
492.31	580.38
492.527	577.38
492.745	578.38
492.963	569.38
493.18	589.38
493.398	568.38
493.615	575.38
493.833	581.38
494.05	580.38
494.268	574.38
494.485	602.38
494.703	591.38
494.92	591.38
495.138	570.38
495.355	607.38
495.573	597.38
495.79	601.38
496.008	597.38
496.225	614.38
496.442	621.38
496.66	598.38
496.877	612.38
497.094	640.38
497.312	630.38
497.529	654.38
497.746	681.38
497.963	687.38
498.181	714.38
498.398	703.38
498.615	751.38
498.832	798.38
499.049	854.38
499.267	892.38
499.484	918.38
499.701	1010.38
499.918	1082.38
500.135	1170.38
500.352	1275.38
500.569	1393.38
500.786	1389.38
501.003	1289.38
501.22	1191.38
501.437	1081.38
501.654	985.38
501.871	921.38
502.088	878.38
502.305	833.38
502.522	801.38
502.739	798.38
502.956	725.38
503.172	715.38
503.389	663.38
503.606	698.38
503.823	677.38
504.04	675.38
504.256	676.38
504.473	659.38
504.69	669.38
504.907	663.38
505.123	611.38
505.34	582.38
505.557	570.38
505.773	574.38
505.99	578.38
506.207	547.38
506.423	543.38
506.64	565.38
506.856	530.38
507.073	537.38
507.289	524.38
507.506	534.38
507.722	522.38
507.939	530.38
508.155	521.38
508.372	493.38
508.588	501.38
508.805	499.38
509.021	518.38
509.238	475.38
509.454	517.38
509.67	479.38
509.887	501.38
510.103	503.38
510.319	498.38
510.536	491.38
510.752	469.38
510.968	494.38
511.184	476.38
511.401	498.38
511.617	473.38
511.833	494.38
512.049	476.38
512.265	461.38
512.481	469.38
512.698	479.38
512.914	490.38
513.13	485.38
513.346	487.38
513.562	472.38
513.778	478.38
513.994	497.38
514.21	486.38
514.426	487.38
514.642	505.38
514.858	519.38
515.074	499.38
515.29	505.38
515.506	506.38
515.721	495.38
515.937	506.38
516.153	515.38
516.369	536.38
516.585	545.38
516.801	554.38
517.016	549.38
517.232	601.38
517.448	601.38
517.664	615.38
517.879	609.38
518.095	633.38
518.311	595.38
518.527	592.38
518.742	577.38
518.958	551.38
519.173	548.38
519.389	525.38
519.605	507.38
519.82	524.38
520.036	521.38
520.251	500.38
520.467	502.38
520.682	503.38
520.898	468.38
521.113	485.38
521.329	474.38
521.544	493.38
521.76	460.38
521.975	477.38
522.19	455.38
522.406	467.38
522.621	491.38
522.836	453.38
523.052	474.38
523.267	448.38
523.482	445.38
523.698	453.38
523.913	462.38
524.128	447.38
524.343	438.38
524.559	475.38
524.774	447.38
524.989	441.38
525.204	445.38
525.419	446.38
525.634	429.38
525.849	449.38
526.064	459.38
526.28	453.38
526.495	435.38
526.71	427.38
526.925	419.38
527.14	441.38
527.355	458.38
527.57	427.38
527.785	430.38
527.999	455.38
528.214	460.38
528.429	436.38
528.644	427.38
528.859	438.38
529.074	447.38
529.289	450.38
529.503	447.38
529.718	426.38
529.933	418.38
530.148	439.38
530.363	426.38
530.577	440.38
530.792	436.38
531.007	427.38
531.221	452.38
531.436	462.38
531.651	442.38
531.865	444.38
532.08	443.38
532.295	435.38
532.509	421.38
532.724	431.38
532.938	422.38
533.153	457.38
533.367	456.38
533.582	436.38
533.796	445.38
534.011	436.38
534.225	425.38
534.44	421.38
534.654	421.38
534.868	426.38
535.083	436.38
535.297	433.38
535.511	456.38
535.726	434.38
535.94	428.38
536.154	424.38
536.369	419.38
536.583	423.38
536.797	441.38
537.011	415.38
537.225	414.38
537.44	419.38
537.654	409.38
537.868	421.38
538.082	396.38
538.296	407.38
538.51	415.38
538.724	418.38
538.938	413.38
539.153	425.38
539.367	436.38
539.581	404.38
539.795	402.38
540.009	395.38
540.222	390.38
540.436	412.38
540.65	407.38
540.864	424.38
541.078	397.38
541.292	401.38
541.506	393.38
541.72	413.38
541.934	415.38
542.147	399.38
542.361	408.38
542.575	390.38
542.789	427.38
543.002	414.38
543.216	399.38
543.43	405.38
543.644	378.38
543.857	412.38
544.071	407.38
544.285	416.38
544.498	403.38
544.712	410.38
544.925	401.38
545.139	399.38
545.352	404.38
545.566	393.38
545.779	422.38
545.993	403.38
546.206	392.38
546.42	414.38
546.633	421.38
546.847	393.38
547.06	403.38
547.274	428.38
547.487	394.38
547.7	404.38
547.914	409.38
548.127	406.38
548.34	397.38
548.554	414.38
548.767	393.38
548.98	389.38
549.193	420.38
549.407	406.38
549.62	410.38
549.833	412.38
550.046	404.38
550.259	406.38
550.473	402.38
550.686	415.38
550.899	407.38
551.112	398.38
551.325	408.38
551.538	404.38
551.751	390.38
551.964	400.38
552.177	409.38
552.39	410.38
552.603	402.38
552.816	418.38
553.029	411.38
553.242	402.38
553.455	429.38
553.667	420.38
553.88	424.38
554.093	421.38
554.306	438.38
554.519	419.38
554.732	422.38
554.944	395.38
555.157	385.38
555.37	400.38
555.583	387.38
555.795	376.38
556.008	396.38
556.221	373.38
556.433	381.38
556.646	366.38
556.859	373.38
557.071	356.38
557.284	360.38
557.496	378.38
557.709	359.38
557.921	357.38
558.134	341.38
558.346	355.38
558.559	350.38
558.771	344.38
558.984	346.38
559.196	336.38
559.409	359.38
559.621	341.38
559.833	350.38
560.046	356.38
560.258	350.38
560.47	350.38
560.683	348.38
560.895	354.38
561.107	351.38
561.32	354.38
561.532	348.38
561.744	355.38
561.956	358.38
562.168	360.38
562.381	353.38
562.593	344.38
562.805	369.38
563.017	353.38
563.229	349.38
563.441	358.38
563.653	379.38
563.865	349.38
564.077	343.38
564.289	344.38
564.501	346.38
564.713	355.38
564.925	365.38
565.137	366.38
565.349	378.38
565.561	373.38
565.773	389.38
565.985	386.38
566.197	415.38
566.408	430.38
566.62	443.38
566.832	455.38
567.044	489.38
567.255	505.38
567.467	504.38
567.679	526.38
567.891	533.38
568.102	531.38
568.314	524.38
568.526	497.38
568.737	454.38
568.949	441.38
569.161	405.38
569.372	382.38
569.584	363.38
569.795	389.38
570.007	362.38
570.218	359.38
570.43	369.38
570.641	357.38
570.853	359.38
571.064	334.38
571.276	338.38
571.487	350.38
571.698	343.38
571.91	321.38
572.121	313.38
572.333	310.38
572.544	307.38
572.755	311.38
572.966	308.38
573.178	313.38
573.389	295.38
573.6	315.38
573.811	291.38
574.023	291.38
574.234	288.38
574.445	295.38
574.656	294.38
574.867	302.38
575.078	283.38
575.289	283.38
575.501	295.38
575.712	266.38
575.923	287.38
576.134	281.38
576.345	285.38
576.556	281.38
576.767	288.38
576.978	283.38
577.188	265.38
577.399	270.38
577.61	262.38
577.821	299.38
578.032	275.38
578.243	264.38
578.454	270.38
578.665	277.38
578.875	280.38
579.086	252.38
579.297	263.38
579.508	266.38
579.718	254.38
579.929	269.38
580.14	283.38
580.35	267.38
580.561	266.38
580.772	261.38
580.982	257.38
581.193	235.38
581.403	259.38
581.614	269.38
581.825	281.38
582.035	253.38
582.246	238.38
582.456	249.38
582.667	269.38
582.877	261.38
583.087	250.38
583.298	256.38
583.508	238.38
583.719	261.38
583.929	271.38
584.139	266.38
584.35	251.38
584.56	248.38
584.77	246.38
584.981	246.38
585.191	251.38
585.401	264.38
585.611	255.38
585.821	245.38
586.032	244.38
586.242	243.38
586.452	257.38
586.662	258.38
586.872	241.38
587.082	254.38
587.292	229.38
587.502	250.38
587.713	246.38
587.923	257.38
588.133	232.38
588.343	250.38
588.553	246.38
588.762	233.38
588.972	248.38
589.182	236.38
589.392	238.38
589.602	233.38
589.812	251.38
590.022	239.38
590.232	240.38
590.441	251.38
590.651	235.38
590.861	242.38
591.071	243.38
591.281	261.38
591.49	234.38
591.7	244.38
591.91	263.38
592.119	240.38
592.329	274.38
592.539	298.38
592.748	272.38
592.958	283.38
593.167	279.38
593.377	271.38
593.587	292.38
593.796	280.38
594.006	294.38
594.215	303.38
594.424	289.38
594.634	278.38
594.843	255.38
595.053	261.38
595.262	267.38
595.472	254.38
595.681	224.38
595.89	235.38
596.1	229.38
596.309	238.38
596.518	239.38
596.727	238.38
596.937	204.38
597.146	215.38
597.355	241.38
597.564	229.38
597.774	236.38
597.983	225.38
598.192	222.38
598.401	214.38
598.61	217.38
598.819	217.38
599.028	202.38
599.237	234.38
599.446	219.38
599.655	231.38
599.864	227.38
600.073	215.38
600.282	207.38
600.491	199.38
600.7	210.38
600.909	207.38
601.118	217.38
601.327	210.38
601.536	211.38
601.745	203.38
601.953	209.38
602.162	215.38
602.371	193.38
602.58	211.38
602.789	227.38
602.997	187.38
603.206	218.38
603.415	211.38
603.623	210.38
603.832	214.38
604.041	199.38
604.249	193.38
604.458	211.38
604.666	195.38
604.875	194.38
605.084	194.38
605.292	194.38
605.501	196.38
605.709	197.38
605.918	208.38
606.126	204.38
606.334	207.38
606.543	206.38
606.751	195.38
606.96	197.38
607.168	208.38
607.376	202.38
607.585	196.38
607.793	199.38
608.001	196.38
608.21	194.38
608.418	198.38
608.626	205.38
608.834	198.38
609.043	204.38
609.251	197.38
609.459	197.38
609.667	196.38
609.875	211.38
610.083	214.38
610.291	193.38
610.499	190.38
610.707	188.38
610.916	192.38
611.124	194.38
611.332	184.38
611.54	185.38
611.748	183.38
611.955	194.38
612.163	190.38
612.371	185.38
612.579	185.38
612.787	185.38
612.995	199.38
613.203	210.38
613.411	191.38
613.618	191.38
613.826	186.38
614.034	194.38
614.242	185.38
614.449	200.38
614.657	185.38
614.865	187.38
615.072	196.38
615.28	192.38
615.488	190.38
615.695	185.38
615.903	182.38
616.111	191.38
616.318	192.38
616.526	187.38
616.733	201.38
616.941	193.38
617.148	187.38
617.356	189.38
617.563	198.38
617.771	187.38
617.978	186.38
618.185	193.38
618.393	183.38
618.6	168.38
618.807	195.38
619.015	184.38
619.222	188.38
619.429	181.38
619.637	181.38
619.844	180.38
620.051	175.38
620.258	181.38
620.466	173.38
620.673	173.38
620.88	179.38
621.087	183.38
621.294	179.38
621.501	166.38
621.708	171.38
621.915	180.38
622.122	188.38
622.329	173.38
622.536	174.38
622.743	182.38
622.95	181.38
623.157	184.38
623.364	169.38
623.571	176.38
623.778	171.38
623.985	170.38
624.192	170.38
624.399	158.38
624.606	179.38
624.812	162.38
625.019	168.38
625.226	174.38
625.433	179.38
625.639	179.38
625.846	177.38
626.053	155.38
626.259	179.38
626.466	177.38
626.673	167.38
626.879	138.38
627.086	147.38
627.293	171.38
627.499	171.38
627.706	170.38
627.912	157.38
628.119	141.38
628.325	149.38
628.532	167.38
628.738	166.38
628.945	167.38
629.151	164.38
629.357	148.38
629.564	168.38
629.77	159.38
629.976	149.38
630.183	161.38
630.389	171.38
630.595	153.38
630.802	158.38
631.008	154.38
631.214	175.38
631.42	152.38
631.627	164.38
631.833	154.38
632.039	155.38
632.245	144.38
632.451	158.38
632.657	146.38
632.863	145.38
633.069	165.38
633.275	156.38
633.481	157.38
633.688	158.38
633.893	141.38
634.099	153.38
634.305	157.38
634.511	154.38
634.717	151.38
634.923	146.38
635.129	140.38
635.335	152.38
635.541	158.38
635.747	167.38
635.952	157.38
636.158	141.38
636.364	149.38
636.57	168.38
636.775	155.38
636.981	148.38
637.187	141.38
637.392	146.38
637.598	153.38
637.804	148.38
638.009	142.38
638.215	143.38
638.421	153.38
638.626	144.38
638.832	159.38
639.037	154.38
639.243	139.38
639.448	136.38
639.654	151.38
639.859	141.38
640.065	145.38
640.27	147.38
640.475	144.38
640.681	140.38
640.886	140.38
641.091	130.38
641.297	143.38
641.502	153.38
641.707	134.38
641.913	130.38
642.118	147.38
642.323	131.38
642.528	146.38
642.733	132.38
642.939	151.38
643.144	151.38
643.349	149.38
643.554	139.38
643.759	141.38
643.964	143.38
644.169	148.38
644.374	134.38
644.579	131.38
644.784	146.38
644.989	124.38
645.194	131.38
645.399	139.38
645.604	147.38
645.809	147.38
646.014	125.38
646.219	147.38
646.423	126.38
646.628	156.38
646.833	137.38
647.038	141.38
647.243	144.38
647.447	129.38
647.652	152.38
647.857	149.38
648.062	130.38
648.266	149.38
648.471	151.38
648.676	140.38
648.88	141.38
649.085	149.38
649.289	124.38
649.494	142.38
649.698	133.38
649.903	135.38
650.107	132.38
650.312	137.38
650.516	147.38
650.721	155.38
650.925	132.38
651.13	133.38
651.334	139.38
651.539	144.38
651.743	146.38
651.947	126.38
652.152	128.38
652.356	139.38
652.56	121.38
652.764	126.38
652.969	121.38
653.173	113.38
653.377	124.38
653.581	123.38
653.785	118.38
653.99	128.38
654.194	131.38
654.398	121.38
654.602	116.38
654.806	123.38
655.01	127.38
655.214	137.38
655.418	125.38
655.622	116.38
655.826	133.38
656.03	119.38
656.234	116.38
656.438	116.38
656.642	105.38
656.846	99.38
657.049	116.38
657.253	108.38
657.457	103.38
657.661	109.38
657.865	117.38
658.068	99.38
658.272	98.38
658.476	99.38
658.68	94.38
658.883	94.38
659.087	98.38
659.291	107.38
659.494	103.38
659.698	95.38
659.901	96.38
660.105	89.38
660.309	94.38
660.512	70.38
660.716	95.38
660.919	93.38
661.123	86.38
661.326	86.38
661.53	78.38
661.733	90.38
661.936	70.38
662.14	94.38
662.343	92.38
662.546	78.38
662.75	86.38
662.953	93.38
663.156	77.38
663.36	78.38
663.563	88.38
663.766	92.38
663.969	72.38
664.173	97.38
664.376	89.38
664.579	90.38
664.782	83.38
664.985	73.38
665.188	77.38
665.391	85.38
665.594	78.38
665.797	96.38
666	68.38
666.203	82.38
666.406	87.38
666.609	85.38
666.812	73.38
667.015	92.38
667.218	74.38
667.421	77.38
667.624	91.38
667.827	81.38
668.03	81.38
668.232	86.38
668.435	83.38
668.638	95.38
668.841	80.38
669.043	79.38
669.246	91.38
669.449	82.38
669.651	101.38
669.854	83.38
670.057	71.38
670.259	83.38
670.462	87.38
670.665	85.38
670.867	83.38
671.07	93.38
671.272	88.38
671.475	83.38
671.677	81.38
671.88	82.38
672.082	78.38
672.284	79.38
672.487	88.38
672.689	83.38
672.892	78.38
