Data from Fe(NO3)3@0.0125M.TitratingCurve.Agarose3%dH2O.NegLispCup.LampEnergy10.LIBS07252019_HRD10591_16-59-26-346.txt Node
Date: Thu Jul 25 16:59:26 EDT 2019
User: cochatt
Spectrometer: HR+D1059
Trigger mode: 1
Integration Time (sec): 1.000000E-1
Scans to average: 1
Electric dark correction enabled: true
Nonlinearity correction enabled: false
Boxcar width: 0
XAxis mode: Wavelengths
Number of Pixels in Spectrum: 2048
>>>>>Begin Spectral Data<<<<<
223.165	-19.62
223.4	-19.62
223.635	-19.62
223.869	-7.62
224.104	-19.62
224.338	-25.62
224.573	-19.62
224.808	-10.62
225.042	-4.62
225.277	3.38
225.511	-2.62
225.746	15.38
225.98	5.38
226.215	3.38
226.449	11.38
226.683	22.38
226.918	19.38
227.152	29.38
227.387	20.38
227.621	41.38
227.856	51.38
228.09	52.38
228.324	41.38
228.559	63.38
228.793	59.38
229.027	80.38
229.262	85.38
229.496	91.38
229.73	95.38
229.964	82.38
230.199	102.38
230.433	97.38
230.667	99.38
230.901	104.38
231.136	99.38
231.37	96.38
231.604	107.38
231.838	92.38
232.072	105.38
232.306	106.38
232.541	115.38
232.775	99.38
233.009	98.38
233.243	108.38
233.477	102.38
233.711	98.38
233.945	113.38
234.179	116.38
234.413	114.38
234.647	95.38
234.881	113.38
235.115	104.38
235.349	104.38
235.583	80.38
235.817	103.38
236.051	103.38
236.285	99.38
236.519	102.38
236.753	106.38
236.987	119.38
237.221	111.38
237.455	108.38
237.689	106.38
237.922	118.38
238.156	117.38
238.39	109.38
238.624	118.38
238.858	109.38
239.091	117.38
239.325	113.38
239.559	112.38
239.793	103.38
240.027	109.38
240.26	119.38
240.494	108.38
240.728	107.38
240.961	112.38
241.195	106.38
241.429	115.38
241.662	125.38
241.896	114.38
242.13	109.38
242.363	111.38
242.597	111.38
242.83	128.38
243.064	111.38
243.298	137.38
243.531	124.38
243.765	122.38
243.998	112.38
244.232	116.38
244.465	134.38
244.699	125.38
244.932	137.38
245.166	133.38
245.399	107.38
245.633	113.38
245.866	133.38
246.099	139.38
246.333	149.38
246.566	136.38
246.8	130.38
247.033	125.38
247.266	119.38
247.5	122.38
247.733	105.38
247.966	139.38
248.2	136.38
248.433	140.38
248.666	139.38
248.899	137.38
249.133	138.38
249.366	131.38
249.599	132.38
249.832	139.38
250.066	165.38
250.299	144.38
250.532	146.38
250.765	149.38
250.998	130.38
251.231	141.38
251.465	143.38
251.698	144.38
251.931	147.38
252.164	156.38
252.397	141.38
252.63	136.38
252.863	154.38
253.096	137.38
253.329	138.38
253.562	138.38
253.795	152.38
254.028	146.38
254.261	139.38
254.494	168.38
254.727	143.38
254.96	146.38
255.193	142.38
255.426	156.38
255.659	142.38
255.892	157.38
256.124	145.38
256.357	164.38
256.59	161.38
256.823	154.38
257.056	151.38
257.289	172.38
257.521	150.38
257.754	161.38
257.987	165.38
258.22	170.38
258.452	150.38
258.685	176.38
258.918	162.38
259.151	155.38
259.383	160.38
259.616	158.38
259.849	164.38
260.081	173.38
260.314	189.38
260.547	179.38
260.779	165.38
261.012	181.38
261.244	179.38
261.477	173.38
261.71	181.38
261.942	173.38
262.175	170.38
262.407	179.38
262.64	175.38
262.872	179.38
263.105	169.38
263.337	182.38
263.57	175.38
263.802	183.38
264.035	175.38
264.267	184.38
264.499	176.38
264.732	189.38
264.964	191.38
265.197	171.38
265.429	195.38
265.661	177.38
265.894	176.38
266.126	181.38
266.358	181.38
266.591	199.38
266.823	195.38
267.055	200.38
267.287	182.38
267.52	186.38
267.752	205.38
267.984	197.38
268.216	183.38
268.448	190.38
268.681	186.38
268.913	193.38
269.145	204.38
269.377	193.38
269.609	207.38
269.841	200.38
270.073	185.38
270.306	183.38
270.538	207.38
270.77	195.38
271.002	195.38
271.234	221.38
271.466	198.38
271.698	203.38
271.93	228.38
272.162	206.38
272.394	210.38
272.626	204.38
272.858	235.38
273.09	225.38
273.322	223.38
273.553	213.38
273.785	221.38
274.017	209.38
274.249	216.38
274.481	213.38
274.713	233.38
274.945	249.38
275.176	244.38
275.408	228.38
275.64	229.38
275.872	247.38
276.104	235.38
276.335	225.38
276.567	234.38
276.799	226.38
277.031	229.38
277.262	231.38
277.494	229.38
277.726	239.38
277.957	225.38
278.189	239.38
278.421	239.38
278.652	224.38
278.884	232.38
279.115	249.38
279.347	242.38
279.579	233.38
279.81	226.38
280.042	232.38
280.273	250.38
280.505	236.38
280.736	251.38
280.968	245.38
281.199	236.38
281.431	241.38
281.662	243.38
281.894	272.38
282.125	265.38
282.356	273.38
282.588	268.38
282.819	244.38
283.051	250.38
283.282	273.38
283.513	263.38
283.745	273.38
283.976	244.38
284.207	274.38
284.439	251.38
284.67	266.38
284.901	287.38
285.132	282.38
285.364	272.38
285.595	281.38
285.826	286.38
286.057	276.38
286.288	271.38
286.52	299.38
286.751	284.38
286.982	281.38
287.213	280.38
287.444	277.38
287.675	294.38
287.906	292.38
288.138	276.38
288.369	273.38
288.6	279.38
288.831	278.38
289.062	296.38
289.293	283.38
289.524	305.38
289.755	294.38
289.986	279.38
290.217	284.38
290.448	283.38
290.679	303.38
290.91	285.38
291.141	295.38
291.371	299.38
291.602	300.38
291.833	297.38
292.064	289.38
292.295	299.38
292.526	314.38
292.757	314.38
292.987	306.38
293.218	291.38
293.449	300.38
293.68	319.38
293.91	303.38
294.141	303.38
294.372	299.38
294.603	308.38
294.833	327.38
295.064	319.38
295.295	312.38
295.525	305.38
295.756	322.38
295.987	321.38
296.217	322.38
296.448	323.38
296.679	296.38
296.909	319.38
297.14	323.38
297.37	321.38
297.601	324.38
297.831	316.38
298.062	331.38
298.292	335.38
298.523	329.38
298.753	309.38
298.984	312.38
299.214	332.38
299.445	336.38
299.675	341.38
299.905	323.38
300.136	330.38
300.366	344.38
300.597	345.38
300.827	313.38
301.057	308.38
301.288	316.38
301.518	348.38
301.748	351.38
301.979	369.38
302.209	332.38
302.439	338.38
302.669	345.38
302.9	327.38
303.13	352.38
303.36	340.38
303.59	347.38
303.82	346.38
304.051	356.38
304.281	376.38
304.511	364.38
304.741	353.38
304.971	344.38
305.201	356.38
305.431	351.38
305.661	349.38
305.891	369.38
306.121	365.38
306.352	330.38
306.582	354.38
306.812	342.38
307.042	343.38
307.272	367.38
307.502	359.38
307.731	375.38
307.961	353.38
308.191	358.38
308.421	362.38
308.651	356.38
308.881	372.38
309.111	381.38
309.341	354.38
309.571	346.38
309.8	369.38
310.03	375.38
310.26	362.38
310.49	363.38
310.72	368.38
310.949	360.38
311.179	384.38
311.409	385.38
311.639	386.38
311.868	375.38
312.098	378.38
312.328	386.38
312.557	377.38
312.787	371.38
313.017	404.38
313.246	381.38
313.476	367.38
313.706	386.38
313.935	395.38
314.165	385.38
314.394	407.38
314.624	406.38
314.853	395.38
315.083	389.38
315.312	400.38
315.542	409.38
315.771	394.38
316.001	404.38
316.23	403.38
316.46	403.38
316.689	398.38
316.919	421.38
317.148	403.38
317.377	413.38
317.607	400.38
317.836	402.38
318.065	403.38
318.295	397.38
318.524	405.38
318.753	400.38
318.983	395.38
319.212	419.38
319.441	406.38
319.67	422.38
319.9	396.38
320.129	419.38
320.358	398.38
320.587	407.38
320.816	419.38
321.046	427.38
321.275	433.38
321.504	450.38
321.733	437.38
321.962	424.38
322.191	404.38
322.42	440.38
322.649	415.38
322.878	435.38
323.108	433.38
323.337	431.38
323.566	443.38
323.795	429.38
324.024	437.38
324.253	427.38
324.482	428.38
324.71	437.38
324.939	425.38
325.168	430.38
325.397	452.38
325.626	445.38
325.855	444.38
326.084	455.38
326.313	438.38
326.542	453.38
326.77	458.38
326.999	455.38
327.228	436.38
327.457	426.38
327.686	439.38
327.914	444.38
328.143	457.38
328.372	450.38
328.6	449.38
328.829	457.38
329.058	465.38
329.287	451.38
329.515	452.38
329.744	453.38
329.972	453.38
330.201	458.38
330.43	431.38
330.658	450.38
330.887	463.38
331.115	461.38
331.344	475.38
331.572	484.38
331.801	448.38
332.03	456.38
332.258	468.38
332.486	466.38
332.715	468.38
332.943	466.38
333.172	461.38
333.4	491.38
333.629	468.38
333.857	491.38
334.085	492.38
334.314	485.38
334.542	498.38
334.771	481.38
334.999	490.38
335.227	502.38
335.455	485.38
335.684	483.38
335.912	508.38
336.14	497.38
336.369	485.38
336.597	488.38
336.825	504.38
337.053	504.38
337.281	493.38
337.51	492.38
337.738	511.38
337.966	486.38
338.194	500.38
338.422	484.38
338.65	483.38
338.878	492.38
339.106	488.38
339.334	489.38
339.562	490.38
339.79	480.38
340.018	497.38
340.246	489.38
340.474	484.38
340.702	499.38
340.93	483.38
341.158	491.38
341.386	474.38
341.614	477.38
341.842	495.38
342.07	495.38
342.298	492.38
342.526	484.38
342.754	473.38
342.981	495.38
343.209	490.38
343.437	495.38
343.665	508.38
343.893	486.38
344.12	487.38
344.348	514.38
344.576	516.38
344.804	495.38
345.031	488.38
345.259	482.38
345.487	463.38
345.714	515.38
345.942	466.38
346.17	492.38
346.397	482.38
346.625	494.38
346.853	509.38
347.08	495.38
347.308	477.38
347.535	482.38
347.763	487.38
347.99	476.38
348.218	476.38
348.445	470.38
348.673	484.38
348.9	482.38
349.128	498.38
349.355	475.38
349.583	473.38
349.81	484.38
350.037	479.38
350.265	503.38
350.492	483.38
350.72	492.38
350.947	484.38
351.174	483.38
351.402	479.38
351.629	479.38
351.856	491.38
352.083	483.38
352.311	498.38
352.538	479.38
352.765	480.38
352.992	477.38
353.22	460.38
353.447	454.38
353.674	484.38
353.901	479.38
354.128	507.38
354.355	461.38
354.583	469.38
354.81	452.38
355.037	480.38
355.264	484.38
355.491	485.38
355.718	500.38
355.945	468.38
356.172	476.38
356.399	482.38
356.626	465.38
356.853	477.38
357.08	484.38
357.307	483.38
357.534	492.38
357.761	458.38
357.988	494.38
358.215	501.38
358.441	481.38
358.668	486.38
358.895	488.38
359.122	471.38
359.349	487.38
359.576	477.38
359.802	465.38
360.029	493.38
360.256	513.38
360.483	491.38
360.709	511.38
360.936	490.38
361.163	489.38
361.39	506.38
361.616	491.38
361.843	485.38
362.07	503.38
362.296	515.38
362.523	495.38
362.749	495.38
362.976	505.38
363.203	495.38
363.429	483.38
363.656	504.38
363.882	489.38
364.109	503.38
364.335	524.38
364.562	508.38
364.788	500.38
365.015	495.38
365.241	505.38
365.468	500.38
365.694	515.38
365.92	496.38
366.147	508.38
366.373	507.38
366.599	523.38
366.826	507.38
367.052	486.38
367.278	513.38
367.505	513.38
367.731	515.38
367.957	524.38
368.184	513.38
368.41	519.38
368.636	495.38
368.862	499.38
369.089	511.38
369.315	509.38
369.541	523.38
369.767	498.38
369.993	530.38
370.219	501.38
370.445	523.38
370.672	519.38
370.898	519.38
371.124	537.38
371.35	526.38
371.576	538.38
371.802	506.38
372.028	532.38
372.254	531.38
372.48	515.38
372.706	532.38
372.932	514.38
373.158	525.38
373.384	539.38
373.61	537.38
373.835	521.38
374.061	524.38
374.287	548.38
374.513	550.38
374.739	520.38
374.965	548.38
375.191	539.38
375.416	536.38
375.642	526.38
375.868	542.38
376.094	533.38
376.319	554.38
376.545	531.38
376.771	529.38
376.997	513.38
377.222	515.38
377.448	498.38
377.674	520.38
377.899	491.38
378.125	526.38
378.35	544.38
378.576	551.38
378.802	542.38
379.027	546.38
379.253	535.38
379.478	507.38
379.704	538.38
379.929	524.38
380.155	515.38
380.38	536.38
380.606	514.38
380.831	541.38
381.057	541.38
381.282	524.38
381.507	512.38
381.733	538.38
381.958	543.38
382.184	538.38
382.409	525.38
382.634	563.38
382.86	548.38
383.085	543.38
383.31	560.38
383.535	527.38
383.761	555.38
383.986	555.38
384.211	563.38
384.436	549.38
384.662	557.38
384.887	546.38
385.112	559.38
385.337	548.38
385.562	567.38
385.787	569.38
386.013	599.38
386.238	587.38
386.463	592.38
386.688	577.38
386.913	580.38
387.138	564.38
387.363	575.38
387.588	577.38
387.813	572.38
388.038	553.38
388.263	563.38
388.488	591.38
388.713	550.38
388.938	565.38
389.163	579.38
389.387	581.38
389.612	593.38
389.837	577.38
390.062	563.38
390.287	584.38
390.512	567.38
390.736	582.38
390.961	587.38
391.186	574.38
391.411	605.38
391.636	593.38
391.86	585.38
392.085	595.38
392.31	602.38
392.534	575.38
392.759	608.38
392.984	609.38
393.208	598.38
393.433	608.38
393.658	602.38
393.882	596.38
394.107	577.38
394.331	572.38
394.556	573.38
394.78	604.38
395.005	592.38
395.229	583.38
395.454	619.38
395.678	616.38
395.903	611.38
396.127	605.38
396.352	601.38
396.576	605.38
396.801	618.38
397.025	586.38
397.249	613.38
397.474	611.38
397.698	612.38
397.922	581.38
398.147	633.38
398.371	615.38
398.595	633.38
398.82	627.38
399.044	641.38
399.268	664.38
399.492	683.38
399.717	690.38
399.941	680.38
400.165	699.38
400.389	668.38
400.613	664.38
400.837	643.38
401.062	643.38
401.286	630.38
401.51	636.38
401.734	649.38
401.958	656.38
402.182	660.38
402.406	659.38
402.63	640.38
402.854	615.38
403.078	637.38
403.302	623.38
403.526	636.38
403.75	630.38
403.974	635.38
404.198	622.38
404.422	652.38
404.645	646.38
404.869	643.38
405.093	627.38
405.317	644.38
405.541	672.38
405.765	656.38
405.988	654.38
406.212	657.38
406.436	657.38
406.66	659.38
406.883	652.38
407.107	674.38
407.331	674.38
407.555	684.38
407.778	690.38
408.002	694.38
408.226	695.38
408.449	711.38
408.673	678.38
408.896	673.38
409.12	663.38
409.344	679.38
409.567	663.38
409.791	666.38
410.014	662.38
410.238	664.38
410.461	684.38
410.685	644.38
410.908	688.38
411.132	652.38
411.355	650.38
411.578	645.38
411.802	627.38
412.025	649.38
412.249	665.38
412.472	633.38
412.695	633.38
412.919	658.38
413.142	665.38
413.365	646.38
413.589	633.38
413.812	620.38
414.035	641.38
414.258	634.38
414.482	635.38
414.705	639.38
414.928	662.38
415.151	632.38
415.374	624.38
415.597	640.38
415.821	645.38
416.044	629.38
416.267	637.38
416.49	633.38
416.713	611.38
416.936	631.38
417.159	591.38
417.382	605.38
417.605	608.38
417.828	619.38
418.051	627.38
418.274	599.38
418.497	625.38
418.72	599.38
418.943	607.38
419.166	626.38
419.389	672.38
419.611	630.38
419.834	644.38
420.057	641.38
420.28	624.38
420.503	625.38
420.726	611.38
420.948	631.38
421.171	609.38
421.394	609.38
421.617	590.38
421.839	603.38
422.062	615.38
422.285	604.38
422.507	602.38
422.73	592.38
422.953	605.38
423.175	601.38
423.398	587.38
423.621	612.38
423.843	617.38
424.066	620.38
424.288	585.38
424.511	599.38
424.733	628.38
424.956	593.38
425.178	584.38
425.401	608.38
425.623	603.38
425.846	602.38
426.068	613.38
426.291	616.38
426.513	620.38
426.735	627.38
426.958	604.38
427.18	588.38
427.402	617.38
427.625	610.38
427.847	614.38
428.069	616.38
428.292	609.38
428.514	601.38
428.736	602.38
428.958	607.38
429.181	608.38
429.403	602.38
429.625	592.38
429.847	589.38
430.069	627.38
430.292	609.38
430.514	588.38
430.736	606.38
430.958	597.38
431.18	594.38
431.402	576.38
431.624	589.38
431.846	600.38
432.068	592.38
432.29	600.38
432.512	592.38
432.734	599.38
432.956	598.38
433.178	599.38
433.4	610.38
433.622	620.38
433.844	601.38
434.066	604.38
434.287	610.38
434.509	615.38
434.731	607.38
434.953	611.38
435.175	600.38
435.397	623.38
435.618	594.38
435.84	601.38
436.062	608.38
436.284	591.38
436.505	617.38
436.727	603.38
436.949	582.38
437.17	580.38
437.392	579.38
437.614	584.38
437.835	571.38
438.057	614.38
438.278	574.38
438.5	571.38
438.721	588.38
438.943	582.38
439.165	579.38
439.386	586.38
439.608	623.38
439.829	595.38
440.05	603.38
440.272	596.38
440.493	583.38
440.715	605.38
440.936	596.38
441.158	587.38
441.379	587.38
441.6	592.38
441.822	581.38
442.043	617.38
442.264	617.38
442.486	574.38
442.707	593.38
442.928	604.38
443.149	587.38
443.371	607.38
443.592	601.38
443.813	577.38
444.034	609.38
444.255	598.38
444.476	608.38
444.698	609.38
444.919	605.38
445.14	683.38
445.361	655.38
445.582	637.38
445.803	612.38
446.024	602.38
446.245	599.38
446.466	605.38
446.687	611.38
446.908	598.38
447.129	574.38
447.35	595.38
447.571	585.38
447.792	587.38
448.013	581.38
448.234	569.38
448.455	575.38
448.675	588.38
448.896	570.38
449.117	541.38
449.338	582.38
449.559	550.38
449.779	563.38
450	564.38
450.221	579.38
450.442	561.38
450.662	567.38
450.883	554.38
451.104	557.38
451.324	565.38
451.545	572.38
451.766	559.38
451.986	563.38
452.207	545.38
452.428	546.38
452.648	553.38
452.869	561.38
453.089	543.38
453.31	531.38
453.53	559.38
453.751	548.38
453.971	544.38
454.192	534.38
454.412	531.38
454.633	514.38
454.853	542.38
455.073	545.38
455.294	539.38
455.514	554.38
455.734	555.38
455.955	560.38
456.175	539.38
456.395	567.38
456.616	545.38
456.836	551.38
457.056	545.38
457.276	553.38
457.497	537.38
457.717	566.38
457.937	552.38
458.157	541.38
458.377	562.38
458.598	544.38
458.818	552.38
459.038	549.38
459.258	572.38
459.478	569.38
459.698	602.38
459.918	586.38
460.138	599.38
460.358	589.38
460.578	589.38
460.798	601.38
461.018	611.38
461.238	580.38
461.458	608.38
461.678	601.38
461.898	621.38
462.118	584.38
462.338	604.38
462.558	623.38
462.777	626.38
462.997	641.38
463.217	668.38
463.437	657.38
463.657	641.38
463.876	653.38
464.096	645.38
464.316	623.38
464.536	646.38
464.755	641.38
464.975	632.38
465.195	605.38
465.414	590.38
465.634	594.38
465.854	587.38
466.073	611.38
466.293	596.38
466.512	592.38
466.732	570.38
466.951	599.38
467.171	583.38
467.391	573.38
467.61	581.38
467.829	585.38
468.049	588.38
468.268	586.38
468.488	579.38
468.707	588.38
468.927	594.38
469.146	593.38
469.365	572.38
469.585	575.38
469.804	598.38
470.023	581.38
470.243	593.38
470.462	599.38
470.681	602.38
470.901	584.38
471.12	592.38
471.339	599.38
471.558	602.38
471.777	609.38
471.997	603.38
472.216	600.38
472.435	562.38
472.654	619.38
472.873	605.38
473.092	605.38
473.311	609.38
473.53	587.38
473.749	588.38
473.968	626.38
474.187	612.38
474.406	597.38
474.625	619.38
474.844	619.38
475.063	611.38
475.282	609.38
475.501	616.38
475.72	631.38
475.939	643.38
476.158	651.38
476.377	643.38
476.596	656.38
476.814	651.38
477.033	629.38
477.252	652.38
477.471	658.38
477.69	671.38
477.908	658.38
478.127	680.38
478.346	671.38
478.564	671.38
478.783	664.38
479.002	684.38
479.22	679.38
479.439	701.38
479.658	701.38
479.876	709.38
480.095	707.38
480.313	738.38
480.532	727.38
480.751	698.38
480.969	724.38
481.188	727.38
481.406	721.38
481.624	707.38
481.843	699.38
482.061	725.38
482.28	689.38
482.498	706.38
482.717	723.38
482.935	726.38
483.153	710.38
483.372	707.38
483.59	712.38
483.808	723.38
484.027	756.38
484.245	745.38
484.463	721.38
484.681	763.38
484.9	721.38
485.118	735.38
485.336	727.38
485.554	722.38
485.772	733.38
485.99	758.38
486.209	763.38
486.427	748.38
486.645	740.38
486.863	773.38
487.081	748.38
487.299	744.38
487.517	742.38
487.735	749.38
487.953	752.38
488.171	744.38
488.389	715.38
488.607	743.38
488.825	748.38
489.043	739.38
489.261	754.38
489.479	746.38
489.696	749.38
489.914	736.38
490.132	753.38
490.35	757.38
490.568	764.38
490.786	762.38
491.003	774.38
491.221	741.38
491.439	738.38
491.657	759.38
491.874	760.38
492.092	751.38
492.31	791.38
492.527	774.38
492.745	783.38
492.963	779.38
493.18	771.38
493.398	766.38
493.615	755.38
493.833	772.38
494.05	791.38
494.268	793.38
494.485	801.38
494.703	780.38
494.92	754.38
495.138	780.38
495.355	786.38
495.573	775.38
495.79	796.38
496.008	803.38
496.225	783.38
496.442	820.38
496.66	821.38
496.877	833.38
497.094	824.38
497.312	820.38
497.529	835.38
497.746	820.38
497.963	828.38
498.181	853.38
498.398	838.38
498.615	865.38
498.832	893.38
499.049	891.38
499.267	914.38
499.484	902.38
499.701	951.38
499.918	963.38
500.135	1016.38
500.352	1019.38
500.569	1033.38
500.786	1013.38
501.003	1039.38
501.22	981.38
501.437	977.38
501.654	918.38
501.871	933.38
502.088	909.38
502.305	891.38
502.522	867.38
502.739	847.38
502.956	855.38
503.172	827.38
503.389	815.38
503.606	800.38
503.823	788.38
504.04	794.38
504.256	831.38
504.473	765.38
504.69	799.38
504.907	792.38
505.123	759.38
505.34	773.38
505.557	769.38
505.773	751.38
505.99	759.38
506.207	739.38
506.423	760.38
506.64	725.38
506.856	712.38
507.073	722.38
507.289	723.38
507.506	707.38
507.722	731.38
507.939	692.38
508.155	705.38
508.372	701.38
508.588	708.38
508.805	692.38
509.021	677.38
509.238	675.38
509.454	693.38
509.67	688.38
509.887	664.38
510.103	675.38
510.319	655.38
510.536	674.38
510.752	681.38
510.968	638.38
511.184	677.38
511.401	661.38
511.617	680.38
511.833	650.38
512.049	683.38
512.265	650.38
512.481	681.38
512.698	644.38
512.914	668.38
513.13	676.38
513.346	659.38
513.562	645.38
513.778	647.38
513.994	679.38
514.21	650.38
514.426	676.38
514.642	660.38
514.858	662.38
515.074	649.38
515.29	703.38
515.506	651.38
515.721	667.38
515.937	674.38
516.153	683.38
516.369	659.38
516.585	671.38
516.801	667.38
517.016	661.38
517.232	680.38
517.448	707.38
517.664	697.38
517.879	701.38
518.095	697.38
518.311	694.38
518.527	701.38
518.742	686.38
518.958	689.38
519.173	676.38
519.389	667.38
519.605	668.38
519.82	650.38
520.036	663.38
520.251	662.38
520.467	657.38
520.682	647.38
520.898	659.38
521.113	634.38
521.329	644.38
521.544	645.38
521.76	647.38
521.975	632.38
522.19	624.38
522.406	666.38
522.621	636.38
522.836	655.38
523.052	621.38
523.267	660.38
523.482	639.38
523.698	615.38
523.913	625.38
524.128	627.38
524.343	613.38
524.559	619.38
524.774	632.38
524.989	600.38
525.204	648.38
525.419	631.38
525.634	612.38
525.849	645.38
526.064	616.38
526.28	622.38
526.495	616.38
526.71	629.38
526.925	610.38
527.14	618.38
527.355	624.38
527.57	605.38
527.785	621.38
527.999	592.38
528.214	604.38
528.429	616.38
528.644	621.38
528.859	589.38
529.074	596.38
529.289	608.38
529.503	609.38
529.718	611.38
529.933	617.38
530.148	586.38
530.363	607.38
530.577	609.38
530.792	609.38
531.007	609.38
531.221	603.38
531.436	603.38
531.651	602.38
531.865	625.38
532.08	601.38
532.295	597.38
532.509	610.38
532.724	585.38
532.938	584.38
533.153	604.38
533.367	604.38
533.582	597.38
533.796	580.38
534.011	601.38
534.225	584.38
534.44	633.38
534.654	592.38
534.868	591.38
535.083	578.38
535.297	604.38
535.511	583.38
535.726	589.38
535.94	595.38
536.154	575.38
536.369	593.38
536.583	580.38
536.797	583.38
537.011	577.38
537.225	564.38
537.44	553.38
537.654	582.38
537.868	588.38
538.082	599.38
538.296	557.38
538.51	562.38
538.724	573.38
538.938	555.38
539.153	553.38
539.367	561.38
539.581	556.38
539.795	541.38
540.009	555.38
540.222	575.38
540.436	552.38
540.65	542.38
540.864	565.38
541.078	569.38
541.292	573.38
541.506	583.38
541.72	580.38
541.934	575.38
542.147	563.38
542.361	556.38
542.575	548.38
542.789	541.38
543.002	559.38
543.216	539.38
543.43	569.38
543.644	570.38
543.857	567.38
544.071	561.38
544.285	580.38
544.498	571.38
544.712	559.38
544.925	584.38
545.139	561.38
545.352	542.38
545.566	553.38
545.779	544.38
545.993	568.38
546.206	569.38
546.42	541.38
546.633	525.38
546.847	560.38
547.06	560.38
547.274	567.38
547.487	577.38
547.7	537.38
547.914	537.38
548.127	554.38
548.34	554.38
548.554	549.38
548.767	555.38
548.98	554.38
549.193	536.38
549.407	563.38
549.62	540.38
549.833	529.38
550.046	511.38
550.259	532.38
550.473	542.38
550.686	544.38
550.899	532.38
551.112	529.38
551.325	553.38
551.538	536.38
551.751	488.38
551.964	515.38
552.177	531.38
552.39	531.38
552.603	547.38
552.816	545.38
553.029	528.38
553.242	528.38
553.455	535.38
553.667	525.38
553.88	530.38
554.093	547.38
554.306	555.38
554.519	540.38
554.732	499.38
554.944	500.38
555.157	515.38
555.37	511.38
555.583	511.38
555.795	507.38
556.008	524.38
556.221	502.38
556.433	508.38
556.646	491.38
556.859	509.38
557.071	487.38
557.284	485.38
557.496	458.38
557.709	499.38
557.921	485.38
558.134	480.38
558.346	483.38
558.559	501.38
558.771	496.38
558.984	467.38
559.196	489.38
559.409	467.38
559.621	467.38
559.833	477.38
560.046	483.38
560.258	467.38
560.47	464.38
560.683	461.38
560.895	483.38
561.107	469.38
561.32	458.38
561.532	490.38
561.744	470.38
561.956	478.38
562.168	469.38
562.381	472.38
562.593	460.38
562.805	487.38
563.017	472.38
563.229	456.38
563.441	480.38
563.653	450.38
563.865	455.38
564.077	484.38
564.289	458.38
564.501	465.38
564.713	480.38
564.925	481.38
565.137	487.38
565.349	473.38
565.561	477.38
565.773	496.38
565.985	502.38
566.197	492.38
566.408	483.38
566.62	497.38
566.832	487.38
567.044	513.38
567.255	537.38
567.467	497.38
567.679	507.38
567.891	515.38
568.102	517.38
568.314	504.38
568.526	476.38
568.737	469.38
568.949	458.38
569.161	443.38
569.372	443.38
569.584	451.38
569.795	432.38
570.007	447.38
570.218	433.38
570.43	441.38
570.641	426.38
570.853	432.38
571.064	435.38
571.276	433.38
571.487	434.38
571.698	427.38
571.91	433.38
572.121	421.38
572.333	410.38
572.544	407.38
572.755	400.38
572.966	397.38
573.178	391.38
573.389	372.38
573.6	410.38
573.811	388.38
574.023	385.38
574.234	395.38
574.445	383.38
574.656	408.38
574.867	405.38
575.078	417.38
575.289	404.38
575.501	388.38
575.712	377.38
575.923	381.38
576.134	380.38
576.345	383.38
576.556	378.38
576.767	384.38
576.978	383.38
577.188	383.38
577.399	381.38
577.61	364.38
577.821	387.38
578.032	344.38
578.243	374.38
578.454	357.38
578.665	361.38
578.875	369.38
579.086	363.38
579.297	339.38
579.508	362.38
579.718	360.38
579.929	361.38
580.14	374.38
580.35	363.38
580.561	351.38
580.772	331.38
580.982	362.38
581.193	354.38
581.403	362.38
581.614	355.38
581.825	361.38
582.035	353.38
582.246	341.38
582.456	339.38
582.667	340.38
582.877	353.38
583.087	355.38
583.298	356.38
583.508	350.38
583.719	343.38
583.929	348.38
584.139	346.38
584.35	336.38
584.56	339.38
584.77	351.38
584.981	354.38
585.191	340.38
585.401	345.38
585.611	338.38
585.821	329.38
586.032	329.38
586.242	332.38
586.452	345.38
586.662	313.38
586.872	328.38
587.082	342.38
587.292	326.38
587.502	349.38
587.713	347.38
587.923	320.38
588.133	321.38
588.343	323.38
588.553	332.38
588.762	315.38
588.972	335.38
589.182	337.38
589.392	343.38
589.602	330.38
589.812	338.38
590.022	315.38
590.232	315.38
590.441	317.38
590.651	319.38
590.861	323.38
591.071	325.38
591.281	314.38
591.49	341.38
591.7	316.38
591.91	348.38
592.119	330.38
592.329	327.38
592.539	322.38
592.748	332.38
592.958	328.38
593.167	306.38
593.377	318.38
593.587	328.38
593.796	319.38
594.006	332.38
594.215	316.38
594.424	303.38
594.634	312.38
594.843	322.38
595.053	323.38
595.262	303.38
595.472	323.38
595.681	324.38
595.89	306.38
596.1	293.38
596.309	303.38
596.518	315.38
596.727	309.38
596.937	300.38
597.146	289.38
597.355	298.38
597.564	296.38
597.774	293.38
597.983	287.38
598.192	291.38
598.401	269.38
598.61	289.38
598.819	312.38
599.028	270.38
599.237	298.38
599.446	286.38
599.655	281.38
599.864	298.38
600.073	281.38
600.282	293.38
600.491	283.38
600.7	286.38
600.909	287.38
601.118	268.38
601.327	289.38
601.536	272.38
601.745	267.38
601.953	278.38
602.162	286.38
602.371	273.38
602.58	278.38
602.789	282.38
602.997	279.38
603.206	294.38
603.415	266.38
603.623	264.38
603.832	280.38
604.041	261.38
604.249	269.38
604.458	289.38
604.666	259.38
604.875	272.38
605.084	272.38
605.292	274.38
605.501	275.38
605.709	257.38
605.918	272.38
606.126	276.38
606.334	271.38
606.543	251.38
606.751	260.38
606.96	259.38
607.168	280.38
607.376	249.38
607.585	265.38
607.793	267.38
608.001	284.38
608.21	251.38
608.418	254.38
608.626	266.38
608.834	279.38
609.043	255.38
609.251	243.38
609.459	256.38
609.667	243.38
609.875	251.38
610.083	264.38
610.291	250.38
610.499	255.38
610.707	256.38
610.916	245.38
611.124	260.38
611.332	250.38
611.54	247.38
611.748	257.38
611.955	259.38
612.163	245.38
612.371	256.38
612.579	263.38
612.787	260.38
612.995	258.38
613.203	265.38
613.411	262.38
613.618	242.38
613.826	228.38
614.034	255.38
614.242	259.38
614.449	257.38
614.657	253.38
614.865	265.38
615.072	260.38
615.28	249.38
615.488	234.38
615.695	245.38
615.903	254.38
616.111	265.38
616.318	242.38
616.526	241.38
616.733	249.38
616.941	236.38
617.148	223.38
617.356	238.38
617.563	229.38
617.771	231.38
617.978	240.38
618.185	223.38
618.393	240.38
618.6	239.38
618.807	230.38
619.015	236.38
619.222	218.38
619.429	232.38
619.637	253.38
619.844	230.38
620.051	234.38
620.258	229.38
620.466	226.38
620.673	225.38
620.88	241.38
621.087	225.38
621.294	229.38
621.501	234.38
621.708	238.38
621.915	236.38
622.122	234.38
622.329	212.38
622.536	231.38
622.743	227.38
622.95	225.38
623.157	235.38
623.364	231.38
623.571	237.38
623.778	237.38
623.985	242.38
624.192	231.38
624.399	232.38
624.606	225.38
624.812	215.38
625.019	209.38
625.226	211.38
625.433	234.38
625.639	219.38
625.846	214.38
626.053	223.38
626.259	233.38
626.466	208.38
626.673	198.38
626.879	229.38
627.086	212.38
627.293	215.38
627.499	223.38
627.706	221.38
627.912	235.38
628.119	224.38
628.325	214.38
628.532	210.38
628.738	212.38
628.945	234.38
629.151	204.38
629.357	213.38
629.564	207.38
629.77	209.38
629.976	217.38
630.183	207.38
630.389	207.38
630.595	210.38
630.802	205.38
631.008	202.38
631.214	205.38
631.42	217.38
631.627	198.38
631.833	205.38
632.039	210.38
632.245	196.38
632.451	210.38
632.657	218.38
632.863	199.38
633.069	216.38
633.275	192.38
633.481	196.38
633.688	204.38
633.893	224.38
634.099	212.38
634.305	205.38
634.511	202.38
634.717	189.38
634.923	203.38
635.129	189.38
635.335	184.38
635.541	215.38
635.747	187.38
635.952	191.38
636.158	199.38
636.364	191.38
636.57	174.38
636.775	192.38
636.981	199.38
637.187	177.38
637.392	197.38
637.598	203.38
637.804	200.38
638.009	175.38
638.215	192.38
638.421	179.38
638.626	182.38
638.832	195.38
639.037	196.38
639.243	182.38
639.448	189.38
639.654	184.38
639.859	203.38
640.065	191.38
640.27	198.38
640.475	184.38
640.681	180.38
640.886	168.38
641.091	186.38
641.297	192.38
641.502	187.38
641.707	193.38
641.913	210.38
642.118	197.38
642.323	196.38
642.528	192.38
642.733	183.38
642.939	186.38
643.144	196.38
643.349	198.38
643.554	186.38
643.759	187.38
643.964	193.38
644.169	194.38
644.374	182.38
644.579	177.38
644.784	180.38
644.989	185.38
645.194	200.38
645.399	186.38
645.604	179.38
645.809	186.38
646.014	193.38
646.219	189.38
646.423	183.38
646.628	186.38
646.833	187.38
647.038	195.38
647.243	191.38
647.447	188.38
647.652	180.38
647.857	192.38
648.062	180.38
648.266	190.38
648.471	191.38
648.676	187.38
648.88	185.38
649.085	188.38
649.289	175.38
649.494	163.38
649.698	177.38
649.903	186.38
650.107	180.38
650.312	191.38
650.516	193.38
650.721	183.38
650.925	174.38
651.13	183.38
651.334	171.38
651.539	179.38
651.743	186.38
651.947	165.38
652.152	178.38
652.356	161.38
652.56	177.38
652.764	177.38
652.969	194.38
653.173	167.38
653.377	148.38
653.581	165.38
653.785	164.38
653.99	163.38
654.194	156.38
654.398	162.38
654.602	163.38
654.806	146.38
655.01	167.38
655.214	177.38
655.418	162.38
655.622	145.38
655.826	167.38
656.03	156.38
656.234	163.38
656.438	155.38
656.642	147.38
656.846	140.38
657.049	139.38
657.253	149.38
657.457	145.38
657.661	139.38
657.865	149.38
658.068	128.38
658.272	126.38
658.476	119.38
658.68	124.38
658.883	128.38
659.087	115.38
659.291	105.38
659.494	109.38
659.698	117.38
659.901	100.38
660.105	109.38
660.309	95.38
660.512	95.38
660.716	104.38
660.919	113.38
661.123	117.38
661.326	96.38
661.53	108.38
661.733	97.38
661.936	92.38
662.14	97.38
662.343	98.38
662.546	85.38
662.75	95.38
662.953	95.38
663.156	84.38
663.36	89.38
663.563	97.38
663.766	82.38
663.969	105.38
664.173	80.38
664.376	73.38
664.579	73.38
664.782	85.38
664.985	83.38
665.188	84.38
665.391	100.38
665.594	85.38
665.797	69.38
666	98.38
666.203	84.38
666.406	67.38
666.609	87.38
666.812	87.38
667.015	81.38
667.218	90.38
667.421	84.38
667.624	69.38
667.827	86.38
668.03	77.38
668.232	86.38
668.435	92.38
668.638	88.38
668.841	85.38
669.043	91.38
669.246	80.38
669.449	85.38
669.651	83.38
669.854	99.38
670.057	92.38
670.259	81.38
670.462	67.38
670.665	84.38
670.867	97.38
671.07	83.38
671.272	86.38
671.475	85.38
671.677	81.38
671.88	74.38
672.082	81.38
672.284	87.38
672.487	86.38
672.689	80.38
672.892	76.38
