Data from Fe(NO3)3@0.025M.TitratingCurve.Agarose3%dH2O.NegLispCup.LampEnergy10.LIBS07252019_HRD10591_16-55-04-336.txt Node
Date: Thu Jul 25 16:55:04 EDT 2019
User: cochatt
Spectrometer: HR+D1059
Trigger mode: 1
Integration Time (sec): 1.000000E-1
Scans to average: 1
Electric dark correction enabled: true
Nonlinearity correction enabled: false
Boxcar width: 0
XAxis mode: Wavelengths
Number of Pixels in Spectrum: 2048
>>>>>Begin Spectral Data<<<<<
223.165	-24.12
223.4	-24.12
223.635	-24.12
223.869	-17.12
224.104	-22.12
224.338	-20.12
224.573	-6.12
224.808	-5.12
225.042	-7.12
225.277	-15.12
225.511	1.88
225.746	-0.12
225.98	20.88
226.215	12.88
226.449	12.88
226.683	12.88
226.918	24.88
227.152	30.88
227.387	16.88
227.621	39.88
227.856	33.88
228.09	57.88
228.324	50.88
228.559	68.88
228.793	54.88
229.027	74.88
229.262	70.88
229.496	82.88
229.73	89.88
229.964	78.88
230.199	76.88
230.433	89.88
230.667	72.88
230.901	80.88
231.136	82.88
231.37	71.88
231.604	90.88
231.838	82.88
232.072	77.88
232.306	83.88
232.541	91.88
232.775	93.88
233.009	95.88
233.243	95.88
233.477	86.88
233.711	86.88
233.945	92.88
234.179	94.88
234.413	96.88
234.647	91.88
234.881	99.88
235.115	97.88
235.349	106.88
235.583	98.88
235.817	96.88
236.051	99.88
236.285	83.88
236.519	91.88
236.753	96.88
236.987	81.88
237.221	91.88
237.455	98.88
237.689	87.88
237.922	87.88
238.156	86.88
238.39	83.88
238.624	96.88
238.858	81.88
239.091	119.88
239.325	91.88
239.559	102.88
239.793	96.88
240.027	90.88
240.26	96.88
240.494	99.88
240.728	102.88
240.961	88.88
241.195	107.88
241.429	92.88
241.662	96.88
241.896	88.88
242.13	96.88
242.363	102.88
242.597	92.88
242.83	91.88
243.064	82.88
243.298	86.88
243.531	95.88
243.765	96.88
243.998	104.88
244.232	96.88
244.465	90.88
244.699	106.88
244.932	89.88
245.166	99.88
245.399	97.88
245.633	102.88
245.866	110.88
246.099	120.88
246.333	86.88
246.566	85.88
246.8	99.88
247.033	92.88
247.266	119.88
247.5	103.88
247.733	114.88
247.966	93.88
248.2	103.88
248.433	96.88
248.666	104.88
248.899	114.88
249.133	97.88
249.366	109.88
249.599	117.88
249.832	98.88
250.066	101.88
250.299	103.88
250.532	120.88
250.765	118.88
250.998	105.88
251.231	81.88
251.465	102.88
251.698	106.88
251.931	112.88
252.164	117.88
252.397	106.88
252.63	92.88
252.863	105.88
253.096	118.88
253.329	112.88
253.562	114.88
253.795	121.88
254.028	108.88
254.261	106.88
254.494	113.88
254.727	120.88
254.96	129.88
255.193	113.88
255.426	122.88
255.659	106.88
255.892	122.88
256.124	104.88
256.357	124.88
256.59	125.88
256.823	111.88
257.056	112.88
257.289	103.88
257.521	103.88
257.754	110.88
257.987	111.88
258.22	120.88
258.452	123.88
258.685	124.88
258.918	121.88
259.151	107.88
259.383	116.88
259.616	128.88
259.849	106.88
260.081	121.88
260.314	125.88
260.547	122.88
260.779	120.88
261.012	124.88
261.244	115.88
261.477	132.88
261.71	116.88
261.942	120.88
262.175	122.88
262.407	132.88
262.64	126.88
262.872	144.88
263.105	135.88
263.337	136.88
263.57	149.88
263.802	135.88
264.035	121.88
264.267	133.88
264.499	118.88
264.732	141.88
264.964	122.88
265.197	132.88
265.429	135.88
265.661	133.88
265.894	125.88
266.126	122.88
266.358	135.88
266.591	132.88
266.823	131.88
267.055	128.88
267.287	143.88
267.52	135.88
267.752	134.88
267.984	118.88
268.216	131.88
268.448	132.88
268.681	122.88
268.913	130.88
269.145	128.88
269.377	130.88
269.609	133.88
269.841	143.88
270.073	155.88
270.306	129.88
270.538	150.88
270.77	130.88
271.002	128.88
271.234	129.88
271.466	144.88
271.698	143.88
271.93	149.88
272.162	158.88
272.394	141.88
272.626	132.88
272.858	140.88
273.09	137.88
273.322	142.88
273.553	142.88
273.785	147.88
274.017	128.88
274.249	153.88
274.481	143.88
274.713	154.88
274.945	146.88
275.176	152.88
275.408	145.88
275.64	152.88
275.872	133.88
276.104	155.88
276.335	133.88
276.567	136.88
276.799	150.88
277.031	144.88
277.262	148.88
277.494	144.88
277.726	139.88
277.957	160.88
278.189	153.88
278.421	158.88
278.652	148.88
278.884	165.88
279.115	158.88
279.347	148.88
279.579	151.88
279.81	162.88
280.042	160.88
280.273	146.88
280.505	159.88
280.736	167.88
280.968	153.88
281.199	157.88
281.431	160.88
281.662	162.88
281.894	165.88
282.125	154.88
282.356	178.88
282.588	155.88
282.819	161.88
283.051	150.88
283.282	162.88
283.513	148.88
283.745	170.88
283.976	162.88
284.207	152.88
284.439	170.88
284.67	166.88
284.901	180.88
285.132	169.88
285.364	166.88
285.595	173.88
285.826	185.88
286.057	163.88
286.288	174.88
286.52	171.88
286.751	181.88
286.982	151.88
287.213	163.88
287.444	174.88
287.675	170.88
287.906	169.88
288.138	170.88
288.369	173.88
288.6	174.88
288.831	160.88
289.062	178.88
289.293	173.88
289.524	164.88
289.755	174.88
289.986	164.88
290.217	162.88
290.448	171.88
290.679	171.88
290.91	179.88
291.141	180.88
291.371	184.88
291.602	182.88
291.833	178.88
292.064	179.88
292.295	190.88
292.526	178.88
292.757	165.88
292.987	185.88
293.218	185.88
293.449	183.88
293.68	180.88
293.91	178.88
294.141	186.88
294.372	178.88
294.603	191.88
294.833	165.88
295.064	183.88
295.295	188.88
295.525	182.88
295.756	179.88
295.987	175.88
296.217	180.88
296.448	183.88
296.679	198.88
296.909	199.88
297.14	185.88
297.37	195.88
297.601	186.88
297.831	169.88
298.062	194.88
298.292	190.88
298.523	182.88
298.753	200.88
298.984	200.88
299.214	185.88
299.445	190.88
299.675	186.88
299.905	195.88
300.136	185.88
300.366	190.88
300.597	194.88
300.827	201.88
301.057	175.88
301.288	188.88
301.518	202.88
301.748	196.88
301.979	204.88
302.209	190.88
302.439	202.88
302.669	202.88
302.9	202.88
303.13	208.88
303.36	208.88
303.59	202.88
303.82	188.88
304.051	201.88
304.281	223.88
304.511	220.88
304.741	188.88
304.971	204.88
305.201	192.88
305.431	183.88
305.661	195.88
305.891	188.88
306.121	203.88
306.352	203.88
306.582	209.88
306.812	200.88
307.042	203.88
307.272	205.88
307.502	191.88
307.731	211.88
307.961	210.88
308.191	194.88
308.421	210.88
308.651	211.88
308.881	205.88
309.111	195.88
309.341	195.88
309.571	197.88
309.8	204.88
310.03	208.88
310.26	196.88
310.49	204.88
310.72	202.88
310.949	195.88
311.179	212.88
311.409	211.88
311.639	215.88
311.868	210.88
312.098	214.88
312.328	210.88
312.557	212.88
312.787	207.88
313.017	216.88
313.246	225.88
313.476	219.88
313.706	183.88
313.935	215.88
314.165	215.88
314.394	221.88
314.624	226.88
314.853	214.88
315.083	200.88
315.312	207.88
315.542	216.88
315.771	199.88
316.001	209.88
316.23	208.88
316.46	210.88
316.689	212.88
316.919	219.88
317.148	206.88
317.377	224.88
317.607	224.88
317.836	215.88
318.065	195.88
318.295	215.88
318.524	202.88
318.753	207.88
318.983	206.88
319.212	225.88
319.441	217.88
319.67	227.88
319.9	216.88
320.129	211.88
320.358	208.88
320.587	222.88
320.816	226.88
321.046	213.88
321.275	218.88
321.504	211.88
321.733	227.88
321.962	243.88
322.191	216.88
322.42	220.88
322.649	226.88
322.878	215.88
323.108	233.88
323.337	233.88
323.566	221.88
323.795	232.88
324.024	233.88
324.253	225.88
324.482	200.88
324.71	209.88
324.939	205.88
325.168	216.88
325.397	229.88
325.626	235.88
325.855	228.88
326.084	242.88
326.313	241.88
326.542	236.88
326.77	238.88
326.999	222.88
327.228	225.88
327.457	223.88
327.686	239.88
327.914	234.88
328.143	225.88
328.372	231.88
328.6	240.88
328.829	242.88
329.058	235.88
329.287	247.88
329.515	242.88
329.744	238.88
329.972	247.88
330.201	237.88
330.43	244.88
330.658	254.88
330.887	243.88
331.115	249.88
331.344	240.88
331.572	257.88
331.801	243.88
332.03	238.88
332.258	268.88
332.486	287.88
332.715	278.88
332.943	274.88
333.172	266.88
333.4	278.88
333.629	275.88
333.857	307.88
334.085	291.88
334.314	283.88
334.542	278.88
334.771	271.88
334.999	294.88
335.227	276.88
335.455	273.88
335.684	274.88
335.912	296.88
336.14	280.88
336.369	261.88
336.597	272.88
336.825	291.88
337.053	270.88
337.281	262.88
337.51	266.88
337.738	284.88
337.966	268.88
338.194	249.88
338.422	270.88
338.65	240.88
338.878	268.88
339.106	274.88
339.334	263.88
339.562	245.88
339.79	257.88
340.018	250.88
340.246	251.88
340.474	249.88
340.702	249.88
340.93	263.88
341.158	251.88
341.386	262.88
341.614	240.88
341.842	250.88
342.07	239.88
342.298	256.88
342.526	262.88
342.754	259.88
342.981	250.88
343.209	261.88
343.437	272.88
343.665	264.88
343.893	288.88
344.12	275.88
344.348	276.88
344.576	252.88
344.804	270.88
345.031	271.88
345.259	256.88
345.487	247.88
345.714	258.88
345.942	258.88
346.17	257.88
346.397	255.88
346.625	255.88
346.853	253.88
347.08	231.88
347.308	246.88
347.535	243.88
347.763	244.88
347.99	252.88
348.218	251.88
348.445	256.88
348.673	247.88
348.9	252.88
349.128	255.88
349.355	235.88
349.583	254.88
349.81	256.88
350.037	253.88
350.265	241.88
350.492	228.88
350.72	233.88
350.947	250.88
351.174	252.88
351.402	250.88
351.629	253.88
351.856	250.88
352.083	245.88
352.311	259.88
352.538	234.88
352.765	256.88
352.992	237.88
353.22	250.88
353.447	226.88
353.674	265.88
353.901	232.88
354.128	242.88
354.355	260.88
354.583	235.88
354.81	244.88
355.037	242.88
355.264	236.88
355.491	251.88
355.718	220.88
355.945	256.88
356.172	254.88
356.399	227.88
356.626	256.88
356.853	242.88
357.08	247.88
357.307	245.88
357.534	247.88
357.761	232.88
357.988	246.88
358.215	267.88
358.441	255.88
358.668	258.88
358.895	236.88
359.122	254.88
359.349	240.88
359.576	232.88
359.802	245.88
360.029	244.88
360.256	244.88
360.483	253.88
360.709	263.88
360.936	259.88
361.163	220.88
361.39	244.88
361.616	233.88
361.843	245.88
362.07	244.88
362.296	262.88
362.523	258.88
362.749	265.88
362.976	272.88
363.203	266.88
363.429	235.88
363.656	249.88
363.882	249.88
364.109	242.88
364.335	244.88
364.562	257.88
364.788	242.88
365.015	258.88
365.241	234.88
365.468	244.88
365.694	244.88
365.92	243.88
366.147	234.88
366.373	247.88
366.599	228.88
366.826	238.88
367.052	253.88
367.278	261.88
367.505	258.88
367.731	252.88
367.957	264.88
368.184	266.88
368.41	267.88
368.636	252.88
368.862	249.88
369.089	251.88
369.315	246.88
369.541	274.88
369.767	270.88
369.993	247.88
370.219	260.88
370.445	264.88
370.672	264.88
370.898	271.88
371.124	256.88
371.35	265.88
371.576	251.88
371.802	262.88
372.028	255.88
372.254	280.88
372.48	273.88
372.706	283.88
372.932	272.88
373.158	288.88
373.384	288.88
373.61	261.88
373.835	251.88
374.061	258.88
374.287	255.88
374.513	286.88
374.739	271.88
374.965	274.88
375.191	269.88
375.416	281.88
375.642	288.88
375.868	271.88
376.094	277.88
376.319	266.88
376.545	276.88
376.771	266.88
376.997	288.88
377.222	257.88
377.448	274.88
377.674	275.88
377.899	266.88
378.125	264.88
378.35	276.88
378.576	272.88
378.802	259.88
379.027	267.88
379.253	269.88
379.478	264.88
379.704	291.88
379.929	260.88
380.155	259.88
380.38	272.88
380.606	259.88
380.831	256.88
381.057	280.88
381.282	285.88
381.507	279.88
381.733	290.88
381.958	267.88
382.184	261.88
382.409	278.88
382.634	275.88
382.86	266.88
383.085	267.88
383.31	285.88
383.535	292.88
383.761	304.88
383.986	285.88
384.211	294.88
384.436	290.88
384.662	293.88
384.887	305.88
385.112	302.88
385.337	308.88
385.562	295.88
385.787	296.88
386.013	315.88
386.238	333.88
386.463	313.88
386.688	328.88
386.913	296.88
387.138	307.88
387.363	314.88
387.588	310.88
387.813	322.88
388.038	318.88
388.263	298.88
388.488	315.88
388.713	290.88
388.938	310.88
389.163	312.88
389.387	318.88
389.612	307.88
389.837	317.88
390.062	296.88
390.287	309.88
390.512	298.88
390.736	326.88
390.961	321.88
391.186	320.88
391.411	316.88
391.636	331.88
391.86	351.88
392.085	347.88
392.31	332.88
392.534	336.88
392.759	332.88
392.984	321.88
393.208	315.88
393.433	318.88
393.658	326.88
393.882	308.88
394.107	336.88
394.331	321.88
394.556	342.88
394.78	346.88
395.005	343.88
395.229	309.88
395.454	317.88
395.678	334.88
395.903	336.88
396.127	329.88
396.352	340.88
396.576	341.88
396.801	320.88
397.025	326.88
397.249	328.88
397.474	360.88
397.698	342.88
397.922	345.88
398.147	346.88
398.371	353.88
398.595	376.88
398.82	386.88
399.044	393.88
399.268	408.88
399.492	463.88
399.717	472.88
399.941	459.88
400.165	449.88
400.389	408.88
400.613	414.88
400.837	402.88
401.062	394.88
401.286	368.88
401.51	360.88
401.734	366.88
401.958	374.88
402.182	375.88
402.406	369.88
402.63	384.88
402.854	381.88
403.078	365.88
403.302	399.88
403.526	395.88
403.75	389.88
403.974	406.88
404.198	402.88
404.422	405.88
404.645	391.88
404.869	404.88
405.093	396.88
405.317	369.88
405.541	395.88
405.765	400.88
405.988	386.88
406.212	401.88
406.436	375.88
406.66	401.88
406.883	416.88
407.107	416.88
407.331	417.88
407.555	426.88
407.778	439.88
408.002	446.88
408.226	414.88
408.449	445.88
408.673	411.88
408.896	378.88
409.12	402.88
409.344	405.88
409.567	402.88
409.791	393.88
410.014	397.88
410.238	397.88
410.461	403.88
410.685	387.88
410.908	387.88
411.132	380.88
411.355	389.88
411.578	378.88
411.802	411.88
412.025	373.88
412.249	382.88
412.472	371.88
412.695	362.88
412.919	363.88
413.142	384.88
413.365	369.88
413.589	374.88
413.812	384.88
414.035	376.88
414.258	361.88
414.482	364.88
414.705	354.88
414.928	376.88
415.151	370.88
415.374	369.88
415.597	374.88
415.821	382.88
416.044	377.88
416.267	365.88
416.49	377.88
416.713	375.88
416.936	359.88
417.159	370.88
417.382	358.88
417.605	360.88
417.828	345.88
418.051	350.88
418.274	361.88
418.497	382.88
418.72	376.88
418.943	363.88
419.166	370.88
419.389	394.88
419.611	406.88
419.834	386.88
420.057	376.88
420.28	375.88
420.503	368.88
420.726	364.88
420.948	354.88
421.171	380.88
421.394	366.88
421.617	359.88
421.839	372.88
422.062	372.88
422.285	346.88
422.507	351.88
422.73	370.88
422.953	336.88
423.175	370.88
423.398	358.88
423.621	366.88
423.843	376.88
424.066	374.88
424.288	370.88
424.511	362.88
424.733	376.88
424.956	378.88
425.178	345.88
425.401	372.88
425.623	366.88
425.846	353.88
426.068	368.88
426.291	344.88
426.513	330.88
426.735	350.88
426.958	336.88
427.18	335.88
427.402	342.88
427.625	351.88
427.847	333.88
428.069	325.88
428.292	312.88
428.514	323.88
428.736	309.88
428.958	316.88
429.181	321.88
429.403	328.88
429.625	325.88
429.847	339.88
430.069	331.88
430.292	334.88
430.514	322.88
430.736	352.88
430.958	323.88
431.18	316.88
431.402	316.88
431.624	326.88
431.846	323.88
432.068	341.88
432.29	335.88
432.512	316.88
432.734	324.88
432.956	326.88
433.178	336.88
433.4	338.88
433.622	350.88
433.844	356.88
434.066	339.88
434.287	336.88
434.509	337.88
434.731	345.88
434.953	340.88
435.175	372.88
435.397	344.88
435.618	343.88
435.84	339.88
436.062	338.88
436.284	329.88
436.505	333.88
436.727	318.88
436.949	314.88
437.17	308.88
437.392	337.88
437.614	341.88
437.835	297.88
438.057	322.88
438.278	351.88
438.5	327.88
438.721	325.88
438.943	322.88
439.165	328.88
439.386	321.88
439.608	319.88
439.829	315.88
440.05	338.88
440.272	324.88
440.493	315.88
440.715	337.88
440.936	342.88
441.158	351.88
441.379	338.88
441.6	345.88
441.822	370.88
442.043	374.88
442.264	352.88
442.486	337.88
442.707	347.88
442.928	354.88
443.149	382.88
443.371	350.88
443.592	359.88
443.813	360.88
444.034	368.88
444.255	356.88
444.476	347.88
444.698	396.88
444.919	387.88
445.14	449.88
445.361	404.88
445.582	371.88
445.803	358.88
446.024	344.88
446.245	343.88
446.466	334.88
446.687	327.88
446.908	344.88
447.129	318.88
447.35	334.88
447.571	321.88
447.792	309.88
448.013	313.88
448.234	328.88
448.455	320.88
448.675	307.88
448.896	313.88
449.117	322.88
449.338	304.88
449.559	316.88
449.779	327.88
450	302.88
450.221	305.88
450.442	310.88
450.662	311.88
450.883	324.88
451.104	306.88
451.324	314.88
451.545	309.88
451.766	316.88
451.986	314.88
452.207	311.88
452.428	289.88
452.648	307.88
452.869	305.88
453.089	302.88
453.31	277.88
453.53	305.88
453.751	284.88
453.971	300.88
454.192	309.88
454.412	290.88
454.633	289.88
454.853	284.88
455.073	278.88
455.294	294.88
455.514	276.88
455.734	289.88
455.955	291.88
456.175	289.88
456.395	286.88
456.616	297.88
456.836	290.88
457.056	296.88
457.276	280.88
457.497	309.88
457.717	306.88
457.937	292.88
458.157	289.88
458.377	273.88
458.598	302.88
458.818	308.88
459.038	332.88
459.258	314.88
459.478	339.88
459.698	331.88
459.918	347.88
460.138	359.88
460.358	355.88
460.578	375.88
460.798	380.88
461.018	375.88
461.238	380.88
461.458	380.88
461.678	363.88
461.898	369.88
462.118	380.88
462.338	387.88
462.558	399.88
462.777	406.88
462.997	415.88
463.217	439.88
463.437	442.88
463.657	413.88
463.876	404.88
464.096	409.88
464.316	383.88
464.536	380.88
464.755	426.88
464.975	401.88
465.195	373.88
465.414	366.88
465.634	358.88
465.854	345.88
466.073	343.88
466.293	349.88
466.512	327.88
466.732	331.88
466.951	339.88
467.171	336.88
467.391	318.88
467.61	304.88
467.829	323.88
468.049	336.88
468.268	326.88
468.488	314.88
468.707	318.88
468.927	315.88
469.146	317.88
469.365	291.88
469.585	314.88
469.804	320.88
470.023	335.88
470.243	326.88
470.462	334.88
470.681	319.88
470.901	321.88
471.12	325.88
471.339	324.88
471.558	321.88
471.777	313.88
471.997	305.88
472.216	309.88
472.435	320.88
472.654	332.88
472.873	319.88
473.092	311.88
473.311	319.88
473.53	310.88
473.749	305.88
473.968	317.88
474.187	310.88
474.406	327.88
474.625	312.88
474.844	297.88
475.063	312.88
475.282	326.88
475.501	316.88
475.72	339.88
475.939	336.88
476.158	330.88
476.377	349.88
476.596	321.88
476.814	331.88
477.033	339.88
477.252	338.88
477.471	364.88
477.69	335.88
477.908	354.88
478.127	360.88
478.346	356.88
478.564	374.88
478.783	378.88
479.002	348.88
479.22	367.88
479.439	374.88
479.658	351.88
479.876	378.88
480.095	374.88
480.313	369.88
480.532	402.88
480.751	379.88
480.969	365.88
481.188	358.88
481.406	365.88
481.624	346.88
481.843	340.88
482.061	347.88
482.28	355.88
482.498	348.88
482.717	353.88
482.935	355.88
483.153	355.88
483.372	345.88
483.59	351.88
483.808	351.88
484.027	354.88
484.245	361.88
484.463	343.88
484.681	354.88
484.9	337.88
485.118	368.88
485.336	345.88
485.554	368.88
485.772	356.88
485.99	366.88
486.209	380.88
486.427	363.88
486.645	350.88
486.863	357.88
487.081	353.88
487.299	360.88
487.517	363.88
487.735	373.88
487.953	372.88
488.171	360.88
488.389	364.88
488.607	371.88
488.825	369.88
489.043	362.88
489.261	378.88
489.479	330.88
489.696	379.88
489.914	378.88
490.132	356.88
490.35	380.88
490.568	358.88
490.786	359.88
491.003	368.88
491.221	376.88
491.439	377.88
491.657	362.88
491.874	378.88
492.092	379.88
492.31	400.88
492.527	364.88
492.745	366.88
492.963	386.88
493.18	404.88
493.398	386.88
493.615	401.88
493.833	397.88
494.05	376.88
494.268	377.88
494.485	386.88
494.703	392.88
494.92	388.88
495.138	388.88
495.355	418.88
495.573	402.88
495.79	415.88
496.008	400.88
496.225	406.88
496.442	406.88
496.66	403.88
496.877	425.88
497.094	437.88
497.312	431.88
497.529	436.88
497.746	464.88
497.963	465.88
498.181	456.88
498.398	504.88
498.615	521.88
498.832	531.88
499.049	558.88
499.267	593.88
499.484	641.88
499.701	646.88
499.918	734.88
500.135	778.88
500.352	840.88
500.569	835.88
500.786	818.88
501.003	803.88
501.22	746.88
501.437	713.88
501.654	646.88
501.871	623.88
502.088	585.88
502.305	546.88
502.522	508.88
502.739	506.88
502.956	491.88
503.172	486.88
503.389	462.88
503.606	442.88
503.823	440.88
504.04	450.88
504.256	444.88
504.473	452.88
504.69	432.88
504.907	417.88
505.123	416.88
505.34	396.88
505.557	410.88
505.773	404.88
505.99	370.88
506.207	387.88
506.423	397.88
506.64	369.88
506.856	332.88
507.073	345.88
507.289	354.88
507.506	355.88
507.722	348.88
507.939	346.88
508.155	342.88
508.372	364.88
508.588	336.88
508.805	350.88
509.021	323.88
509.238	335.88
509.454	335.88
509.67	330.88
509.887	331.88
510.103	341.88
510.319	347.88
510.536	335.88
510.752	328.88
510.968	345.88
511.184	339.88
511.401	338.88
511.617	310.88
511.833	334.88
512.049	336.88
512.265	337.88
512.481	336.88
512.698	339.88
512.914	336.88
513.13	345.88
513.346	331.88
513.562	324.88
513.778	338.88
513.994	330.88
514.21	336.88
514.426	342.88
514.642	339.88
514.858	330.88
515.074	344.88
515.29	339.88
515.506	339.88
515.721	347.88
515.937	368.88
516.153	363.88
516.369	367.88
516.585	376.88
516.801	371.88
517.016	370.88
517.232	384.88
517.448	391.88
517.664	414.88
517.879	422.88
518.095	399.88
518.311	402.88
518.527	395.88
518.742	379.88
518.958	375.88
519.173	353.88
519.389	356.88
519.605	340.88
519.82	340.88
520.036	344.88
520.251	347.88
520.467	332.88
520.682	340.88
520.898	326.88
521.113	318.88
521.329	320.88
521.544	322.88
521.76	315.88
521.975	337.88
522.19	352.88
522.406	316.88
522.621	325.88
522.836	314.88
523.052	324.88
523.267	310.88
523.482	307.88
523.698	320.88
523.913	317.88
524.128	303.88
524.343	306.88
524.559	312.88
524.774	302.88
524.989	306.88
525.204	329.88
525.419	302.88
525.634	302.88
525.849	298.88
526.064	296.88
526.28	302.88
526.495	320.88
526.71	307.88
526.925	311.88
527.14	295.88
527.355	289.88
527.57	322.88
527.785	305.88
527.999	314.88
528.214	313.88
528.429	307.88
528.644	287.88
528.859	304.88
529.074	298.88
529.289	307.88
529.503	306.88
529.718	310.88
529.933	310.88
530.148	317.88
530.363	310.88
530.577	296.88
530.792	324.88
531.007	319.88
531.221	312.88
531.436	304.88
531.651	320.88
531.865	315.88
532.08	320.88
532.295	309.88
532.509	302.88
532.724	295.88
532.938	302.88
533.153	296.88
533.367	300.88
533.582	290.88
533.796	302.88
534.011	306.88
534.225	308.88
534.44	298.88
534.654	300.88
534.868	300.88
535.083	293.88
535.297	298.88
535.511	294.88
535.726	314.88
535.94	288.88
536.154	292.88
536.369	307.88
536.583	285.88
536.797	280.88
537.011	283.88
537.225	298.88
537.44	292.88
537.654	295.88
537.868	284.88
538.082	295.88
538.296	288.88
538.51	289.88
538.724	309.88
538.938	292.88
539.153	280.88
539.367	298.88
539.581	293.88
539.795	291.88
540.009	273.88
540.222	282.88
540.436	286.88
540.65	290.88
540.864	283.88
541.078	288.88
541.292	276.88
541.506	301.88
541.72	276.88
541.934	281.88
542.147	304.88
542.361	276.88
542.575	269.88
542.789	296.88
543.002	278.88
543.216	283.88
543.43	280.88
543.644	281.88
543.857	286.88
544.071	291.88
544.285	278.88
544.498	282.88
544.712	293.88
544.925	273.88
545.139	279.88
545.352	276.88
545.566	280.88
545.779	303.88
545.993	280.88
546.206	299.88
546.42	267.88
546.633	277.88
546.847	278.88
547.06	295.88
547.274	279.88
547.487	290.88
547.7	298.88
547.914	295.88
548.127	303.88
548.34	288.88
548.554	286.88
548.767	293.88
548.98	303.88
549.193	292.88
549.407	281.88
549.62	278.88
549.833	289.88
550.046	290.88
550.259	290.88
550.473	282.88
550.686	280.88
550.899	281.88
551.112	300.88
551.325	276.88
551.538	280.88
551.751	271.88
551.964	271.88
552.177	282.88
552.39	284.88
552.603	297.88
552.816	293.88
553.029	309.88
553.242	313.88
553.455	323.88
553.667	311.88
553.88	320.88
554.093	309.88
554.306	292.88
554.519	294.88
554.732	286.88
554.944	283.88
555.157	274.88
555.37	280.88
555.583	247.88
555.795	287.88
556.008	269.88
556.221	268.88
556.433	263.88
556.646	271.88
556.859	263.88
557.071	263.88
557.284	258.88
557.496	265.88
557.709	272.88
557.921	267.88
558.134	264.88
558.346	260.88
558.559	255.88
558.771	267.88
558.984	243.88
559.196	243.88
559.409	262.88
559.621	252.88
559.833	243.88
560.046	247.88
560.258	234.88
560.47	255.88
560.683	255.88
560.895	259.88
561.107	271.88
561.32	258.88
561.532	262.88
561.744	269.88
561.956	268.88
562.168	268.88
562.381	258.88
562.593	262.88
562.805	248.88
563.017	259.88
563.229	238.88
563.441	267.88
563.653	262.88
563.865	270.88
564.077	265.88
564.289	280.88
564.501	268.88
564.713	271.88
564.925	273.88
565.137	277.88
565.349	288.88
565.561	292.88
565.773	299.88
565.985	304.88
566.197	314.88
566.408	318.88
566.62	345.88
566.832	339.88
567.044	355.88
567.255	347.88
567.467	343.88
567.679	356.88
567.891	366.88
568.102	355.88
568.314	367.88
568.526	322.88
568.737	316.88
568.949	303.88
569.161	294.88
569.372	288.88
569.584	268.88
569.795	280.88
570.007	262.88
570.218	247.88
570.43	239.88
570.641	262.88
570.853	253.88
571.064	270.88
571.276	248.88
571.487	265.88
571.698	247.88
571.91	241.88
572.121	244.88
572.333	238.88
572.544	239.88
572.755	234.88
572.966	220.88
573.178	214.88
573.389	203.88
573.6	228.88
573.811	225.88
574.023	214.88
574.234	209.88
574.445	195.88
574.656	220.88
574.867	217.88
575.078	215.88
575.289	211.88
575.501	215.88
575.712	205.88
575.923	226.88
576.134	195.88
576.345	214.88
576.556	212.88
576.767	208.88
576.978	205.88
577.188	196.88
577.399	210.88
577.61	199.88
577.821	194.88
578.032	194.88
578.243	198.88
578.454	198.88
578.665	203.88
578.875	202.88
579.086	214.88
579.297	197.88
579.508	185.88
579.718	201.88
579.929	189.88
580.14	213.88
580.35	196.88
580.561	208.88
580.772	200.88
580.982	199.88
581.193	190.88
581.403	190.88
581.614	196.88
581.825	207.88
582.035	193.88
582.246	192.88
582.456	204.88
582.667	205.88
582.877	197.88
583.087	187.88
583.298	194.88
583.508	194.88
583.719	184.88
583.929	192.88
584.139	192.88
584.35	182.88
584.56	175.88
584.77	184.88
584.981	211.88
585.191	209.88
585.401	187.88
585.611	198.88
585.821	191.88
586.032	186.88
586.242	192.88
586.452	173.88
586.662	161.88
586.872	189.88
587.082	189.88
587.292	177.88
587.502	203.88
587.713	201.88
587.923	191.88
588.133	188.88
588.343	192.88
588.553	180.88
588.762	206.88
588.972	190.88
589.182	200.88
589.392	196.88
589.602	193.88
589.812	186.88
590.022	208.88
590.232	200.88
590.441	200.88
590.651	191.88
590.861	177.88
591.071	184.88
591.281	208.88
591.49	209.88
591.7	192.88
591.91	199.88
592.119	186.88
592.329	190.88
592.539	184.88
592.748	212.88
592.958	220.88
593.167	213.88
593.377	202.88
593.587	223.88
593.796	217.88
594.006	227.88
594.215	210.88
594.424	218.88
594.634	208.88
594.843	210.88
595.053	212.88
595.262	185.88
595.472	188.88
595.681	172.88
595.89	195.88
596.1	186.88
596.309	194.88
596.518	196.88
596.727	186.88
596.937	171.88
597.146	183.88
597.355	194.88
597.564	184.88
597.774	182.88
597.983	172.88
598.192	176.88
598.401	159.88
598.61	169.88
598.819	180.88
599.028	182.88
599.237	170.88
599.446	166.88
599.655	177.88
599.864	182.88
600.073	177.88
600.282	173.88
600.491	169.88
600.7	174.88
600.909	166.88
601.118	166.88
601.327	166.88
601.536	165.88
601.745	161.88
601.953	161.88
602.162	177.88
602.371	163.88
602.58	176.88
602.789	155.88
602.997	158.88
603.206	174.88
603.415	188.88
603.623	170.88
603.832	149.88
604.041	164.88
604.249	164.88
604.458	164.88
604.666	149.88
604.875	153.88
605.084	160.88
605.292	155.88
605.501	165.88
605.709	153.88
605.918	176.88
606.126	165.88
606.334	158.88
606.543	176.88
606.751	186.88
606.96	150.88
607.168	159.88
607.376	153.88
607.585	172.88
607.793	172.88
608.001	160.88
608.21	175.88
608.418	140.88
608.626	158.88
608.834	166.88
609.043	154.88
609.251	146.88
609.459	169.88
609.667	171.88
609.875	160.88
610.083	162.88
610.291	150.88
610.499	170.88
610.707	159.88
610.916	163.88
611.124	165.88
611.332	158.88
611.54	164.88
611.748	162.88
611.955	161.88
612.163	147.88
612.371	154.88
612.579	171.88
612.787	153.88
612.995	151.88
613.203	161.88
613.411	156.88
613.618	177.88
613.826	154.88
614.034	151.88
614.242	158.88
614.449	165.88
614.657	146.88
614.865	163.88
615.072	159.88
615.28	179.88
615.488	171.88
615.695	158.88
615.903	147.88
616.111	147.88
616.318	170.88
616.526	152.88
616.733	150.88
616.941	164.88
617.148	156.88
617.356	159.88
617.563	158.88
617.771	152.88
617.978	142.88
618.185	161.88
618.393	155.88
618.6	134.88
618.807	166.88
619.015	160.88
619.222	156.88
619.429	140.88
619.637	166.88
619.844	142.88
620.051	154.88
620.258	155.88
620.466	158.88
620.673	149.88
620.88	151.88
621.087	146.88
621.294	150.88
621.501	139.88
621.708	150.88
621.915	163.88
622.122	156.88
622.329	147.88
622.536	161.88
622.743	156.88
622.95	152.88
623.157	147.88
623.364	136.88
623.571	156.88
623.778	163.88
623.985	160.88
624.192	156.88
624.399	144.88
624.606	143.88
624.812	151.88
625.019	145.88
625.226	134.88
625.433	138.88
625.639	123.88
625.846	131.88
626.053	139.88
626.259	148.88
626.466	146.88
626.673	126.88
626.879	134.88
627.086	143.88
627.293	149.88
627.499	143.88
627.706	136.88
627.912	138.88
628.119	135.88
628.325	131.88
628.532	124.88
628.738	135.88
628.945	154.88
629.151	125.88
629.357	140.88
629.564	133.88
629.77	132.88
629.976	141.88
630.183	151.88
630.389	145.88
630.595	133.88
630.802	134.88
631.008	146.88
631.214	140.88
631.42	145.88
631.627	148.88
631.833	149.88
632.039	145.88
632.245	135.88
632.451	145.88
632.657	141.88
632.863	131.88
633.069	137.88
633.275	126.88
633.481	140.88
633.688	145.88
633.893	142.88
634.099	130.88
634.305	151.88
634.511	134.88
634.717	134.88
634.923	135.88
635.129	135.88
635.335	123.88
635.541	122.88
635.747	130.88
635.952	128.88
636.158	136.88
636.364	119.88
636.57	120.88
636.775	133.88
636.981	115.88
637.187	128.88
637.392	126.88
637.598	110.88
637.804	126.88
638.009	118.88
638.215	126.88
638.421	129.88
638.626	127.88
638.832	134.88
639.037	134.88
639.243	133.88
639.448	124.88
639.654	129.88
639.859	128.88
640.065	129.88
640.27	139.88
640.475	130.88
640.681	134.88
640.886	140.88
641.091	136.88
641.297	137.88
641.502	124.88
641.707	120.88
641.913	127.88
642.118	138.88
642.323	130.88
642.528	135.88
642.733	117.88
642.939	119.88
643.144	128.88
643.349	110.88
643.554	125.88
643.759	125.88
643.964	131.88
644.169	126.88
644.374	132.88
644.579	132.88
644.784	139.88
644.989	125.88
645.194	128.88
645.399	136.88
645.604	116.88
645.809	128.88
646.014	120.88
646.219	125.88
646.423	134.88
646.628	118.88
646.833	135.88
647.038	138.88
647.243	138.88
647.447	121.88
647.652	132.88
647.857	120.88
648.062	131.88
648.266	132.88
648.471	144.88
648.676	137.88
648.88	117.88
649.085	131.88
649.289	139.88
649.494	127.88
649.698	130.88
649.903	122.88
650.107	123.88
650.312	133.88
650.516	121.88
650.721	127.88
650.925	122.88
651.13	130.88
651.334	121.88
651.539	122.88
651.743	125.88
651.947	126.88
652.152	123.88
652.356	105.88
652.56	128.88
652.764	133.88
652.969	120.88
653.173	126.88
653.377	108.88
653.581	119.88
653.785	121.88
653.99	115.88
654.194	127.88
654.398	114.88
654.602	116.88
654.806	108.88
655.01	113.88
655.214	126.88
655.418	126.88
655.622	104.88
655.826	117.88
656.03	107.88
656.234	113.88
656.438	124.88
656.642	123.88
656.846	102.88
657.049	120.88
657.253	116.88
657.457	114.88
657.661	98.88
657.865	106.88
658.068	115.88
658.272	86.88
658.476	98.88
658.68	110.88
658.883	101.88
659.087	87.88
659.291	100.88
659.494	106.88
659.698	94.88
659.901	99.88
660.105	94.88
660.309	95.88
660.512	92.88
660.716	98.88
660.919	106.88
661.123	94.88
661.326	83.88
661.53	83.88
661.733	83.88
661.936	94.88
662.14	71.88
662.343	75.88
662.546	81.88
662.75	92.88
662.953	105.88
663.156	69.88
663.36	78.88
663.563	86.88
663.766	80.88
663.969	94.88
664.173	80.88
664.376	76.88
664.579	69.88
664.782	77.88
664.985	76.88
665.188	88.88
665.391	87.88
665.594	67.88
665.797	98.88
666	74.88
666.203	67.88
666.406	73.88
666.609	83.88
666.812	80.88
667.015	97.88
667.218	78.88
667.421	75.88
667.624	74.88
667.827	76.88
668.03	80.88
668.232	86.88
668.435	69.88
668.638	77.88
668.841	75.88
669.043	73.88
669.246	56.88
669.449	70.88
669.651	93.88
669.854	75.88
670.057	76.88
670.259	74.88
670.462	71.88
670.665	85.88
670.867	75.88
671.07	79.88
671.272	85.88
671.475	91.88
671.677	67.88
671.88	79.88
672.082	80.88
672.284	78.88
672.487	82.88
672.689	74.88
672.892	68.88
