Data from Fe(NO3)3@0.1M.TitratingCurve.Agarose3%dH2O.NegLispCup.LampEnergy10.LIBS07252019_HRD10591_16-40-18-332.txt Node
Date: Thu Jul 25 16:40:18 EDT 2019
User: cochatt
Spectrometer: HR+D1059
Trigger mode: 1
Integration Time (sec): 1.000000E-1
Scans to average: 1
Electric dark correction enabled: true
Nonlinearity correction enabled: false
Boxcar width: 0
XAxis mode: Wavelengths
Number of Pixels in Spectrum: 2048
>>>>>Begin Spectral Data<<<<<
223.165	-14.62
223.4	-14.62
223.635	-14.62
223.869	-21.62
224.104	-20.62
224.338	-23.62
224.573	-11.62
224.808	4.38
225.042	6.38
225.277	-0.62
225.511	5.38
225.746	8.38
225.98	-4.62
226.215	5.38
226.449	13.38
226.683	12.38
226.918	14.38
227.152	27.38
227.387	41.38
227.621	41.38
227.856	49.38
228.09	23.38
228.324	51.38
228.559	40.38
228.793	56.38
229.027	73.38
229.262	71.38
229.496	87.38
229.73	66.38
229.964	98.38
230.199	91.38
230.433	83.38
230.667	83.38
230.901	89.38
231.136	92.38
231.37	80.38
231.604	101.38
231.838	79.38
232.072	94.38
232.306	100.38
232.541	100.38
232.775	98.38
233.009	108.38
233.243	100.38
233.477	105.38
233.711	80.38
233.945	97.38
234.179	101.38
234.413	88.38
234.647	94.38
234.881	98.38
235.115	96.38
235.349	108.38
235.583	107.38
235.817	97.38
236.051	98.38
236.285	99.38
236.519	102.38
236.753	100.38
236.987	87.38
237.221	105.38
237.455	104.38
237.689	97.38
237.922	103.38
238.156	101.38
238.39	121.38
238.624	104.38
238.858	111.38
239.091	99.38
239.325	105.38
239.559	103.38
239.793	109.38
240.027	102.38
240.26	102.38
240.494	100.38
240.728	98.38
240.961	105.38
241.195	117.38
241.429	114.38
241.662	99.38
241.896	122.38
242.13	117.38
242.363	120.38
242.597	119.38
242.83	111.38
243.064	98.38
243.298	114.38
243.531	105.38
243.765	103.38
243.998	99.38
244.232	109.38
244.465	116.38
244.699	111.38
244.932	106.38
245.166	111.38
245.399	111.38
245.633	119.38
245.866	107.38
246.099	123.38
246.333	105.38
246.566	99.38
246.8	113.38
247.033	111.38
247.266	109.38
247.5	101.38
247.733	121.38
247.966	126.38
248.2	117.38
248.433	119.38
248.666	127.38
248.899	109.38
249.133	125.38
249.366	124.38
249.599	128.38
249.832	113.38
250.066	135.38
250.299	109.38
250.532	125.38
250.765	123.38
250.998	134.38
251.231	112.38
251.465	123.38
251.698	123.38
251.931	124.38
252.164	123.38
252.397	133.38
252.63	140.38
252.863	133.38
253.096	115.38
253.329	127.38
253.562	113.38
253.795	133.38
254.028	132.38
254.261	125.38
254.494	143.38
254.727	129.38
254.96	125.38
255.193	134.38
255.426	130.38
255.659	131.38
255.892	131.38
256.124	126.38
256.357	136.38
256.59	133.38
256.823	141.38
257.056	133.38
257.289	140.38
257.521	142.38
257.754	131.38
257.987	131.38
258.22	147.38
258.452	129.38
258.685	134.38
258.918	141.38
259.151	140.38
259.383	132.38
259.616	143.38
259.849	128.38
260.081	152.38
260.314	168.38
260.547	153.38
260.779	141.38
261.012	166.38
261.244	145.38
261.477	158.38
261.71	143.38
261.942	147.38
262.175	142.38
262.407	157.38
262.64	145.38
262.872	168.38
263.105	159.38
263.337	151.38
263.57	155.38
263.802	155.38
264.035	147.38
264.267	155.38
264.499	148.38
264.732	150.38
264.964	148.38
265.197	159.38
265.429	145.38
265.661	135.38
265.894	156.38
266.126	154.38
266.358	157.38
266.591	161.38
266.823	130.38
267.055	152.38
267.287	161.38
267.52	157.38
267.752	140.38
267.984	147.38
268.216	161.38
268.448	156.38
268.681	154.38
268.913	155.38
269.145	147.38
269.377	161.38
269.609	160.38
269.841	154.38
270.073	167.38
270.306	175.38
270.538	175.38
270.77	149.38
271.002	167.38
271.234	169.38
271.466	167.38
271.698	162.38
271.93	153.38
272.162	167.38
272.394	149.38
272.626	163.38
272.858	190.38
273.09	155.38
273.322	177.38
273.553	172.38
273.785	187.38
274.017	189.38
274.249	187.38
274.481	183.38
274.713	191.38
274.945	203.38
275.176	184.38
275.408	171.38
275.64	190.38
275.872	175.38
276.104	187.38
276.335	179.38
276.567	178.38
276.799	180.38
277.031	164.38
277.262	167.38
277.494	186.38
277.726	189.38
277.957	163.38
278.189	167.38
278.421	179.38
278.652	196.38
278.884	193.38
279.115	189.38
279.347	197.38
279.579	195.38
279.81	179.38
280.042	193.38
280.273	189.38
280.505	184.38
280.736	189.38
280.968	196.38
281.199	189.38
281.431	188.38
281.662	188.38
281.894	186.38
282.125	192.38
282.356	202.38
282.588	178.38
282.819	191.38
283.051	204.38
283.282	177.38
283.513	205.38
283.745	202.38
283.976	186.38
284.207	179.38
284.439	177.38
284.67	204.38
284.901	200.38
285.132	201.38
285.364	207.38
285.595	215.38
285.826	199.38
286.057	202.38
286.288	200.38
286.52	208.38
286.751	196.38
286.982	215.38
287.213	191.38
287.444	196.38
287.675	216.38
287.906	205.38
288.138	209.38
288.369	193.38
288.6	200.38
288.831	224.38
289.062	207.38
289.293	202.38
289.524	207.38
289.755	218.38
289.986	216.38
290.217	202.38
290.448	210.38
290.679	221.38
290.91	224.38
291.141	188.38
291.371	213.38
291.602	215.38
291.833	220.38
292.064	207.38
292.295	205.38
292.526	211.38
292.757	210.38
292.987	211.38
293.218	211.38
293.449	215.38
293.68	218.38
293.91	212.38
294.141	232.38
294.372	226.38
294.603	224.38
294.833	221.38
295.064	219.38
295.295	216.38
295.525	221.38
295.756	230.38
295.987	225.38
296.217	214.38
296.448	228.38
296.679	219.38
296.909	234.38
297.14	228.38
297.37	226.38
297.601	233.38
297.831	225.38
298.062	241.38
298.292	210.38
298.523	231.38
298.753	235.38
298.984	235.38
299.214	225.38
299.445	231.38
299.675	245.38
299.905	230.38
300.136	223.38
300.366	221.38
300.597	232.38
300.827	238.38
301.057	227.38
301.288	239.38
301.518	244.38
301.748	241.38
301.979	228.38
302.209	247.38
302.439	233.38
302.669	233.38
302.9	236.38
303.13	242.38
303.36	240.38
303.59	229.38
303.82	243.38
304.051	251.38
304.281	253.38
304.511	239.38
304.741	247.38
304.971	266.38
305.201	236.38
305.431	242.38
305.661	255.38
305.891	242.38
306.121	248.38
306.352	250.38
306.582	229.38
306.812	253.38
307.042	229.38
307.272	260.38
307.502	260.38
307.731	246.38
307.961	259.38
308.191	245.38
308.421	241.38
308.651	254.38
308.881	255.38
309.111	248.38
309.341	245.38
309.571	241.38
309.8	226.38
310.03	236.38
310.26	256.38
310.49	244.38
310.72	240.38
310.949	248.38
311.179	259.38
311.409	250.38
311.639	240.38
311.868	246.38
312.098	269.38
312.328	265.38
312.557	244.38
312.787	250.38
313.017	261.38
313.246	267.38
313.476	259.38
313.706	256.38
313.935	269.38
314.165	275.38
314.394	293.38
314.624	279.38
314.853	276.38
315.083	261.38
315.312	272.38
315.542	267.38
315.771	285.38
316.001	258.38
316.23	275.38
316.46	259.38
316.689	266.38
316.919	261.38
317.148	279.38
317.377	268.38
317.607	267.38
317.836	269.38
318.065	274.38
318.295	240.38
318.524	277.38
318.753	269.38
318.983	274.38
319.212	279.38
319.441	260.38
319.67	284.38
319.9	275.38
320.129	265.38
320.358	273.38
320.587	266.38
320.816	287.38
321.046	268.38
321.275	259.38
321.504	267.38
321.733	267.38
321.962	277.38
322.191	275.38
322.42	272.38
322.649	285.38
322.878	279.38
323.108	274.38
323.337	294.38
323.566	267.38
323.795	285.38
324.024	284.38
324.253	270.38
324.482	277.38
324.71	291.38
324.939	288.38
325.168	288.38
325.397	290.38
325.626	288.38
325.855	284.38
326.084	283.38
326.313	282.38
326.542	298.38
326.77	282.38
326.999	271.38
327.228	285.38
327.457	287.38
327.686	289.38
327.914	296.38
328.143	296.38
328.372	303.38
328.6	294.38
328.829	294.38
329.058	306.38
329.287	292.38
329.515	297.38
329.744	286.38
329.972	293.38
330.201	301.38
330.43	299.38
330.658	307.38
330.887	306.38
331.115	313.38
331.344	315.38
331.572	309.38
331.801	303.38
332.03	338.38
332.258	310.38
332.486	332.38
332.715	325.38
332.943	351.38
333.172	345.38
333.4	334.38
333.629	358.38
333.857	372.38
334.085	362.38
334.314	337.38
334.542	343.38
334.771	362.38
334.999	354.38
335.227	367.38
335.455	347.38
335.684	326.38
335.912	345.38
336.14	333.38
336.369	331.38
336.597	324.38
336.825	340.38
337.053	340.38
337.281	333.38
337.51	317.38
337.738	324.38
337.966	298.38
338.194	305.38
338.422	312.38
338.65	319.38
338.878	314.38
339.106	305.38
339.334	319.38
339.562	324.38
339.79	328.38
340.018	311.38
340.246	301.38
340.474	311.38
340.702	300.38
340.93	316.38
341.158	314.38
341.386	315.38
341.614	301.38
341.842	312.38
342.07	310.38
342.298	311.38
342.526	320.38
342.754	300.38
342.981	320.38
343.209	323.38
343.437	323.38
343.665	335.38
343.893	355.38
344.12	359.38
344.348	336.38
344.576	341.38
344.804	350.38
345.031	335.38
345.259	328.38
345.487	303.38
345.714	311.38
345.942	309.38
346.17	301.38
346.397	311.38
346.625	301.38
346.853	305.38
347.08	317.38
347.308	295.38
347.535	289.38
347.763	287.38
347.99	307.38
348.218	299.38
348.445	298.38
348.673	316.38
348.9	300.38
349.128	312.38
349.355	294.38
349.583	298.38
349.81	293.38
350.037	281.38
350.265	299.38
350.492	292.38
350.72	296.38
350.947	288.38
351.174	297.38
351.402	297.38
351.629	309.38
351.856	300.38
352.083	319.38
352.311	300.38
352.538	307.38
352.765	307.38
352.992	315.38
353.22	297.38
353.447	300.38
353.674	314.38
353.901	309.38
354.128	299.38
354.355	295.38
354.583	299.38
354.81	295.38
355.037	297.38
355.264	292.38
355.491	307.38
355.718	289.38
355.945	303.38
356.172	287.38
356.399	305.38
356.626	313.38
356.853	304.38
357.08	300.38
357.307	310.38
357.534	311.38
357.761	296.38
357.988	286.38
358.215	310.38
358.441	311.38
358.668	301.38
358.895	304.38
359.122	306.38
359.349	310.38
359.576	298.38
359.802	306.38
360.029	288.38
360.256	310.38
360.483	303.38
360.709	307.38
360.936	312.38
361.163	308.38
361.39	303.38
361.616	305.38
361.843	309.38
362.07	316.38
362.296	308.38
362.523	313.38
362.749	313.38
362.976	312.38
363.203	307.38
363.429	304.38
363.656	307.38
363.882	323.38
364.109	310.38
364.335	318.38
364.562	312.38
364.788	305.38
365.015	297.38
365.241	309.38
365.468	306.38
365.694	292.38
365.92	305.38
366.147	289.38
366.373	305.38
366.599	305.38
366.826	308.38
367.052	316.38
367.278	305.38
367.505	296.38
367.731	289.38
367.957	308.38
368.184	314.38
368.41	290.38
368.636	316.38
368.862	318.38
369.089	316.38
369.315	326.38
369.541	299.38
369.767	316.38
369.993	324.38
370.219	317.38
370.445	323.38
370.672	332.38
370.898	308.38
371.124	322.38
371.35	319.38
371.576	325.38
371.802	334.38
372.028	332.38
372.254	324.38
372.48	340.38
372.706	339.38
372.932	323.38
373.158	331.38
373.384	344.38
373.61	337.38
373.835	344.38
374.061	335.38
374.287	344.38
374.513	339.38
374.739	357.38
374.965	354.38
375.191	355.38
375.416	351.38
375.642	345.38
375.868	350.38
376.094	343.38
376.319	336.38
376.545	340.38
376.771	349.38
376.997	331.38
377.222	340.38
377.448	344.38
377.674	350.38
377.899	342.38
378.125	339.38
378.35	342.38
378.576	332.38
378.802	322.38
379.027	331.38
379.253	327.38
379.478	325.38
379.704	329.38
379.929	340.38
380.155	343.38
380.38	331.38
380.606	321.38
380.831	334.38
381.057	340.38
381.282	321.38
381.507	336.38
381.733	348.38
381.958	345.38
382.184	356.38
382.409	360.38
382.634	367.38
382.86	358.38
383.085	351.38
383.31	356.38
383.535	362.38
383.761	381.38
383.986	379.38
384.211	371.38
384.436	370.38
384.662	363.38
384.887	373.38
385.112	383.38
385.337	385.38
385.562	391.38
385.787	368.38
386.013	381.38
386.238	381.38
386.463	401.38
386.688	402.38
386.913	379.38
387.138	381.38
387.363	384.38
387.588	389.38
387.813	392.38
388.038	391.38
388.263	398.38
388.488	381.38
388.713	391.38
388.938	390.38
389.163	407.38
389.387	387.38
389.612	372.38
389.837	378.38
390.062	397.38
390.287	391.38
390.512	386.38
390.736	390.38
390.961	396.38
391.186	397.38
391.411	403.38
391.636	412.38
391.86	423.38
392.085	419.38
392.31	410.38
392.534	435.38
392.759	413.38
392.984	420.38
393.208	411.38
393.433	440.38
393.658	407.38
393.882	423.38
394.107	417.38
394.331	425.38
394.556	409.38
394.78	425.38
395.005	419.38
395.229	422.38
395.454	436.38
395.678	426.38
395.903	419.38
396.127	427.38
396.352	433.38
396.576	424.38
396.801	415.38
397.025	403.38
397.249	423.38
397.474	441.38
397.698	444.38
397.922	451.38
398.147	437.38
398.371	443.38
398.595	464.38
398.82	465.38
399.044	498.38
399.268	549.38
399.492	610.38
399.717	616.38
399.941	616.38
400.165	584.38
400.389	535.38
400.613	515.38
400.837	515.38
401.062	484.38
401.286	473.38
401.51	493.38
401.734	481.38
401.958	487.38
402.182	486.38
402.406	463.38
402.63	498.38
402.854	500.38
403.078	514.38
403.302	502.38
403.526	495.38
403.75	521.38
403.974	500.38
404.198	518.38
404.422	530.38
404.645	495.38
404.869	512.38
405.093	525.38
405.317	513.38
405.541	517.38
405.765	509.38
405.988	506.38
406.212	530.38
406.436	505.38
406.66	529.38
406.883	531.38
407.107	554.38
407.331	572.38
407.555	588.38
407.778	592.38
408.002	552.38
408.226	561.38
408.449	536.38
408.673	543.38
408.896	544.38
409.12	518.38
409.344	524.38
409.567	512.38
409.791	519.38
410.014	510.38
410.238	505.38
410.461	510.38
410.685	498.38
410.908	498.38
411.132	489.38
411.355	501.38
411.578	502.38
411.802	500.38
412.025	508.38
412.249	495.38
412.472	483.38
412.695	483.38
412.919	492.38
413.142	480.38
413.365	488.38
413.589	479.38
413.812	497.38
414.035	475.38
414.258	497.38
414.482	483.38
414.705	501.38
414.928	486.38
415.151	474.38
415.374	477.38
415.597	470.38
415.821	467.38
416.044	482.38
416.267	500.38
416.49	461.38
416.713	468.38
416.936	467.38
417.159	468.38
417.382	470.38
417.605	470.38
417.828	471.38
418.051	459.38
418.274	459.38
418.497	477.38
418.72	476.38
418.943	489.38
419.166	501.38
419.389	519.38
419.611	523.38
419.834	502.38
420.057	485.38
420.28	479.38
420.503	452.38
420.726	450.38
420.948	497.38
421.171	470.38
421.394	476.38
421.617	471.38
421.839	486.38
422.062	467.38
422.285	464.38
422.507	475.38
422.73	491.38
422.953	491.38
423.175	488.38
423.398	491.38
423.621	511.38
423.843	477.38
424.066	500.38
424.288	488.38
424.511	494.38
424.733	467.38
424.956	486.38
425.178	483.38
425.401	472.38
425.623	473.38
425.846	475.38
426.068	468.38
426.291	463.38
426.513	457.38
426.735	467.38
426.958	449.38
427.18	432.38
427.402	450.38
427.625	445.38
427.847	446.38
428.069	444.38
428.292	437.38
428.514	413.38
428.736	418.38
428.958	431.38
429.181	417.38
429.403	437.38
429.625	420.38
429.847	435.38
430.069	437.38
430.292	434.38
430.514	415.38
430.736	434.38
430.958	427.38
431.18	414.38
431.402	437.38
431.624	449.38
431.846	428.38
432.068	446.38
432.29	439.38
432.512	424.38
432.734	424.38
432.956	445.38
433.178	431.38
433.4	439.38
433.622	432.38
433.844	442.38
434.066	451.38
434.287	444.38
434.509	453.38
434.731	477.38
434.953	465.38
435.175	484.38
435.397	460.38
435.618	467.38
435.84	442.38
436.062	443.38
436.284	450.38
436.505	445.38
436.727	440.38
436.949	457.38
437.17	443.38
437.392	449.38
437.614	439.38
437.835	418.38
438.057	423.38
438.278	405.38
438.5	437.38
438.721	420.38
438.943	431.38
439.165	432.38
439.386	429.38
439.608	455.38
439.829	450.38
440.05	461.38
440.272	451.38
440.493	441.38
440.715	464.38
440.936	460.38
441.158	474.38
441.379	472.38
441.6	495.38
441.822	501.38
442.043	495.38
442.264	482.38
442.486	478.38
442.707	468.38
442.928	491.38
443.149	468.38
443.371	479.38
443.592	460.38
443.813	494.38
444.034	519.38
444.255	523.38
444.476	517.38
444.698	536.38
444.919	546.38
445.14	617.38
445.361	567.38
445.582	496.38
445.803	489.38
446.024	462.38
446.245	480.38
446.466	452.38
446.687	462.38
446.908	458.38
447.129	455.38
447.35	431.38
447.571	436.38
447.792	433.38
448.013	420.38
448.234	424.38
448.455	434.38
448.675	425.38
448.896	433.38
449.117	405.38
449.338	409.38
449.559	412.38
449.779	412.38
450	395.38
450.221	411.38
450.442	409.38
450.662	407.38
450.883	423.38
451.104	419.38
451.324	421.38
451.545	403.38
451.766	422.38
451.986	416.38
452.207	407.38
452.428	419.38
452.648	417.38
452.869	416.38
453.089	397.38
453.31	391.38
453.53	393.38
453.751	385.38
453.971	389.38
454.192	392.38
454.412	403.38
454.633	397.38
454.853	402.38
455.073	384.38
455.294	393.38
455.514	405.38
455.734	410.38
455.955	393.38
456.175	380.38
456.395	396.38
456.616	398.38
456.836	405.38
457.056	383.38
457.276	383.38
457.497	380.38
457.717	403.38
457.937	388.38
458.157	393.38
458.377	402.38
458.598	391.38
458.818	402.38
459.038	425.38
459.258	431.38
459.478	433.38
459.698	434.38
459.918	461.38
460.138	455.38
460.358	518.38
460.578	499.38
460.798	510.38
461.018	495.38
461.238	499.38
461.458	488.38
461.678	491.38
461.898	511.38
462.118	536.38
462.338	534.38
462.558	529.38
462.777	579.38
462.997	581.38
463.217	605.38
463.437	633.38
463.657	608.38
463.876	556.38
464.096	567.38
464.316	563.38
464.536	565.38
464.755	547.38
464.975	522.38
465.195	512.38
465.414	497.38
465.634	466.38
465.854	472.38
466.073	460.38
466.293	451.38
466.512	441.38
466.732	422.38
466.951	447.38
467.171	449.38
467.391	428.38
467.61	409.38
467.829	440.38
468.049	439.38
468.268	426.38
468.488	399.38
468.707	423.38
468.927	427.38
469.146	409.38
469.365	423.38
469.585	410.38
469.804	433.38
470.023	443.38
470.243	439.38
470.462	456.38
470.681	436.38
470.901	440.38
471.12	442.38
471.339	445.38
471.558	449.38
471.777	410.38
471.997	387.38
472.216	428.38
472.435	409.38
472.654	404.38
472.873	411.38
473.092	426.38
473.311	404.38
473.53	399.38
473.749	409.38
473.968	384.38
474.187	420.38
474.406	414.38
474.625	417.38
474.844	426.38
475.063	422.38
475.282	440.38
475.501	400.38
475.72	421.38
475.939	411.38
476.158	423.38
476.377	433.38
476.596	428.38
476.814	441.38
477.033	456.38
477.252	440.38
477.471	457.38
477.69	445.38
477.908	470.38
478.127	480.38
478.346	504.38
478.564	481.38
478.783	484.38
479.002	497.38
479.22	479.38
479.439	495.38
479.658	504.38
479.876	507.38
480.095	475.38
480.313	517.38
480.532	504.38
480.751	501.38
480.969	497.38
481.188	483.38
481.406	463.38
481.624	466.38
481.843	451.38
482.061	458.38
482.28	454.38
482.498	471.38
482.717	440.38
482.935	448.38
483.153	447.38
483.372	431.38
483.59	466.38
483.808	465.38
484.027	468.38
484.245	456.38
484.463	456.38
484.681	479.38
484.9	461.38
485.118	481.38
485.336	473.38
485.554	474.38
485.772	475.38
485.99	472.38
486.209	496.38
486.427	459.38
486.645	456.38
486.863	458.38
487.081	472.38
487.299	459.38
487.517	479.38
487.735	448.38
487.953	471.38
488.171	495.38
488.389	476.38
488.607	467.38
488.825	469.38
489.043	448.38
489.261	463.38
489.479	460.38
489.696	480.38
489.914	472.38
490.132	479.38
490.35	473.38
490.568	462.38
490.786	484.38
491.003	452.38
491.221	475.38
491.439	458.38
491.657	468.38
491.874	495.38
492.092	487.38
492.31	487.38
492.527	490.38
492.745	518.38
492.963	515.38
493.18	480.38
493.398	491.38
493.615	478.38
493.833	511.38
494.05	479.38
494.268	492.38
494.485	491.38
494.703	496.38
494.92	489.38
495.138	507.38
495.355	509.38
495.573	485.38
495.79	509.38
496.008	523.38
496.225	534.38
496.442	529.38
496.66	535.38
496.877	536.38
497.094	556.38
497.312	548.38
497.529	554.38
497.746	563.38
497.963	595.38
498.181	603.38
498.398	599.38
498.615	654.38
498.832	668.38
499.049	736.38
499.267	783.38
499.484	834.38
499.701	909.38
499.918	959.38
500.135	1046.38
500.352	1109.38
500.569	1134.38
500.786	1132.38
501.003	1075.38
501.22	1001.38
501.437	911.38
501.654	827.38
501.871	757.38
502.088	732.38
502.305	684.38
502.522	676.38
502.739	627.38
502.956	600.38
503.172	599.38
503.389	597.38
503.606	567.38
503.823	568.38
504.04	560.38
504.256	580.38
504.473	569.38
504.69	554.38
504.907	545.38
505.123	536.38
505.34	517.38
505.557	506.38
505.773	492.38
505.99	476.38
506.207	465.38
506.423	459.38
506.64	441.38
506.856	443.38
507.073	442.38
507.289	428.38
507.506	417.38
507.722	437.38
507.939	445.38
508.155	454.38
508.372	425.38
508.588	416.38
508.805	435.38
509.021	422.38
509.238	394.38
509.454	429.38
509.67	416.38
509.887	408.38
510.103	433.38
510.319	416.38
510.536	407.38
510.752	417.38
510.968	422.38
511.184	401.38
511.401	410.38
511.617	407.38
511.833	422.38
512.049	403.38
512.265	403.38
512.481	412.38
512.698	418.38
512.914	408.38
513.13	431.38
513.346	433.38
513.562	415.38
513.778	393.38
513.994	416.38
514.21	424.38
514.426	399.38
514.642	408.38
514.858	407.38
515.074	420.38
515.29	428.38
515.506	425.38
515.721	415.38
515.937	447.38
516.153	436.38
516.369	434.38
516.585	473.38
516.801	456.38
517.016	477.38
517.232	516.38
517.448	521.38
517.664	523.38
517.879	515.38
518.095	520.38
518.311	518.38
518.527	499.38
518.742	466.38
518.958	436.38
519.173	455.38
519.389	463.38
519.605	450.38
519.82	438.38
520.036	419.38
520.251	415.38
520.467	415.38
520.682	402.38
520.898	405.38
521.113	417.38
521.329	417.38
521.544	403.38
521.76	417.38
521.975	403.38
522.19	388.38
522.406	409.38
522.621	389.38
522.836	391.38
523.052	403.38
523.267	377.38
523.482	385.38
523.698	385.38
523.913	388.38
524.128	395.38
524.343	388.38
524.559	377.38
524.774	377.38
524.989	373.38
525.204	383.38
525.419	362.38
525.634	376.38
525.849	363.38
526.064	387.38
526.28	395.38
526.495	376.38
526.71	369.38
526.925	369.38
527.14	377.38
527.355	370.38
527.57	355.38
527.785	363.38
527.999	371.38
528.214	368.38
528.429	387.38
528.644	382.38
528.859	361.38
529.074	369.38
529.289	381.38
529.503	381.38
529.718	363.38
529.933	398.38
530.148	395.38
530.363	386.38
530.577	372.38
530.792	378.38
531.007	379.38
531.221	344.38
531.436	373.38
531.651	377.38
531.865	386.38
532.08	379.38
532.295	383.38
532.509	373.38
532.724	372.38
532.938	353.38
533.153	365.38
533.367	358.38
533.582	380.38
533.796	387.38
534.011	371.38
534.225	359.38
534.44	373.38
534.654	358.38
534.868	355.38
535.083	343.38
535.297	357.38
535.511	344.38
535.726	371.38
535.94	356.38
536.154	349.38
536.369	361.38
536.583	344.38
536.797	351.38
537.011	364.38
537.225	353.38
537.44	333.38
537.654	329.38
537.868	337.38
538.082	336.38
538.296	340.38
538.51	358.38
538.724	342.38
538.938	332.38
539.153	356.38
539.367	368.38
539.581	346.38
539.795	339.38
540.009	326.38
540.222	347.38
540.436	331.38
540.65	344.38
540.864	356.38
541.078	323.38
541.292	362.38
541.506	336.38
541.72	349.38
541.934	346.38
542.147	345.38
542.361	329.38
542.575	328.38
542.789	332.38
543.002	335.38
543.216	335.38
543.43	336.38
543.644	347.38
543.857	352.38
544.071	354.38
544.285	354.38
544.498	336.38
544.712	356.38
544.925	343.38
545.139	371.38
545.352	354.38
545.566	357.38
545.779	340.38
545.993	357.38
546.206	348.38
546.42	339.38
546.633	357.38
546.847	345.38
547.06	333.38
547.274	338.38
547.487	339.38
547.7	345.38
547.914	343.38
548.127	359.38
548.34	361.38
548.554	337.38
548.767	355.38
548.98	363.38
549.193	356.38
549.407	337.38
549.62	341.38
549.833	337.38
550.046	335.38
550.259	341.38
550.473	332.38
550.686	348.38
550.899	353.38
551.112	337.38
551.325	329.38
551.538	353.38
551.751	333.38
551.964	335.38
552.177	353.38
552.39	360.38
552.603	369.38
552.816	361.38
553.029	371.38
553.242	367.38
553.455	375.38
553.667	379.38
553.88	347.38
554.093	355.38
554.306	350.38
554.519	340.38
554.732	331.38
554.944	327.38
555.157	327.38
555.37	338.38
555.583	333.38
555.795	325.38
556.008	316.38
556.221	309.38
556.433	319.38
556.646	308.38
556.859	324.38
557.071	318.38
557.284	314.38
557.496	322.38
557.709	301.38
557.921	310.38
558.134	317.38
558.346	306.38
558.559	292.38
558.771	296.38
558.984	292.38
559.196	321.38
559.409	294.38
559.621	287.38
559.833	298.38
560.046	311.38
560.258	299.38
560.47	300.38
560.683	302.38
560.895	296.38
561.107	298.38
561.32	287.38
561.532	291.38
561.744	306.38
561.956	301.38
562.168	296.38
562.381	292.38
562.593	291.38
562.805	300.38
563.017	290.38
563.229	294.38
563.441	298.38
563.653	305.38
563.865	312.38
564.077	311.38
564.289	298.38
564.501	303.38
564.713	303.38
564.925	306.38
565.137	330.38
565.349	324.38
565.561	340.38
565.773	338.38
565.985	353.38
566.197	359.38
566.408	375.38
566.62	394.38
566.832	425.38
567.044	419.38
567.255	416.38
567.467	438.38
567.679	444.38
567.891	452.38
568.102	463.38
568.314	457.38
568.526	399.38
568.737	383.38
568.949	367.38
569.161	354.38
569.372	336.38
569.584	314.38
569.795	310.38
570.007	309.38
570.218	308.38
570.43	296.38
570.641	273.38
570.853	299.38
571.064	309.38
571.276	294.38
571.487	268.38
571.698	282.38
571.91	259.38
572.121	273.38
572.333	276.38
572.544	261.38
572.755	252.38
572.966	237.38
573.178	254.38
573.389	251.38
573.6	247.38
573.811	259.38
574.023	241.38
574.234	263.38
574.445	271.38
574.656	241.38
574.867	236.38
575.078	247.38
575.289	247.38
575.501	243.38
575.712	241.38
575.923	228.38
576.134	251.38
576.345	245.38
576.556	261.38
576.767	223.38
576.978	245.38
577.188	233.38
577.399	251.38
577.61	233.38
577.821	256.38
578.032	219.38
578.243	225.38
578.454	235.38
578.665	223.38
578.875	233.38
579.086	223.38
579.297	233.38
579.508	223.38
579.718	217.38
579.929	212.38
580.14	215.38
580.35	210.38
580.561	227.38
580.772	223.38
580.982	225.38
581.193	229.38
581.403	217.38
581.614	219.38
581.825	212.38
582.035	218.38
582.246	228.38
582.456	226.38
582.667	222.38
582.877	221.38
583.087	225.38
583.298	219.38
583.508	219.38
583.719	241.38
583.929	219.38
584.139	218.38
584.35	227.38
584.56	207.38
584.77	214.38
584.981	208.38
585.191	207.38
585.401	223.38
585.611	221.38
585.821	218.38
586.032	222.38
586.242	201.38
586.452	207.38
586.662	215.38
586.872	216.38
587.082	208.38
587.292	187.38
587.502	207.38
587.713	215.38
587.923	222.38
588.133	223.38
588.343	202.38
588.553	212.38
588.762	214.38
588.972	204.38
589.182	206.38
589.392	225.38
589.602	222.38
589.812	211.38
590.022	217.38
590.232	218.38
590.441	215.38
590.651	206.38
590.861	208.38
591.071	211.38
591.281	216.38
591.49	202.38
591.7	206.38
591.91	225.38
592.119	233.38
592.329	217.38
592.539	224.38
592.748	232.38
592.958	242.38
593.167	225.38
593.377	237.38
593.587	257.38
593.796	238.38
594.006	228.38
594.215	252.38
594.424	234.38
594.634	238.38
594.843	231.38
595.053	245.38
595.262	218.38
595.472	231.38
595.681	226.38
595.89	213.38
596.1	200.38
596.309	201.38
596.518	200.38
596.727	208.38
596.937	204.38
597.146	186.38
597.355	192.38
597.564	201.38
597.774	209.38
597.983	183.38
598.192	201.38
598.401	183.38
598.61	196.38
598.819	185.38
599.028	193.38
599.237	203.38
599.446	212.38
599.655	180.38
599.864	199.38
600.073	206.38
600.282	183.38
600.491	181.38
600.7	175.38
600.909	185.38
601.118	179.38
601.327	198.38
601.536	173.38
601.745	172.38
601.953	178.38
602.162	183.38
602.371	192.38
602.58	180.38
602.789	172.38
602.997	201.38
603.206	191.38
603.415	200.38
603.623	191.38
603.832	200.38
604.041	187.38
604.249	184.38
604.458	193.38
604.666	180.38
604.875	179.38
605.084	167.38
605.292	176.38
605.501	158.38
605.709	178.38
605.918	173.38
606.126	177.38
606.334	176.38
606.543	181.38
606.751	181.38
606.96	185.38
607.168	187.38
607.376	169.38
607.585	162.38
607.793	178.38
608.001	175.38
608.21	172.38
608.418	180.38
608.626	160.38
608.834	179.38
609.043	187.38
609.251	166.38
609.459	168.38
609.667	188.38
609.875	181.38
610.083	183.38
610.291	171.38
610.499	174.38
610.707	180.38
610.916	174.38
611.124	167.38
611.332	171.38
611.54	182.38
611.748	163.38
611.955	164.38
612.163	177.38
612.371	182.38
612.579	165.38
612.787	187.38
612.995	168.38
613.203	183.38
613.411	175.38
613.618	169.38
613.826	162.38
614.034	181.38
614.242	170.38
614.449	163.38
614.657	184.38
614.865	168.38
615.072	170.38
615.28	166.38
615.488	156.38
615.695	165.38
615.903	176.38
616.111	168.38
616.318	161.38
616.526	173.38
616.733	171.38
616.941	168.38
617.148	171.38
617.356	173.38
617.563	161.38
617.771	156.38
617.978	157.38
618.185	171.38
618.393	157.38
618.6	152.38
618.807	175.38
619.015	164.38
619.222	176.38
619.429	169.38
619.637	176.38
619.844	175.38
620.051	167.38
620.258	161.38
620.466	164.38
620.673	154.38
620.88	164.38
621.087	155.38
621.294	147.38
621.501	150.38
621.708	162.38
621.915	161.38
622.122	166.38
622.329	163.38
622.536	160.38
622.743	151.38
622.95	175.38
623.157	160.38
623.364	148.38
623.571	158.38
623.778	153.38
623.985	147.38
624.192	156.38
624.399	154.38
624.606	156.38
624.812	139.38
625.019	145.38
625.226	153.38
625.433	167.38
625.639	154.38
625.846	143.38
626.053	152.38
626.259	143.38
626.466	152.38
626.673	152.38
626.879	153.38
627.086	175.38
627.293	154.38
627.499	150.38
627.706	151.38
627.912	141.38
628.119	143.38
628.325	151.38
628.532	151.38
628.738	162.38
628.945	136.38
629.151	161.38
629.357	148.38
629.564	154.38
629.77	159.38
629.976	155.38
630.183	147.38
630.389	155.38
630.595	150.38
630.802	150.38
631.008	144.38
631.214	152.38
631.42	149.38
631.627	162.38
631.833	140.38
632.039	146.38
632.245	145.38
632.451	148.38
632.657	128.38
632.863	149.38
633.069	145.38
633.275	144.38
633.481	129.38
633.688	141.38
633.893	147.38
634.099	153.38
634.305	151.38
634.511	140.38
634.717	145.38
634.923	131.38
635.129	123.38
635.335	145.38
635.541	129.38
635.747	132.38
635.952	155.38
636.158	152.38
636.364	140.38
636.57	152.38
636.775	140.38
636.981	140.38
637.187	132.38
637.392	150.38
637.598	128.38
637.804	136.38
638.009	147.38
638.215	141.38
638.421	139.38
638.626	134.38
638.832	137.38
639.037	137.38
639.243	135.38
639.448	129.38
639.654	144.38
639.859	138.38
640.065	135.38
640.27	150.38
640.475	148.38
640.681	128.38
640.886	137.38
641.091	132.38
641.297	143.38
641.502	131.38
641.707	132.38
641.913	139.38
642.118	124.38
642.323	137.38
642.528	114.38
642.733	131.38
642.939	137.38
643.144	134.38
643.349	135.38
643.554	137.38
643.759	129.38
643.964	127.38
644.169	132.38
644.374	126.38
644.579	123.38
644.784	136.38
644.989	129.38
645.194	123.38
645.399	138.38
645.604	132.38
645.809	128.38
646.014	139.38
646.219	139.38
646.423	124.38
646.628	133.38
646.833	135.38
647.038	154.38
647.243	147.38
647.447	133.38
647.652	143.38
647.857	135.38
648.062	153.38
648.266	142.38
648.471	139.38
648.676	136.38
648.88	110.38
649.085	116.38
649.289	133.38
649.494	128.38
649.698	133.38
649.903	127.38
650.107	132.38
650.312	132.38
650.516	120.38
650.721	131.38
650.925	122.38
651.13	125.38
651.334	111.38
651.539	136.38
651.743	135.38
651.947	127.38
652.152	127.38
652.356	128.38
652.56	131.38
652.764	125.38
652.969	124.38
653.173	125.38
653.377	125.38
653.581	124.38
653.785	110.38
653.99	129.38
654.194	127.38
654.398	113.38
654.602	131.38
654.806	117.38
655.01	104.38
655.214	115.38
655.418	113.38
655.622	141.38
655.826	118.38
656.03	118.38
656.234	122.38
656.438	117.38
656.642	115.38
656.846	116.38
657.049	115.38
657.253	113.38
657.457	122.38
657.661	124.38
657.865	119.38
658.068	99.38
658.272	118.38
658.476	112.38
658.68	103.38
658.883	101.38
659.087	96.38
659.291	97.38
659.494	90.38
659.698	101.38
659.901	98.38
660.105	101.38
660.309	92.38
660.512	93.38
660.716	87.38
660.919	92.38
661.123	89.38
661.326	85.38
661.53	101.38
661.733	105.38
661.936	70.38
662.14	88.38
662.343	86.38
662.546	87.38
662.75	93.38
662.953	88.38
663.156	95.38
663.36	79.38
663.563	68.38
663.766	82.38
663.969	91.38
664.173	72.38
664.376	81.38
664.579	88.38
664.782	69.38
664.985	73.38
665.188	81.38
665.391	85.38
665.594	74.38
665.797	75.38
666	82.38
666.203	90.38
666.406	75.38
666.609	87.38
666.812	76.38
667.015	87.38
667.218	95.38
667.421	76.38
667.624	83.38
667.827	75.38
668.03	64.38
668.232	74.38
668.435	80.38
668.638	69.38
668.841	95.38
669.043	75.38
669.246	72.38
669.449	87.38
669.651	68.38
669.854	80.38
670.057	73.38
670.259	71.38
670.462	78.38
670.665	77.38
670.867	92.38
671.07	87.38
671.272	90.38
671.475	73.38
671.677	74.38
671.88	85.38
672.082	86.38
672.284	79.38
672.487	87.38
672.689	75.38
672.892	74.38
