Data from Fe(NO3)3@0.0125M.TitratingCurve.Agarose3%dH2O.NegLispCup.LampEnergy10.LIBS07252019_HRD10591_16-59-56-337.txt Node
Date: Thu Jul 25 16:59:56 EDT 2019
User: cochatt
Spectrometer: HR+D1059
Trigger mode: 1
Integration Time (sec): 1.000000E-1
Scans to average: 1
Electric dark correction enabled: true
Nonlinearity correction enabled: false
Boxcar width: 0
XAxis mode: Wavelengths
Number of Pixels in Spectrum: 2048
>>>>>Begin Spectral Data<<<<<
223.165	-14.19
223.4	-14.19
223.635	-14.19
223.869	-19.19
224.104	-14.19
224.338	-24.19
224.573	-11.19
224.808	-5.19
225.042	-12.19
225.277	-8.19
225.511	-0.19
225.746	6.81
225.98	17.81
226.215	16.81
226.449	5.81
226.683	14.81
226.918	25.81
227.152	20.81
227.387	24.81
227.621	33.81
227.856	40.81
228.09	42.81
228.324	38.81
228.559	64.81
228.793	81.81
229.027	67.81
229.262	87.81
229.496	89.81
229.73	78.81
229.964	82.81
230.199	93.81
230.433	95.81
230.667	100.81
230.901	100.81
231.136	101.81
231.37	102.81
231.604	101.81
231.838	118.81
232.072	108.81
232.306	120.81
232.541	115.81
232.775	109.81
233.009	117.81
233.243	121.81
233.477	113.81
233.711	105.81
233.945	109.81
234.179	122.81
234.413	117.81
234.647	103.81
234.881	121.81
235.115	111.81
235.349	117.81
235.583	106.81
235.817	111.81
236.051	110.81
236.285	120.81
236.519	125.81
236.753	115.81
236.987	108.81
237.221	122.81
237.455	123.81
237.689	113.81
237.922	114.81
238.156	101.81
238.39	117.81
238.624	124.81
238.858	127.81
239.091	114.81
239.325	115.81
239.559	129.81
239.793	99.81
240.027	123.81
240.26	118.81
240.494	104.81
240.728	119.81
240.961	124.81
241.195	144.81
241.429	121.81
241.662	127.81
241.896	119.81
242.13	128.81
242.363	123.81
242.597	124.81
242.83	125.81
243.064	127.81
243.298	130.81
243.531	129.81
243.765	127.81
243.998	127.81
244.232	132.81
244.465	125.81
244.699	127.81
244.932	121.81
245.166	130.81
245.399	118.81
245.633	147.81
245.866	139.81
246.099	128.81
246.333	123.81
246.566	127.81
246.8	145.81
247.033	136.81
247.266	133.81
247.5	137.81
247.733	136.81
247.966	149.81
248.2	132.81
248.433	129.81
248.666	142.81
248.899	140.81
249.133	138.81
249.366	159.81
249.599	159.81
249.832	154.81
250.066	151.81
250.299	154.81
250.532	151.81
250.765	143.81
250.998	168.81
251.231	147.81
251.465	153.81
251.698	167.81
251.931	150.81
252.164	165.81
252.397	155.81
252.63	164.81
252.863	193.81
253.096	181.81
253.329	166.81
253.562	163.81
253.795	165.81
254.028	172.81
254.261	153.81
254.494	175.81
254.727	162.81
254.96	165.81
255.193	173.81
255.426	172.81
255.659	163.81
255.892	187.81
256.124	174.81
256.357	170.81
256.59	180.81
256.823	169.81
257.056	176.81
257.289	180.81
257.521	165.81
257.754	177.81
257.987	169.81
258.22	173.81
258.452	171.81
258.685	197.81
258.918	188.81
259.151	190.81
259.383	181.81
259.616	189.81
259.849	181.81
260.081	205.81
260.314	211.81
260.547	182.81
260.779	184.81
261.012	188.81
261.244	190.81
261.477	206.81
261.71	196.81
261.942	205.81
262.175	191.81
262.407	181.81
262.64	170.81
262.872	188.81
263.105	201.81
263.337	186.81
263.57	200.81
263.802	190.81
264.035	197.81
264.267	180.81
264.499	193.81
264.732	185.81
264.964	217.81
265.197	187.81
265.429	187.81
265.661	207.81
265.894	226.81
266.126	212.81
266.358	195.81
266.591	210.81
266.823	206.81
267.055	210.81
267.287	217.81
267.52	207.81
267.752	203.81
267.984	215.81
268.216	221.81
268.448	230.81
268.681	203.81
268.913	189.81
269.145	202.81
269.377	201.81
269.609	213.81
269.841	216.81
270.073	207.81
270.306	226.81
270.538	203.81
270.77	209.81
271.002	222.81
271.234	203.81
271.466	214.81
271.698	226.81
271.93	219.81
272.162	225.81
272.394	210.81
272.626	218.81
272.858	238.81
273.09	229.81
273.322	227.81
273.553	226.81
273.785	246.81
274.017	245.81
274.249	247.81
274.481	244.81
274.713	245.81
274.945	243.81
275.176	250.81
275.408	246.81
275.64	250.81
275.872	258.81
276.104	261.81
276.335	246.81
276.567	233.81
276.799	251.81
277.031	252.81
277.262	253.81
277.494	256.81
277.726	251.81
277.957	246.81
278.189	237.81
278.421	260.81
278.652	251.81
278.884	242.81
279.115	257.81
279.347	248.81
279.579	244.81
279.81	257.81
280.042	255.81
280.273	249.81
280.505	250.81
280.736	261.81
280.968	261.81
281.199	265.81
281.431	265.81
281.662	252.81
281.894	286.81
282.125	260.81
282.356	270.81
282.588	276.81
282.819	289.81
283.051	265.81
283.282	265.81
283.513	275.81
283.745	278.81
283.976	296.81
284.207	262.81
284.439	265.81
284.67	277.81
284.901	282.81
285.132	276.81
285.364	277.81
285.595	281.81
285.826	262.81
286.057	283.81
286.288	280.81
286.52	277.81
286.751	290.81
286.982	279.81
287.213	287.81
287.444	280.81
287.675	279.81
287.906	298.81
288.138	293.81
288.369	279.81
288.6	307.81
288.831	282.81
289.062	294.81
289.293	290.81
289.524	310.81
289.755	293.81
289.986	287.81
290.217	292.81
290.448	289.81
290.679	307.81
290.91	290.81
291.141	325.81
291.371	312.81
291.602	269.81
291.833	300.81
292.064	317.81
292.295	309.81
292.526	307.81
292.757	296.81
292.987	288.81
293.218	285.81
293.449	305.81
293.68	295.81
293.91	295.81
294.141	294.81
294.372	293.81
294.603	314.81
294.833	310.81
295.064	295.81
295.295	298.81
295.525	301.81
295.756	306.81
295.987	305.81
296.217	300.81
296.448	325.81
296.679	332.81
296.909	326.81
297.14	313.81
297.37	322.81
297.601	302.81
297.831	301.81
298.062	317.81
298.292	331.81
298.523	320.81
298.753	340.81
298.984	324.81
299.214	305.81
299.445	331.81
299.675	340.81
299.905	327.81
300.136	325.81
300.366	351.81
300.597	339.81
300.827	335.81
301.057	311.81
301.288	319.81
301.518	308.81
301.748	332.81
301.979	333.81
302.209	344.81
302.439	326.81
302.669	357.81
302.9	355.81
303.13	352.81
303.36	346.81
303.59	362.81
303.82	366.81
304.051	336.81
304.281	358.81
304.511	341.81
304.741	343.81
304.971	357.81
305.201	351.81
305.431	353.81
305.661	346.81
305.891	343.81
306.121	363.81
306.352	361.81
306.582	353.81
306.812	345.81
307.042	362.81
307.272	365.81
307.502	350.81
307.731	357.81
307.961	356.81
308.191	350.81
308.421	365.81
308.651	373.81
308.881	347.81
309.111	351.81
309.341	359.81
309.571	353.81
309.8	374.81
310.03	355.81
310.26	353.81
310.49	358.81
310.72	366.81
310.949	362.81
311.179	365.81
311.409	369.81
311.639	374.81
311.868	364.81
312.098	385.81
312.328	381.81
312.557	382.81
312.787	367.81
313.017	381.81
313.246	373.81
313.476	375.81
313.706	380.81
313.935	402.81
314.165	372.81
314.394	385.81
314.624	375.81
314.853	383.81
315.083	387.81
315.312	392.81
315.542	381.81
315.771	387.81
316.001	393.81
316.23	385.81
316.46	389.81
316.689	377.81
316.919	385.81
317.148	397.81
317.377	414.81
317.607	383.81
317.836	408.81
318.065	399.81
318.295	395.81
318.524	386.81
318.753	406.81
318.983	398.81
319.212	389.81
319.441	399.81
319.67	407.81
319.9	391.81
320.129	398.81
320.358	409.81
320.587	391.81
320.816	403.81
321.046	413.81
321.275	396.81
321.504	407.81
321.733	400.81
321.962	403.81
322.191	419.81
322.42	409.81
322.649	413.81
322.878	397.81
323.108	408.81
323.337	396.81
323.566	405.81
323.795	405.81
324.024	427.81
324.253	409.81
324.482	432.81
324.71	403.81
324.939	408.81
325.168	423.81
325.397	413.81
325.626	427.81
325.855	422.81
326.084	422.81
326.313	420.81
326.542	420.81
326.77	431.81
326.999	424.81
327.228	426.81
327.457	422.81
327.686	420.81
327.914	446.81
328.143	435.81
328.372	409.81
328.6	430.81
328.829	428.81
329.058	435.81
329.287	445.81
329.515	414.81
329.744	424.81
329.972	439.81
330.201	444.81
330.43	437.81
330.658	461.81
330.887	460.81
331.115	433.81
331.344	435.81
331.572	445.81
331.801	463.81
332.03	458.81
332.258	462.81
332.486	442.81
332.715	426.81
332.943	461.81
333.172	470.81
333.4	467.81
333.629	479.81
333.857	452.81
334.085	453.81
334.314	456.81
334.542	502.81
334.771	511.81
334.999	492.81
335.227	489.81
335.455	490.81
335.684	484.81
335.912	493.81
336.14	502.81
336.369	515.81
336.597	491.81
336.825	507.81
337.053	504.81
337.281	511.81
337.51	495.81
337.738	463.81
337.966	486.81
338.194	487.81
338.422	460.81
338.65	482.81
338.878	488.81
339.106	497.81
339.334	490.81
339.562	467.81
339.79	458.81
340.018	472.81
340.246	445.81
340.474	468.81
340.702	478.81
340.93	492.81
341.158	456.81
341.386	460.81
341.614	461.81
341.842	467.81
342.07	462.81
342.298	451.81
342.526	450.81
342.754	490.81
342.981	470.81
343.209	491.81
343.437	466.81
343.665	493.81
343.893	494.81
344.12	499.81
344.348	491.81
344.576	507.81
344.804	491.81
345.031	471.81
345.259	479.81
345.487	469.81
345.714	484.81
345.942	482.81
346.17	464.81
346.397	469.81
346.625	474.81
346.853	472.81
347.08	469.81
347.308	469.81
347.535	468.81
347.763	476.81
347.99	462.81
348.218	450.81
348.445	465.81
348.673	461.81
348.9	456.81
349.128	474.81
349.355	470.81
349.583	473.81
349.81	456.81
350.037	446.81
350.265	451.81
350.492	449.81
350.72	448.81
350.947	459.81
351.174	459.81
351.402	451.81
351.629	456.81
351.856	460.81
352.083	453.81
352.311	458.81
352.538	459.81
352.765	450.81
352.992	462.81
353.22	466.81
353.447	423.81
353.674	449.81
353.901	447.81
354.128	448.81
354.355	453.81
354.583	437.81
354.81	457.81
355.037	443.81
355.264	454.81
355.491	461.81
355.718	453.81
355.945	454.81
356.172	441.81
356.399	460.81
356.626	442.81
356.853	487.81
357.08	484.81
357.307	473.81
357.534	434.81
357.761	468.81
357.988	448.81
358.215	471.81
358.441	435.81
358.668	476.81
358.895	469.81
359.122	467.81
359.349	455.81
359.576	451.81
359.802	463.81
360.029	450.81
360.256	439.81
360.483	458.81
360.709	471.81
360.936	468.81
361.163	491.81
361.39	460.81
361.616	459.81
361.843	466.81
362.07	495.81
362.296	458.81
362.523	453.81
362.749	453.81
362.976	476.81
363.203	468.81
363.429	471.81
363.656	476.81
363.882	461.81
364.109	441.81
364.335	471.81
364.562	478.81
364.788	467.81
365.015	482.81
365.241	486.81
365.468	474.81
365.694	493.81
365.92	479.81
366.147	443.81
366.373	475.81
366.599	483.81
366.826	467.81
367.052	466.81
367.278	481.81
367.505	476.81
367.731	473.81
367.957	485.81
368.184	482.81
368.41	507.81
368.636	490.81
368.862	494.81
369.089	498.81
369.315	463.81
369.541	490.81
369.767	477.81
369.993	497.81
370.219	466.81
370.445	481.81
370.672	497.81
370.898	510.81
371.124	510.81
371.35	493.81
371.576	481.81
371.802	506.81
372.028	534.81
372.254	507.81
372.48	516.81
372.706	538.81
372.932	530.81
373.158	513.81
373.384	499.81
373.61	531.81
373.835	498.81
374.061	509.81
374.287	515.81
374.513	532.81
374.739	520.81
374.965	521.81
375.191	532.81
375.416	535.81
375.642	522.81
375.868	518.81
376.094	530.81
376.319	499.81
376.545	501.81
376.771	502.81
376.997	511.81
377.222	494.81
377.448	497.81
377.674	493.81
377.899	503.81
378.125	503.81
378.35	542.81
378.576	489.81
378.802	506.81
379.027	503.81
379.253	521.81
379.478	512.81
379.704	518.81
379.929	501.81
380.155	493.81
380.38	515.81
380.606	508.81
380.831	505.81
381.057	502.81
381.282	514.81
381.507	526.81
381.733	519.81
381.958	528.81
382.184	515.81
382.409	525.81
382.634	534.81
382.86	529.81
383.085	536.81
383.31	530.81
383.535	532.81
383.761	541.81
383.986	514.81
384.211	548.81
384.436	537.81
384.662	541.81
384.887	532.81
385.112	558.81
385.337	521.81
385.562	549.81
385.787	550.81
386.013	561.81
386.238	567.81
386.463	578.81
386.688	564.81
386.913	562.81
387.138	566.81
387.363	561.81
387.588	550.81
387.813	555.81
388.038	531.81
388.263	574.81
388.488	561.81
388.713	561.81
388.938	551.81
389.163	583.81
389.387	587.81
389.612	554.81
389.837	573.81
390.062	581.81
390.287	572.81
390.512	585.81
390.736	570.81
390.961	590.81
391.186	564.81
391.411	585.81
391.636	592.81
391.86	586.81
392.085	571.81
392.31	596.81
392.534	605.81
392.759	588.81
392.984	618.81
393.208	613.81
393.433	625.81
393.658	565.81
393.882	599.81
394.107	593.81
394.331	619.81
394.556	589.81
394.78	617.81
395.005	588.81
395.229	601.81
395.454	621.81
395.678	610.81
395.903	610.81
396.127	625.81
396.352	622.81
396.576	607.81
396.801	635.81
397.025	635.81
397.249	633.81
397.474	613.81
397.698	633.81
397.922	620.81
398.147	647.81
398.371	643.81
398.595	614.81
398.82	666.81
399.044	673.81
399.268	676.81
399.492	713.81
399.717	708.81
399.941	728.81
400.165	720.81
400.389	701.81
400.613	667.81
400.837	710.81
401.062	665.81
401.286	704.81
401.51	665.81
401.734	662.81
401.958	681.81
402.182	663.81
402.406	663.81
402.63	672.81
402.854	659.81
403.078	656.81
403.302	680.81
403.526	665.81
403.75	668.81
403.974	656.81
404.198	666.81
404.422	662.81
404.645	662.81
404.869	659.81
405.093	681.81
405.317	685.81
405.541	689.81
405.765	689.81
405.988	697.81
406.212	701.81
406.436	694.81
406.66	674.81
406.883	683.81
407.107	699.81
407.331	706.81
407.555	723.81
407.778	717.81
408.002	725.81
408.226	720.81
408.449	742.81
408.673	731.81
408.896	727.81
409.12	704.81
409.344	711.81
409.567	724.81
409.791	685.81
410.014	706.81
410.238	692.81
410.461	677.81
410.685	716.81
410.908	708.81
411.132	732.81
411.355	700.81
411.578	690.81
411.802	670.81
412.025	693.81
412.249	685.81
412.472	693.81
412.695	683.81
412.919	677.81
413.142	691.81
413.365	677.81
413.589	701.81
413.812	689.81
414.035	661.81
414.258	668.81
414.482	656.81
414.705	661.81
414.928	658.81
415.151	684.81
415.374	676.81
415.597	662.81
415.821	670.81
416.044	656.81
416.267	655.81
416.49	643.81
416.713	643.81
416.936	646.81
417.159	643.81
417.382	625.81
417.605	636.81
417.828	649.81
418.051	663.81
418.274	635.81
418.497	620.81
418.72	639.81
418.943	632.81
419.166	670.81
419.389	693.81
419.611	667.81
419.834	671.81
420.057	654.81
420.28	635.81
420.503	641.81
420.726	623.81
420.948	623.81
421.171	623.81
421.394	645.81
421.617	602.81
421.839	621.81
422.062	606.81
422.285	599.81
422.507	634.81
422.73	618.81
422.953	633.81
423.175	639.81
423.398	655.81
423.621	617.81
423.843	611.81
424.066	626.81
424.288	637.81
424.511	628.81
424.733	622.81
424.956	643.81
425.178	633.81
425.401	619.81
425.623	636.81
425.846	612.81
426.068	645.81
426.291	609.81
426.513	623.81
426.735	612.81
426.958	645.81
427.18	619.81
427.402	648.81
427.625	632.81
427.847	603.81
428.069	625.81
428.292	621.81
428.514	634.81
428.736	618.81
428.958	626.81
429.181	581.81
429.403	612.81
429.625	594.81
429.847	595.81
430.069	615.81
430.292	621.81
430.514	612.81
430.736	628.81
430.958	612.81
431.18	633.81
431.402	621.81
431.624	625.81
431.846	607.81
432.068	615.81
432.29	633.81
432.512	608.81
432.734	623.81
432.956	637.81
433.178	634.81
433.4	623.81
433.622	618.81
433.844	652.81
434.066	638.81
434.287	620.81
434.509	631.81
434.731	618.81
434.953	631.81
435.175	631.81
435.397	638.81
435.618	630.81
435.84	626.81
436.062	636.81
436.284	629.81
436.505	601.81
436.727	630.81
436.949	608.81
437.17	604.81
437.392	604.81
437.614	599.81
437.835	618.81
438.057	627.81
438.278	617.81
438.5	634.81
438.721	613.81
438.943	611.81
439.165	595.81
439.386	601.81
439.608	609.81
439.829	597.81
440.05	621.81
440.272	602.81
440.493	626.81
440.715	636.81
440.936	613.81
441.158	632.81
441.379	617.81
441.6	597.81
441.822	620.81
442.043	628.81
442.264	614.81
442.486	613.81
442.707	606.81
442.928	623.81
443.149	621.81
443.371	633.81
443.592	619.81
443.813	621.81
444.034	606.81
444.255	641.81
444.476	623.81
444.698	630.81
444.919	620.81
445.14	711.81
445.361	650.81
445.582	645.81
445.803	637.81
446.024	610.81
446.245	627.81
446.466	583.81
446.687	606.81
446.908	628.81
447.129	609.81
447.35	611.81
447.571	604.81
447.792	601.81
448.013	588.81
448.234	598.81
448.455	574.81
448.675	593.81
448.896	570.81
449.117	568.81
449.338	579.81
449.559	587.81
449.779	556.81
450	570.81
450.221	567.81
450.442	598.81
450.662	566.81
450.883	579.81
451.104	578.81
451.324	556.81
451.545	563.81
451.766	582.81
451.986	580.81
452.207	579.81
452.428	558.81
452.648	568.81
452.869	589.81
453.089	555.81
453.31	575.81
453.53	573.81
453.751	558.81
453.971	550.81
454.192	566.81
454.412	549.81
454.633	557.81
454.853	544.81
455.073	552.81
455.294	558.81
455.514	565.81
455.734	568.81
455.955	554.81
456.175	538.81
456.395	549.81
456.616	542.81
456.836	557.81
457.056	547.81
457.276	556.81
457.497	563.81
457.717	574.81
457.937	573.81
458.157	570.81
458.377	583.81
458.598	566.81
458.818	571.81
459.038	579.81
459.258	594.81
459.478	594.81
459.698	618.81
459.918	615.81
460.138	613.81
460.358	625.81
460.578	632.81
460.798	625.81
461.018	646.81
461.238	643.81
461.458	632.81
461.678	638.81
461.898	670.81
462.118	647.81
462.338	667.81
462.558	657.81
462.777	674.81
462.997	694.81
463.217	706.81
463.437	709.81
463.657	712.81
463.876	715.81
464.096	678.81
464.316	681.81
464.536	681.81
464.755	652.81
464.975	662.81
465.195	661.81
465.414	635.81
465.634	643.81
465.854	638.81
466.073	640.81
466.293	627.81
466.512	611.81
466.732	613.81
466.951	607.81
467.171	621.81
467.391	609.81
467.61	600.81
467.829	617.81
468.049	609.81
468.268	600.81
468.488	604.81
468.707	614.81
468.927	616.81
469.146	601.81
469.365	621.81
469.585	602.81
469.804	629.81
470.023	599.81
470.243	597.81
470.462	605.81
470.681	613.81
470.901	636.81
471.12	623.81
471.339	637.81
471.558	615.81
471.777	639.81
471.997	627.81
472.216	608.81
472.435	645.81
472.654	622.81
472.873	619.81
473.092	607.81
473.311	606.81
473.53	623.81
473.749	599.81
473.968	608.81
474.187	616.81
474.406	636.81
474.625	637.81
474.844	642.81
475.063	646.81
475.282	635.81
475.501	626.81
475.72	621.81
475.939	637.81
476.158	629.81
476.377	686.81
476.596	669.81
476.814	668.81
477.033	658.81
477.252	678.81
477.471	678.81
477.69	692.81
477.908	685.81
478.127	695.81
478.346	681.81
478.564	684.81
478.783	675.81
479.002	696.81
479.22	720.81
479.439	719.81
479.658	697.81
479.876	726.81
480.095	697.81
480.313	721.81
480.532	739.81
480.751	703.81
480.969	733.81
481.188	742.81
481.406	721.81
481.624	742.81
481.843	732.81
482.061	724.81
482.28	736.81
482.498	737.81
482.717	719.81
482.935	742.81
483.153	724.81
483.372	741.81
483.59	742.81
483.808	737.81
484.027	734.81
484.245	753.81
484.463	744.81
484.681	757.81
484.9	741.81
485.118	755.81
485.336	747.81
485.554	750.81
485.772	748.81
485.99	769.81
486.209	765.81
486.427	748.81
486.645	748.81
486.863	748.81
487.081	743.81
487.299	773.81
487.517	770.81
487.735	747.81
487.953	804.81
488.171	758.81
488.389	754.81
488.607	768.81
488.825	778.81
489.043	747.81
489.261	755.81
489.479	749.81
489.696	769.81
489.914	753.81
490.132	778.81
490.35	799.81
490.568	755.81
490.786	753.81
491.003	762.81
491.221	791.81
491.439	778.81
491.657	793.81
491.874	796.81
492.092	783.81
492.31	791.81
492.527	795.81
492.745	787.81
492.963	774.81
493.18	773.81
493.398	799.81
493.615	782.81
493.833	762.81
494.05	791.81
494.268	773.81
494.485	793.81
494.703	809.81
494.92	795.81
495.138	814.81
495.355	801.81
495.573	831.81
495.79	837.81
496.008	819.81
496.225	811.81
496.442	832.81
496.66	855.81
496.877	861.81
497.094	891.81
497.312	860.81
497.529	862.81
497.746	864.81
497.963	871.81
498.181	898.81
498.398	898.81
498.615	925.81
498.832	952.81
499.049	988.81
499.267	1012.81
499.484	1016.81
499.701	1049.81
499.918	1045.81
500.135	1103.81
500.352	1127.81
500.569	1131.81
500.786	1119.81
501.003	1095.81
501.22	1119.81
501.437	1097.81
501.654	1039.81
501.871	999.81
502.088	974.81
502.305	954.81
502.522	929.81
502.739	945.81
502.956	897.81
503.172	892.81
503.389	890.81
503.606	890.81
503.823	845.81
504.04	868.81
504.256	871.81
504.473	841.81
504.69	842.81
504.907	809.81
505.123	805.81
505.34	810.81
505.557	795.81
505.773	779.81
505.99	779.81
506.207	746.81
506.423	729.81
506.64	744.81
506.856	743.81
507.073	747.81
507.289	723.81
507.506	722.81
507.722	724.81
507.939	729.81
508.155	708.81
508.372	725.81
508.588	725.81
508.805	726.81
509.021	714.81
509.238	712.81
509.454	692.81
509.67	684.81
509.887	713.81
510.103	697.81
510.319	700.81
510.536	667.81
510.752	676.81
510.968	670.81
511.184	654.81
511.401	666.81
511.617	670.81
511.833	692.81
512.049	675.81
512.265	679.81
512.481	674.81
512.698	657.81
512.914	667.81
513.13	675.81
513.346	661.81
513.562	675.81
513.778	669.81
513.994	685.81
514.21	693.81
514.426	662.81
514.642	685.81
514.858	663.81
515.074	694.81
515.29	689.81
515.506	655.81
515.721	683.81
515.937	677.81
516.153	692.81
516.369	698.81
516.585	709.81
516.801	708.81
517.016	701.81
517.232	706.81
517.448	724.81
517.664	730.81
517.879	709.81
518.095	713.81
518.311	695.81
518.527	723.81
518.742	703.81
518.958	726.81
519.173	714.81
519.389	686.81
519.605	696.81
519.82	691.81
520.036	667.81
520.251	683.81
520.467	678.81
520.682	659.81
520.898	661.81
521.113	653.81
521.329	642.81
521.544	635.81
521.76	670.81
521.975	676.81
522.19	623.81
522.406	648.81
522.621	657.81
522.836	611.81
523.052	641.81
523.267	614.81
523.482	604.81
523.698	632.81
523.913	613.81
524.128	643.81
524.343	635.81
524.559	625.81
524.774	639.81
524.989	611.81
525.204	644.81
525.419	632.81
525.634	616.81
525.849	614.81
526.064	618.81
526.28	614.81
526.495	632.81
526.71	603.81
526.925	610.81
527.14	627.81
527.355	635.81
527.57	603.81
527.785	602.81
527.999	594.81
528.214	608.81
528.429	606.81
528.644	604.81
528.859	599.81
529.074	609.81
529.289	620.81
529.503	602.81
529.718	601.81
529.933	613.81
530.148	609.81
530.363	604.81
530.577	586.81
530.792	591.81
531.007	588.81
531.221	602.81
531.436	597.81
531.651	589.81
531.865	601.81
532.08	595.81
532.295	613.81
532.509	569.81
532.724	586.81
532.938	601.81
533.153	583.81
533.367	576.81
533.582	586.81
533.796	594.81
534.011	580.81
534.225	603.81
534.44	587.81
534.654	610.81
534.868	615.81
535.083	581.81
535.297	590.81
535.511	590.81
535.726	594.81
535.94	585.81
536.154	571.81
536.369	587.81
536.583	586.81
536.797	563.81
537.011	557.81
537.225	571.81
537.44	547.81
537.654	574.81
537.868	582.81
538.082	547.81
538.296	533.81
538.51	580.81
538.724	576.81
538.938	577.81
539.153	551.81
539.367	568.81
539.581	547.81
539.795	539.81
540.009	545.81
540.222	574.81
540.436	547.81
540.65	548.81
540.864	571.81
541.078	553.81
541.292	572.81
541.506	565.81
541.72	559.81
541.934	576.81
542.147	569.81
542.361	558.81
542.575	551.81
542.789	545.81
543.002	569.81
543.216	554.81
543.43	559.81
543.644	558.81
543.857	543.81
544.071	552.81
544.285	564.81
544.498	549.81
544.712	554.81
544.925	541.81
545.139	563.81
545.352	561.81
545.566	531.81
545.779	549.81
545.993	551.81
546.206	547.81
546.42	552.81
546.633	554.81
546.847	552.81
547.06	551.81
547.274	547.81
547.487	540.81
547.7	553.81
547.914	566.81
548.127	559.81
548.34	556.81
548.554	556.81
548.767	543.81
548.98	567.81
549.193	543.81
549.407	531.81
549.62	568.81
549.833	556.81
550.046	549.81
550.259	547.81
550.473	542.81
550.686	562.81
550.899	551.81
551.112	558.81
551.325	527.81
551.538	571.81
551.751	554.81
551.964	541.81
552.177	527.81
552.39	530.81
552.603	514.81
552.816	540.81
553.029	545.81
553.242	538.81
553.455	546.81
553.667	550.81
553.88	526.81
554.093	556.81
554.306	546.81
554.519	531.81
554.732	529.81
554.944	518.81
555.157	529.81
555.37	501.81
555.583	509.81
555.795	527.81
556.008	533.81
556.221	510.81
556.433	499.81
556.646	514.81
556.859	501.81
557.071	514.81
557.284	512.81
557.496	491.81
557.709	494.81
557.921	494.81
558.134	486.81
558.346	495.81
558.559	503.81
558.771	487.81
558.984	481.81
559.196	498.81
559.409	494.81
559.621	492.81
559.833	486.81
560.046	478.81
560.258	477.81
560.47	483.81
560.683	480.81
560.895	505.81
561.107	480.81
561.32	461.81
561.532	470.81
561.744	483.81
561.956	483.81
562.168	479.81
562.381	478.81
562.593	467.81
562.805	470.81
563.017	466.81
563.229	467.81
563.441	475.81
563.653	468.81
563.865	478.81
564.077	479.81
564.289	483.81
564.501	497.81
564.713	491.81
564.925	495.81
565.137	500.81
565.349	499.81
565.561	502.81
565.773	521.81
565.985	484.81
566.197	526.81
566.408	512.81
566.62	519.81
566.832	526.81
567.044	547.81
567.255	518.81
567.467	538.81
567.679	509.81
567.891	529.81
568.102	526.81
568.314	515.81
568.526	516.81
568.737	513.81
568.949	527.81
569.161	471.81
569.372	497.81
569.584	477.81
569.795	473.81
570.007	467.81
570.218	461.81
570.43	465.81
570.641	456.81
570.853	471.81
571.064	433.81
571.276	449.81
571.487	435.81
571.698	454.81
571.91	426.81
572.121	430.81
572.333	414.81
572.544	409.81
572.755	399.81
572.966	410.81
573.178	402.81
573.389	391.81
573.6	396.81
573.811	382.81
574.023	402.81
574.234	406.81
574.445	387.81
574.656	399.81
574.867	390.81
575.078	414.81
575.289	388.81
575.501	406.81
575.712	389.81
575.923	379.81
576.134	381.81
576.345	390.81
576.556	393.81
576.767	379.81
576.978	383.81
577.188	392.81
577.399	373.81
577.61	379.81
577.821	359.81
578.032	366.81
578.243	354.81
578.454	355.81
578.665	357.81
578.875	382.81
579.086	374.81
579.297	380.81
579.508	369.81
579.718	371.81
579.929	342.81
580.14	353.81
580.35	355.81
580.561	361.81
580.772	356.81
580.982	366.81
581.193	366.81
581.403	354.81
581.614	331.81
581.825	370.81
582.035	343.81
582.246	357.81
582.456	347.81
582.667	355.81
582.877	350.81
583.087	347.81
583.298	350.81
583.508	373.81
583.719	332.81
583.929	345.81
584.139	356.81
584.35	343.81
584.56	339.81
584.77	335.81
584.981	322.81
585.191	329.81
585.401	347.81
585.611	334.81
585.821	346.81
586.032	357.81
586.242	335.81
586.452	319.81
586.662	336.81
586.872	335.81
587.082	317.81
587.292	320.81
587.502	311.81
587.713	346.81
587.923	339.81
588.133	337.81
588.343	331.81
588.553	334.81
588.762	330.81
588.972	327.81
589.182	388.81
589.392	371.81
589.602	326.81
589.812	360.81
590.022	360.81
590.232	330.81
590.441	318.81
590.651	319.81
590.861	326.81
591.071	333.81
591.281	331.81
591.49	323.81
591.7	332.81
591.91	326.81
592.119	325.81
592.329	314.81
592.539	317.81
592.748	335.81
592.958	328.81
593.167	323.81
593.377	339.81
593.587	331.81
593.796	332.81
594.006	336.81
594.215	342.81
594.424	328.81
594.634	329.81
594.843	320.81
595.053	330.81
595.262	321.81
595.472	313.81
595.681	320.81
595.89	317.81
596.1	295.81
596.309	319.81
596.518	297.81
596.727	328.81
596.937	304.81
597.146	295.81
597.355	278.81
597.564	282.81
597.774	302.81
597.983	284.81
598.192	291.81
598.401	289.81
598.61	281.81
598.819	284.81
599.028	293.81
599.237	297.81
599.446	284.81
599.655	297.81
599.864	289.81
600.073	281.81
600.282	271.81
600.491	273.81
600.7	273.81
600.909	289.81
601.118	287.81
601.327	287.81
601.536	298.81
601.745	271.81
601.953	301.81
602.162	291.81
602.371	269.81
602.58	281.81
602.789	271.81
602.997	271.81
603.206	278.81
603.415	280.81
603.623	259.81
603.832	260.81
604.041	265.81
604.249	271.81
604.458	267.81
604.666	254.81
604.875	262.81
605.084	271.81
605.292	247.81
605.501	275.81
605.709	284.81
605.918	268.81
606.126	261.81
606.334	257.81
606.543	266.81
606.751	275.81
606.96	257.81
607.168	267.81
607.376	254.81
607.585	257.81
607.793	270.81
608.001	257.81
608.21	268.81
608.418	258.81
608.626	285.81
608.834	282.81
609.043	271.81
609.251	277.81
609.459	257.81
609.667	257.81
609.875	245.81
610.083	259.81
610.291	266.81
610.499	250.81
610.707	249.81
610.916	245.81
611.124	258.81
611.332	249.81
611.54	264.81
611.748	268.81
611.955	264.81
612.163	269.81
612.371	248.81
612.579	250.81
612.787	233.81
612.995	259.81
613.203	271.81
613.411	254.81
613.618	248.81
613.826	259.81
614.034	259.81
614.242	244.81
614.449	257.81
614.657	250.81
614.865	251.81
615.072	251.81
615.28	282.81
615.488	261.81
615.695	239.81
615.903	257.81
616.111	259.81
616.318	259.81
616.526	235.81
616.733	252.81
616.941	260.81
617.148	244.81
617.356	238.81
617.563	248.81
617.771	247.81
617.978	268.81
618.185	256.81
618.393	243.81
618.6	255.81
618.807	234.81
619.015	258.81
619.222	234.81
619.429	220.81
619.637	231.81
619.844	230.81
620.051	238.81
620.258	225.81
620.466	233.81
620.673	238.81
620.88	225.81
621.087	222.81
621.294	243.81
621.501	226.81
621.708	216.81
621.915	236.81
622.122	221.81
622.329	236.81
622.536	243.81
622.743	221.81
622.95	237.81
623.157	226.81
623.364	239.81
623.571	245.81
623.778	218.81
623.985	218.81
624.192	222.81
624.399	240.81
624.606	231.81
624.812	224.81
625.019	206.81
625.226	243.81
625.433	241.81
625.639	244.81
625.846	222.81
626.053	226.81
626.259	214.81
626.466	220.81
626.673	218.81
626.879	214.81
627.086	220.81
627.293	238.81
627.499	207.81
627.706	232.81
627.912	216.81
628.119	221.81
628.325	211.81
628.532	207.81
628.738	216.81
628.945	212.81
629.151	214.81
629.357	209.81
629.564	211.81
629.77	215.81
629.976	220.81
630.183	215.81
630.389	219.81
630.595	211.81
630.802	220.81
631.008	207.81
631.214	203.81
631.42	220.81
631.627	222.81
631.833	220.81
632.039	209.81
632.245	187.81
632.451	195.81
632.657	199.81
632.863	215.81
633.069	211.81
633.275	204.81
633.481	213.81
633.688	199.81
633.893	202.81
634.099	191.81
634.305	194.81
634.511	204.81
634.717	185.81
634.923	186.81
635.129	193.81
635.335	175.81
635.541	199.81
635.747	195.81
635.952	195.81
636.158	198.81
636.364	189.81
636.57	175.81
636.775	201.81
636.981	190.81
637.187	195.81
637.392	202.81
637.598	185.81
637.804	203.81
638.009	192.81
638.215	198.81
638.421	191.81
638.626	213.81
638.832	198.81
639.037	174.81
639.243	196.81
639.448	191.81
639.654	210.81
639.859	185.81
640.065	187.81
640.27	201.81
640.475	187.81
640.681	204.81
640.886	195.81
641.091	190.81
641.297	198.81
641.502	193.81
641.707	180.81
641.913	183.81
642.118	192.81
642.323	198.81
642.528	195.81
642.733	209.81
642.939	199.81
643.144	197.81
643.349	196.81
643.554	188.81
643.759	193.81
643.964	196.81
644.169	188.81
644.374	186.81
644.579	189.81
644.784	181.81
644.989	178.81
645.194	181.81
645.399	180.81
645.604	179.81
645.809	204.81
646.014	202.81
646.219	184.81
646.423	191.81
646.628	187.81
646.833	193.81
647.038	183.81
647.243	190.81
647.447	180.81
647.652	200.81
647.857	208.81
648.062	177.81
648.266	197.81
648.471	196.81
648.676	192.81
648.88	198.81
649.085	201.81
649.289	176.81
649.494	185.81
649.698	196.81
649.903	195.81
650.107	191.81
650.312	190.81
650.516	192.81
650.721	210.81
650.925	179.81
651.13	188.81
651.334	171.81
651.539	191.81
651.743	179.81
651.947	169.81
652.152	185.81
652.356	182.81
652.56	183.81
652.764	176.81
652.969	178.81
653.173	177.81
653.377	179.81
653.581	171.81
653.785	170.81
653.99	182.81
654.194	166.81
654.398	180.81
654.602	179.81
654.806	173.81
655.01	173.81
655.214	169.81
655.418	170.81
655.622	172.81
655.826	168.81
656.03	172.81
656.234	161.81
656.438	167.81
656.642	174.81
656.846	156.81
657.049	173.81
657.253	165.81
657.457	148.81
657.661	167.81
657.865	145.81
658.068	137.81
658.272	150.81
658.476	133.81
658.68	123.81
658.883	123.81
659.087	123.81
659.291	125.81
659.494	124.81
659.698	127.81
659.901	103.81
660.105	129.81
660.309	120.81
660.512	108.81
660.716	103.81
660.919	110.81
661.123	97.81
661.326	94.81
661.53	89.81
661.733	105.81
661.936	82.81
662.14	89.81
662.343	99.81
662.546	95.81
662.75	90.81
662.953	87.81
663.156	102.81
663.36	78.81
663.563	85.81
663.766	86.81
663.969	92.81
664.173	80.81
664.376	88.81
664.579	87.81
664.782	83.81
664.985	88.81
665.188	71.81
665.391	85.81
665.594	75.81
665.797	88.81
666	86.81
666.203	95.81
666.406	85.81
666.609	94.81
666.812	87.81
667.015	93.81
667.218	81.81
667.421	93.81
667.624	92.81
667.827	79.81
668.03	82.81
668.232	89.81
668.435	89.81
668.638	74.81
668.841	83.81
669.043	89.81
669.246	74.81
669.449	78.81
669.651	71.81
669.854	89.81
670.057	96.81
670.259	86.81
670.462	79.81
670.665	83.81
670.867	91.81
671.07	87.81
671.272	90.81
671.475	81.81
671.677	83.81
671.88	82.81
672.082	78.81
672.284	76.81
672.487	85.81
672.689	81.81
672.892	81.81
