Data from Fe(NO3)3@0.05M.TitratingCurve.Agarose3%dH2O.NegLispCup.LampEnergy10.LIBS07252019_HRD10591_16-47-06-334.txt Node
Date: Thu Jul 25 16:47:06 EDT 2019
User: cochatt
Spectrometer: HR+D1059
Trigger mode: 1
Integration Time (sec): 1.000000E-1
Scans to average: 1
Electric dark correction enabled: true
Nonlinearity correction enabled: false
Boxcar width: 0
XAxis mode: Wavelengths
Number of Pixels in Spectrum: 2048
>>>>>Begin Spectral Data<<<<<
223.165	-8.25
223.4	-8.25
223.635	-8.25
223.869	-26.25
224.104	-17.25
224.338	-20.25
224.573	-3.25
224.808	-4.25
225.042	-16.25
225.277	-11.25
225.511	-2.25
225.746	-12.25
225.98	6.75
226.215	21.75
226.449	14.75
226.683	11.75
226.918	22.75
227.152	43.75
227.387	29.75
227.621	30.75
227.856	38.75
228.09	41.75
228.324	46.75
228.559	52.75
228.793	86.75
229.027	97.75
229.262	105.75
229.496	103.75
229.73	117.75
229.964	151.75
230.199	134.75
230.433	142.75
230.667	144.75
230.901	130.75
231.136	138.75
231.37	149.75
231.604	151.75
231.838	132.75
232.072	142.75
232.306	150.75
232.541	159.75
232.775	154.75
233.009	161.75
233.243	166.75
233.477	161.75
233.711	150.75
233.945	179.75
234.179	148.75
234.413	168.75
234.647	173.75
234.881	177.75
235.115	171.75
235.349	179.75
235.583	174.75
235.817	162.75
236.051	176.75
236.285	168.75
236.519	158.75
236.753	172.75
236.987	182.75
237.221	176.75
237.455	201.75
237.689	198.75
237.922	174.75
238.156	200.75
238.39	202.75
238.624	221.75
238.858	213.75
239.091	191.75
239.325	196.75
239.559	198.75
239.793	215.75
240.027	231.75
240.26	202.75
240.494	213.75
240.728	208.75
240.961	237.75
241.195	229.75
241.429	219.75
241.662	236.75
241.896	221.75
242.13	221.75
242.363	212.75
242.597	208.75
242.83	215.75
243.064	217.75
243.298	224.75
243.531	209.75
243.765	232.75
243.998	242.75
244.232	238.75
244.465	255.75
244.699	237.75
244.932	263.75
245.166	245.75
245.399	250.75
245.633	241.75
245.866	252.75
246.099	255.75
246.333	256.75
246.566	258.75
246.8	262.75
247.033	258.75
247.266	273.75
247.5	260.75
247.733	246.75
247.966	264.75
248.2	284.75
248.433	272.75
248.666	270.75
248.899	286.75
249.133	277.75
249.366	295.75
249.599	300.75
249.832	298.75
250.066	316.75
250.299	291.75
250.532	290.75
250.765	303.75
250.998	293.75
251.231	286.75
251.465	307.75
251.698	302.75
251.931	316.75
252.164	309.75
252.397	295.75
252.63	306.75
252.863	318.75
253.096	332.75
253.329	321.75
253.562	334.75
253.795	342.75
254.028	340.75
254.261	357.75
254.494	344.75
254.727	326.75
254.96	350.75
255.193	347.75
255.426	331.75
255.659	326.75
255.892	336.75
256.124	340.75
256.357	356.75
256.59	355.75
256.823	346.75
257.056	333.75
257.289	355.75
257.521	343.75
257.754	350.75
257.987	353.75
258.22	355.75
258.452	349.75
258.685	364.75
258.918	394.75
259.151	376.75
259.383	350.75
259.616	386.75
259.849	395.75
260.081	433.75
260.314	457.75
260.547	396.75
260.779	382.75
261.012	395.75
261.244	416.75
261.477	426.75
261.71	425.75
261.942	368.75
262.175	383.75
262.407	403.75
262.64	416.75
262.872	421.75
263.105	432.75
263.337	447.75
263.57	424.75
263.802	404.75
264.035	385.75
264.267	366.75
264.499	387.75
264.732	377.75
264.964	387.75
265.197	397.75
265.429	402.75
265.661	402.75
265.894	405.75
266.126	390.75
266.358	427.75
266.591	418.75
266.823	398.75
267.055	414.75
267.287	410.75
267.52	406.75
267.752	405.75
267.984	415.75
268.216	402.75
268.448	429.75
268.681	432.75
268.913	410.75
269.145	434.75
269.377	417.75
269.609	451.75
269.841	443.75
270.073	433.75
270.306	443.75
270.538	438.75
270.77	438.75
271.002	453.75
271.234	451.75
271.466	467.75
271.698	453.75
271.93	456.75
272.162	461.75
272.394	474.75
272.626	468.75
272.858	496.75
273.09	471.75
273.322	490.75
273.553	492.75
273.785	498.75
274.017	527.75
274.249	551.75
274.481	548.75
274.713	552.75
274.945	597.75
275.176	584.75
275.408	581.75
275.64	570.75
275.872	549.75
276.104	539.75
276.335	500.75
276.567	519.75
276.799	497.75
277.031	528.75
277.262	510.75
277.494	516.75
277.726	518.75
277.957	537.75
278.189	527.75
278.421	508.75
278.652	508.75
278.884	502.75
279.115	512.75
279.347	513.75
279.579	530.75
279.81	528.75
280.042	528.75
280.273	517.75
280.505	522.75
280.736	544.75
280.968	518.75
281.199	556.75
281.431	524.75
281.662	502.75
281.894	539.75
282.125	538.75
282.356	542.75
282.588	534.75
282.819	534.75
283.051	549.75
283.282	558.75
283.513	574.75
283.745	572.75
283.976	568.75
284.207	568.75
284.439	583.75
284.67	559.75
284.901	586.75
285.132	570.75
285.364	561.75
285.595	568.75
285.826	564.75
286.057	585.75
286.288	570.75
286.52	558.75
286.751	571.75
286.982	583.75
287.213	591.75
287.444	592.75
287.675	589.75
287.906	593.75
288.138	589.75
288.369	587.75
288.6	604.75
288.831	575.75
289.062	592.75
289.293	583.75
289.524	595.75
289.755	589.75
289.986	598.75
290.217	593.75
290.448	585.75
290.679	593.75
290.91	605.75
291.141	606.75
291.371	584.75
291.602	611.75
291.833	594.75
292.064	589.75
292.295	585.75
292.526	587.75
292.757	612.75
292.987	616.75
293.218	617.75
293.449	608.75
293.68	608.75
293.91	599.75
294.141	570.75
294.372	612.75
294.603	618.75
294.833	630.75
295.064	626.75
295.295	630.75
295.525	615.75
295.756	616.75
295.987	630.75
296.217	630.75
296.448	643.75
296.679	630.75
296.909	630.75
297.14	621.75
297.37	644.75
297.601	618.75
297.831	648.75
298.062	645.75
298.292	636.75
298.523	664.75
298.753	654.75
298.984	664.75
299.214	678.75
299.445	664.75
299.675	666.75
299.905	655.75
300.136	649.75
300.366	670.75
300.597	675.75
300.827	645.75
301.057	669.75
301.288	673.75
301.518	664.75
301.748	686.75
301.979	694.75
302.209	678.75
302.439	656.75
302.669	666.75
302.9	693.75
303.13	673.75
303.36	694.75
303.59	728.75
303.82	721.75
304.051	719.75
304.281	709.75
304.511	698.75
304.741	692.75
304.971	679.75
305.201	684.75
305.431	688.75
305.661	683.75
305.891	711.75
306.121	704.75
306.352	696.75
306.582	687.75
306.812	689.75
307.042	702.75
307.272	707.75
307.502	696.75
307.731	706.75
307.961	695.75
308.191	698.75
308.421	688.75
308.651	671.75
308.881	689.75
309.111	697.75
309.341	676.75
309.571	692.75
309.8	703.75
310.03	729.75
310.26	699.75
310.49	714.75
310.72	702.75
310.949	723.75
311.179	734.75
311.409	711.75
311.639	723.75
311.868	733.75
312.098	727.75
312.328	737.75
312.557	721.75
312.787	723.75
313.017	736.75
313.246	739.75
313.476	735.75
313.706	743.75
313.935	772.75
314.165	739.75
314.394	741.75
314.624	749.75
314.853	757.75
315.083	756.75
315.312	782.75
315.542	765.75
315.771	766.75
316.001	766.75
316.23	752.75
316.46	756.75
316.689	741.75
316.919	751.75
317.148	764.75
317.377	767.75
317.607	773.75
317.836	774.75
318.065	767.75
318.295	796.75
318.524	782.75
318.753	769.75
318.983	765.75
319.212	739.75
319.441	778.75
319.67	766.75
319.9	763.75
320.129	743.75
320.358	795.75
320.587	781.75
320.816	774.75
321.046	781.75
321.275	801.75
321.504	776.75
321.733	783.75
321.962	786.75
322.191	823.75
322.42	792.75
322.649	797.75
322.878	777.75
323.108	774.75
323.337	790.75
323.566	810.75
323.795	792.75
324.024	799.75
324.253	802.75
324.482	807.75
324.71	800.75
324.939	832.75
325.168	800.75
325.397	788.75
325.626	815.75
325.855	829.75
326.084	827.75
326.313	832.75
326.542	826.75
326.77	854.75
326.999	830.75
327.228	816.75
327.457	820.75
327.686	845.75
327.914	845.75
328.143	852.75
328.372	838.75
328.6	838.75
328.829	839.75
329.058	834.75
329.287	830.75
329.515	889.75
329.744	842.75
329.972	862.75
330.201	865.75
330.43	892.75
330.658	875.75
330.887	872.75
331.115	874.75
331.344	852.75
331.572	851.75
331.801	860.75
332.03	883.75
332.258	932.75
332.486	945.75
332.715	903.75
332.943	930.75
333.172	946.75
333.4	949.75
333.629	957.75
333.857	987.75
334.085	1022.75
334.314	971.75
334.542	1013.75
334.771	1019.75
334.999	1015.75
335.227	1014.75
335.455	994.75
335.684	978.75
335.912	997.75
336.14	979.75
336.369	972.75
336.597	1000.75
336.825	967.75
337.053	971.75
337.281	977.75
337.51	944.75
337.738	953.75
337.966	964.75
338.194	944.75
338.422	946.75
338.65	925.75
338.878	938.75
339.106	919.75
339.334	918.75
339.562	918.75
339.79	910.75
340.018	917.75
340.246	904.75
340.474	916.75
340.702	888.75
340.93	887.75
341.158	888.75
341.386	914.75
341.614	932.75
341.842	904.75
342.07	892.75
342.298	895.75
342.526	892.75
342.754	925.75
342.981	905.75
343.209	897.75
343.437	946.75
343.665	948.75
343.893	974.75
344.12	1015.75
344.348	983.75
344.576	970.75
344.804	959.75
345.031	918.75
345.259	922.75
345.487	922.75
345.714	911.75
345.942	920.75
346.17	876.75
346.397	896.75
346.625	855.75
346.853	856.75
347.08	847.75
347.308	854.75
347.535	846.75
347.763	851.75
347.99	868.75
348.218	855.75
348.445	874.75
348.673	868.75
348.9	865.75
349.128	846.75
349.355	836.75
349.583	836.75
349.81	827.75
350.037	867.75
350.265	855.75
350.492	859.75
350.72	851.75
350.947	850.75
351.174	870.75
351.402	857.75
351.629	858.75
351.856	839.75
352.083	829.75
352.311	839.75
352.538	836.75
352.765	854.75
352.992	866.75
353.22	836.75
353.447	849.75
353.674	855.75
353.901	844.75
354.128	847.75
354.355	829.75
354.583	854.75
354.81	862.75
355.037	824.75
355.264	822.75
355.491	844.75
355.718	822.75
355.945	833.75
356.172	841.75
356.399	869.75
356.626	881.75
356.853	871.75
357.08	867.75
357.307	859.75
357.534	864.75
357.761	856.75
357.988	877.75
358.215	868.75
358.441	866.75
358.668	891.75
358.895	868.75
359.122	842.75
359.349	839.75
359.576	862.75
359.802	824.75
360.029	838.75
360.256	860.75
360.483	840.75
360.709	880.75
360.936	860.75
361.163	832.75
361.39	852.75
361.616	849.75
361.843	867.75
362.07	887.75
362.296	868.75
362.523	868.75
362.749	860.75
362.976	877.75
363.203	884.75
363.429	869.75
363.656	867.75
363.882	868.75
364.109	864.75
364.335	876.75
364.562	870.75
364.788	867.75
365.015	886.75
365.241	874.75
365.468	869.75
365.694	858.75
365.92	888.75
366.147	896.75
366.373	862.75
366.599	854.75
366.826	853.75
367.052	896.75
367.278	882.75
367.505	916.75
367.731	924.75
367.957	876.75
368.184	892.75
368.41	886.75
368.636	885.75
368.862	916.75
369.089	892.75
369.315	902.75
369.541	899.75
369.767	917.75
369.993	908.75
370.219	903.75
370.445	924.75
370.672	938.75
370.898	936.75
371.124	928.75
371.35	931.75
371.576	927.75
371.802	949.75
372.028	948.75
372.254	976.75
372.48	1006.75
372.706	942.75
372.932	955.75
373.158	957.75
373.384	977.75
373.61	987.75
373.835	987.75
374.061	955.75
374.287	973.75
374.513	962.75
374.739	990.75
374.965	1006.75
375.191	1006.75
375.416	1008.75
375.642	986.75
375.868	983.75
376.094	972.75
376.319	956.75
376.545	954.75
376.771	964.75
376.997	964.75
377.222	930.75
377.448	952.75
377.674	940.75
377.899	953.75
378.125	929.75
378.35	942.75
378.576	919.75
378.802	932.75
379.027	924.75
379.253	948.75
379.478	934.75
379.704	950.75
379.929	962.75
380.155	960.75
380.38	958.75
380.606	970.75
380.831	943.75
381.057	961.75
381.282	959.75
381.507	958.75
381.733	989.75
381.958	977.75
382.184	1002.75
382.409	1017.75
382.634	1043.75
382.86	1021.75
383.085	1011.75
383.31	1055.75
383.535	1008.75
383.761	1024.75
383.986	1031.75
384.211	1058.75
384.436	1030.75
384.662	1088.75
384.887	1095.75
385.112	1063.75
385.337	1088.75
385.562	1113.75
385.787	1101.75
386.013	1082.75
386.238	1099.75
386.463	1117.75
386.688	1147.75
386.913	1123.75
387.138	1107.75
387.363	1109.75
387.588	1115.75
387.813	1107.75
388.038	1117.75
388.263	1151.75
388.488	1160.75
388.713	1136.75
388.938	1142.75
389.163	1115.75
389.387	1150.75
389.612	1108.75
389.837	1150.75
390.062	1086.75
390.287	1103.75
390.512	1144.75
390.736	1152.75
390.961	1117.75
391.186	1142.75
391.411	1204.75
391.636	1205.75
391.86	1190.75
392.085	1220.75
392.31	1204.75
392.534	1189.75
392.759	1229.75
392.984	1209.75
393.208	1183.75
393.433	1160.75
393.658	1186.75
393.882	1202.75
394.107	1174.75
394.331	1168.75
394.556	1169.75
394.78	1206.75
395.005	1181.75
395.229	1253.75
395.454	1202.75
395.678	1241.75
395.903	1229.75
396.127	1191.75
396.352	1208.75
396.576	1237.75
396.801	1226.75
397.025	1219.75
397.249	1310.75
397.474	1290.75
397.698	1243.75
397.922	1282.75
398.147	1281.75
398.371	1298.75
398.595	1355.75
398.82	1371.75
399.044	1431.75
399.268	1467.75
399.492	1582.75
399.717	1653.75
399.941	1649.75
400.165	1633.75
400.389	1615.75
400.613	1505.75
400.837	1453.75
401.062	1445.75
401.286	1393.75
401.51	1424.75
401.734	1368.75
401.958	1404.75
402.182	1357.75
402.406	1349.75
402.63	1372.75
402.854	1376.75
403.078	1392.75
403.302	1432.75
403.526	1401.75
403.75	1402.75
403.974	1393.75
404.198	1368.75
404.422	1413.75
404.645	1428.75
404.869	1423.75
405.093	1403.75
405.317	1418.75
405.541	1424.75
405.765	1435.75
405.988	1425.75
406.212	1436.75
406.436	1455.75
406.66	1480.75
406.883	1511.75
407.107	1528.75
407.331	1568.75
407.555	1618.75
407.778	1598.75
408.002	1580.75
408.226	1587.75
408.449	1561.75
408.673	1528.75
408.896	1506.75
409.12	1529.75
409.344	1497.75
409.567	1450.75
409.791	1431.75
410.014	1478.75
410.238	1448.75
410.461	1457.75
410.685	1426.75
410.908	1422.75
411.132	1434.75
411.355	1413.75
411.578	1406.75
411.802	1408.75
412.025	1383.75
412.249	1419.75
412.472	1456.75
412.695	1436.75
412.919	1402.75
413.142	1399.75
413.365	1386.75
413.589	1394.75
413.812	1343.75
414.035	1384.75
414.258	1373.75
414.482	1388.75
414.705	1386.75
414.928	1365.75
415.151	1358.75
415.374	1384.75
415.597	1313.75
415.821	1335.75
416.044	1360.75
416.267	1337.75
416.49	1324.75
416.713	1316.75
416.936	1294.75
417.159	1284.75
417.382	1236.75
417.605	1322.75
417.828	1280.75
418.051	1341.75
418.274	1318.75
418.497	1294.75
418.72	1343.75
418.943	1327.75
419.166	1373.75
419.389	1477.75
419.611	1444.75
419.834	1415.75
420.057	1405.75
420.28	1352.75
420.503	1290.75
420.726	1312.75
420.948	1292.75
421.171	1291.75
421.394	1307.75
421.617	1311.75
421.839	1312.75
422.062	1314.75
422.285	1274.75
422.507	1346.75
422.73	1300.75
422.953	1328.75
423.175	1355.75
423.398	1302.75
423.621	1289.75
423.843	1301.75
424.066	1346.75
424.288	1299.75
424.511	1315.75
424.733	1308.75
424.956	1313.75
425.178	1285.75
425.401	1289.75
425.623	1294.75
425.846	1276.75
426.068	1248.75
426.291	1286.75
426.513	1276.75
426.735	1260.75
426.958	1288.75
427.18	1266.75
427.402	1267.75
427.625	1266.75
427.847	1236.75
428.069	1241.75
428.292	1246.75
428.514	1239.75
428.736	1184.75
428.958	1243.75
429.181	1227.75
429.403	1191.75
429.625	1224.75
429.847	1228.75
430.069	1197.75
430.292	1227.75
430.514	1230.75
430.736	1234.75
430.958	1232.75
431.18	1219.75
431.402	1233.75
431.624	1211.75
431.846	1234.75
432.068	1234.75
432.29	1269.75
432.512	1259.75
432.734	1305.75
432.956	1243.75
433.178	1240.75
433.4	1247.75
433.622	1265.75
433.844	1261.75
434.066	1276.75
434.287	1288.75
434.509	1274.75
434.731	1283.75
434.953	1283.75
435.175	1299.75
435.397	1352.75
435.618	1282.75
435.84	1274.75
436.062	1292.75
436.284	1242.75
436.505	1235.75
436.727	1221.75
436.949	1232.75
437.17	1240.75
437.392	1202.75
437.614	1194.75
437.835	1214.75
438.057	1223.75
438.278	1210.75
438.5	1237.75
438.721	1196.75
438.943	1208.75
439.165	1175.75
439.386	1191.75
439.608	1208.75
439.829	1208.75
440.05	1204.75
440.272	1204.75
440.493	1219.75
440.715	1237.75
440.936	1216.75
441.158	1258.75
441.379	1262.75
441.6	1301.75
441.822	1282.75
442.043	1315.75
442.264	1277.75
442.486	1255.75
442.707	1310.75
442.928	1253.75
443.149	1295.75
443.371	1268.75
443.592	1266.75
443.813	1304.75
444.034	1292.75
444.255	1360.75
444.476	1324.75
444.698	1366.75
444.919	1375.75
445.14	1467.75
445.361	1368.75
445.582	1315.75
445.803	1295.75
446.024	1250.75
446.245	1279.75
446.466	1253.75
446.687	1230.75
446.908	1249.75
447.129	1200.75
447.35	1198.75
447.571	1194.75
447.792	1207.75
448.013	1167.75
448.234	1184.75
448.455	1160.75
448.675	1125.75
448.896	1150.75
449.117	1137.75
449.338	1124.75
449.559	1121.75
449.779	1113.75
450	1115.75
450.221	1110.75
450.442	1121.75
450.662	1103.75
450.883	1114.75
451.104	1139.75
451.324	1114.75
451.545	1111.75
451.766	1104.75
451.986	1085.75
452.207	1095.75
452.428	1080.75
452.648	1114.75
452.869	1090.75
453.089	1095.75
453.31	1069.75
453.53	1077.75
453.751	1089.75
453.971	1049.75
454.192	1088.75
454.412	1064.75
454.633	1088.75
454.853	1090.75
455.073	1062.75
455.294	1085.75
455.514	1034.75
455.734	1080.75
455.955	1088.75
456.175	1068.75
456.395	1072.75
456.616	1080.75
456.836	1053.75
457.056	1088.75
457.276	1036.75
457.497	1121.75
457.717	1073.75
457.937	1079.75
458.157	1099.75
458.377	1106.75
458.598	1133.75
458.818	1122.75
459.038	1151.75
459.258	1180.75
459.478	1224.75
459.698	1235.75
459.918	1242.75
460.138	1243.75
460.358	1315.75
460.578	1341.75
460.798	1324.75
461.018	1345.75
461.238	1376.75
461.458	1365.75
461.678	1356.75
461.898	1397.75
462.118	1374.75
462.338	1398.75
462.558	1420.75
462.777	1470.75
462.997	1526.75
463.217	1562.75
463.437	1587.75
463.657	1526.75
463.876	1533.75
464.096	1490.75
464.316	1506.75
464.536	1447.75
464.755	1455.75
464.975	1410.75
465.195	1389.75
465.414	1356.75
465.634	1292.75
465.854	1267.75
466.073	1259.75
466.293	1258.75
466.512	1248.75
466.732	1226.75
466.951	1214.75
467.171	1232.75
467.391	1206.75
467.61	1194.75
467.829	1173.75
468.049	1207.75
468.268	1168.75
468.488	1186.75
468.707	1158.75
468.927	1178.75
469.146	1185.75
469.365	1222.75
469.585	1187.75
469.804	1176.75
470.023	1216.75
470.243	1168.75
470.462	1199.75
470.681	1228.75
470.901	1196.75
471.12	1231.75
471.339	1232.75
471.558	1181.75
471.777	1233.75
471.997	1158.75
472.216	1178.75
472.435	1187.75
472.654	1160.75
472.873	1172.75
473.092	1213.75
473.311	1182.75
473.53	1176.75
473.749	1183.75
473.968	1180.75
474.187	1145.75
474.406	1199.75
474.625	1180.75
474.844	1188.75
475.063	1195.75
475.282	1210.75
475.501	1220.75
475.72	1207.75
475.939	1210.75
476.158	1224.75
476.377	1226.75
476.596	1274.75
476.814	1322.75
477.033	1286.75
477.252	1292.75
477.471	1286.75
477.69	1327.75
477.908	1351.75
478.127	1376.75
478.346	1342.75
478.564	1386.75
478.783	1400.75
479.002	1400.75
479.22	1392.75
479.439	1506.75
479.658	1423.75
479.876	1412.75
480.095	1475.75
480.313	1474.75
480.532	1478.75
480.751	1467.75
480.969	1458.75
481.188	1457.75
481.406	1449.75
481.624	1429.75
481.843	1391.75
482.061	1433.75
482.28	1416.75
482.498	1409.75
482.717	1381.75
482.935	1386.75
483.153	1428.75
483.372	1410.75
483.59	1413.75
483.808	1386.75
484.027	1402.75
484.245	1434.75
484.463	1400.75
484.681	1471.75
484.9	1460.75
485.118	1431.75
485.336	1403.75
485.554	1463.75
485.772	1436.75
485.99	1432.75
486.209	1395.75
486.427	1412.75
486.645	1424.75
486.863	1419.75
487.081	1424.75
487.299	1446.75
487.517	1450.75
487.735	1440.75
487.953	1454.75
488.171	1469.75
488.389	1471.75
488.607	1425.75
488.825	1440.75
489.043	1410.75
489.261	1425.75
489.479	1451.75
489.696	1418.75
489.914	1428.75
490.132	1429.75
490.35	1450.75
490.568	1452.75
490.786	1442.75
491.003	1474.75
491.221	1476.75
491.439	1479.75
491.657	1480.75
491.874	1467.75
492.092	1453.75
492.31	1455.75
492.527	1496.75
492.745	1496.75
492.963	1496.75
493.18	1500.75
493.398	1492.75
493.615	1491.75
493.833	1496.75
494.05	1503.75
494.268	1519.75
494.485	1517.75
494.703	1524.75
494.92	1525.75
495.138	1560.75
495.355	1538.75
495.573	1545.75
495.79	1551.75
496.008	1576.75
496.225	1553.75
496.442	1576.75
496.66	1622.75
496.877	1605.75
497.094	1659.75
497.312	1626.75
497.529	1665.75
497.746	1740.75
497.963	1794.75
498.181	1824.75
498.398	1882.75
498.615	1965.75
498.832	1968.75
499.049	2111.75
499.267	2144.75
499.484	2287.75
499.701	2384.75
499.918	2499.75
500.135	2604.75
500.352	2779.75
500.569	2760.75
500.786	2765.75
501.003	2727.75
501.22	2627.75
501.437	2499.75
501.654	2326.75
501.871	2229.75
502.088	2164.75
502.305	2100.75
502.522	1947.75
502.739	1967.75
502.956	1871.75
503.172	1790.75
503.389	1781.75
503.606	1689.75
503.823	1670.75
504.04	1685.75
504.256	1680.75
504.473	1646.75
504.69	1646.75
504.907	1571.75
505.123	1519.75
505.34	1550.75
505.557	1484.75
505.773	1462.75
505.99	1431.75
506.207	1419.75
506.423	1388.75
506.64	1353.75
506.856	1360.75
507.073	1362.75
507.289	1356.75
507.506	1319.75
507.722	1339.75
507.939	1316.75
508.155	1297.75
508.372	1261.75
508.588	1261.75
508.805	1289.75
509.021	1265.75
509.238	1229.75
509.454	1243.75
509.67	1229.75
509.887	1233.75
510.103	1223.75
510.319	1221.75
510.536	1206.75
510.752	1223.75
510.968	1186.75
511.184	1200.75
511.401	1199.75
511.617	1179.75
511.833	1189.75
512.049	1181.75
512.265	1185.75
512.481	1199.75
512.698	1199.75
512.914	1169.75
513.13	1178.75
513.346	1181.75
513.562	1180.75
513.778	1189.75
513.994	1213.75
514.21	1176.75
514.426	1218.75
514.642	1198.75
514.858	1218.75
515.074	1223.75
515.29	1244.75
515.506	1248.75
515.721	1265.75
515.937	1270.75
516.153	1236.75
516.369	1299.75
516.585	1304.75
516.801	1332.75
517.016	1342.75
517.232	1342.75
517.448	1411.75
517.664	1420.75
517.879	1359.75
518.095	1384.75
518.311	1376.75
518.527	1381.75
518.742	1351.75
518.958	1333.75
519.173	1268.75
519.389	1270.75
519.605	1259.75
519.82	1271.75
520.036	1255.75
520.251	1243.75
520.467	1214.75
520.682	1202.75
520.898	1162.75
521.113	1160.75
521.329	1113.75
521.544	1143.75
521.76	1187.75
521.975	1149.75
522.19	1132.75
522.406	1108.75
522.621	1155.75
522.836	1115.75
523.052	1103.75
523.267	1113.75
523.482	1094.75
523.698	1096.75
523.913	1100.75
524.128	1090.75
524.343	1065.75
524.559	1070.75
524.774	1065.75
524.989	1030.75
525.204	1083.75
525.419	1086.75
525.634	1070.75
525.849	1053.75
526.064	1052.75
526.28	1083.75
526.495	1082.75
526.71	1037.75
526.925	1054.75
527.14	1059.75
527.355	1003.75
527.57	1029.75
527.785	1045.75
527.999	1032.75
528.214	1054.75
528.429	1030.75
528.644	1058.75
528.859	1049.75
529.074	1036.75
529.289	1031.75
529.503	1008.75
529.718	1038.75
529.933	1028.75
530.148	1008.75
530.363	1058.75
530.577	1021.75
530.792	1016.75
531.007	1001.75
531.221	1002.75
531.436	1030.75
531.651	1003.75
531.865	1020.75
532.08	1032.75
532.295	1036.75
532.509	1003.75
532.724	1021.75
532.938	1024.75
533.153	1013.75
533.367	996.75
533.582	1014.75
533.796	994.75
534.011	997.75
534.225	1020.75
534.44	982.75
534.654	983.75
534.868	988.75
535.083	985.75
535.297	976.75
535.511	983.75
535.726	988.75
535.94	960.75
536.154	965.75
536.369	958.75
536.583	968.75
536.797	964.75
537.011	946.75
537.225	957.75
537.44	974.75
537.654	944.75
537.868	941.75
538.082	935.75
538.296	919.75
538.51	932.75
538.724	951.75
538.938	978.75
539.153	926.75
539.367	922.75
539.581	942.75
539.795	956.75
540.009	916.75
540.222	935.75
540.436	933.75
540.65	919.75
540.864	897.75
541.078	922.75
541.292	947.75
541.506	902.75
541.72	918.75
541.934	972.75
542.147	953.75
542.361	933.75
542.575	929.75
542.789	926.75
543.002	901.75
543.216	925.75
543.43	922.75
543.644	904.75
543.857	899.75
544.071	887.75
544.285	926.75
544.498	939.75
544.712	931.75
544.925	915.75
545.139	933.75
545.352	948.75
545.566	913.75
545.779	934.75
545.993	935.75
546.206	940.75
546.42	917.75
546.633	930.75
546.847	894.75
547.06	912.75
547.274	952.75
547.487	934.75
547.7	919.75
547.914	930.75
548.127	919.75
548.34	932.75
548.554	898.75
548.767	930.75
548.98	896.75
549.193	920.75
549.407	905.75
549.62	963.75
549.833	936.75
550.046	934.75
550.259	925.75
550.473	926.75
550.686	939.75
550.899	937.75
551.112	910.75
551.325	916.75
551.538	940.75
551.751	916.75
551.964	898.75
552.177	928.75
552.39	933.75
552.603	909.75
552.816	915.75
553.029	928.75
553.242	948.75
553.455	968.75
553.667	946.75
553.88	933.75
554.093	945.75
554.306	942.75
554.519	901.75
554.732	910.75
554.944	914.75
555.157	847.75
555.37	865.75
555.583	859.75
555.795	844.75
556.008	832.75
556.221	815.75
556.433	829.75
556.646	815.75
556.859	800.75
557.071	837.75
557.284	791.75
557.496	810.75
557.709	797.75
557.921	799.75
558.134	782.75
558.346	799.75
558.559	772.75
558.771	796.75
558.984	820.75
559.196	766.75
559.409	805.75
559.621	795.75
559.833	770.75
560.046	780.75
560.258	765.75
560.47	771.75
560.683	771.75
560.895	764.75
561.107	791.75
561.32	775.75
561.532	770.75
561.744	764.75
561.956	754.75
562.168	748.75
562.381	793.75
562.593	785.75
562.805	801.75
563.017	808.75
563.229	768.75
563.441	779.75
563.653	774.75
563.865	789.75
564.077	763.75
564.289	807.75
564.501	809.75
564.713	822.75
564.925	855.75
565.137	846.75
565.349	848.75
565.561	860.75
565.773	867.75
565.985	902.75
566.197	912.75
566.408	956.75
566.62	995.75
566.832	1013.75
567.044	1041.75
567.255	1031.75
567.467	1050.75
567.679	1066.75
567.891	1050.75
568.102	1060.75
568.314	1031.75
568.526	1016.75
568.737	948.75
568.949	918.75
569.161	911.75
569.372	845.75
569.584	816.75
569.795	803.75
570.007	820.75
570.218	790.75
570.43	786.75
570.641	756.75
570.853	750.75
571.064	742.75
571.276	744.75
571.487	734.75
571.698	712.75
571.91	714.75
572.121	702.75
572.333	665.75
572.544	678.75
572.755	678.75
572.966	654.75
573.178	678.75
573.389	630.75
573.6	613.75
573.811	643.75
574.023	630.75
574.234	630.75
574.445	642.75
574.656	624.75
574.867	600.75
575.078	615.75
575.289	601.75
575.501	624.75
575.712	609.75
575.923	592.75
576.134	600.75
576.345	613.75
576.556	610.75
576.767	579.75
576.978	574.75
577.188	598.75
577.399	560.75
577.61	560.75
577.821	582.75
578.032	587.75
578.243	583.75
578.454	578.75
578.665	541.75
578.875	562.75
579.086	568.75
579.297	564.75
579.508	559.75
579.718	551.75
579.929	535.75
580.14	547.75
580.35	533.75
580.561	554.75
580.772	563.75
580.982	547.75
581.193	542.75
581.403	534.75
581.614	557.75
581.825	540.75
582.035	556.75
582.246	533.75
582.456	533.75
582.667	540.75
582.877	527.75
583.087	540.75
583.298	521.75
583.508	526.75
583.719	507.75
583.929	511.75
584.139	508.75
584.35	525.75
584.56	511.75
584.77	515.75
584.981	510.75
585.191	506.75
585.401	525.75
585.611	508.75
585.821	487.75
586.032	496.75
586.242	502.75
586.452	481.75
586.662	489.75
586.872	506.75
587.082	486.75
587.292	511.75
587.502	500.75
587.713	488.75
587.923	518.75
588.133	490.75
588.343	486.75
588.553	501.75
588.762	500.75
588.972	508.75
589.182	527.75
589.392	530.75
589.602	490.75
589.812	512.75
590.022	487.75
590.232	503.75
590.441	512.75
590.651	538.75
590.861	508.75
591.071	503.75
591.281	524.75
591.49	511.75
591.7	500.75
591.91	531.75
592.119	512.75
592.329	522.75
592.539	530.75
592.748	527.75
592.958	536.75
593.167	528.75
593.377	542.75
593.587	571.75
593.796	551.75
594.006	549.75
594.215	563.75
594.424	541.75
594.634	514.75
594.843	530.75
595.053	525.75
595.262	520.75
595.472	511.75
595.681	503.75
595.89	493.75
596.1	473.75
596.309	486.75
596.518	472.75
596.727	466.75
596.937	453.75
597.146	461.75
597.355	440.75
597.564	439.75
597.774	438.75
597.983	454.75
598.192	449.75
598.401	443.75
598.61	431.75
598.819	418.75
599.028	438.75
599.237	436.75
599.446	432.75
599.655	435.75
599.864	426.75
600.073	419.75
600.282	415.75
600.491	398.75
600.7	423.75
600.909	396.75
601.118	416.75
601.327	421.75
601.536	388.75
601.745	398.75
601.953	394.75
602.162	394.75
602.371	408.75
602.58	390.75
602.789	412.75
602.997	410.75
603.206	388.75
603.415	403.75
603.623	399.75
603.832	400.75
604.041	389.75
604.249	400.75
604.458	396.75
604.666	363.75
604.875	394.75
605.084	398.75
605.292	359.75
605.501	382.75
605.709	364.75
605.918	370.75
606.126	386.75
606.334	379.75
606.543	367.75
606.751	371.75
606.96	397.75
607.168	388.75
607.376	376.75
607.585	365.75
607.793	388.75
608.001	374.75
608.21	352.75
608.418	359.75
608.626	381.75
608.834	363.75
609.043	376.75
609.251	372.75
609.459	372.75
609.667	372.75
609.875	377.75
610.083	370.75
610.291	368.75
610.499	376.75
610.707	363.75
610.916	366.75
611.124	356.75
611.332	352.75
611.54	370.75
611.748	357.75
611.955	380.75
612.163	371.75
612.371	354.75
612.579	356.75
612.787	350.75
612.995	384.75
613.203	365.75
613.411	362.75
613.618	366.75
613.826	369.75
614.034	370.75
614.242	362.75
614.449	348.75
614.657	348.75
614.865	355.75
615.072	358.75
615.28	345.75
615.488	355.75
615.695	351.75
615.903	356.75
616.111	350.75
616.318	358.75
616.526	349.75
616.733	357.75
616.941	340.75
617.148	361.75
617.356	370.75
617.563	345.75
617.771	346.75
617.978	350.75
618.185	344.75
618.393	352.75
618.6	340.75
618.807	357.75
619.015	364.75
619.222	339.75
619.429	338.75
619.637	340.75
619.844	339.75
620.051	330.75
620.258	344.75
620.466	322.75
620.673	322.75
620.88	325.75
621.087	310.75
621.294	323.75
621.501	310.75
621.708	306.75
621.915	333.75
622.122	321.75
622.329	327.75
622.536	320.75
622.743	328.75
622.95	332.75
623.157	322.75
623.364	332.75
623.571	340.75
623.778	336.75
623.985	324.75
624.192	296.75
624.399	318.75
624.606	319.75
624.812	315.75
625.019	312.75
625.226	314.75
625.433	300.75
625.639	304.75
625.846	291.75
626.053	295.75
626.259	308.75
626.466	310.75
626.673	293.75
626.879	308.75
627.086	298.75
627.293	287.75
627.499	309.75
627.706	290.75
627.912	289.75
628.119	317.75
628.325	305.75
628.532	308.75
628.738	296.75
628.945	282.75
629.151	275.75
629.357	306.75
629.564	294.75
629.77	300.75
629.976	290.75
630.183	289.75
630.389	284.75
630.595	288.75
630.802	274.75
631.008	280.75
631.214	275.75
631.42	293.75
631.627	287.75
631.833	286.75
632.039	276.75
632.245	284.75
632.451	284.75
632.657	290.75
632.863	276.75
633.069	267.75
633.275	255.75
633.481	270.75
633.688	268.75
633.893	261.75
634.099	278.75
634.305	272.75
634.511	265.75
634.717	265.75
634.923	275.75
635.129	288.75
635.335	282.75
635.541	262.75
635.747	245.75
635.952	256.75
636.158	263.75
636.364	261.75
636.57	257.75
636.775	262.75
636.981	249.75
637.187	246.75
637.392	274.75
637.598	270.75
637.804	247.75
638.009	261.75
638.215	255.75
638.421	260.75
638.626	260.75
638.832	280.75
639.037	267.75
639.243	240.75
639.448	268.75
639.654	259.75
639.859	258.75
640.065	240.75
640.27	256.75
640.475	253.75
640.681	266.75
640.886	243.75
641.091	254.75
641.297	274.75
641.502	256.75
641.707	244.75
641.913	250.75
642.118	246.75
642.323	253.75
642.528	274.75
642.733	245.75
642.939	242.75
643.144	269.75
643.349	262.75
643.554	248.75
643.759	236.75
643.964	225.75
644.169	264.75
644.374	228.75
644.579	245.75
644.784	258.75
644.989	266.75
645.194	240.75
645.399	272.75
645.604	270.75
645.809	251.75
646.014	254.75
646.219	261.75
646.423	239.75
646.628	256.75
646.833	250.75
647.038	263.75
647.243	254.75
647.447	254.75
647.652	255.75
647.857	242.75
648.062	265.75
648.266	260.75
648.471	264.75
648.676	280.75
648.88	263.75
649.085	269.75
649.289	273.75
649.494	256.75
649.698	230.75
649.903	245.75
650.107	270.75
650.312	260.75
650.516	259.75
650.721	244.75
650.925	246.75
651.13	254.75
651.334	256.75
651.539	245.75
651.743	251.75
651.947	251.75
652.152	235.75
652.356	266.75
652.56	226.75
652.764	236.75
652.969	224.75
653.173	236.75
653.377	220.75
653.581	226.75
653.785	232.75
653.99	234.75
654.194	244.75
654.398	226.75
654.602	241.75
654.806	232.75
655.01	228.75
655.214	227.75
655.418	213.75
655.622	232.75
655.826	229.75
656.03	238.75
656.234	222.75
656.438	239.75
656.642	230.75
656.846	227.75
657.049	207.75
657.253	199.75
657.457	191.75
657.661	186.75
657.865	187.75
658.068	178.75
658.272	170.75
658.476	161.75
658.68	142.75
658.883	155.75
659.087	154.75
659.291	134.75
659.494	134.75
659.698	136.75
659.901	126.75
660.105	127.75
660.309	108.75
660.512	113.75
660.716	117.75
660.919	105.75
661.123	116.75
661.326	100.75
661.53	98.75
661.733	91.75
661.936	89.75
662.14	93.75
662.343	85.75
662.546	86.75
662.75	99.75
662.953	91.75
663.156	71.75
663.36	78.75
663.563	83.75
663.766	71.75
663.969	78.75
664.173	78.75
664.376	78.75
664.579	81.75
664.782	98.75
664.985	83.75
665.188	86.75
665.391	91.75
665.594	74.75
665.797	79.75
666	76.75
666.203	70.75
666.406	68.75
666.609	77.75
666.812	76.75
667.015	77.75
667.218	90.75
667.421	59.75
667.624	58.75
667.827	86.75
668.03	93.75
668.232	74.75
668.435	84.75
668.638	72.75
668.841	75.75
669.043	90.75
669.246	65.75
669.449	73.75
669.651	74.75
669.854	82.75
670.057	69.75
670.259	70.75
670.462	71.75
670.665	67.75
670.867	86.75
671.07	69.75
671.272	76.75
671.475	70.75
671.677	72.75
671.88	82.75
672.082	78.75
672.284	78.75
672.487	83.75
672.689	78.75
672.892	76.75
