Data from Fe(NO3)3@0.05M.TitratingCurve.Agarose3%dH2O.NegLispCup.LampEnergy10.LIBS07252019_HRD10591_16-45-42-334.txt Node
Date: Thu Jul 25 16:45:42 EDT 2019
User: cochatt
Spectrometer: HR+D1059
Trigger mode: 1
Integration Time (sec): 1.000000E-1
Scans to average: 1
Electric dark correction enabled: true
Nonlinearity correction enabled: false
Boxcar width: 0
XAxis mode: Wavelengths
Number of Pixels in Spectrum: 2048
>>>>>Begin Spectral Data<<<<<
223.165	4.75
223.4	4.75
223.635	4.75
223.869	-14.25
224.104	-32.25
224.338	-19.25
224.573	-16.25
224.808	-13.25
225.042	-14.25
225.277	-5.25
225.511	-5.25
225.746	10.75
225.98	7.75
226.215	4.75
226.449	13.75
226.683	27.75
226.918	35.75
227.152	14.75
227.387	39.75
227.621	43.75
227.856	49.75
228.09	54.75
228.324	50.75
228.559	48.75
228.793	73.75
229.027	119.75
229.262	130.75
229.496	129.75
229.73	115.75
229.964	120.75
230.199	136.75
230.433	140.75
230.667	132.75
230.901	138.75
231.136	150.75
231.37	139.75
231.604	161.75
231.838	164.75
232.072	149.75
232.306	151.75
232.541	144.75
232.775	159.75
233.009	173.75
233.243	173.75
233.477	182.75
233.711	185.75
233.945	160.75
234.179	160.75
234.413	184.75
234.647	192.75
234.881	197.75
235.115	192.75
235.349	185.75
235.583	170.75
235.817	189.75
236.051	193.75
236.285	187.75
236.519	194.75
236.753	191.75
236.987	201.75
237.221	199.75
237.455	194.75
237.689	208.75
237.922	206.75
238.156	215.75
238.39	225.75
238.624	265.75
238.858	247.75
239.091	221.75
239.325	215.75
239.559	217.75
239.793	237.75
240.027	248.75
240.26	245.75
240.494	231.75
240.728	239.75
240.961	257.75
241.195	243.75
241.429	251.75
241.662	233.75
241.896	242.75
242.13	219.75
242.363	217.75
242.597	226.75
242.83	253.75
243.064	232.75
243.298	241.75
243.531	261.75
243.765	275.75
243.998	253.75
244.232	269.75
244.465	264.75
244.699	259.75
244.932	270.75
245.166	267.75
245.399	251.75
245.633	244.75
245.866	265.75
246.099	258.75
246.333	263.75
246.566	279.75
246.8	288.75
247.033	298.75
247.266	269.75
247.5	286.75
247.733	280.75
247.966	267.75
248.2	281.75
248.433	291.75
248.666	306.75
248.899	314.75
249.133	299.75
249.366	323.75
249.599	321.75
249.832	339.75
250.066	322.75
250.299	311.75
250.532	300.75
250.765	319.75
250.998	313.75
251.231	309.75
251.465	316.75
251.698	317.75
251.931	332.75
252.164	318.75
252.397	334.75
252.63	351.75
252.863	352.75
253.096	375.75
253.329	363.75
253.562	341.75
253.795	364.75
254.028	388.75
254.261	380.75
254.494	359.75
254.727	371.75
254.96	362.75
255.193	371.75
255.426	361.75
255.659	350.75
255.892	350.75
256.124	347.75
256.357	364.75
256.59	383.75
256.823	395.75
257.056	374.75
257.289	352.75
257.521	360.75
257.754	359.75
257.987	363.75
258.22	360.75
258.452	371.75
258.685	401.75
258.918	401.75
259.151	388.75
259.383	394.75
259.616	381.75
259.849	421.75
260.081	523.75
260.314	561.75
260.547	455.75
260.779	422.75
261.012	477.75
261.244	472.75
261.477	467.75
261.71	454.75
261.942	409.75
262.175	416.75
262.407	408.75
262.64	401.75
262.872	452.75
263.105	446.75
263.337	483.75
263.57	485.75
263.802	411.75
264.035	370.75
264.267	422.75
264.499	403.75
264.732	399.75
264.964	411.75
265.197	392.75
265.429	405.75
265.661	390.75
265.894	405.75
266.126	404.75
266.358	414.75
266.591	440.75
266.823	439.75
267.055	427.75
267.287	409.75
267.52	413.75
267.752	421.75
267.984	423.75
268.216	413.75
268.448	451.75
268.681	448.75
268.913	421.75
269.145	442.75
269.377	451.75
269.609	439.75
269.841	419.75
270.073	449.75
270.306	433.75
270.538	451.75
270.77	482.75
271.002	455.75
271.234	448.75
271.466	479.75
271.698	471.75
271.93	473.75
272.162	483.75
272.394	483.75
272.626	450.75
272.858	480.75
273.09	496.75
273.322	473.75
273.553	504.75
273.785	499.75
274.017	565.75
274.249	598.75
274.481	599.75
274.713	635.75
274.945	705.75
275.176	705.75
275.408	651.75
275.64	629.75
275.872	635.75
276.104	585.75
276.335	508.75
276.567	527.75
276.799	540.75
277.031	523.75
277.262	527.75
277.494	517.75
277.726	488.75
277.957	518.75
278.189	498.75
278.421	508.75
278.652	519.75
278.884	532.75
279.115	515.75
279.347	540.75
279.579	518.75
279.81	528.75
280.042	524.75
280.273	510.75
280.505	517.75
280.736	523.75
280.968	501.75
281.199	502.75
281.431	540.75
281.662	532.75
281.894	527.75
282.125	525.75
282.356	527.75
282.588	527.75
282.819	528.75
283.051	532.75
283.282	538.75
283.513	569.75
283.745	540.75
283.976	538.75
284.207	543.75
284.439	555.75
284.67	581.75
284.901	569.75
285.132	560.75
285.364	553.75
285.595	579.75
285.826	564.75
286.057	572.75
286.288	556.75
286.52	553.75
286.751	582.75
286.982	560.75
287.213	571.75
287.444	582.75
287.675	592.75
287.906	590.75
288.138	550.75
288.369	582.75
288.6	577.75
288.831	585.75
289.062	608.75
289.293	586.75
289.524	558.75
289.755	581.75
289.986	595.75
290.217	584.75
290.448	571.75
290.679	564.75
290.91	592.75
291.141	571.75
291.371	575.75
291.602	571.75
291.833	579.75
292.064	592.75
292.295	598.75
292.526	610.75
292.757	604.75
292.987	592.75
293.218	585.75
293.449	600.75
293.68	599.75
293.91	586.75
294.141	603.75
294.372	595.75
294.603	595.75
294.833	597.75
295.064	624.75
295.295	609.75
295.525	611.75
295.756	602.75
295.987	609.75
296.217	606.75
296.448	608.75
296.679	628.75
296.909	611.75
297.14	627.75
297.37	616.75
297.601	641.75
297.831	621.75
298.062	626.75
298.292	609.75
298.523	655.75
298.753	647.75
298.984	643.75
299.214	634.75
299.445	625.75
299.675	643.75
299.905	661.75
300.136	632.75
300.366	640.75
300.597	644.75
300.827	640.75
301.057	658.75
301.288	657.75
301.518	699.75
301.748	669.75
301.979	664.75
302.209	690.75
302.439	681.75
302.669	679.75
302.9	684.75
303.13	665.75
303.36	683.75
303.59	672.75
303.82	676.75
304.051	692.75
304.281	645.75
304.511	684.75
304.741	663.75
304.971	651.75
305.201	667.75
305.431	681.75
305.661	663.75
305.891	660.75
306.121	683.75
306.352	654.75
306.582	653.75
306.812	659.75
307.042	685.75
307.272	691.75
307.502	668.75
307.731	659.75
307.961	668.75
308.191	668.75
308.421	666.75
308.651	661.75
308.881	679.75
309.111	678.75
309.341	684.75
309.571	698.75
309.8	678.75
310.03	707.75
310.26	668.75
310.49	703.75
310.72	674.75
310.949	677.75
311.179	696.75
311.409	710.75
311.639	692.75
311.868	683.75
312.098	707.75
312.328	703.75
312.557	695.75
312.787	692.75
313.017	713.75
313.246	720.75
313.476	710.75
313.706	708.75
313.935	725.75
314.165	724.75
314.394	723.75
314.624	723.75
314.853	751.75
315.083	720.75
315.312	743.75
315.542	773.75
315.771	721.75
316.001	706.75
316.23	721.75
316.46	748.75
316.689	771.75
316.919	732.75
317.148	761.75
317.377	735.75
317.607	720.75
317.836	758.75
318.065	768.75
318.295	728.75
318.524	733.75
318.753	741.75
318.983	752.75
319.212	714.75
319.441	751.75
319.67	739.75
319.9	748.75
320.129	743.75
320.358	741.75
320.587	745.75
320.816	763.75
321.046	748.75
321.275	763.75
321.504	741.75
321.733	757.75
321.962	767.75
322.191	760.75
322.42	771.75
322.649	780.75
322.878	747.75
323.108	776.75
323.337	775.75
323.566	780.75
323.795	782.75
324.024	787.75
324.253	776.75
324.482	779.75
324.71	745.75
324.939	769.75
325.168	798.75
325.397	787.75
325.626	791.75
325.855	787.75
326.084	804.75
326.313	789.75
326.542	770.75
326.77	791.75
326.999	811.75
327.228	777.75
327.457	792.75
327.686	811.75
327.914	802.75
328.143	818.75
328.372	817.75
328.6	795.75
328.829	795.75
329.058	801.75
329.287	803.75
329.515	809.75
329.744	805.75
329.972	832.75
330.201	819.75
330.43	838.75
330.658	822.75
330.887	849.75
331.115	858.75
331.344	843.75
331.572	843.75
331.801	820.75
332.03	802.75
332.258	849.75
332.486	853.75
332.715	885.75
332.943	866.75
333.172	872.75
333.4	903.75
333.629	900.75
333.857	930.75
334.085	920.75
334.314	903.75
334.542	897.75
334.771	910.75
334.999	918.75
335.227	923.75
335.455	939.75
335.684	961.75
335.912	931.75
336.14	908.75
336.369	912.75
336.597	912.75
336.825	932.75
337.053	913.75
337.281	925.75
337.51	919.75
337.738	899.75
337.966	877.75
338.194	889.75
338.422	901.75
338.65	884.75
338.878	875.75
339.106	880.75
339.334	874.75
339.562	872.75
339.79	876.75
340.018	870.75
340.246	845.75
340.474	886.75
340.702	858.75
340.93	859.75
341.158	859.75
341.386	856.75
341.614	851.75
341.842	869.75
342.07	873.75
342.298	843.75
342.526	846.75
342.754	841.75
342.981	890.75
343.209	851.75
343.437	872.75
343.665	879.75
343.893	935.75
344.12	968.75
344.348	939.75
344.576	919.75
344.804	906.75
345.031	848.75
345.259	897.75
345.487	873.75
345.714	860.75
345.942	840.75
346.17	824.75
346.397	864.75
346.625	862.75
346.853	827.75
347.08	837.75
347.308	854.75
347.535	828.75
347.763	833.75
347.99	815.75
348.218	805.75
348.445	813.75
348.673	812.75
348.9	828.75
349.128	828.75
349.355	839.75
349.583	833.75
349.81	817.75
350.037	825.75
350.265	830.75
350.492	817.75
350.72	852.75
350.947	819.75
351.174	830.75
351.402	816.75
351.629	831.75
351.856	807.75
352.083	838.75
352.311	828.75
352.538	798.75
352.765	816.75
352.992	790.75
353.22	829.75
353.447	810.75
353.674	802.75
353.901	819.75
354.128	839.75
354.355	823.75
354.583	819.75
354.81	828.75
355.037	784.75
355.264	844.75
355.491	812.75
355.718	831.75
355.945	837.75
356.172	808.75
356.399	837.75
356.626	858.75
356.853	823.75
357.08	823.75
357.307	857.75
357.534	852.75
357.761	844.75
357.988	849.75
358.215	870.75
358.441	869.75
358.668	855.75
358.895	838.75
359.122	855.75
359.349	840.75
359.576	838.75
359.802	831.75
360.029	837.75
360.256	810.75
360.483	810.75
360.709	832.75
360.936	844.75
361.163	842.75
361.39	832.75
361.616	828.75
361.843	840.75
362.07	837.75
362.296	826.75
362.523	851.75
362.749	846.75
362.976	824.75
363.203	894.75
363.429	864.75
363.656	865.75
363.882	835.75
364.109	837.75
364.335	853.75
364.562	855.75
364.788	860.75
365.015	861.75
365.241	851.75
365.468	825.75
365.694	859.75
365.92	887.75
366.147	831.75
366.373	866.75
366.599	857.75
366.826	841.75
367.052	865.75
367.278	835.75
367.505	866.75
367.731	858.75
367.957	881.75
368.184	874.75
368.41	883.75
368.636	885.75
368.862	909.75
369.089	882.75
369.315	883.75
369.541	881.75
369.767	894.75
369.993	886.75
370.219	881.75
370.445	883.75
370.672	903.75
370.898	923.75
371.124	927.75
371.35	892.75
371.576	923.75
371.802	938.75
372.028	935.75
372.254	944.75
372.48	949.75
372.706	955.75
372.932	960.75
373.158	924.75
373.384	959.75
373.61	969.75
373.835	999.75
374.061	948.75
374.287	928.75
374.513	956.75
374.739	967.75
374.965	984.75
375.191	1020.75
375.416	970.75
375.642	947.75
375.868	926.75
376.094	947.75
376.319	959.75
376.545	970.75
376.771	955.75
376.997	918.75
377.222	917.75
377.448	929.75
377.674	895.75
377.899	932.75
378.125	937.75
378.35	926.75
378.576	905.75
378.802	912.75
379.027	950.75
379.253	935.75
379.478	918.75
379.704	948.75
379.929	938.75
380.155	922.75
380.38	914.75
380.606	932.75
380.831	946.75
381.057	968.75
381.282	937.75
381.507	956.75
381.733	976.75
381.958	984.75
382.184	1015.75
382.409	1019.75
382.634	988.75
382.86	1004.75
383.085	993.75
383.31	976.75
383.535	1003.75
383.761	997.75
383.986	1015.75
384.211	1021.75
384.436	1017.75
384.662	1010.75
384.887	1062.75
385.112	1022.75
385.337	1018.75
385.562	1038.75
385.787	1059.75
386.013	1071.75
386.238	1081.75
386.463	1060.75
386.688	1064.75
386.913	1059.75
387.138	1050.75
387.363	1080.75
387.588	1083.75
387.813	1073.75
388.038	1101.75
388.263	1073.75
388.488	1100.75
388.713	1086.75
388.938	1075.75
389.163	1081.75
389.387	1089.75
389.612	1055.75
389.837	1091.75
390.062	1076.75
390.287	1092.75
390.512	1078.75
390.736	1077.75
390.961	1118.75
391.186	1104.75
391.411	1116.75
391.636	1141.75
391.86	1143.75
392.085	1151.75
392.31	1171.75
392.534	1177.75
392.759	1155.75
392.984	1137.75
393.208	1147.75
393.433	1133.75
393.658	1153.75
393.882	1127.75
394.107	1131.75
394.331	1165.75
394.556	1141.75
394.78	1166.75
395.005	1137.75
395.229	1159.75
395.454	1153.75
395.678	1189.75
395.903	1162.75
396.127	1194.75
396.352	1177.75
396.576	1167.75
396.801	1154.75
397.025	1199.75
397.249	1205.75
397.474	1233.75
397.698	1211.75
397.922	1239.75
398.147	1193.75
398.371	1212.75
398.595	1247.75
398.82	1277.75
399.044	1343.75
399.268	1357.75
399.492	1437.75
399.717	1477.75
399.941	1493.75
400.165	1490.75
400.389	1424.75
400.613	1402.75
400.837	1356.75
401.062	1351.75
401.286	1325.75
401.51	1313.75
401.734	1298.75
401.958	1307.75
402.182	1297.75
402.406	1292.75
402.63	1316.75
402.854	1302.75
403.078	1303.75
403.302	1312.75
403.526	1322.75
403.75	1337.75
403.974	1341.75
404.198	1298.75
404.422	1338.75
404.645	1331.75
404.869	1357.75
405.093	1364.75
405.317	1335.75
405.541	1347.75
405.765	1357.75
405.988	1333.75
406.212	1384.75
406.436	1384.75
406.66	1407.75
406.883	1389.75
407.107	1421.75
407.331	1460.75
407.555	1505.75
407.778	1494.75
408.002	1450.75
408.226	1444.75
408.449	1453.75
408.673	1437.75
408.896	1479.75
409.12	1407.75
409.344	1415.75
409.567	1401.75
409.791	1427.75
410.014	1399.75
410.238	1393.75
410.461	1397.75
410.685	1385.75
410.908	1360.75
411.132	1344.75
411.355	1333.75
411.578	1345.75
411.802	1351.75
412.025	1341.75
412.249	1364.75
412.472	1368.75
412.695	1348.75
412.919	1328.75
413.142	1319.75
413.365	1299.75
413.589	1315.75
413.812	1324.75
414.035	1330.75
414.258	1310.75
414.482	1323.75
414.705	1342.75
414.928	1338.75
415.151	1313.75
415.374	1304.75
415.597	1315.75
415.821	1257.75
416.044	1285.75
416.267	1240.75
416.49	1277.75
416.713	1277.75
416.936	1286.75
417.159	1259.75
417.382	1272.75
417.605	1253.75
417.828	1222.75
418.051	1279.75
418.274	1254.75
418.497	1245.75
418.72	1271.75
418.943	1259.75
419.166	1293.75
419.389	1400.75
419.611	1372.75
419.834	1320.75
420.057	1331.75
420.28	1290.75
420.503	1249.75
420.726	1197.75
420.948	1187.75
421.171	1221.75
421.394	1264.75
421.617	1245.75
421.839	1225.75
422.062	1264.75
422.285	1233.75
422.507	1230.75
422.73	1271.75
422.953	1233.75
423.175	1236.75
423.398	1262.75
423.621	1237.75
423.843	1273.75
424.066	1256.75
424.288	1241.75
424.511	1215.75
424.733	1244.75
424.956	1224.75
425.178	1233.75
425.401	1249.75
425.623	1279.75
425.846	1248.75
426.068	1216.75
426.291	1240.75
426.513	1236.75
426.735	1232.75
426.958	1222.75
427.18	1186.75
427.402	1231.75
427.625	1238.75
427.847	1189.75
428.069	1198.75
428.292	1235.75
428.514	1191.75
428.736	1211.75
428.958	1223.75
429.181	1195.75
429.403	1185.75
429.625	1200.75
429.847	1162.75
430.069	1193.75
430.292	1193.75
430.514	1189.75
430.736	1197.75
430.958	1236.75
431.18	1181.75
431.402	1192.75
431.624	1178.75
431.846	1190.75
432.068	1201.75
432.29	1217.75
432.512	1203.75
432.734	1226.75
432.956	1215.75
433.178	1208.75
433.4	1185.75
433.622	1226.75
433.844	1255.75
434.066	1219.75
434.287	1212.75
434.509	1266.75
434.731	1251.75
434.953	1241.75
435.175	1257.75
435.397	1235.75
435.618	1250.75
435.84	1226.75
436.062	1211.75
436.284	1207.75
436.505	1178.75
436.727	1181.75
436.949	1199.75
437.17	1191.75
437.392	1183.75
437.614	1189.75
437.835	1200.75
438.057	1187.75
438.278	1191.75
438.5	1203.75
438.721	1171.75
438.943	1175.75
439.165	1159.75
439.386	1156.75
439.608	1228.75
439.829	1177.75
440.05	1205.75
440.272	1176.75
440.493	1233.75
440.715	1261.75
440.936	1208.75
441.158	1217.75
441.379	1247.75
441.6	1241.75
441.822	1242.75
442.043	1213.75
442.264	1274.75
442.486	1227.75
442.707	1257.75
442.928	1246.75
443.149	1224.75
443.371	1235.75
443.592	1247.75
443.813	1211.75
444.034	1264.75
444.255	1318.75
444.476	1275.75
444.698	1297.75
444.919	1294.75
445.14	1391.75
445.361	1283.75
445.582	1308.75
445.803	1237.75
446.024	1237.75
446.245	1216.75
446.466	1217.75
446.687	1230.75
446.908	1226.75
447.129	1169.75
447.35	1165.75
447.571	1155.75
447.792	1139.75
448.013	1139.75
448.234	1127.75
448.455	1148.75
448.675	1096.75
448.896	1090.75
449.117	1111.75
449.338	1117.75
449.559	1088.75
449.779	1090.75
450	1104.75
450.221	1108.75
450.442	1089.75
450.662	1090.75
450.883	1084.75
451.104	1122.75
451.324	1107.75
451.545	1096.75
451.766	1088.75
451.986	1065.75
452.207	1048.75
452.428	1063.75
452.648	1093.75
452.869	1064.75
453.089	1045.75
453.31	1065.75
453.53	1037.75
453.751	1043.75
453.971	1056.75
454.192	1029.75
454.412	1037.75
454.633	1041.75
454.853	1062.75
455.073	1038.75
455.294	1067.75
455.514	1067.75
455.734	1036.75
455.955	1053.75
456.175	1059.75
456.395	1040.75
456.616	1066.75
456.836	1057.75
457.056	1047.75
457.276	1039.75
457.497	1052.75
457.717	1061.75
457.937	1089.75
458.157	1089.75
458.377	1055.75
458.598	1095.75
458.818	1128.75
459.038	1144.75
459.258	1118.75
459.478	1147.75
459.698	1190.75
459.918	1197.75
460.138	1220.75
460.358	1205.75
460.578	1225.75
460.798	1280.75
461.018	1302.75
461.238	1272.75
461.458	1310.75
461.678	1280.75
461.898	1350.75
462.118	1314.75
462.338	1349.75
462.558	1355.75
462.777	1407.75
462.997	1422.75
463.217	1459.75
463.437	1445.75
463.657	1413.75
463.876	1439.75
464.096	1430.75
464.316	1352.75
464.536	1400.75
464.755	1383.75
464.975	1361.75
465.195	1298.75
465.414	1319.75
465.634	1250.75
465.854	1213.75
466.073	1222.75
466.293	1216.75
466.512	1211.75
466.732	1201.75
466.951	1192.75
467.171	1165.75
467.391	1195.75
467.61	1158.75
467.829	1159.75
468.049	1147.75
468.268	1122.75
468.488	1151.75
468.707	1135.75
468.927	1196.75
469.146	1157.75
469.365	1191.75
469.585	1162.75
469.804	1195.75
470.023	1182.75
470.243	1152.75
470.462	1186.75
470.681	1165.75
470.901	1160.75
471.12	1236.75
471.339	1179.75
471.558	1217.75
471.777	1176.75
471.997	1171.75
472.216	1205.75
472.435	1183.75
472.654	1136.75
472.873	1137.75
473.092	1155.75
473.311	1167.75
473.53	1194.75
473.749	1171.75
473.968	1194.75
474.187	1150.75
474.406	1164.75
474.625	1199.75
474.844	1189.75
475.063	1179.75
475.282	1180.75
475.501	1172.75
475.72	1207.75
475.939	1215.75
476.158	1235.75
476.377	1244.75
476.596	1323.75
476.814	1344.75
477.033	1263.75
477.252	1263.75
477.471	1264.75
477.69	1288.75
477.908	1319.75
478.127	1321.75
478.346	1337.75
478.564	1337.75
478.783	1388.75
479.002	1375.75
479.22	1413.75
479.439	1481.75
479.658	1439.75
479.876	1402.75
480.095	1400.75
480.313	1421.75
480.532	1425.75
480.751	1420.75
480.969	1397.75
481.188	1430.75
481.406	1448.75
481.624	1438.75
481.843	1407.75
482.061	1388.75
482.28	1417.75
482.498	1397.75
482.717	1392.75
482.935	1420.75
483.153	1417.75
483.372	1411.75
483.59	1447.75
483.808	1458.75
484.027	1409.75
484.245	1426.75
484.463	1391.75
484.681	1457.75
484.9	1424.75
485.118	1453.75
485.336	1414.75
485.554	1434.75
485.772	1466.75
485.99	1459.75
486.209	1441.75
486.427	1415.75
486.645	1473.75
486.863	1452.75
487.081	1455.75
487.299	1446.75
487.517	1438.75
487.735	1448.75
487.953	1427.75
488.171	1489.75
488.389	1464.75
488.607	1461.75
488.825	1432.75
489.043	1425.75
489.261	1456.75
489.479	1431.75
489.696	1464.75
489.914	1403.75
490.132	1462.75
490.35	1445.75
490.568	1439.75
490.786	1443.75
491.003	1454.75
491.221	1463.75
491.439	1475.75
491.657	1487.75
491.874	1451.75
492.092	1482.75
492.31	1539.75
492.527	1510.75
492.745	1526.75
492.963	1489.75
493.18	1485.75
493.398	1486.75
493.615	1487.75
493.833	1493.75
494.05	1499.75
494.268	1488.75
494.485	1478.75
494.703	1516.75
494.92	1511.75
495.138	1520.75
495.355	1488.75
495.573	1528.75
495.79	1500.75
496.008	1565.75
496.225	1573.75
496.442	1540.75
496.66	1584.75
496.877	1566.75
497.094	1617.75
497.312	1642.75
497.529	1643.75
497.746	1660.75
497.963	1709.75
498.181	1749.75
498.398	1768.75
498.615	1822.75
498.832	1881.75
499.049	1965.75
499.267	1984.75
499.484	2113.75
499.701	2183.75
499.918	2292.75
500.135	2385.75
500.352	2500.75
500.569	2551.75
500.786	2443.75
501.003	2510.75
501.22	2418.75
501.437	2261.75
501.654	2122.75
501.871	2120.75
502.088	2007.75
502.305	1940.75
502.522	1878.75
502.739	1790.75
502.956	1779.75
503.172	1753.75
503.389	1704.75
503.606	1632.75
503.823	1617.75
504.04	1587.75
504.256	1575.75
504.473	1587.75
504.69	1568.75
504.907	1567.75
505.123	1536.75
505.34	1468.75
505.557	1452.75
505.773	1416.75
505.99	1419.75
506.207	1398.75
506.423	1397.75
506.64	1375.75
506.856	1332.75
507.073	1349.75
507.289	1316.75
507.506	1337.75
507.722	1301.75
507.939	1333.75
508.155	1294.75
508.372	1277.75
508.588	1235.75
508.805	1256.75
509.021	1212.75
509.238	1236.75
509.454	1232.75
509.67	1183.75
509.887	1208.75
510.103	1207.75
510.319	1218.75
510.536	1211.75
510.752	1182.75
510.968	1163.75
511.184	1168.75
511.401	1163.75
511.617	1142.75
511.833	1145.75
512.049	1180.75
512.265	1156.75
512.481	1147.75
512.698	1147.75
512.914	1196.75
513.13	1187.75
513.346	1173.75
513.562	1156.75
513.778	1145.75
513.994	1171.75
514.21	1157.75
514.426	1184.75
514.642	1181.75
514.858	1188.75
515.074	1203.75
515.29	1162.75
515.506	1185.75
515.721	1208.75
515.937	1211.75
516.153	1219.75
516.369	1219.75
516.585	1248.75
516.801	1251.75
517.016	1278.75
517.232	1292.75
517.448	1314.75
517.664	1319.75
517.879	1268.75
518.095	1285.75
518.311	1311.75
518.527	1234.75
518.742	1263.75
518.958	1232.75
519.173	1217.75
519.389	1217.75
519.605	1215.75
519.82	1188.75
520.036	1301.75
520.251	1255.75
520.467	1173.75
520.682	1139.75
520.898	1156.75
521.113	1130.75
521.329	1104.75
521.544	1126.75
521.76	1149.75
521.975	1082.75
522.19	1052.75
522.406	1127.75
522.621	1091.75
522.836	1087.75
523.052	1119.75
523.267	1081.75
523.482	1099.75
523.698	1081.75
523.913	1061.75
524.128	1101.75
524.343	1073.75
524.559	1045.75
524.774	1037.75
524.989	1047.75
525.204	1036.75
525.419	1078.75
525.634	1071.75
525.849	1035.75
526.064	1047.75
526.28	1063.75
526.495	1074.75
526.71	1051.75
526.925	1045.75
527.14	1026.75
527.355	1031.75
527.57	1017.75
527.785	1006.75
527.999	994.75
528.214	1018.75
528.429	983.75
528.644	985.75
528.859	1035.75
529.074	1035.75
529.289	1053.75
529.503	1004.75
529.718	1041.75
529.933	991.75
530.148	967.75
530.363	995.75
530.577	992.75
530.792	972.75
531.007	981.75
531.221	991.75
531.436	1013.75
531.651	976.75
531.865	961.75
532.08	979.75
532.295	985.75
532.509	988.75
532.724	971.75
532.938	1027.75
533.153	992.75
533.367	970.75
533.582	973.75
533.796	989.75
534.011	955.75
534.225	953.75
534.44	929.75
534.654	951.75
534.868	951.75
535.083	955.75
535.297	940.75
535.511	957.75
535.726	935.75
535.94	936.75
536.154	936.75
536.369	939.75
536.583	952.75
536.797	933.75
537.011	960.75
537.225	922.75
537.44	927.75
537.654	927.75
537.868	902.75
538.082	901.75
538.296	890.75
538.51	888.75
538.724	929.75
538.938	913.75
539.153	931.75
539.367	888.75
539.581	910.75
539.795	893.75
540.009	911.75
540.222	899.75
540.436	930.75
540.65	882.75
540.864	892.75
541.078	892.75
541.292	916.75
541.506	913.75
541.72	917.75
541.934	907.75
542.147	925.75
542.361	903.75
542.575	887.75
542.789	887.75
543.002	912.75
543.216	899.75
543.43	893.75
543.644	887.75
543.857	903.75
544.071	891.75
544.285	900.75
544.498	909.75
544.712	914.75
544.925	905.75
545.139	854.75
545.352	905.75
545.566	869.75
545.779	896.75
545.993	918.75
546.206	887.75
546.42	884.75
546.633	894.75
546.847	915.75
547.06	915.75
547.274	906.75
547.487	906.75
547.7	907.75
547.914	906.75
548.127	899.75
548.34	924.75
548.554	890.75
548.767	913.75
548.98	898.75
549.193	895.75
549.407	893.75
549.62	943.75
549.833	922.75
550.046	901.75
550.259	913.75
550.473	857.75
550.686	872.75
550.899	891.75
551.112	885.75
551.325	897.75
551.538	890.75
551.751	860.75
551.964	852.75
552.177	882.75
552.39	866.75
552.603	897.75
552.816	881.75
553.029	910.75
553.242	903.75
553.455	916.75
553.667	900.75
553.88	903.75
554.093	896.75
554.306	868.75
554.519	863.75
554.732	881.75
554.944	863.75
555.157	817.75
555.37	816.75
555.583	838.75
555.795	827.75
556.008	819.75
556.221	793.75
556.433	816.75
556.646	800.75
556.859	815.75
557.071	819.75
557.284	792.75
557.496	787.75
557.709	786.75
557.921	791.75
558.134	759.75
558.346	768.75
558.559	775.75
558.771	763.75
558.984	759.75
559.196	765.75
559.409	763.75
559.621	729.75
559.833	724.75
560.046	758.75
560.258	749.75
560.47	753.75
560.683	760.75
560.895	738.75
561.107	763.75
561.32	759.75
561.532	751.75
561.744	773.75
561.956	763.75
562.168	741.75
562.381	767.75
562.593	748.75
562.805	743.75
563.017	769.75
563.229	753.75
563.441	704.75
563.653	751.75
563.865	770.75
564.077	755.75
564.289	758.75
564.501	782.75
564.713	799.75
564.925	790.75
565.137	786.75
565.349	767.75
565.561	799.75
565.773	853.75
565.985	876.75
566.197	875.75
566.408	890.75
566.62	897.75
566.832	945.75
567.044	946.75
567.255	963.75
567.467	968.75
567.679	975.75
567.891	972.75
568.102	963.75
568.314	916.75
568.526	910.75
568.737	906.75
568.949	888.75
569.161	819.75
569.372	776.75
569.584	773.75
569.795	759.75
570.007	745.75
570.218	742.75
570.43	726.75
570.641	722.75
570.853	741.75
571.064	744.75
571.276	703.75
571.487	680.75
571.698	662.75
571.91	673.75
572.121	666.75
572.333	657.75
572.544	670.75
572.755	647.75
572.966	634.75
573.178	612.75
573.389	619.75
573.6	618.75
573.811	615.75
574.023	613.75
574.234	604.75
574.445	614.75
574.656	592.75
574.867	608.75
575.078	610.75
575.289	592.75
575.501	594.75
575.712	570.75
575.923	592.75
576.134	584.75
576.345	579.75
576.556	596.75
576.767	569.75
576.978	557.75
577.188	580.75
577.399	548.75
577.61	561.75
577.821	559.75
578.032	577.75
578.243	560.75
578.454	562.75
578.665	540.75
578.875	551.75
579.086	535.75
579.297	536.75
579.508	560.75
579.718	523.75
579.929	547.75
580.14	535.75
580.35	535.75
580.561	547.75
580.772	531.75
580.982	520.75
581.193	520.75
581.403	528.75
581.614	508.75
581.825	510.75
582.035	507.75
582.246	508.75
582.456	522.75
582.667	516.75
582.877	503.75
583.087	531.75
583.298	504.75
583.508	498.75
583.719	499.75
583.929	495.75
584.139	490.75
584.35	500.75
584.56	500.75
584.77	492.75
584.981	503.75
585.191	497.75
585.401	491.75
585.611	501.75
585.821	496.75
586.032	513.75
586.242	492.75
586.452	486.75
586.662	502.75
586.872	486.75
587.082	493.75
587.292	506.75
587.502	468.75
587.713	469.75
587.923	474.75
588.133	501.75
588.343	497.75
588.553	473.75
588.762	501.75
588.972	509.75
589.182	527.75
589.392	496.75
589.602	480.75
589.812	525.75
590.022	487.75
590.232	493.75
590.441	481.75
590.651	476.75
590.861	471.75
591.071	486.75
591.281	503.75
591.49	490.75
591.7	486.75
591.91	483.75
592.119	486.75
592.329	479.75
592.539	500.75
592.748	504.75
592.958	512.75
593.167	508.75
593.377	491.75
593.587	503.75
593.796	509.75
594.006	505.75
594.215	512.75
594.424	504.75
594.634	517.75
594.843	491.75
595.053	506.75
595.262	485.75
595.472	483.75
595.681	452.75
595.89	461.75
596.1	476.75
596.309	472.75
596.518	446.75
596.727	455.75
596.937	445.75
597.146	437.75
597.355	464.75
597.564	431.75
597.774	429.75
597.983	424.75
598.192	446.75
598.401	424.75
598.61	412.75
598.819	420.75
599.028	384.75
599.237	396.75
599.446	402.75
599.655	425.75
599.864	419.75
600.073	419.75
600.282	428.75
600.491	407.75
600.7	379.75
600.909	409.75
601.118	391.75
601.327	401.75
601.536	396.75
601.745	393.75
601.953	401.75
602.162	400.75
602.371	403.75
602.58	409.75
602.789	408.75
602.997	383.75
603.206	391.75
603.415	387.75
603.623	411.75
603.832	396.75
604.041	391.75
604.249	369.75
604.458	401.75
604.666	395.75
604.875	375.75
605.084	381.75
605.292	359.75
605.501	387.75
605.709	385.75
605.918	374.75
606.126	362.75
606.334	362.75
606.543	384.75
606.751	383.75
606.96	378.75
607.168	377.75
607.376	364.75
607.585	364.75
607.793	367.75
608.001	373.75
608.21	359.75
608.418	355.75
608.626	350.75
608.834	364.75
609.043	354.75
609.251	376.75
609.459	355.75
609.667	362.75
609.875	372.75
610.083	386.75
610.291	346.75
610.499	361.75
610.707	357.75
610.916	366.75
611.124	377.75
611.332	363.75
611.54	351.75
611.748	349.75
611.955	362.75
612.163	363.75
612.371	343.75
612.579	354.75
612.787	341.75
612.995	358.75
613.203	350.75
613.411	341.75
613.618	343.75
613.826	364.75
614.034	353.75
614.242	356.75
614.449	342.75
614.657	342.75
614.865	361.75
615.072	344.75
615.28	343.75
615.488	339.75
615.695	354.75
615.903	341.75
616.111	348.75
616.318	367.75
616.526	316.75
616.733	343.75
616.941	330.75
617.148	342.75
617.356	350.75
617.563	349.75
617.771	344.75
617.978	338.75
618.185	328.75
618.393	348.75
618.6	345.75
618.807	342.75
619.015	316.75
619.222	333.75
619.429	336.75
619.637	328.75
619.844	346.75
620.051	340.75
620.258	325.75
620.466	328.75
620.673	327.75
620.88	306.75
621.087	303.75
621.294	316.75
621.501	322.75
621.708	316.75
621.915	307.75
622.122	311.75
622.329	329.75
622.536	325.75
622.743	310.75
622.95	324.75
623.157	311.75
623.364	319.75
623.571	295.75
623.778	319.75
623.985	300.75
624.192	305.75
624.399	296.75
624.606	309.75
624.812	313.75
625.019	305.75
625.226	319.75
625.433	322.75
625.639	318.75
625.846	309.75
626.053	313.75
626.259	295.75
626.466	296.75
626.673	295.75
626.879	298.75
627.086	305.75
627.293	298.75
627.499	292.75
627.706	272.75
627.912	317.75
628.119	293.75
628.325	301.75
628.532	304.75
628.738	292.75
628.945	300.75
629.151	309.75
629.357	277.75
629.564	283.75
629.77	279.75
629.976	282.75
630.183	300.75
630.389	272.75
630.595	284.75
630.802	292.75
631.008	286.75
631.214	289.75
631.42	292.75
631.627	282.75
631.833	275.75
632.039	285.75
632.245	279.75
632.451	282.75
632.657	281.75
632.863	274.75
633.069	283.75
633.275	264.75
633.481	253.75
633.688	266.75
633.893	272.75
634.099	275.75
634.305	259.75
634.511	265.75
634.717	279.75
634.923	261.75
635.129	253.75
635.335	268.75
635.541	266.75
635.747	253.75
635.952	260.75
636.158	264.75
636.364	243.75
636.57	262.75
636.775	262.75
636.981	253.75
637.187	259.75
637.392	249.75
637.598	247.75
637.804	256.75
638.009	262.75
638.215	255.75
638.421	249.75
638.626	263.75
638.832	261.75
639.037	239.75
639.243	254.75
639.448	260.75
639.654	266.75
639.859	260.75
640.065	267.75
640.27	259.75
640.475	256.75
640.681	261.75
640.886	251.75
641.091	265.75
641.297	256.75
641.502	249.75
641.707	233.75
641.913	249.75
642.118	257.75
642.323	260.75
642.528	248.75
642.733	260.75
642.939	228.75
643.144	255.75
643.349	252.75
643.554	245.75
643.759	247.75
643.964	242.75
644.169	268.75
644.374	249.75
644.579	249.75
644.784	246.75
644.989	255.75
645.194	248.75
645.399	264.75
645.604	256.75
645.809	243.75
646.014	257.75
646.219	250.75
646.423	261.75
646.628	248.75
646.833	230.75
647.038	246.75
647.243	256.75
647.447	250.75
647.652	276.75
647.857	257.75
648.062	253.75
648.266	256.75
648.471	257.75
648.676	279.75
648.88	261.75
649.085	279.75
649.289	255.75
649.494	241.75
649.698	262.75
649.903	243.75
650.107	249.75
650.312	275.75
650.516	249.75
650.721	263.75
650.925	275.75
651.13	247.75
651.334	249.75
651.539	251.75
651.743	239.75
651.947	237.75
652.152	228.75
652.356	243.75
652.56	243.75
652.764	260.75
652.969	233.75
653.173	220.75
653.377	231.75
653.581	233.75
653.785	229.75
653.99	231.75
654.194	238.75
654.398	236.75
654.602	258.75
654.806	250.75
655.01	248.75
655.214	246.75
655.418	213.75
655.622	247.75
655.826	250.75
656.03	248.75
656.234	277.75
656.438	272.75
656.642	267.75
656.846	261.75
657.049	245.75
657.253	230.75
657.457	225.75
657.661	188.75
657.865	192.75
658.068	185.75
658.272	172.75
658.476	159.75
658.68	175.75
658.883	151.75
659.087	160.75
659.291	151.75
659.494	139.75
659.698	155.75
659.901	135.75
660.105	133.75
660.309	127.75
660.512	116.75
660.716	118.75
660.919	113.75
661.123	118.75
661.326	115.75
661.53	101.75
661.733	100.75
661.936	105.75
662.14	99.75
662.343	109.75
662.546	96.75
662.75	88.75
662.953	95.75
663.156	88.75
663.36	83.75
663.563	84.75
663.766	85.75
663.969	90.75
664.173	85.75
664.376	84.75
664.579	89.75
664.782	72.75
664.985	80.75
665.188	89.75
665.391	77.75
665.594	68.75
665.797	79.75
666	84.75
666.203	92.75
666.406	84.75
666.609	78.75
666.812	77.75
667.015	91.75
667.218	81.75
667.421	81.75
667.624	80.75
667.827	80.75
668.03	72.75
668.232	76.75
668.435	78.75
668.638	89.75
668.841	82.75
669.043	91.75
669.246	80.75
669.449	84.75
669.651	67.75
669.854	69.75
670.057	83.75
670.259	83.75
670.462	95.75
670.665	82.75
670.867	86.75
671.07	71.75
671.272	82.75
671.475	86.75
671.677	74.75
671.88	83.75
672.082	81.75
672.284	88.75
672.487	91.75
672.689	85.75
672.892	77.75
