Data from Fe(NO3)3@0.05M.TitratingCurve.Agarose3%dH2O.NegLispCup.LampEnergy10.LIBS07252019_HRD10591_16-46-18-334.txt Node
Date: Thu Jul 25 16:46:18 EDT 2019
User: cochatt
Spectrometer: HR+D1059
Trigger mode: 1
Integration Time (sec): 1.000000E-1
Scans to average: 1
Electric dark correction enabled: true
Nonlinearity correction enabled: false
Boxcar width: 0
XAxis mode: Wavelengths
Number of Pixels in Spectrum: 2048
>>>>>Begin Spectral Data<<<<<
223.165	-9.62
223.4	-9.62
223.635	-9.62
223.869	-35.62
224.104	-9.62
224.338	-25.62
224.573	-24.62
224.808	-4.62
225.042	-6.62
225.277	-7.62
225.511	-4.62
225.746	8.38
225.98	9.38
226.215	1.38
226.449	6.38
226.683	27.38
226.918	27.38
227.152	48.38
227.387	46.38
227.621	38.38
227.856	41.38
228.09	52.38
228.324	54.38
228.559	57.38
228.793	80.38
229.027	123.38
229.262	144.38
229.496	154.38
229.73	143.38
229.964	142.38
230.199	152.38
230.433	165.38
230.667	163.38
230.901	171.38
231.136	175.38
231.37	177.38
231.604	164.38
231.838	176.38
232.072	174.38
232.306	187.38
232.541	182.38
232.775	185.38
233.009	179.38
233.243	180.38
233.477	202.38
233.711	194.38
233.945	196.38
234.179	191.38
234.413	193.38
234.647	203.38
234.881	226.38
235.115	212.38
235.349	208.38
235.583	207.38
235.817	205.38
236.051	215.38
236.285	196.38
236.519	215.38
236.753	211.38
236.987	212.38
237.221	213.38
237.455	222.38
237.689	223.38
237.922	228.38
238.156	238.38
238.39	244.38
238.624	258.38
238.858	262.38
239.091	246.38
239.325	239.38
239.559	248.38
239.793	264.38
240.027	264.38
240.26	265.38
240.494	262.38
240.728	254.38
240.961	299.38
241.195	268.38
241.429	276.38
241.662	266.38
241.896	252.38
242.13	266.38
242.363	250.38
242.597	261.38
242.83	272.38
243.064	276.38
243.298	264.38
243.531	278.38
243.765	278.38
243.998	288.38
244.232	276.38
244.465	275.38
244.699	298.38
244.932	287.38
245.166	298.38
245.399	283.38
245.633	263.38
245.866	278.38
246.099	312.38
246.333	309.38
246.566	314.38
246.8	312.38
247.033	299.38
247.266	309.38
247.5	322.38
247.733	303.38
247.966	314.38
248.2	330.38
248.433	344.38
248.666	349.38
248.899	352.38
249.133	351.38
249.366	348.38
249.599	372.38
249.832	368.38
250.066	370.38
250.299	348.38
250.532	353.38
250.765	349.38
250.998	340.38
251.231	350.38
251.465	348.38
251.698	372.38
251.931	358.38
252.164	360.38
252.397	388.38
252.63	394.38
252.863	416.38
253.096	407.38
253.329	402.38
253.562	409.38
253.795	417.38
254.028	438.38
254.261	424.38
254.494	402.38
254.727	384.38
254.96	390.38
255.193	419.38
255.426	427.38
255.659	395.38
255.892	400.38
256.124	400.38
256.357	415.38
256.59	434.38
256.823	411.38
257.056	408.38
257.289	414.38
257.521	408.38
257.754	416.38
257.987	451.38
258.22	408.38
258.452	431.38
258.685	450.38
258.918	470.38
259.151	440.38
259.383	438.38
259.616	458.38
259.849	463.38
260.081	536.38
260.314	578.38
260.547	487.38
260.779	457.38
261.012	485.38
261.244	476.38
261.477	496.38
261.71	488.38
261.942	476.38
262.175	464.38
262.407	472.38
262.64	472.38
262.872	516.38
263.105	497.38
263.337	515.38
263.57	517.38
263.802	482.38
264.035	456.38
264.267	445.38
264.499	457.38
264.732	463.38
264.964	470.38
265.197	488.38
265.429	462.38
265.661	477.38
265.894	474.38
266.126	467.38
266.358	468.38
266.591	494.38
266.823	517.38
267.055	483.38
267.287	484.38
267.52	482.38
267.752	488.38
267.984	509.38
268.216	495.38
268.448	534.38
268.681	501.38
268.913	516.38
269.145	518.38
269.377	537.38
269.609	520.38
269.841	522.38
270.073	516.38
270.306	542.38
270.538	528.38
270.77	522.38
271.002	506.38
271.234	557.38
271.466	543.38
271.698	534.38
271.93	542.38
272.162	570.38
272.394	555.38
272.626	586.38
272.858	565.38
273.09	581.38
273.322	560.38
273.553	588.38
273.785	606.38
274.017	638.38
274.249	668.38
274.481	660.38
274.713	685.38
274.945	718.38
275.176	720.38
275.408	687.38
275.64	660.38
275.872	690.38
276.104	656.38
276.335	621.38
276.567	607.38
276.799	602.38
277.031	621.38
277.262	603.38
277.494	607.38
277.726	617.38
277.957	644.38
278.189	602.38
278.421	615.38
278.652	614.38
278.884	628.38
279.115	619.38
279.347	615.38
279.579	630.38
279.81	636.38
280.042	598.38
280.273	610.38
280.505	627.38
280.736	643.38
280.968	605.38
281.199	640.38
281.431	620.38
281.662	652.38
281.894	633.38
282.125	647.38
282.356	653.38
282.588	639.38
282.819	661.38
283.051	667.38
283.282	649.38
283.513	664.38
283.745	650.38
283.976	660.38
284.207	667.38
284.439	649.38
284.67	656.38
284.901	677.38
285.132	685.38
285.364	673.38
285.595	686.38
285.826	680.38
286.057	690.38
286.288	692.38
286.52	678.38
286.751	695.38
286.982	670.38
287.213	695.38
287.444	677.38
287.675	690.38
287.906	698.38
288.138	684.38
288.369	692.38
288.6	706.38
288.831	697.38
289.062	720.38
289.293	707.38
289.524	719.38
289.755	695.38
289.986	699.38
290.217	730.38
290.448	714.38
290.679	679.38
290.91	693.38
291.141	683.38
291.371	716.38
291.602	710.38
291.833	709.38
292.064	696.38
292.295	720.38
292.526	701.38
292.757	712.38
292.987	719.38
293.218	684.38
293.449	705.38
293.68	711.38
293.91	709.38
294.141	739.38
294.372	706.38
294.603	731.38
294.833	740.38
295.064	723.38
295.295	731.38
295.525	728.38
295.756	733.38
295.987	716.38
296.217	734.38
296.448	737.38
296.679	762.38
296.909	734.38
297.14	747.38
297.37	756.38
297.601	776.38
297.831	727.38
298.062	777.38
298.292	776.38
298.523	781.38
298.753	780.38
298.984	767.38
299.214	771.38
299.445	774.38
299.675	784.38
299.905	768.38
300.136	789.38
300.366	779.38
300.597	765.38
300.827	805.38
301.057	807.38
301.288	784.38
301.518	780.38
301.748	808.38
301.979	827.38
302.209	828.38
302.439	839.38
302.669	795.38
302.9	831.38
303.13	830.38
303.36	801.38
303.59	828.38
303.82	834.38
304.051	830.38
304.281	829.38
304.511	837.38
304.741	812.38
304.971	827.38
305.201	829.38
305.431	824.38
305.661	826.38
305.891	807.38
306.121	829.38
306.352	825.38
306.582	816.38
306.812	812.38
307.042	824.38
307.272	833.38
307.502	820.38
307.731	818.38
307.961	828.38
308.191	822.38
308.421	821.38
308.651	843.38
308.881	812.38
309.111	847.38
309.341	827.38
309.571	829.38
309.8	837.38
310.03	833.38
310.26	824.38
310.49	842.38
310.72	822.38
310.949	820.38
311.179	825.38
311.409	815.38
311.639	852.38
311.868	862.38
312.098	861.38
312.328	831.38
312.557	870.38
312.787	859.38
313.017	868.38
313.246	902.38
313.476	894.38
313.706	903.38
313.935	878.38
314.165	875.38
314.394	859.38
314.624	874.38
314.853	873.38
315.083	902.38
315.312	897.38
315.542	886.38
315.771	867.38
316.001	884.38
316.23	875.38
316.46	889.38
316.689	916.38
316.919	922.38
317.148	921.38
317.377	915.38
317.607	894.38
317.836	884.38
318.065	893.38
318.295	892.38
318.524	905.38
318.753	913.38
318.983	894.38
319.212	889.38
319.441	870.38
319.67	923.38
319.9	879.38
320.129	913.38
320.358	916.38
320.587	866.38
320.816	895.38
321.046	923.38
321.275	900.38
321.504	902.38
321.733	948.38
321.962	934.38
322.191	939.38
322.42	892.38
322.649	922.38
322.878	931.38
323.108	918.38
323.337	929.38
323.566	934.38
323.795	934.38
324.024	949.38
324.253	910.38
324.482	936.38
324.71	970.38
324.939	968.38
325.168	962.38
325.397	933.38
325.626	965.38
325.855	942.38
326.084	958.38
326.313	964.38
326.542	942.38
326.77	976.38
326.999	949.38
327.228	963.38
327.457	963.38
327.686	972.38
327.914	963.38
328.143	995.38
328.372	967.38
328.6	960.38
328.829	980.38
329.058	1004.38
329.287	977.38
329.515	994.38
329.744	990.38
329.972	996.38
330.201	1044.38
330.43	988.38
330.658	987.38
330.887	1028.38
331.115	1017.38
331.344	1001.38
331.572	1004.38
331.801	1046.38
332.03	1053.38
332.258	1011.38
332.486	1048.38
332.715	1069.38
332.943	1083.38
333.172	1079.38
333.4	1104.38
333.629	1113.38
333.857	1124.38
334.085	1174.38
334.314	1142.38
334.542	1124.38
334.771	1138.38
334.999	1117.38
335.227	1144.38
335.455	1182.38
335.684	1164.38
335.912	1166.38
336.14	1133.38
336.369	1146.38
336.597	1128.38
336.825	1132.38
337.053	1146.38
337.281	1115.38
337.51	1098.38
337.738	1118.38
337.966	1074.38
338.194	1080.38
338.422	1076.38
338.65	1076.38
338.878	1083.38
339.106	1050.38
339.334	1067.38
339.562	1063.38
339.79	1079.38
340.018	1089.38
340.246	1054.38
340.474	1075.38
340.702	1072.38
340.93	1060.38
341.158	1053.38
341.386	1053.38
341.614	1060.38
341.842	1051.38
342.07	1020.38
342.298	1058.38
342.526	1040.38
342.754	1022.38
342.981	1036.38
343.209	1060.38
343.437	1082.38
343.665	1100.38
343.893	1138.38
344.12	1144.38
344.348	1135.38
344.576	1104.38
344.804	1098.38
345.031	1088.38
345.259	1109.38
345.487	1071.38
345.714	1074.38
345.942	1046.38
346.17	1020.38
346.397	1023.38
346.625	1032.38
346.853	1014.38
347.08	1005.38
347.308	1015.38
347.535	1018.38
347.763	1015.38
347.99	991.38
348.218	980.38
348.445	1034.38
348.673	1026.38
348.9	988.38
349.128	1039.38
349.355	965.38
349.583	964.38
349.81	986.38
350.037	1024.38
350.265	995.38
350.492	980.38
350.72	990.38
350.947	967.38
351.174	1018.38
351.402	980.38
351.629	1006.38
351.856	968.38
352.083	1004.38
352.311	985.38
352.538	957.38
352.765	975.38
352.992	964.38
353.22	995.38
353.447	989.38
353.674	1010.38
353.901	950.38
354.128	1019.38
354.355	1003.38
354.583	985.38
354.81	982.38
355.037	958.38
355.264	986.38
355.491	977.38
355.718	999.38
355.945	1014.38
356.172	978.38
356.399	980.38
356.626	990.38
356.853	1026.38
357.08	1012.38
357.307	1015.38
357.534	995.38
357.761	1012.38
357.988	984.38
358.215	1029.38
358.441	1041.38
358.668	999.38
358.895	1027.38
359.122	1019.38
359.349	1006.38
359.576	997.38
359.802	977.38
360.029	1015.38
360.256	996.38
360.483	994.38
360.709	983.38
360.936	1020.38
361.163	1018.38
361.39	1021.38
361.616	1001.38
361.843	1028.38
362.07	1020.38
362.296	1019.38
362.523	998.38
362.749	1003.38
362.976	1030.38
363.203	1008.38
363.429	1030.38
363.656	1020.38
363.882	1034.38
364.109	999.38
364.335	1011.38
364.562	1002.38
364.788	1005.38
365.015	1023.38
365.241	1029.38
365.468	1030.38
365.694	1017.38
365.92	1015.38
366.147	1028.38
366.373	1014.38
366.599	1034.38
366.826	1012.38
367.052	1004.38
367.278	1004.38
367.505	996.38
367.731	1020.38
367.957	1018.38
368.184	1036.38
368.41	1023.38
368.636	1036.38
368.862	1048.38
369.089	1059.38
369.315	1052.38
369.541	1067.38
369.767	1090.38
369.993	1059.38
370.219	1053.38
370.445	1082.38
370.672	1063.38
370.898	1098.38
371.124	1099.38
371.35	1084.38
371.576	1075.38
371.802	1144.38
372.028	1119.38
372.254	1133.38
372.48	1133.38
372.706	1140.38
372.932	1140.38
373.158	1108.38
373.384	1138.38
373.61	1163.38
373.835	1184.38
374.061	1119.38
374.287	1135.38
374.513	1128.38
374.739	1186.38
374.965	1180.38
375.191	1178.38
375.416	1156.38
375.642	1147.38
375.868	1145.38
376.094	1146.38
376.319	1122.38
376.545	1146.38
376.771	1132.38
376.997	1114.38
377.222	1108.38
377.448	1087.38
377.674	1114.38
377.899	1096.38
378.125	1106.38
378.35	1118.38
378.576	1090.38
378.802	1104.38
379.027	1123.38
379.253	1099.38
379.478	1090.38
379.704	1096.38
379.929	1120.38
380.155	1103.38
380.38	1061.38
380.606	1131.38
380.831	1107.38
381.057	1132.38
381.282	1124.38
381.507	1131.38
381.733	1123.38
381.958	1171.38
382.184	1185.38
382.409	1169.38
382.634	1211.38
382.86	1194.38
383.085	1154.38
383.31	1164.38
383.535	1176.38
383.761	1197.38
383.986	1198.38
384.211	1236.38
384.436	1229.38
384.662	1212.38
384.887	1232.38
385.112	1238.38
385.337	1260.38
385.562	1231.38
385.787	1262.38
386.013	1296.38
386.238	1284.38
386.463	1307.38
386.688	1316.38
386.913	1277.38
387.138	1271.38
387.363	1295.38
387.588	1290.38
387.813	1294.38
388.038	1338.38
388.263	1278.38
388.488	1324.38
388.713	1306.38
388.938	1336.38
389.163	1308.38
389.387	1340.38
389.612	1303.38
389.837	1290.38
390.062	1312.38
390.287	1326.38
390.512	1341.38
390.736	1352.38
390.961	1359.38
391.186	1359.38
391.411	1369.38
391.636	1354.38
391.86	1378.38
392.085	1374.38
392.31	1384.38
392.534	1350.38
392.759	1407.38
392.984	1385.38
393.208	1403.38
393.433	1377.38
393.658	1386.38
393.882	1395.38
394.107	1388.38
394.331	1399.38
394.556	1400.38
394.78	1397.38
395.005	1419.38
395.229	1372.38
395.454	1412.38
395.678	1418.38
395.903	1422.38
396.127	1442.38
396.352	1413.38
396.576	1439.38
396.801	1422.38
397.025	1443.38
397.249	1458.38
397.474	1491.38
397.698	1462.38
397.922	1496.38
398.147	1510.38
398.371	1550.38
398.595	1506.38
398.82	1566.38
399.044	1597.38
399.268	1714.38
399.492	1762.38
399.717	1795.38
399.941	1833.38
400.165	1815.38
400.389	1809.38
400.613	1752.38
400.837	1681.38
401.062	1632.38
401.286	1620.38
401.51	1579.38
401.734	1602.38
401.958	1657.38
402.182	1570.38
402.406	1568.38
402.63	1575.38
402.854	1588.38
403.078	1580.38
403.302	1585.38
403.526	1590.38
403.75	1634.38
403.974	1615.38
404.198	1635.38
404.422	1610.38
404.645	1670.38
404.869	1638.38
405.093	1630.38
405.317	1615.38
405.541	1630.38
405.765	1655.38
405.988	1663.38
406.212	1681.38
406.436	1678.38
406.66	1711.38
406.883	1710.38
407.107	1757.38
407.331	1775.38
407.555	1835.38
407.778	1784.38
408.002	1787.38
408.226	1827.38
408.449	1838.38
408.673	1766.38
408.896	1764.38
409.12	1735.38
409.344	1752.38
409.567	1695.38
409.791	1702.38
410.014	1673.38
410.238	1674.38
410.461	1703.38
410.685	1685.38
410.908	1675.38
411.132	1708.38
411.355	1662.38
411.578	1674.38
411.802	1641.38
412.025	1654.38
412.249	1662.38
412.472	1648.38
412.695	1660.38
412.919	1638.38
413.142	1606.38
413.365	1634.38
413.589	1635.38
413.812	1626.38
414.035	1598.38
414.258	1620.38
414.482	1582.38
414.705	1593.38
414.928	1603.38
415.151	1562.38
415.374	1570.38
415.597	1570.38
415.821	1544.38
416.044	1583.38
416.267	1546.38
416.49	1487.38
416.713	1531.38
416.936	1536.38
417.159	1479.38
417.382	1510.38
417.605	1539.38
417.828	1485.38
418.051	1524.38
418.274	1511.38
418.497	1525.38
418.72	1546.38
418.943	1509.38
419.166	1634.38
419.389	1711.38
419.611	1677.38
419.834	1641.38
420.057	1599.38
420.28	1532.38
420.503	1495.38
420.726	1503.38
420.948	1512.38
421.171	1487.38
421.394	1539.38
421.617	1515.38
421.839	1539.38
422.062	1525.38
422.285	1471.38
422.507	1520.38
422.73	1538.38
422.953	1533.38
423.175	1519.38
423.398	1522.38
423.621	1486.38
423.843	1510.38
424.066	1518.38
424.288	1534.38
424.511	1545.38
424.733	1544.38
424.956	1483.38
425.178	1530.38
425.401	1506.38
425.623	1532.38
425.846	1499.38
426.068	1488.38
426.291	1502.38
426.513	1495.38
426.735	1462.38
426.958	1483.38
427.18	1440.38
427.402	1478.38
427.625	1461.38
427.847	1456.38
428.069	1459.38
428.292	1460.38
428.514	1425.38
428.736	1478.38
428.958	1461.38
429.181	1430.38
429.403	1407.38
429.625	1437.38
429.847	1438.38
430.069	1446.38
430.292	1453.38
430.514	1448.38
430.736	1470.38
430.958	1441.38
431.18	1448.38
431.402	1453.38
431.624	1413.38
431.846	1443.38
432.068	1472.38
432.29	1465.38
432.512	1458.38
432.734	1473.38
432.956	1447.38
433.178	1483.38
433.4	1447.38
433.622	1486.38
433.844	1466.38
434.066	1494.38
434.287	1491.38
434.509	1493.38
434.731	1523.38
434.953	1500.38
435.175	1476.38
435.397	1503.38
435.618	1486.38
435.84	1502.38
436.062	1461.38
436.284	1438.38
436.505	1458.38
436.727	1481.38
436.949	1456.38
437.17	1421.38
437.392	1437.38
437.614	1398.38
437.835	1410.38
438.057	1420.38
438.278	1386.38
438.5	1400.38
438.721	1414.38
438.943	1430.38
439.165	1398.38
439.386	1437.38
439.608	1424.38
439.829	1414.38
440.05	1403.38
440.272	1437.38
440.493	1422.38
440.715	1451.38
440.936	1470.38
441.158	1445.38
441.379	1448.38
441.6	1450.38
441.822	1478.38
442.043	1529.38
442.264	1510.38
442.486	1460.38
442.707	1488.38
442.928	1533.38
443.149	1476.38
443.371	1466.38
443.592	1507.38
443.813	1531.38
444.034	1492.38
444.255	1525.38
444.476	1566.38
444.698	1563.38
444.919	1586.38
445.14	1686.38
445.361	1565.38
445.582	1515.38
445.803	1479.38
446.024	1487.38
446.245	1477.38
446.466	1450.38
446.687	1455.38
446.908	1463.38
447.129	1424.38
447.35	1377.38
447.571	1389.38
447.792	1352.38
448.013	1363.38
448.234	1356.38
448.455	1340.38
448.675	1373.38
448.896	1343.38
449.117	1307.38
449.338	1363.38
449.559	1322.38
449.779	1303.38
450	1326.38
450.221	1353.38
450.442	1303.38
450.662	1314.38
450.883	1323.38
451.104	1308.38
451.324	1315.38
451.545	1317.38
451.766	1292.38
451.986	1309.38
452.207	1279.38
452.428	1248.38
452.648	1280.38
452.869	1285.38
453.089	1256.38
453.31	1280.38
453.53	1274.38
453.751	1260.38
453.971	1256.38
454.192	1286.38
454.412	1250.38
454.633	1243.38
454.853	1268.38
455.073	1270.38
455.294	1302.38
455.514	1269.38
455.734	1253.38
455.955	1228.38
456.175	1245.38
456.395	1230.38
456.616	1238.38
456.836	1280.38
457.056	1300.38
457.276	1272.38
457.497	1289.38
457.717	1293.38
457.937	1292.38
458.157	1288.38
458.377	1259.38
458.598	1326.38
458.818	1348.38
459.038	1364.38
459.258	1355.38
459.478	1392.38
459.698	1435.38
459.918	1448.38
460.138	1476.38
460.358	1484.38
460.578	1494.38
460.798	1538.38
461.018	1549.38
461.238	1549.38
461.458	1592.38
461.678	1559.38
461.898	1597.38
462.118	1579.38
462.338	1624.38
462.558	1652.38
462.777	1670.38
462.997	1722.38
463.217	1735.38
463.437	1759.38
463.657	1734.38
463.876	1717.38
464.096	1744.38
464.316	1646.38
464.536	1676.38
464.755	1670.38
464.975	1636.38
465.195	1617.38
465.414	1560.38
465.634	1521.38
465.854	1507.38
466.073	1490.38
466.293	1431.38
466.512	1437.38
466.732	1446.38
466.951	1437.38
467.171	1462.38
467.391	1399.38
467.61	1368.38
467.829	1334.38
468.049	1433.38
468.268	1378.38
468.488	1366.38
468.707	1414.38
468.927	1380.38
469.146	1389.38
469.365	1381.38
469.585	1356.38
469.804	1383.38
470.023	1415.38
470.243	1397.38
470.462	1411.38
470.681	1385.38
470.901	1410.38
471.12	1416.38
471.339	1390.38
471.558	1396.38
471.777	1410.38
471.997	1408.38
472.216	1408.38
472.435	1416.38
472.654	1372.38
472.873	1366.38
473.092	1355.38
473.311	1399.38
473.53	1368.38
473.749	1367.38
473.968	1389.38
474.187	1413.38
474.406	1390.38
474.625	1383.38
474.844	1424.38
475.063	1394.38
475.282	1362.38
475.501	1404.38
475.72	1430.38
475.939	1460.38
476.158	1447.38
476.377	1462.38
476.596	1511.38
476.814	1556.38
477.033	1524.38
477.252	1503.38
477.471	1472.38
477.69	1518.38
477.908	1561.38
478.127	1589.38
478.346	1594.38
478.564	1594.38
478.783	1552.38
479.002	1629.38
479.22	1657.38
479.439	1701.38
479.658	1668.38
479.876	1668.38
480.095	1646.38
480.313	1655.38
480.532	1701.38
480.751	1728.38
480.969	1691.38
481.188	1691.38
481.406	1688.38
481.624	1682.38
481.843	1619.38
482.061	1664.38
482.28	1627.38
482.498	1674.38
482.717	1664.38
482.935	1686.38
483.153	1681.38
483.372	1638.38
483.59	1672.38
483.808	1630.38
484.027	1662.38
484.245	1662.38
484.463	1677.38
484.681	1691.38
484.9	1685.38
485.118	1664.38
485.336	1706.38
485.554	1703.38
485.772	1663.38
485.99	1674.38
486.209	1711.38
486.427	1691.38
486.645	1718.38
486.863	1740.38
487.081	1712.38
487.299	1668.38
487.517	1712.38
487.735	1735.38
487.953	1717.38
488.171	1706.38
488.389	1696.38
488.607	1717.38
488.825	1679.38
489.043	1696.38
489.261	1726.38
489.479	1736.38
489.696	1731.38
489.914	1690.38
490.132	1710.38
490.35	1700.38
490.568	1738.38
490.786	1677.38
491.003	1685.38
491.221	1723.38
491.439	1768.38
491.657	1708.38
491.874	1725.38
492.092	1755.38
492.31	1758.38
492.527	1731.38
492.745	1727.38
492.963	1764.38
493.18	1788.38
493.398	1769.38
493.615	1771.38
493.833	1795.38
494.05	1768.38
494.268	1758.38
494.485	1792.38
494.703	1793.38
494.92	1794.38
495.138	1770.38
495.355	1793.38
495.573	1813.38
495.79	1847.38
496.008	1855.38
496.225	1835.38
496.442	1890.38
496.66	1875.38
496.877	1918.38
497.094	1929.38
497.312	1946.38
497.529	1978.38
497.746	1977.38
497.963	2027.38
498.181	2084.38
498.398	2173.38
498.615	2234.38
498.832	2334.38
499.049	2394.38
499.267	2441.38
499.484	2561.38
499.701	2650.38
499.918	2758.38
500.135	2908.38
500.352	2990.38
500.569	3049.38
500.786	3030.38
501.003	2970.38
501.22	2897.38
501.437	2781.38
501.654	2640.38
501.871	2550.38
502.088	2485.38
502.305	2368.38
502.522	2276.38
502.739	2255.38
502.956	2203.38
503.172	2118.38
503.389	2039.38
503.606	1985.38
503.823	1961.38
504.04	1933.38
504.256	1925.38
504.473	1946.38
504.69	1872.38
504.907	1878.38
505.123	1831.38
505.34	1820.38
505.557	1755.38
505.773	1798.38
505.99	1714.38
506.207	1669.38
506.423	1615.38
506.64	1594.38
506.856	1639.38
507.073	1602.38
507.289	1604.38
507.506	1547.38
507.722	1525.38
507.939	1577.38
508.155	1558.38
508.372	1506.38
508.588	1481.38
508.805	1466.38
509.021	1506.38
509.238	1462.38
509.454	1498.38
509.67	1428.38
509.887	1440.38
510.103	1483.38
510.319	1472.38
510.536	1399.38
510.752	1376.38
510.968	1415.38
511.184	1380.38
511.401	1374.38
511.617	1398.38
511.833	1368.38
512.049	1419.38
512.265	1370.38
512.481	1383.38
512.698	1398.38
512.914	1405.38
513.13	1385.38
513.346	1366.38
513.562	1368.38
513.778	1389.38
513.994	1399.38
514.21	1418.38
514.426	1407.38
514.642	1398.38
514.858	1420.38
515.074	1437.38
515.29	1430.38
515.506	1431.38
515.721	1407.38
515.937	1466.38
516.153	1456.38
516.369	1425.38
516.585	1481.38
516.801	1526.38
517.016	1558.38
517.232	1588.38
517.448	1613.38
517.664	1552.38
517.879	1565.38
518.095	1572.38
518.311	1579.38
518.527	1511.38
518.742	1550.38
518.958	1505.38
519.173	1471.38
519.389	1455.38
519.605	1446.38
519.82	1428.38
520.036	1503.38
520.251	1499.38
520.467	1434.38
520.682	1375.38
520.898	1372.38
521.113	1390.38
521.329	1380.38
521.544	1336.38
521.76	1338.38
521.975	1322.38
522.19	1305.38
522.406	1343.38
522.621	1322.38
522.836	1343.38
523.052	1284.38
523.267	1305.38
523.482	1253.38
523.698	1293.38
523.913	1288.38
524.128	1256.38
524.343	1274.38
524.559	1261.38
524.774	1248.38
524.989	1251.38
525.204	1273.38
525.419	1270.38
525.634	1232.38
525.849	1261.38
526.064	1259.38
526.28	1213.38
526.495	1270.38
526.71	1260.38
526.925	1198.38
527.14	1214.38
527.355	1232.38
527.57	1218.38
527.785	1216.38
527.999	1218.38
528.214	1207.38
528.429	1214.38
528.644	1190.38
528.859	1225.38
529.074	1200.38
529.289	1210.38
529.503	1175.38
529.718	1173.38
529.933	1190.38
530.148	1226.38
530.363	1170.38
530.577	1188.38
530.792	1143.38
531.007	1180.38
531.221	1204.38
531.436	1175.38
531.651	1171.38
531.865	1180.38
532.08	1134.38
532.295	1159.38
532.509	1185.38
532.724	1199.38
532.938	1184.38
533.153	1160.38
533.367	1166.38
533.582	1190.38
533.796	1191.38
534.011	1179.38
534.225	1167.38
534.44	1180.38
534.654	1140.38
534.868	1185.38
535.083	1174.38
535.297	1134.38
535.511	1139.38
535.726	1152.38
535.94	1132.38
536.154	1142.38
536.369	1091.38
536.583	1123.38
536.797	1110.38
537.011	1129.38
537.225	1068.38
537.44	1104.38
537.654	1114.38
537.868	1092.38
538.082	1102.38
538.296	1086.38
538.51	1084.38
538.724	1119.38
538.938	1108.38
539.153	1062.38
539.367	1094.38
539.581	1109.38
539.795	1114.38
540.009	1111.38
540.222	1055.38
540.436	1097.38
540.65	1081.38
540.864	1075.38
541.078	1086.38
541.292	1096.38
541.506	1098.38
541.72	1060.38
541.934	1070.38
542.147	1087.38
542.361	1082.38
542.575	1074.38
542.789	1084.38
543.002	1035.38
543.216	1045.38
543.43	1055.38
543.644	1051.38
543.857	1071.38
544.071	1068.38
544.285	1076.38
544.498	1075.38
544.712	1082.38
544.925	1087.38
545.139	1062.38
545.352	1070.38
545.566	1093.38
545.779	1068.38
545.993	1110.38
546.206	1085.38
546.42	1050.38
546.633	1066.38
546.847	1050.38
547.06	1081.38
547.274	1060.38
547.487	1046.38
547.7	1046.38
547.914	1088.38
548.127	1081.38
548.34	1074.38
548.554	1077.38
548.767	1072.38
548.98	1081.38
549.193	1074.38
549.407	1091.38
549.62	1106.38
549.833	1114.38
550.046	1106.38
550.259	1085.38
550.473	1076.38
550.686	1066.38
550.899	1070.38
551.112	1037.38
551.325	1071.38
551.538	1098.38
551.751	1046.38
551.964	1032.38
552.177	1028.38
552.39	1083.38
552.603	1078.38
552.816	1062.38
553.029	1079.38
553.242	1079.38
553.455	1092.38
553.667	1103.38
553.88	1084.38
554.093	1063.38
554.306	1050.38
554.519	1022.38
554.732	1050.38
554.944	1001.38
555.157	997.38
555.37	996.38
555.583	968.38
555.795	979.38
556.008	976.38
556.221	982.38
556.433	968.38
556.646	958.38
556.859	958.38
557.071	944.38
557.284	936.38
557.496	926.38
557.709	937.38
557.921	923.38
558.134	896.38
558.346	879.38
558.559	928.38
558.771	927.38
558.984	919.38
559.196	907.38
559.409	907.38
559.621	921.38
559.833	912.38
560.046	895.38
560.258	896.38
560.47	902.38
560.683	898.38
560.895	911.38
561.107	893.38
561.32	871.38
561.532	898.38
561.744	899.38
561.956	908.38
562.168	894.38
562.381	924.38
562.593	882.38
562.805	908.38
563.017	906.38
563.229	886.38
563.441	928.38
563.653	939.38
563.865	919.38
564.077	932.38
564.289	926.38
564.501	961.38
564.713	941.38
564.925	965.38
565.137	989.38
565.349	976.38
565.561	988.38
565.773	1023.38
565.985	1035.38
566.197	1074.38
566.408	1088.38
566.62	1101.38
566.832	1097.38
567.044	1132.38
567.255	1129.38
567.467	1155.38
567.679	1151.38
567.891	1173.38
568.102	1178.38
568.314	1139.38
568.526	1088.38
568.737	1086.38
568.949	1063.38
569.161	1012.38
569.372	964.38
569.584	910.38
569.795	930.38
570.007	916.38
570.218	901.38
570.43	914.38
570.641	890.38
570.853	853.38
571.064	870.38
571.276	843.38
571.487	829.38
571.698	814.38
571.91	809.38
572.121	794.38
572.333	825.38
572.544	779.38
572.755	754.38
572.966	754.38
573.178	749.38
573.389	742.38
573.6	742.38
573.811	711.38
574.023	718.38
574.234	728.38
574.445	715.38
574.656	732.38
574.867	723.38
575.078	693.38
575.289	726.38
575.501	728.38
575.712	678.38
575.923	686.38
576.134	667.38
576.345	676.38
576.556	667.38
576.767	662.38
576.978	661.38
577.188	690.38
577.399	680.38
577.61	669.38
577.821	673.38
578.032	650.38
578.243	665.38
578.454	660.38
578.665	655.38
578.875	644.38
579.086	650.38
579.297	639.38
579.508	635.38
579.718	657.38
579.929	636.38
580.14	606.38
580.35	606.38
580.561	616.38
580.772	622.38
580.982	622.38
581.193	622.38
581.403	633.38
581.614	636.38
581.825	636.38
582.035	639.38
582.246	623.38
582.456	614.38
582.667	615.38
582.877	609.38
583.087	595.38
583.298	587.38
583.508	580.38
583.719	612.38
583.929	610.38
584.139	579.38
584.35	589.38
584.56	587.38
584.77	581.38
584.981	572.38
585.191	593.38
585.401	597.38
585.611	566.38
585.821	590.38
586.032	588.38
586.242	574.38
586.452	574.38
586.662	588.38
586.872	563.38
587.082	575.38
587.292	592.38
587.502	590.38
587.713	568.38
587.923	577.38
588.133	592.38
588.343	564.38
588.553	587.38
588.762	571.38
588.972	568.38
589.182	618.38
589.392	620.38
589.602	606.38
589.812	584.38
590.022	593.38
590.232	572.38
590.441	573.38
590.651	594.38
590.861	581.38
591.071	573.38
591.281	579.38
591.49	568.38
591.7	586.38
591.91	600.38
592.119	580.38
592.329	585.38
592.539	602.38
592.748	612.38
592.958	594.38
593.167	588.38
593.377	600.38
593.587	607.38
593.796	617.38
594.006	629.38
594.215	611.38
594.424	610.38
594.634	587.38
594.843	589.38
595.053	588.38
595.262	593.38
595.472	581.38
595.681	581.38
595.89	558.38
596.1	580.38
596.309	556.38
596.518	560.38
596.727	535.38
596.937	534.38
597.146	528.38
597.355	518.38
597.564	535.38
597.774	506.38
597.983	524.38
598.192	492.38
598.401	504.38
598.61	492.38
598.819	504.38
599.028	492.38
599.237	495.38
599.446	518.38
599.655	491.38
599.864	476.38
600.073	474.38
600.282	477.38
600.491	458.38
600.7	477.38
600.909	483.38
601.118	477.38
601.327	463.38
601.536	482.38
601.745	480.38
601.953	480.38
602.162	467.38
602.371	464.38
602.58	462.38
602.789	466.38
602.997	461.38
603.206	444.38
603.415	454.38
603.623	447.38
603.832	457.38
604.041	452.38
604.249	464.38
604.458	441.38
604.666	425.38
604.875	431.38
605.084	438.38
605.292	435.38
605.501	443.38
605.709	431.38
605.918	439.38
606.126	443.38
606.334	450.38
606.543	438.38
606.751	438.38
606.96	413.38
607.168	429.38
607.376	447.38
607.585	441.38
607.793	440.38
608.001	418.38
608.21	408.38
608.418	441.38
608.626	429.38
608.834	416.38
609.043	432.38
609.251	423.38
609.459	427.38
609.667	445.38
609.875	395.38
610.083	419.38
610.291	402.38
610.499	410.38
610.707	413.38
610.916	401.38
611.124	426.38
611.332	412.38
611.54	416.38
611.748	397.38
611.955	426.38
612.163	410.38
612.371	402.38
612.579	408.38
612.787	410.38
612.995	419.38
613.203	413.38
613.411	416.38
613.618	416.38
613.826	407.38
614.034	400.38
614.242	400.38
614.449	390.38
614.657	399.38
614.865	375.38
615.072	397.38
615.28	404.38
615.488	414.38
615.695	400.38
615.903	384.38
616.111	399.38
616.318	399.38
616.526	385.38
616.733	414.38
616.941	398.38
617.148	404.38
617.356	391.38
617.563	396.38
617.771	394.38
617.978	394.38
618.185	379.38
618.393	380.38
618.6	381.38
618.807	376.38
619.015	382.38
619.222	390.38
619.429	384.38
619.637	384.38
619.844	377.38
620.051	367.38
620.258	361.38
620.466	388.38
620.673	368.38
620.88	382.38
621.087	354.38
621.294	359.38
621.501	355.38
621.708	373.38
621.915	351.38
622.122	353.38
622.329	354.38
622.536	363.38
622.743	350.38
622.95	355.38
623.157	345.38
623.364	370.38
623.571	367.38
623.778	362.38
623.985	361.38
624.192	357.38
624.399	358.38
624.606	355.38
624.812	357.38
625.019	341.38
625.226	371.38
625.433	358.38
625.639	349.38
625.846	360.38
626.053	342.38
626.259	346.38
626.466	357.38
626.673	342.38
626.879	337.38
627.086	325.38
627.293	334.38
627.499	341.38
627.706	333.38
627.912	319.38
628.119	334.38
628.325	317.38
628.532	319.38
628.738	314.38
628.945	332.38
629.151	336.38
629.357	322.38
629.564	330.38
629.77	311.38
629.976	310.38
630.183	312.38
630.389	315.38
630.595	307.38
630.802	328.38
631.008	317.38
631.214	308.38
631.42	326.38
631.627	310.38
631.833	321.38
632.039	318.38
632.245	316.38
632.451	295.38
632.657	312.38
632.863	292.38
633.069	310.38
633.275	310.38
633.481	311.38
633.688	317.38
633.893	297.38
634.099	313.38
634.305	301.38
634.511	301.38
634.717	302.38
634.923	307.38
635.129	293.38
635.335	299.38
635.541	297.38
635.747	302.38
635.952	295.38
636.158	303.38
636.364	292.38
636.57	292.38
636.775	292.38
636.981	309.38
637.187	298.38
637.392	283.38
637.598	295.38
637.804	278.38
638.009	286.38
638.215	293.38
638.421	288.38
638.626	270.38
638.832	290.38
639.037	284.38
639.243	281.38
639.448	270.38
639.654	279.38
639.859	255.38
640.065	260.38
640.27	282.38
640.475	276.38
640.681	299.38
640.886	287.38
641.091	272.38
641.297	259.38
641.502	274.38
641.707	272.38
641.913	280.38
642.118	283.38
642.323	292.38
642.528	273.38
642.733	271.38
642.939	282.38
643.144	296.38
643.349	287.38
643.554	282.38
643.759	268.38
643.964	279.38
644.169	264.38
644.374	294.38
644.579	286.38
644.784	281.38
644.989	285.38
645.194	286.38
645.399	311.38
645.604	291.38
645.809	286.38
646.014	292.38
646.219	283.38
646.423	275.38
646.628	267.38
646.833	279.38
647.038	284.38
647.243	271.38
647.447	293.38
647.652	272.38
647.857	285.38
648.062	310.38
648.266	280.38
648.471	293.38
648.676	303.38
648.88	305.38
649.085	306.38
649.289	285.38
649.494	274.38
649.698	293.38
649.903	304.38
650.107	303.38
650.312	278.38
650.516	286.38
650.721	273.38
650.925	272.38
651.13	278.38
651.334	265.38
651.539	266.38
651.743	275.38
651.947	260.38
652.152	261.38
652.356	271.38
652.56	260.38
652.764	267.38
652.969	259.38
653.173	253.38
653.377	271.38
653.581	258.38
653.785	270.38
653.99	265.38
654.194	270.38
654.398	274.38
654.602	275.38
654.806	281.38
655.01	276.38
655.214	281.38
655.418	272.38
655.622	258.38
655.826	293.38
656.03	270.38
656.234	272.38
656.438	264.38
656.642	278.38
656.846	263.38
657.049	248.38
657.253	240.38
657.457	226.38
657.661	214.38
657.865	221.38
658.068	190.38
658.272	197.38
658.476	178.38
658.68	193.38
658.883	157.38
659.087	150.38
659.291	155.38
659.494	152.38
659.698	140.38
659.901	144.38
660.105	129.38
660.309	118.38
660.512	115.38
660.716	144.38
660.919	111.38
661.123	120.38
661.326	114.38
661.53	111.38
661.733	118.38
661.936	121.38
662.14	105.38
662.343	99.38
662.546	103.38
662.75	90.38
662.953	104.38
663.156	86.38
663.36	78.38
663.563	80.38
663.766	92.38
663.969	98.38
664.173	86.38
664.376	76.38
664.579	76.38
664.782	85.38
664.985	76.38
665.188	74.38
665.391	94.38
665.594	95.38
665.797	91.38
666	76.38
666.203	79.38
666.406	92.38
666.609	81.38
666.812	86.38
667.015	90.38
667.218	78.38
667.421	82.38
667.624	86.38
667.827	72.38
668.03	105.38
668.232	86.38
668.435	86.38
668.638	78.38
668.841	91.38
669.043	76.38
669.246	80.38
669.449	82.38
669.651	83.38
669.854	84.38
670.057	83.38
670.259	87.38
670.462	77.38
670.665	80.38
670.867	90.38
671.07	78.38
671.272	80.38
671.475	84.38
671.677	80.38
671.88	73.38
672.082	78.38
672.284	96.38
672.487	91.38
672.689	77.38
672.892	90.38
