Data from Fe(NO3)3@0.1M.TitratingCurve.Agarose3%dH2O.NegLispCup.LampEnergy10.LIBS07252019_HRD10591_16-37-43-332.txt Node
Date: Thu Jul 25 16:37:43 EDT 2019
User: cochatt
Spectrometer: HR+D1059
Trigger mode: 1
Integration Time (sec): 1.000000E-1
Scans to average: 1
Electric dark correction enabled: true
Nonlinearity correction enabled: false
Boxcar width: 0
XAxis mode: Wavelengths
Number of Pixels in Spectrum: 2048
>>>>>Begin Spectral Data<<<<<
223.165	-9.12
223.4	-9.12
223.635	-9.12
223.869	-23.12
224.104	-12.12
224.338	-20.12
224.573	-20.12
224.808	-9.12
225.042	-10.12
225.277	-9.12
225.511	4.88
225.746	7.88
225.98	3.88
226.215	1.88
226.449	17.88
226.683	13.88
226.918	36.88
227.152	25.88
227.387	21.88
227.621	36.88
227.856	37.88
228.09	34.88
228.324	56.88
228.559	46.88
228.793	54.88
229.027	62.88
229.262	82.88
229.496	76.88
229.73	80.88
229.964	80.88
230.199	85.88
230.433	88.88
230.667	77.88
230.901	83.88
231.136	88.88
231.37	90.88
231.604	93.88
231.838	83.88
232.072	101.88
232.306	84.88
232.541	103.88
232.775	94.88
233.009	103.88
233.243	96.88
233.477	109.88
233.711	90.88
233.945	97.88
234.179	109.88
234.413	78.88
234.647	100.88
234.881	103.88
235.115	87.88
235.349	94.88
235.583	94.88
235.817	90.88
236.051	99.88
236.285	94.88
236.519	84.88
236.753	92.88
236.987	90.88
237.221	82.88
237.455	107.88
237.689	102.88
237.922	84.88
238.156	78.88
238.39	110.88
238.624	96.88
238.858	100.88
239.091	96.88
239.325	76.88
239.559	103.88
239.793	110.88
240.027	97.88
240.26	109.88
240.494	102.88
240.728	104.88
240.961	101.88
241.195	102.88
241.429	99.88
241.662	109.88
241.896	103.88
242.13	118.88
242.363	88.88
242.597	94.88
242.83	102.88
243.064	105.88
243.298	103.88
243.531	97.88
243.765	110.88
243.998	116.88
244.232	108.88
244.465	111.88
244.699	108.88
244.932	89.88
245.166	98.88
245.399	109.88
245.633	117.88
245.866	124.88
246.099	123.88
246.333	116.88
246.566	98.88
246.8	94.88
247.033	114.88
247.266	115.88
247.5	110.88
247.733	102.88
247.966	111.88
248.2	114.88
248.433	114.88
248.666	109.88
248.899	110.88
249.133	104.88
249.366	126.88
249.599	114.88
249.832	131.88
250.066	116.88
250.299	102.88
250.532	113.88
250.765	118.88
250.998	125.88
251.231	110.88
251.465	122.88
251.698	122.88
251.931	100.88
252.164	100.88
252.397	118.88
252.63	118.88
252.863	131.88
253.096	127.88
253.329	126.88
253.562	121.88
253.795	111.88
254.028	121.88
254.261	109.88
254.494	114.88
254.727	125.88
254.96	119.88
255.193	127.88
255.426	139.88
255.659	120.88
255.892	126.88
256.124	119.88
256.357	119.88
256.59	113.88
256.823	130.88
257.056	126.88
257.289	133.88
257.521	137.88
257.754	118.88
257.987	119.88
258.22	109.88
258.452	132.88
258.685	121.88
258.918	124.88
259.151	127.88
259.383	140.88
259.616	129.88
259.849	137.88
260.081	131.88
260.314	135.88
260.547	123.88
260.779	124.88
261.012	141.88
261.244	123.88
261.477	134.88
261.71	147.88
261.942	138.88
262.175	107.88
262.407	133.88
262.64	127.88
262.872	136.88
263.105	129.88
263.337	157.88
263.57	138.88
263.802	135.88
264.035	143.88
264.267	134.88
264.499	129.88
264.732	129.88
264.964	122.88
265.197	127.88
265.429	136.88
265.661	145.88
265.894	142.88
266.126	142.88
266.358	132.88
266.591	133.88
266.823	125.88
267.055	142.88
267.287	146.88
267.52	135.88
267.752	133.88
267.984	132.88
268.216	127.88
268.448	129.88
268.681	135.88
268.913	151.88
269.145	138.88
269.377	132.88
269.609	148.88
269.841	144.88
270.073	153.88
270.306	149.88
270.538	141.88
270.77	140.88
271.002	149.88
271.234	146.88
271.466	143.88
271.698	143.88
271.93	145.88
272.162	150.88
272.394	155.88
272.626	148.88
272.858	149.88
273.09	147.88
273.322	144.88
273.553	165.88
273.785	154.88
274.017	161.88
274.249	158.88
274.481	140.88
274.713	146.88
274.945	149.88
275.176	156.88
275.408	158.88
275.64	157.88
275.872	153.88
276.104	162.88
276.335	162.88
276.567	153.88
276.799	149.88
277.031	167.88
277.262	151.88
277.494	151.88
277.726	154.88
277.957	151.88
278.189	154.88
278.421	154.88
278.652	154.88
278.884	140.88
279.115	158.88
279.347	169.88
279.579	156.88
279.81	151.88
280.042	164.88
280.273	167.88
280.505	147.88
280.736	156.88
280.968	158.88
281.199	158.88
281.431	159.88
281.662	156.88
281.894	167.88
282.125	185.88
282.356	170.88
282.588	158.88
282.819	164.88
283.051	150.88
283.282	153.88
283.513	157.88
283.745	155.88
283.976	175.88
284.207	167.88
284.439	162.88
284.67	158.88
284.901	160.88
285.132	164.88
285.364	178.88
285.595	173.88
285.826	175.88
286.057	153.88
286.288	172.88
286.52	174.88
286.751	180.88
286.982	166.88
287.213	166.88
287.444	174.88
287.675	155.88
287.906	146.88
288.138	179.88
288.369	158.88
288.6	163.88
288.831	161.88
289.062	160.88
289.293	170.88
289.524	177.88
289.755	185.88
289.986	171.88
290.217	185.88
290.448	173.88
290.679	181.88
290.91	168.88
291.141	162.88
291.371	178.88
291.602	177.88
291.833	175.88
292.064	165.88
292.295	194.88
292.526	169.88
292.757	153.88
292.987	164.88
293.218	167.88
293.449	175.88
293.68	166.88
293.91	171.88
294.141	175.88
294.372	179.88
294.603	173.88
294.833	185.88
295.064	193.88
295.295	180.88
295.525	179.88
295.756	171.88
295.987	168.88
296.217	181.88
296.448	185.88
296.679	178.88
296.909	179.88
297.14	180.88
297.37	174.88
297.601	172.88
297.831	194.88
298.062	174.88
298.292	191.88
298.523	196.88
298.753	183.88
298.984	176.88
299.214	193.88
299.445	198.88
299.675	200.88
299.905	175.88
300.136	179.88
300.366	186.88
300.597	178.88
300.827	173.88
301.057	189.88
301.288	170.88
301.518	194.88
301.748	191.88
301.979	187.88
302.209	189.88
302.439	182.88
302.669	195.88
302.9	173.88
303.13	206.88
303.36	208.88
303.59	187.88
303.82	190.88
304.051	180.88
304.281	199.88
304.511	198.88
304.741	195.88
304.971	181.88
305.201	205.88
305.431	180.88
305.661	180.88
305.891	183.88
306.121	190.88
306.352	193.88
306.582	194.88
306.812	185.88
307.042	210.88
307.272	193.88
307.502	186.88
307.731	187.88
307.961	192.88
308.191	183.88
308.421	185.88
308.651	204.88
308.881	199.88
309.111	188.88
309.341	194.88
309.571	195.88
309.8	198.88
310.03	184.88
310.26	188.88
310.49	193.88
310.72	207.88
310.949	191.88
311.179	188.88
311.409	205.88
311.639	201.88
311.868	191.88
312.098	204.88
312.328	196.88
312.557	187.88
312.787	197.88
313.017	201.88
313.246	205.88
313.476	201.88
313.706	194.88
313.935	191.88
314.165	203.88
314.394	204.88
314.624	194.88
314.853	201.88
315.083	201.88
315.312	212.88
315.542	209.88
315.771	210.88
316.001	201.88
316.23	201.88
316.46	214.88
316.689	193.88
316.919	205.88
317.148	196.88
317.377	202.88
317.607	191.88
317.836	184.88
318.065	204.88
318.295	186.88
318.524	191.88
318.753	202.88
318.983	198.88
319.212	173.88
319.441	215.88
319.67	201.88
319.9	207.88
320.129	179.88
320.358	197.88
320.587	193.88
320.816	206.88
321.046	201.88
321.275	198.88
321.504	203.88
321.733	212.88
321.962	191.88
322.191	190.88
322.42	199.88
322.649	206.88
322.878	193.88
323.108	220.88
323.337	206.88
323.566	196.88
323.795	189.88
324.024	209.88
324.253	190.88
324.482	185.88
324.71	194.88
324.939	217.88
325.168	213.88
325.397	188.88
325.626	205.88
325.855	198.88
326.084	217.88
326.313	218.88
326.542	236.88
326.77	219.88
326.999	203.88
327.228	203.88
327.457	203.88
327.686	203.88
327.914	213.88
328.143	207.88
328.372	223.88
328.6	213.88
328.829	217.88
329.058	208.88
329.287	217.88
329.515	214.88
329.744	214.88
329.972	233.88
330.201	219.88
330.43	227.88
330.658	220.88
330.887	223.88
331.115	214.88
331.344	195.88
331.572	247.88
331.801	211.88
332.03	224.88
332.258	243.88
332.486	227.88
332.715	253.88
332.943	253.88
333.172	244.88
333.4	286.88
333.629	285.88
333.857	236.88
334.085	243.88
334.314	252.88
334.542	261.88
334.771	240.88
334.999	265.88
335.227	266.88
335.455	268.88
335.684	257.88
335.912	241.88
336.14	243.88
336.369	228.88
336.597	248.88
336.825	261.88
337.053	265.88
337.281	257.88
337.51	250.88
337.738	246.88
337.966	231.88
338.194	227.88
338.422	228.88
338.65	250.88
338.878	227.88
339.106	232.88
339.334	244.88
339.562	228.88
339.79	228.88
340.018	223.88
340.246	230.88
340.474	226.88
340.702	236.88
340.93	236.88
341.158	242.88
341.386	221.88
341.614	215.88
341.842	220.88
342.07	227.88
342.298	216.88
342.526	207.88
342.754	214.88
342.981	214.88
343.209	231.88
343.437	230.88
343.665	241.88
343.893	248.88
344.12	262.88
344.348	233.88
344.576	232.88
344.804	234.88
345.031	220.88
345.259	219.88
345.487	213.88
345.714	214.88
345.942	222.88
346.17	206.88
346.397	221.88
346.625	225.88
346.853	219.88
347.08	215.88
347.308	233.88
347.535	204.88
347.763	218.88
347.99	223.88
348.218	205.88
348.445	216.88
348.673	201.88
348.9	217.88
349.128	213.88
349.355	235.88
349.583	210.88
349.81	207.88
350.037	206.88
350.265	218.88
350.492	225.88
350.72	212.88
350.947	208.88
351.174	225.88
351.402	196.88
351.629	202.88
351.856	209.88
352.083	211.88
352.311	206.88
352.538	204.88
352.765	216.88
352.992	219.88
353.22	195.88
353.447	202.88
353.674	214.88
353.901	202.88
354.128	190.88
354.355	202.88
354.583	211.88
354.81	222.88
355.037	215.88
355.264	195.88
355.491	206.88
355.718	206.88
355.945	218.88
356.172	199.88
356.399	215.88
356.626	236.88
356.853	212.88
357.08	207.88
357.307	219.88
357.534	213.88
357.761	212.88
357.988	206.88
358.215	204.88
358.441	201.88
358.668	207.88
358.895	196.88
359.122	205.88
359.349	212.88
359.576	219.88
359.802	209.88
360.029	203.88
360.256	217.88
360.483	206.88
360.709	222.88
360.936	221.88
361.163	215.88
361.39	214.88
361.616	211.88
361.843	231.88
362.07	220.88
362.296	210.88
362.523	203.88
362.749	212.88
362.976	215.88
363.203	220.88
363.429	211.88
363.656	205.88
363.882	214.88
364.109	210.88
364.335	217.88
364.562	218.88
364.788	224.88
365.015	228.88
365.241	220.88
365.468	225.88
365.694	201.88
365.92	219.88
366.147	217.88
366.373	207.88
366.599	211.88
366.826	221.88
367.052	226.88
367.278	226.88
367.505	205.88
367.731	216.88
367.957	215.88
368.184	207.88
368.41	232.88
368.636	212.88
368.862	218.88
369.089	218.88
369.315	223.88
369.541	223.88
369.767	231.88
369.993	230.88
370.219	220.88
370.445	221.88
370.672	223.88
370.898	214.88
371.124	248.88
371.35	235.88
371.576	244.88
371.802	247.88
372.028	222.88
372.254	225.88
372.48	237.88
372.706	260.88
372.932	243.88
373.158	245.88
373.384	254.88
373.61	244.88
373.835	224.88
374.061	234.88
374.287	233.88
374.513	231.88
374.739	265.88
374.965	248.88
375.191	277.88
375.416	262.88
375.642	238.88
375.868	245.88
376.094	245.88
376.319	249.88
376.545	246.88
376.771	261.88
376.997	230.88
377.222	251.88
377.448	239.88
377.674	249.88
377.899	234.88
378.125	247.88
378.35	245.88
378.576	234.88
378.802	249.88
379.027	244.88
379.253	239.88
379.478	240.88
379.704	243.88
379.929	229.88
380.155	248.88
380.38	239.88
380.606	233.88
380.831	239.88
381.057	247.88
381.282	245.88
381.507	263.88
381.733	249.88
381.958	246.88
382.184	241.88
382.409	269.88
382.634	263.88
382.86	249.88
383.085	248.88
383.31	271.88
383.535	260.88
383.761	265.88
383.986	278.88
384.211	270.88
384.436	283.88
384.662	282.88
384.887	261.88
385.112	287.88
385.337	279.88
385.562	286.88
385.787	294.88
386.013	279.88
386.238	286.88
386.463	281.88
386.688	287.88
386.913	297.88
387.138	284.88
387.363	297.88
387.588	274.88
387.813	280.88
388.038	275.88
388.263	295.88
388.488	308.88
388.713	307.88
388.938	308.88
389.163	285.88
389.387	279.88
389.612	293.88
389.837	289.88
390.062	291.88
390.287	296.88
390.512	316.88
390.736	310.88
390.961	308.88
391.186	311.88
391.411	330.88
391.636	321.88
391.86	312.88
392.085	322.88
392.31	327.88
392.534	309.88
392.759	307.88
392.984	291.88
393.208	312.88
393.433	316.88
393.658	323.88
393.882	312.88
394.107	331.88
394.331	307.88
394.556	298.88
394.78	317.88
395.005	307.88
395.229	319.88
395.454	322.88
395.678	333.88
395.903	310.88
396.127	338.88
396.352	323.88
396.576	306.88
396.801	329.88
397.025	313.88
397.249	316.88
397.474	340.88
397.698	346.88
397.922	335.88
398.147	335.88
398.371	344.88
398.595	356.88
398.82	354.88
399.044	358.88
399.268	392.88
399.492	465.88
399.717	498.88
399.941	493.88
400.165	451.88
400.389	426.88
400.613	407.88
400.837	383.88
401.062	362.88
401.286	367.88
401.51	354.88
401.734	356.88
401.958	371.88
402.182	383.88
402.406	377.88
402.63	362.88
402.854	369.88
403.078	387.88
403.302	408.88
403.526	404.88
403.75	418.88
403.974	429.88
404.198	420.88
404.422	414.88
404.645	405.88
404.869	393.88
405.093	382.88
405.317	390.88
405.541	387.88
405.765	405.88
405.988	417.88
406.212	399.88
406.436	420.88
406.66	411.88
406.883	420.88
407.107	441.88
407.331	448.88
407.555	447.88
407.778	451.88
408.002	452.88
408.226	439.88
408.449	428.88
408.673	424.88
408.896	410.88
409.12	415.88
409.344	414.88
409.567	412.88
409.791	436.88
410.014	411.88
410.238	426.88
410.461	413.88
410.685	394.88
410.908	401.88
411.132	402.88
411.355	387.88
411.578	402.88
411.802	381.88
412.025	385.88
412.249	382.88
412.472	377.88
412.695	382.88
412.919	369.88
413.142	369.88
413.365	361.88
413.589	373.88
413.812	373.88
414.035	365.88
414.258	376.88
414.482	376.88
414.705	394.88
414.928	383.88
415.151	381.88
415.374	373.88
415.597	402.88
415.821	391.88
416.044	359.88
416.267	373.88
416.49	346.88
416.713	359.88
416.936	362.88
417.159	385.88
417.382	364.88
417.605	374.88
417.828	373.88
418.051	384.88
418.274	381.88
418.497	371.88
418.72	385.88
418.943	397.88
419.166	396.88
419.389	417.88
419.611	403.88
419.834	398.88
420.057	387.88
420.28	374.88
420.503	364.88
420.726	372.88
420.948	374.88
421.171	371.88
421.394	390.88
421.617	374.88
421.839	377.88
422.062	388.88
422.285	379.88
422.507	387.88
422.73	391.88
422.953	389.88
423.175	373.88
423.398	373.88
423.621	379.88
423.843	377.88
424.066	381.88
424.288	372.88
424.511	392.88
424.733	374.88
424.956	386.88
425.178	365.88
425.401	380.88
425.623	363.88
425.846	348.88
426.068	358.88
426.291	355.88
426.513	342.88
426.735	335.88
426.958	367.88
427.18	351.88
427.402	312.88
427.625	350.88
427.847	322.88
428.069	347.88
428.292	335.88
428.514	317.88
428.736	313.88
428.958	333.88
429.181	349.88
429.403	342.88
429.625	335.88
429.847	336.88
430.069	329.88
430.292	334.88
430.514	344.88
430.736	345.88
430.958	339.88
431.18	340.88
431.402	325.88
431.624	340.88
431.846	353.88
432.068	337.88
432.29	345.88
432.512	349.88
432.734	356.88
432.956	349.88
433.178	348.88
433.4	345.88
433.622	350.88
433.844	339.88
434.066	351.88
434.287	345.88
434.509	356.88
434.731	377.88
434.953	377.88
435.175	371.88
435.397	362.88
435.618	353.88
435.84	339.88
436.062	330.88
436.284	331.88
436.505	346.88
436.727	325.88
436.949	323.88
437.17	340.88
437.392	326.88
437.614	345.88
437.835	328.88
438.057	329.88
438.278	342.88
438.5	346.88
438.721	341.88
438.943	332.88
439.165	308.88
439.386	346.88
439.608	335.88
439.829	341.88
440.05	364.88
440.272	364.88
440.493	338.88
440.715	343.88
440.936	354.88
441.158	347.88
441.379	352.88
441.6	353.88
441.822	372.88
442.043	369.88
442.264	361.88
442.486	342.88
442.707	358.88
442.928	357.88
443.149	384.88
443.371	358.88
443.592	367.88
443.813	380.88
444.034	369.88
444.255	381.88
444.476	409.88
444.698	427.88
444.919	424.88
445.14	551.88
445.361	461.88
445.582	362.88
445.803	360.88
446.024	357.88
446.245	334.88
446.466	358.88
446.687	359.88
446.908	356.88
447.129	346.88
447.35	354.88
447.571	361.88
447.792	338.88
448.013	338.88
448.234	326.88
448.455	332.88
448.675	352.88
448.896	325.88
449.117	313.88
449.338	327.88
449.559	320.88
449.779	326.88
450	312.88
450.221	318.88
450.442	321.88
450.662	312.88
450.883	310.88
451.104	323.88
451.324	321.88
451.545	331.88
451.766	309.88
451.986	325.88
452.207	311.88
452.428	300.88
452.648	315.88
452.869	307.88
453.089	318.88
453.31	302.88
453.53	325.88
453.751	316.88
453.971	320.88
454.192	305.88
454.412	299.88
454.633	295.88
454.853	303.88
455.073	318.88
455.294	297.88
455.514	301.88
455.734	296.88
455.955	300.88
456.175	276.88
456.395	323.88
456.616	291.88
456.836	293.88
457.056	312.88
457.276	271.88
457.497	302.88
457.717	306.88
457.937	319.88
458.157	298.88
458.377	292.88
458.598	315.88
458.818	325.88
459.038	318.88
459.258	335.88
459.478	344.88
459.698	359.88
459.918	345.88
460.138	348.88
460.358	377.88
460.578	383.88
460.798	369.88
461.018	399.88
461.238	385.88
461.458	390.88
461.678	373.88
461.898	408.88
462.118	373.88
462.338	399.88
462.558	408.88
462.777	453.88
462.997	459.88
463.217	492.88
463.437	485.88
463.657	446.88
463.876	437.88
464.096	450.88
464.316	444.88
464.536	452.88
464.755	422.88
464.975	409.88
465.195	387.88
465.414	380.88
465.634	362.88
465.854	357.88
466.073	349.88
466.293	334.88
466.512	341.88
466.732	336.88
466.951	322.88
467.171	333.88
467.391	331.88
467.61	323.88
467.829	330.88
468.049	317.88
468.268	314.88
468.488	316.88
468.707	322.88
468.927	318.88
469.146	330.88
469.365	316.88
469.585	336.88
469.804	344.88
470.023	332.88
470.243	324.88
470.462	341.88
470.681	339.88
470.901	313.88
471.12	319.88
471.339	322.88
471.558	330.88
471.777	346.88
471.997	330.88
472.216	326.88
472.435	309.88
472.654	314.88
472.873	328.88
473.092	320.88
473.311	314.88
473.53	298.88
473.749	311.88
473.968	317.88
474.187	300.88
474.406	324.88
474.625	326.88
474.844	321.88
475.063	324.88
475.282	322.88
475.501	315.88
475.72	333.88
475.939	320.88
476.158	323.88
476.377	302.88
476.596	315.88
476.814	325.88
477.033	330.88
477.252	334.88
477.471	353.88
477.69	338.88
477.908	358.88
478.127	366.88
478.346	351.88
478.564	355.88
478.783	356.88
479.002	367.88
479.22	374.88
479.439	366.88
479.658	361.88
479.876	351.88
480.095	365.88
480.313	391.88
480.532	388.88
480.751	408.88
480.969	352.88
481.188	384.88
481.406	365.88
481.624	363.88
481.843	349.88
482.061	333.88
482.28	365.88
482.498	365.88
482.717	342.88
482.935	349.88
483.153	365.88
483.372	347.88
483.59	364.88
483.808	328.88
484.027	358.88
484.245	349.88
484.463	353.88
484.681	362.88
484.9	366.88
485.118	362.88
485.336	350.88
485.554	360.88
485.772	357.88
485.99	362.88
486.209	366.88
486.427	362.88
486.645	359.88
486.863	372.88
487.081	370.88
487.299	351.88
487.517	377.88
487.735	349.88
487.953	346.88
488.171	356.88
488.389	348.88
488.607	362.88
488.825	346.88
489.043	347.88
489.261	377.88
489.479	357.88
489.696	383.88
489.914	363.88
490.132	364.88
490.35	364.88
490.568	383.88
490.786	384.88
491.003	385.88
491.221	372.88
491.439	363.88
491.657	377.88
491.874	371.88
492.092	397.88
492.31	391.88
492.527	371.88
492.745	383.88
492.963	392.88
493.18	385.88
493.398	397.88
493.615	390.88
493.833	393.88
494.05	373.88
494.268	387.88
494.485	392.88
494.703	381.88
494.92	381.88
495.138	380.88
495.355	378.88
495.573	399.88
495.79	398.88
496.008	404.88
496.225	372.88
496.442	401.88
496.66	393.88
496.877	403.88
497.094	405.88
497.312	428.88
497.529	421.88
497.746	422.88
497.963	460.88
498.181	441.88
498.398	462.88
498.615	482.88
498.832	523.88
499.049	547.88
499.267	571.88
499.484	636.88
499.701	683.88
499.918	781.88
500.135	849.88
500.352	915.88
500.569	970.88
500.786	965.88
501.003	915.88
501.22	825.88
501.437	733.88
501.654	661.88
501.871	619.88
502.088	579.88
502.305	551.88
502.522	533.88
502.739	514.88
502.956	498.88
503.172	453.88
503.389	459.88
503.606	449.88
503.823	447.88
504.04	431.88
504.256	443.88
504.473	442.88
504.69	439.88
504.907	451.88
505.123	402.88
505.34	381.88
505.557	372.88
505.773	383.88
505.99	359.88
506.207	362.88
506.423	370.88
506.64	350.88
506.856	346.88
507.073	362.88
507.289	365.88
507.506	342.88
507.722	338.88
507.939	342.88
508.155	361.88
508.372	330.88
508.588	338.88
508.805	328.88
509.021	327.88
509.238	331.88
509.454	338.88
509.67	341.88
509.887	328.88
510.103	315.88
510.319	293.88
510.536	323.88
510.752	309.88
510.968	337.88
511.184	298.88
511.401	316.88
511.617	314.88
511.833	322.88
512.049	317.88
512.265	325.88
512.481	324.88
512.698	322.88
512.914	305.88
513.13	336.88
513.346	341.88
513.562	325.88
513.778	326.88
513.994	323.88
514.21	335.88
514.426	349.88
514.642	336.88
514.858	309.88
515.074	325.88
515.29	340.88
515.506	339.88
515.721	358.88
515.937	330.88
516.153	363.88
516.369	338.88
516.585	359.88
516.801	366.88
517.016	380.88
517.232	393.88
517.448	407.88
517.664	436.88
517.879	418.88
518.095	423.88
518.311	412.88
518.527	397.88
518.742	379.88
518.958	379.88
519.173	385.88
519.389	359.88
519.605	347.88
519.82	357.88
520.036	328.88
520.251	353.88
520.467	346.88
520.682	320.88
520.898	326.88
521.113	329.88
521.329	316.88
521.544	313.88
521.76	317.88
521.975	319.88
522.19	302.88
522.406	302.88
522.621	309.88
522.836	307.88
523.052	310.88
523.267	309.88
523.482	307.88
523.698	289.88
523.913	323.88
524.128	294.88
524.343	284.88
524.559	320.88
524.774	314.88
524.989	313.88
525.204	300.88
525.419	303.88
525.634	311.88
525.849	292.88
526.064	297.88
526.28	321.88
526.495	305.88
526.71	294.88
526.925	296.88
527.14	294.88
527.355	307.88
527.57	301.88
527.785	294.88
527.999	299.88
528.214	333.88
528.429	303.88
528.644	301.88
528.859	302.88
529.074	311.88
529.289	303.88
529.503	277.88
529.718	305.88
529.933	299.88
530.148	312.88
530.363	299.88
530.577	283.88
530.792	288.88
531.007	301.88
531.221	302.88
531.436	288.88
531.651	294.88
531.865	308.88
532.08	293.88
532.295	305.88
532.509	294.88
532.724	290.88
532.938	303.88
533.153	292.88
533.367	301.88
533.582	307.88
533.796	290.88
534.011	297.88
534.225	301.88
534.44	310.88
534.654	310.88
534.868	300.88
535.083	287.88
535.297	299.88
535.511	303.88
535.726	285.88
535.94	293.88
536.154	276.88
536.369	294.88
536.583	300.88
536.797	285.88
537.011	281.88
537.225	284.88
537.44	290.88
537.654	282.88
537.868	300.88
538.082	272.88
538.296	267.88
538.51	279.88
538.724	274.88
538.938	296.88
539.153	284.88
539.367	268.88
539.581	271.88
539.795	279.88
540.009	287.88
540.222	275.88
540.436	277.88
540.65	270.88
540.864	268.88
541.078	260.88
541.292	272.88
541.506	260.88
541.72	270.88
541.934	266.88
542.147	268.88
542.361	290.88
542.575	290.88
542.789	256.88
543.002	270.88
543.216	274.88
543.43	269.88
543.644	286.88
543.857	289.88
544.071	272.88
544.285	298.88
544.498	281.88
544.712	281.88
544.925	271.88
545.139	289.88
545.352	271.88
545.566	285.88
545.779	274.88
545.993	289.88
546.206	280.88
546.42	291.88
546.633	294.88
546.847	299.88
547.06	301.88
547.274	277.88
547.487	286.88
547.7	265.88
547.914	289.88
548.127	297.88
548.34	282.88
548.554	283.88
548.767	275.88
548.98	291.88
549.193	293.88
549.407	293.88
549.62	296.88
549.833	281.88
550.046	274.88
550.259	287.88
550.473	277.88
550.686	287.88
550.899	266.88
551.112	295.88
551.325	274.88
551.538	278.88
551.751	281.88
551.964	275.88
552.177	297.88
552.39	290.88
552.603	284.88
552.816	293.88
553.029	315.88
553.242	291.88
553.455	309.88
553.667	302.88
553.88	289.88
554.093	303.88
554.306	299.88
554.519	299.88
554.732	280.88
554.944	278.88
555.157	290.88
555.37	280.88
555.583	267.88
555.795	271.88
556.008	257.88
556.221	248.88
556.433	261.88
556.646	257.88
556.859	249.88
557.071	253.88
557.284	255.88
557.496	235.88
557.709	246.88
557.921	264.88
558.134	262.88
558.346	248.88
558.559	263.88
558.771	243.88
558.984	250.88
559.196	238.88
559.409	254.88
559.621	244.88
559.833	270.88
560.046	236.88
560.258	251.88
560.47	252.88
560.683	236.88
560.895	254.88
561.107	251.88
561.32	243.88
561.532	247.88
561.744	230.88
561.956	239.88
562.168	245.88
562.381	236.88
562.593	245.88
562.805	241.88
563.017	245.88
563.229	244.88
563.441	255.88
563.653	243.88
563.865	257.88
564.077	261.88
564.289	253.88
564.501	239.88
564.713	262.88
564.925	260.88
565.137	235.88
565.349	263.88
565.561	270.88
565.773	253.88
565.985	297.88
566.197	310.88
566.408	292.88
566.62	334.88
566.832	319.88
567.044	335.88
567.255	345.88
567.467	367.88
567.679	369.88
567.891	378.88
568.102	411.88
568.314	365.88
568.526	346.88
568.737	335.88
568.949	320.88
569.161	269.88
569.372	267.88
569.584	268.88
569.795	254.88
570.007	268.88
570.218	258.88
570.43	250.88
570.641	254.88
570.853	237.88
571.064	261.88
571.276	238.88
571.487	255.88
571.698	261.88
571.91	238.88
572.121	237.88
572.333	253.88
572.544	219.88
572.755	213.88
572.966	219.88
573.178	218.88
573.389	203.88
573.6	202.88
573.811	219.88
574.023	211.88
574.234	205.88
574.445	221.88
574.656	207.88
574.867	205.88
575.078	211.88
575.289	207.88
575.501	207.88
575.712	204.88
575.923	203.88
576.134	220.88
576.345	198.88
576.556	200.88
576.767	191.88
576.978	196.88
577.188	190.88
577.399	210.88
577.61	195.88
577.821	202.88
578.032	194.88
578.243	185.88
578.454	199.88
578.665	201.88
578.875	193.88
579.086	194.88
579.297	197.88
579.508	204.88
579.718	188.88
579.929	203.88
580.14	184.88
580.35	178.88
580.561	198.88
580.772	193.88
580.982	192.88
581.193	193.88
581.403	181.88
581.614	194.88
581.825	177.88
582.035	189.88
582.246	191.88
582.456	176.88
582.667	180.88
582.877	182.88
583.087	193.88
583.298	158.88
583.508	191.88
583.719	190.88
583.929	171.88
584.139	184.88
584.35	203.88
584.56	191.88
584.77	198.88
584.981	188.88
585.191	188.88
585.401	168.88
585.611	170.88
585.821	197.88
586.032	191.88
586.242	189.88
586.452	173.88
586.662	196.88
586.872	177.88
587.082	199.88
587.292	185.88
587.502	176.88
587.713	179.88
587.923	188.88
588.133	185.88
588.343	182.88
588.553	193.88
588.762	196.88
588.972	186.88
589.182	174.88
589.392	174.88
589.602	182.88
589.812	185.88
590.022	170.88
590.232	179.88
590.441	189.88
590.651	179.88
590.861	181.88
591.071	184.88
591.281	177.88
591.49	183.88
591.7	183.88
591.91	198.88
592.119	192.88
592.329	174.88
592.539	189.88
592.748	199.88
592.958	211.88
593.167	202.88
593.377	215.88
593.587	205.88
593.796	215.88
594.006	214.88
594.215	220.88
594.424	206.88
594.634	211.88
594.843	222.88
595.053	194.88
595.262	199.88
595.472	189.88
595.681	175.88
595.89	185.88
596.1	186.88
596.309	153.88
596.518	174.88
596.727	179.88
596.937	174.88
597.146	179.88
597.355	174.88
597.564	168.88
597.774	165.88
597.983	174.88
598.192	177.88
598.401	163.88
598.61	164.88
598.819	173.88
599.028	181.88
599.237	180.88
599.446	160.88
599.655	161.88
599.864	155.88
600.073	149.88
600.282	167.88
600.491	165.88
600.7	180.88
600.909	166.88
601.118	159.88
601.327	161.88
601.536	156.88
601.745	177.88
601.953	173.88
602.162	158.88
602.371	154.88
602.58	148.88
602.789	168.88
602.997	161.88
603.206	151.88
603.415	156.88
603.623	166.88
603.832	156.88
604.041	151.88
604.249	164.88
604.458	150.88
604.666	157.88
604.875	164.88
605.084	148.88
605.292	177.88
605.501	169.88
605.709	154.88
605.918	143.88
606.126	154.88
606.334	155.88
606.543	150.88
606.751	154.88
606.96	155.88
607.168	163.88
607.376	163.88
607.585	133.88
607.793	153.88
608.001	145.88
608.21	148.88
608.418	153.88
608.626	154.88
608.834	151.88
609.043	153.88
609.251	167.88
609.459	162.88
609.667	175.88
609.875	161.88
610.083	134.88
610.291	154.88
610.499	151.88
610.707	152.88
610.916	162.88
611.124	143.88
611.332	160.88
611.54	157.88
611.748	140.88
611.955	143.88
612.163	155.88
612.371	143.88
612.579	142.88
612.787	164.88
612.995	146.88
613.203	156.88
613.411	139.88
613.618	147.88
613.826	163.88
614.034	164.88
614.242	172.88
614.449	138.88
614.657	138.88
614.865	158.88
615.072	135.88
615.28	147.88
615.488	149.88
615.695	148.88
615.903	146.88
616.111	161.88
616.318	166.88
616.526	149.88
616.733	151.88
616.941	144.88
617.148	140.88
617.356	159.88
617.563	163.88
617.771	138.88
617.978	145.88
618.185	138.88
618.393	145.88
618.6	137.88
618.807	153.88
619.015	150.88
619.222	152.88
619.429	153.88
619.637	150.88
619.844	148.88
620.051	144.88
620.258	143.88
620.466	151.88
620.673	143.88
620.88	138.88
621.087	157.88
621.294	133.88
621.501	139.88
621.708	138.88
621.915	141.88
622.122	141.88
622.329	141.88
622.536	151.88
622.743	142.88
622.95	139.88
623.157	133.88
623.364	132.88
623.571	148.88
623.778	138.88
623.985	136.88
624.192	144.88
624.399	117.88
624.606	135.88
624.812	129.88
625.019	132.88
625.226	146.88
625.433	129.88
625.639	122.88
625.846	125.88
626.053	138.88
626.259	126.88
626.466	129.88
626.673	131.88
626.879	131.88
627.086	131.88
627.293	130.88
627.499	130.88
627.706	149.88
627.912	133.88
628.119	139.88
628.325	151.88
628.532	142.88
628.738	131.88
628.945	140.88
629.151	123.88
629.357	119.88
629.564	118.88
629.77	123.88
629.976	133.88
630.183	123.88
630.389	117.88
630.595	123.88
630.802	135.88
631.008	130.88
631.214	121.88
631.42	125.88
631.627	149.88
631.833	137.88
632.039	122.88
632.245	136.88
632.451	133.88
632.657	127.88
632.863	137.88
633.069	118.88
633.275	111.88
633.481	121.88
633.688	125.88
633.893	126.88
634.099	135.88
634.305	133.88
634.511	118.88
634.717	137.88
634.923	125.88
635.129	120.88
635.335	112.88
635.541	119.88
635.747	120.88
635.952	125.88
636.158	124.88
636.364	121.88
636.57	130.88
636.775	126.88
636.981	132.88
637.187	127.88
637.392	139.88
637.598	124.88
637.804	126.88
638.009	125.88
638.215	130.88
638.421	107.88
638.626	137.88
638.832	131.88
639.037	127.88
639.243	134.88
639.448	121.88
639.654	123.88
639.859	114.88
640.065	125.88
640.27	123.88
640.475	130.88
640.681	130.88
640.886	129.88
641.091	126.88
641.297	127.88
641.502	144.88
641.707	117.88
641.913	130.88
642.118	113.88
642.323	116.88
642.528	129.88
642.733	109.88
642.939	127.88
643.144	118.88
643.349	110.88
643.554	129.88
643.759	121.88
643.964	103.88
644.169	115.88
644.374	101.88
644.579	118.88
644.784	105.88
644.989	131.88
645.194	133.88
645.399	122.88
645.604	119.88
645.809	115.88
646.014	114.88
646.219	120.88
646.423	110.88
646.628	116.88
646.833	117.88
647.038	129.88
647.243	122.88
647.447	121.88
647.652	125.88
647.857	129.88
648.062	133.88
648.266	124.88
648.471	113.88
648.676	111.88
648.88	115.88
649.085	128.88
649.289	125.88
649.494	125.88
649.698	103.88
649.903	125.88
650.107	101.88
650.312	108.88
650.516	132.88
650.721	106.88
650.925	110.88
651.13	111.88
651.334	123.88
651.539	113.88
651.743	123.88
651.947	103.88
652.152	117.88
652.356	106.88
652.56	108.88
652.764	117.88
652.969	113.88
653.173	110.88
653.377	114.88
653.581	99.88
653.785	104.88
653.99	101.88
654.194	121.88
654.398	110.88
654.602	104.88
654.806	95.88
655.01	103.88
655.214	105.88
655.418	116.88
655.622	102.88
655.826	101.88
656.03	96.88
656.234	106.88
656.438	94.88
656.642	106.88
656.846	99.88
657.049	97.88
657.253	106.88
657.457	102.88
657.661	109.88
657.865	98.88
658.068	94.88
658.272	99.88
658.476	94.88
658.68	94.88
658.883	99.88
659.087	106.88
659.291	101.88
659.494	90.88
659.698	73.88
659.901	110.88
660.105	98.88
660.309	85.88
660.512	82.88
660.716	91.88
660.919	83.88
661.123	73.88
661.326	78.88
661.53	78.88
661.733	88.88
661.936	91.88
662.14	93.88
662.343	85.88
662.546	86.88
662.75	86.88
662.953	86.88
663.156	84.88
663.36	93.88
663.563	87.88
663.766	83.88
663.969	93.88
664.173	80.88
664.376	85.88
664.579	80.88
664.782	83.88
664.985	85.88
665.188	83.88
665.391	83.88
665.594	87.88
665.797	77.88
666	85.88
666.203	84.88
666.406	72.88
666.609	80.88
666.812	93.88
667.015	71.88
667.218	83.88
667.421	78.88
667.624	73.88
667.827	98.88
668.03	75.88
668.232	83.88
668.435	83.88
668.638	84.88
668.841	86.88
669.043	86.88
669.246	78.88
669.449	81.88
669.651	87.88
669.854	85.88
670.057	83.88
670.259	79.88
670.462	84.88
670.665	84.88
670.867	89.88
671.07	82.88
671.272	88.88
671.475	77.88
671.677	79.88
671.88	75.88
672.082	90.88
672.284	94.88
672.487	85.88
672.689	89.88
672.892	75.88
