Data from Fe(NO3)3@0.1M.TitratingCurve.Agarose3%dH2O.NegLispCup.LampEnergy10.LIBS07252019_HRD10591_16-40-03-332.txt Node
Date: Thu Jul 25 16:40:03 EDT 2019
User: cochatt
Spectrometer: HR+D1059
Trigger mode: 1
Integration Time (sec): 1.000000E-1
Scans to average: 1
Electric dark correction enabled: true
Nonlinearity correction enabled: false
Boxcar width: 0
XAxis mode: Wavelengths
Number of Pixels in Spectrum: 2048
>>>>>Begin Spectral Data<<<<<
223.165	-12.31
223.4	-12.31
223.635	-12.31
223.869	-13.31
224.104	-9.31
224.338	-18.31
224.573	-5.31
224.808	-18.31
225.042	-18.31
225.277	-17.31
225.511	-12.31
225.746	15.69
225.98	13.69
226.215	21.69
226.449	17.69
226.683	21.69
226.918	14.69
227.152	19.69
227.387	25.69
227.621	39.69
227.856	53.69
228.09	48.69
228.324	45.69
228.559	48.69
228.793	48.69
229.027	85.69
229.262	86.69
229.496	81.69
229.73	74.69
229.964	71.69
230.199	93.69
230.433	89.69
230.667	75.69
230.901	77.69
231.136	77.69
231.37	98.69
231.604	100.69
231.838	93.69
232.072	92.69
232.306	88.69
232.541	97.69
232.775	92.69
233.009	91.69
233.243	89.69
233.477	95.69
233.711	92.69
233.945	89.69
234.179	100.69
234.413	102.69
234.647	93.69
234.881	96.69
235.115	100.69
235.349	88.69
235.583	88.69
235.817	86.69
236.051	92.69
236.285	94.69
236.519	93.69
236.753	87.69
236.987	94.69
237.221	100.69
237.455	80.69
237.689	93.69
237.922	89.69
238.156	98.69
238.39	78.69
238.624	97.69
238.858	98.69
239.091	97.69
239.325	99.69
239.559	102.69
239.793	92.69
240.027	101.69
240.26	92.69
240.494	107.69
240.728	96.69
240.961	94.69
241.195	98.69
241.429	103.69
241.662	94.69
241.896	98.69
242.13	110.69
242.363	93.69
242.597	86.69
242.83	102.69
243.064	96.69
243.298	90.69
243.531	90.69
243.765	94.69
243.998	116.69
244.232	117.69
244.465	104.69
244.699	79.69
244.932	107.69
245.166	110.69
245.399	124.69
245.633	114.69
245.866	106.69
246.099	118.69
246.333	101.69
246.566	92.69
246.8	109.69
247.033	97.69
247.266	103.69
247.5	100.69
247.733	107.69
247.966	96.69
248.2	114.69
248.433	98.69
248.666	88.69
248.899	110.69
249.133	121.69
249.366	116.69
249.599	118.69
249.832	119.69
250.066	108.69
250.299	121.69
250.532	118.69
250.765	105.69
250.998	111.69
251.231	123.69
251.465	112.69
251.698	106.69
251.931	116.69
252.164	116.69
252.397	116.69
252.63	125.69
252.863	118.69
253.096	125.69
253.329	130.69
253.562	127.69
253.795	135.69
254.028	118.69
254.261	121.69
254.494	116.69
254.727	131.69
254.96	125.69
255.193	134.69
255.426	121.69
255.659	117.69
255.892	130.69
256.124	134.69
256.357	130.69
256.59	140.69
256.823	120.69
257.056	121.69
257.289	116.69
257.521	122.69
257.754	115.69
257.987	112.69
258.22	131.69
258.452	115.69
258.685	124.69
258.918	127.69
259.151	126.69
259.383	128.69
259.616	122.69
259.849	115.69
260.081	132.69
260.314	124.69
260.547	136.69
260.779	124.69
261.012	133.69
261.244	126.69
261.477	131.69
261.71	118.69
261.942	125.69
262.175	113.69
262.407	128.69
262.64	128.69
262.872	133.69
263.105	128.69
263.337	132.69
263.57	130.69
263.802	125.69
264.035	136.69
264.267	139.69
264.499	143.69
264.732	144.69
264.964	128.69
265.197	141.69
265.429	138.69
265.661	129.69
265.894	126.69
266.126	133.69
266.358	139.69
266.591	140.69
266.823	125.69
267.055	120.69
267.287	146.69
267.52	129.69
267.752	130.69
267.984	150.69
268.216	137.69
268.448	133.69
268.681	118.69
268.913	127.69
269.145	116.69
269.377	132.69
269.609	132.69
269.841	126.69
270.073	145.69
270.306	151.69
270.538	134.69
270.77	148.69
271.002	141.69
271.234	148.69
271.466	160.69
271.698	156.69
271.93	146.69
272.162	152.69
272.394	155.69
272.626	141.69
272.858	141.69
273.09	137.69
273.322	149.69
273.553	147.69
273.785	143.69
274.017	133.69
274.249	142.69
274.481	156.69
274.713	155.69
274.945	165.69
275.176	146.69
275.408	132.69
275.64	160.69
275.872	159.69
276.104	143.69
276.335	147.69
276.567	148.69
276.799	138.69
277.031	159.69
277.262	153.69
277.494	137.69
277.726	150.69
277.957	160.69
278.189	143.69
278.421	158.69
278.652	149.69
278.884	147.69
279.115	167.69
279.347	166.69
279.579	146.69
279.81	148.69
280.042	145.69
280.273	166.69
280.505	165.69
280.736	155.69
280.968	146.69
281.199	170.69
281.431	147.69
281.662	163.69
281.894	150.69
282.125	164.69
282.356	161.69
282.588	162.69
282.819	156.69
283.051	156.69
283.282	161.69
283.513	169.69
283.745	174.69
283.976	163.69
284.207	166.69
284.439	160.69
284.67	167.69
284.901	175.69
285.132	180.69
285.364	169.69
285.595	150.69
285.826	173.69
286.057	166.69
286.288	166.69
286.52	168.69
286.751	191.69
286.982	173.69
287.213	158.69
287.444	161.69
287.675	178.69
287.906	173.69
288.138	178.69
288.369	165.69
288.6	180.69
288.831	179.69
289.062	169.69
289.293	180.69
289.524	184.69
289.755	170.69
289.986	166.69
290.217	164.69
290.448	166.69
290.679	183.69
290.91	190.69
291.141	180.69
291.371	183.69
291.602	174.69
291.833	180.69
292.064	180.69
292.295	180.69
292.526	182.69
292.757	178.69
292.987	185.69
293.218	180.69
293.449	188.69
293.68	167.69
293.91	178.69
294.141	178.69
294.372	190.69
294.603	176.69
294.833	174.69
295.064	189.69
295.295	183.69
295.525	195.69
295.756	171.69
295.987	182.69
296.217	208.69
296.448	184.69
296.679	188.69
296.909	214.69
297.14	190.69
297.37	187.69
297.601	177.69
297.831	194.69
298.062	203.69
298.292	197.69
298.523	200.69
298.753	196.69
298.984	187.69
299.214	182.69
299.445	194.69
299.675	198.69
299.905	171.69
300.136	173.69
300.366	182.69
300.597	191.69
300.827	200.69
301.057	187.69
301.288	188.69
301.518	190.69
301.748	191.69
301.979	210.69
302.209	205.69
302.439	214.69
302.669	210.69
302.9	198.69
303.13	202.69
303.36	192.69
303.59	186.69
303.82	194.69
304.051	200.69
304.281	215.69
304.511	188.69
304.741	197.69
304.971	186.69
305.201	197.69
305.431	208.69
305.661	200.69
305.891	204.69
306.121	183.69
306.352	208.69
306.582	208.69
306.812	195.69
307.042	202.69
307.272	188.69
307.502	203.69
307.731	177.69
307.961	195.69
308.191	202.69
308.421	203.69
308.651	197.69
308.881	188.69
309.111	216.69
309.341	188.69
309.571	207.69
309.8	204.69
310.03	185.69
310.26	203.69
310.49	191.69
310.72	197.69
310.949	196.69
311.179	192.69
311.409	195.69
311.639	193.69
311.868	190.69
312.098	205.69
312.328	209.69
312.557	210.69
312.787	204.69
313.017	220.69
313.246	215.69
313.476	201.69
313.706	213.69
313.935	202.69
314.165	226.69
314.394	203.69
314.624	223.69
314.853	216.69
315.083	207.69
315.312	208.69
315.542	209.69
315.771	206.69
316.001	201.69
316.23	200.69
316.46	204.69
316.689	203.69
316.919	206.69
317.148	225.69
317.377	217.69
317.607	214.69
317.836	188.69
318.065	206.69
318.295	213.69
318.524	213.69
318.753	204.69
318.983	218.69
319.212	213.69
319.441	216.69
319.67	213.69
319.9	203.69
320.129	216.69
320.358	212.69
320.587	235.69
320.816	196.69
321.046	237.69
321.275	228.69
321.504	187.69
321.733	206.69
321.962	200.69
322.191	202.69
322.42	217.69
322.649	210.69
322.878	220.69
323.108	213.69
323.337	224.69
323.566	194.69
323.795	222.69
324.024	227.69
324.253	225.69
324.482	204.69
324.71	221.69
324.939	221.69
325.168	214.69
325.397	205.69
325.626	226.69
325.855	226.69
326.084	225.69
326.313	225.69
326.542	213.69
326.77	224.69
326.999	242.69
327.228	229.69
327.457	239.69
327.686	221.69
327.914	225.69
328.143	216.69
328.372	235.69
328.6	226.69
328.829	225.69
329.058	222.69
329.287	226.69
329.515	228.69
329.744	217.69
329.972	236.69
330.201	235.69
330.43	243.69
330.658	240.69
330.887	235.69
331.115	238.69
331.344	235.69
331.572	247.69
331.801	255.69
332.03	249.69
332.258	258.69
332.486	266.69
332.715	264.69
332.943	274.69
333.172	296.69
333.4	288.69
333.629	286.69
333.857	297.69
334.085	312.69
334.314	290.69
334.542	289.69
334.771	280.69
334.999	289.69
335.227	272.69
335.455	261.69
335.684	271.69
335.912	278.69
336.14	263.69
336.369	278.69
336.597	265.69
336.825	261.69
337.053	263.69
337.281	275.69
337.51	262.69
337.738	257.69
337.966	257.69
338.194	247.69
338.422	268.69
338.65	255.69
338.878	248.69
339.106	247.69
339.334	253.69
339.562	249.69
339.79	260.69
340.018	266.69
340.246	238.69
340.474	241.69
340.702	249.69
340.93	236.69
341.158	246.69
341.386	252.69
341.614	233.69
341.842	231.69
342.07	252.69
342.298	238.69
342.526	234.69
342.754	244.69
342.981	246.69
343.209	270.69
343.437	268.69
343.665	288.69
343.893	280.69
344.12	277.69
344.348	282.69
344.576	261.69
344.804	241.69
345.031	258.69
345.259	246.69
345.487	238.69
345.714	233.69
345.942	238.69
346.17	234.69
346.397	239.69
346.625	238.69
346.853	240.69
347.08	249.69
347.308	243.69
347.535	230.69
347.763	244.69
347.99	233.69
348.218	243.69
348.445	228.69
348.673	239.69
348.9	232.69
349.128	234.69
349.355	253.69
349.583	237.69
349.81	218.69
350.037	218.69
350.265	231.69
350.492	227.69
350.72	216.69
350.947	234.69
351.174	223.69
351.402	232.69
351.629	239.69
351.856	235.69
352.083	244.69
352.311	240.69
352.538	228.69
352.765	215.69
352.992	228.69
353.22	227.69
353.447	225.69
353.674	252.69
353.901	221.69
354.128	233.69
354.355	227.69
354.583	220.69
354.81	258.69
355.037	230.69
355.264	234.69
355.491	249.69
355.718	238.69
355.945	244.69
356.172	256.69
356.399	233.69
356.626	222.69
356.853	239.69
357.08	226.69
357.307	242.69
357.534	221.69
357.761	246.69
357.988	245.69
358.215	227.69
358.441	216.69
358.668	215.69
358.895	226.69
359.122	229.69
359.349	243.69
359.576	223.69
359.802	235.69
360.029	235.69
360.256	232.69
360.483	234.69
360.709	233.69
360.936	242.69
361.163	230.69
361.39	244.69
361.616	242.69
361.843	237.69
362.07	237.69
362.296	232.69
362.523	245.69
362.749	235.69
362.976	228.69
363.203	238.69
363.429	249.69
363.656	240.69
363.882	234.69
364.109	248.69
364.335	242.69
364.562	271.69
364.788	234.69
365.015	243.69
365.241	242.69
365.468	229.69
365.694	229.69
365.92	238.69
366.147	227.69
366.373	243.69
366.599	220.69
366.826	234.69
367.052	237.69
367.278	235.69
367.505	248.69
367.731	228.69
367.957	236.69
368.184	233.69
368.41	238.69
368.636	240.69
368.862	233.69
369.089	233.69
369.315	240.69
369.541	253.69
369.767	242.69
369.993	253.69
370.219	258.69
370.445	248.69
370.672	252.69
370.898	251.69
371.124	252.69
371.35	229.69
371.576	265.69
371.802	243.69
372.028	254.69
372.254	259.69
372.48	256.69
372.706	250.69
372.932	256.69
373.158	249.69
373.384	246.69
373.61	266.69
373.835	273.69
374.061	248.69
374.287	260.69
374.513	266.69
374.739	273.69
374.965	266.69
375.191	258.69
375.416	268.69
375.642	265.69
375.868	261.69
376.094	273.69
376.319	268.69
376.545	259.69
376.771	271.69
376.997	261.69
377.222	236.69
377.448	246.69
377.674	241.69
377.899	243.69
378.125	256.69
378.35	241.69
378.576	243.69
378.802	252.69
379.027	265.69
379.253	251.69
379.478	264.69
379.704	259.69
379.929	247.69
380.155	256.69
380.38	253.69
380.606	264.69
380.831	264.69
381.057	272.69
381.282	252.69
381.507	250.69
381.733	263.69
381.958	280.69
382.184	262.69
382.409	288.69
382.634	292.69
382.86	276.69
383.085	264.69
383.31	293.69
383.535	284.69
383.761	285.69
383.986	280.69
384.211	297.69
384.436	289.69
384.662	297.69
384.887	296.69
385.112	309.69
385.337	300.69
385.562	296.69
385.787	294.69
386.013	309.69
386.238	298.69
386.463	306.69
386.688	302.69
386.913	301.69
387.138	305.69
387.363	320.69
387.588	330.69
387.813	320.69
388.038	292.69
388.263	297.69
388.488	304.69
388.713	288.69
388.938	294.69
389.163	310.69
389.387	292.69
389.612	292.69
389.837	316.69
390.062	300.69
390.287	308.69
390.512	289.69
390.736	310.69
390.961	316.69
391.186	310.69
391.411	315.69
391.636	328.69
391.86	330.69
392.085	323.69
392.31	334.69
392.534	357.69
392.759	330.69
392.984	329.69
393.208	293.69
393.433	304.69
393.658	337.69
393.882	316.69
394.107	317.69
394.331	313.69
394.556	316.69
394.78	320.69
395.005	310.69
395.229	337.69
395.454	337.69
395.678	348.69
395.903	329.69
396.127	312.69
396.352	311.69
396.576	332.69
396.801	300.69
397.025	313.69
397.249	336.69
397.474	319.69
397.698	337.69
397.922	327.69
398.147	332.69
398.371	342.69
398.595	355.69
398.82	374.69
399.044	390.69
399.268	439.69
399.492	491.69
399.717	525.69
399.941	506.69
400.165	436.69
400.389	406.69
400.613	404.69
400.837	382.69
401.062	389.69
401.286	384.69
401.51	365.69
401.734	376.69
401.958	357.69
402.182	368.69
402.406	376.69
402.63	384.69
402.854	379.69
403.078	398.69
403.302	408.69
403.526	417.69
403.75	413.69
403.974	418.69
404.198	442.69
404.422	432.69
404.645	413.69
404.869	404.69
405.093	388.69
405.317	396.69
405.541	401.69
405.765	402.69
405.988	394.69
406.212	398.69
406.436	405.69
406.66	408.69
406.883	439.69
407.107	459.69
407.331	453.69
407.555	473.69
407.778	449.69
408.002	436.69
408.226	445.69
408.449	424.69
408.673	432.69
408.896	409.69
409.12	413.69
409.344	409.69
409.567	414.69
409.791	425.69
410.014	428.69
410.238	410.69
410.461	399.69
410.685	412.69
410.908	420.69
411.132	395.69
411.355	390.69
411.578	380.69
411.802	388.69
412.025	380.69
412.249	410.69
412.472	390.69
412.695	360.69
412.919	378.69
413.142	391.69
413.365	380.69
413.589	398.69
413.812	385.69
414.035	398.69
414.258	362.69
414.482	381.69
414.705	394.69
414.928	389.69
415.151	398.69
415.374	364.69
415.597	378.69
415.821	378.69
416.044	361.69
416.267	374.69
416.49	390.69
416.713	359.69
416.936	374.69
417.159	370.69
417.382	378.69
417.605	387.69
417.828	384.69
418.051	371.69
418.274	393.69
418.497	374.69
418.72	376.69
418.943	382.69
419.166	406.69
419.389	401.69
419.611	414.69
419.834	416.69
420.057	410.69
420.28	389.69
420.503	402.69
420.726	376.69
420.948	392.69
421.171	367.69
421.394	369.69
421.617	384.69
421.839	400.69
422.062	394.69
422.285	399.69
422.507	380.69
422.73	381.69
422.953	384.69
423.175	387.69
423.398	385.69
423.621	393.69
423.843	399.69
424.066	406.69
424.288	400.69
424.511	376.69
424.733	391.69
424.956	364.69
425.178	398.69
425.401	376.69
425.623	379.69
425.846	365.69
426.068	380.69
426.291	375.69
426.513	363.69
426.735	357.69
426.958	368.69
427.18	371.69
427.402	350.69
427.625	333.69
427.847	345.69
428.069	329.69
428.292	358.69
428.514	349.69
428.736	345.69
428.958	347.69
429.181	332.69
429.403	340.69
429.625	349.69
429.847	337.69
430.069	325.69
430.292	338.69
430.514	340.69
430.736	352.69
430.958	352.69
431.18	334.69
431.402	327.69
431.624	344.69
431.846	348.69
432.068	337.69
432.29	349.69
432.512	328.69
432.734	361.69
432.956	374.69
433.178	343.69
433.4	347.69
433.622	348.69
433.844	368.69
434.066	350.69
434.287	358.69
434.509	362.69
434.731	379.69
434.953	398.69
435.175	373.69
435.397	379.69
435.618	368.69
435.84	343.69
436.062	350.69
436.284	356.69
436.505	368.69
436.727	356.69
436.949	351.69
437.17	364.69
437.392	344.69
437.614	348.69
437.835	359.69
438.057	342.69
438.278	335.69
438.5	337.69
438.721	337.69
438.943	344.69
439.165	345.69
439.386	361.69
439.608	359.69
439.829	344.69
440.05	377.69
440.272	357.69
440.493	361.69
440.715	382.69
440.936	392.69
441.158	373.69
441.379	386.69
441.6	397.69
441.822	390.69
442.043	392.69
442.264	403.69
442.486	400.69
442.707	384.69
442.928	392.69
443.149	400.69
443.371	393.69
443.592	404.69
443.813	377.69
444.034	397.69
444.255	407.69
444.476	438.69
444.698	460.69
444.919	444.69
445.14	542.69
445.361	459.69
445.582	408.69
445.803	401.69
446.024	374.69
446.245	385.69
446.466	377.69
446.687	362.69
446.908	374.69
447.129	357.69
447.35	363.69
447.571	351.69
447.792	354.69
448.013	347.69
448.234	330.69
448.455	356.69
448.675	352.69
448.896	330.69
449.117	328.69
449.338	339.69
449.559	337.69
449.779	329.69
450	350.69
450.221	337.69
450.442	341.69
450.662	344.69
450.883	358.69
451.104	351.69
451.324	357.69
451.545	329.69
451.766	330.69
451.986	344.69
452.207	323.69
452.428	331.69
452.648	327.69
452.869	328.69
453.089	315.69
453.31	326.69
453.53	303.69
453.751	310.69
453.971	332.69
454.192	316.69
454.412	309.69
454.633	315.69
454.853	325.69
455.073	308.69
455.294	313.69
455.514	323.69
455.734	308.69
455.955	293.69
456.175	308.69
456.395	318.69
456.616	324.69
456.836	318.69
457.056	300.69
457.276	333.69
457.497	300.69
457.717	308.69
457.937	322.69
458.157	299.69
458.377	318.69
458.598	322.69
458.818	323.69
459.038	339.69
459.258	317.69
459.478	363.69
459.698	368.69
459.918	378.69
460.138	378.69
460.358	397.69
460.578	418.69
460.798	412.69
461.018	396.69
461.238	405.69
461.458	386.69
461.678	397.69
461.898	403.69
462.118	421.69
462.338	430.69
462.558	438.69
462.777	460.69
462.997	468.69
463.217	528.69
463.437	502.69
463.657	474.69
463.876	470.69
464.096	460.69
464.316	462.69
464.536	455.69
464.755	451.69
464.975	415.69
465.195	412.69
465.414	404.69
465.634	371.69
465.854	333.69
466.073	372.69
466.293	358.69
466.512	332.69
466.732	343.69
466.951	347.69
467.171	354.69
467.391	329.69
467.61	356.69
467.829	339.69
468.049	341.69
468.268	353.69
468.488	325.69
468.707	335.69
468.927	323.69
469.146	340.69
469.365	350.69
469.585	339.69
469.804	349.69
470.023	348.69
470.243	340.69
470.462	343.69
470.681	336.69
470.901	355.69
471.12	343.69
471.339	339.69
471.558	338.69
471.777	331.69
471.997	355.69
472.216	336.69
472.435	326.69
472.654	322.69
472.873	318.69
473.092	321.69
473.311	332.69
473.53	323.69
473.749	324.69
473.968	335.69
474.187	319.69
474.406	325.69
474.625	304.69
474.844	315.69
475.063	307.69
475.282	317.69
475.501	337.69
475.72	334.69
475.939	333.69
476.158	332.69
476.377	331.69
476.596	337.69
476.814	334.69
477.033	358.69
477.252	331.69
477.471	365.69
477.69	349.69
477.908	362.69
478.127	363.69
478.346	368.69
478.564	378.69
478.783	372.69
479.002	380.69
479.22	370.69
479.439	383.69
479.658	373.69
479.876	375.69
480.095	388.69
480.313	386.69
480.532	408.69
480.751	386.69
480.969	380.69
481.188	357.69
481.406	354.69
481.624	375.69
481.843	372.69
482.061	356.69
482.28	342.69
482.498	345.69
482.717	327.69
482.935	342.69
483.153	343.69
483.372	354.69
483.59	354.69
483.808	341.69
484.027	349.69
484.245	344.69
484.463	368.69
484.681	361.69
484.9	351.69
485.118	342.69
485.336	369.69
485.554	361.69
485.772	380.69
485.99	338.69
486.209	366.69
486.427	364.69
486.645	357.69
486.863	372.69
487.081	363.69
487.299	365.69
487.517	375.69
487.735	386.69
487.953	381.69
488.171	375.69
488.389	386.69
488.607	356.69
488.825	361.69
489.043	359.69
489.261	357.69
489.479	375.69
489.696	383.69
489.914	389.69
490.132	369.69
490.35	354.69
490.568	371.69
490.786	381.69
491.003	376.69
491.221	378.69
491.439	373.69
491.657	377.69
491.874	377.69
492.092	369.69
492.31	386.69
492.527	393.69
492.745	388.69
492.963	380.69
493.18	386.69
493.398	400.69
493.615	397.69
493.833	386.69
494.05	394.69
494.268	406.69
494.485	382.69
494.703	404.69
494.92	391.69
495.138	382.69
495.355	388.69
495.573	390.69
495.79	375.69
496.008	399.69
496.225	408.69
496.442	421.69
496.66	429.69
496.877	429.69
497.094	426.69
497.312	415.69
497.529	417.69
497.746	433.69
497.963	424.69
498.181	449.69
498.398	474.69
498.615	499.69
498.832	524.69
499.049	543.69
499.267	595.69
499.484	659.69
499.701	722.69
499.918	794.69
500.135	890.69
500.352	963.69
500.569	994.69
500.786	977.69
501.003	904.69
501.22	812.69
501.437	746.69
501.654	660.69
501.871	603.69
502.088	585.69
502.305	557.69
502.522	539.69
502.739	514.69
502.956	482.69
503.172	470.69
503.389	465.69
503.606	421.69
503.823	419.69
504.04	427.69
504.256	421.69
504.473	438.69
504.69	465.69
504.907	444.69
505.123	415.69
505.34	386.69
505.557	389.69
505.773	380.69
505.99	370.69
506.207	357.69
506.423	347.69
506.64	364.69
506.856	349.69
507.073	339.69
507.289	356.69
507.506	322.69
507.722	328.69
507.939	359.69
508.155	328.69
508.372	335.69
508.588	346.69
508.805	327.69
509.021	324.69
509.238	328.69
509.454	321.69
509.67	306.69
509.887	321.69
510.103	317.69
510.319	300.69
510.536	321.69
510.752	314.69
510.968	331.69
511.184	317.69
511.401	308.69
511.617	314.69
511.833	299.69
512.049	314.69
512.265	322.69
512.481	321.69
512.698	323.69
512.914	304.69
513.13	320.69
513.346	343.69
513.562	329.69
513.778	314.69
513.994	317.69
514.21	311.69
514.426	321.69
514.642	319.69
514.858	301.69
515.074	312.69
515.29	334.69
515.506	334.69
515.721	331.69
515.937	344.69
516.153	357.69
516.369	332.69
516.585	364.69
516.801	361.69
517.016	396.69
517.232	392.69
517.448	399.69
517.664	416.69
517.879	432.69
518.095	422.69
518.311	414.69
518.527	385.69
518.742	366.69
518.958	378.69
519.173	357.69
519.389	366.69
519.605	350.69
519.82	340.69
520.036	330.69
520.251	327.69
520.467	345.69
520.682	322.69
520.898	344.69
521.113	334.69
521.329	306.69
521.544	301.69
521.76	315.69
521.975	315.69
522.19	290.69
522.406	292.69
522.621	315.69
522.836	312.69
523.052	297.69
523.267	296.69
523.482	285.69
523.698	301.69
523.913	314.69
524.128	292.69
524.343	298.69
524.559	281.69
524.774	313.69
524.989	296.69
525.204	299.69
525.419	300.69
525.634	286.69
525.849	293.69
526.064	286.69
526.28	288.69
526.495	280.69
526.71	294.69
526.925	286.69
527.14	291.69
527.355	271.69
527.57	294.69
527.785	296.69
527.999	293.69
528.214	281.69
528.429	290.69
528.644	291.69
528.859	302.69
529.074	281.69
529.289	298.69
529.503	282.69
529.718	295.69
529.933	291.69
530.148	283.69
530.363	283.69
530.577	291.69
530.792	300.69
531.007	285.69
531.221	298.69
531.436	285.69
531.651	281.69
531.865	288.69
532.08	304.69
532.295	281.69
532.509	285.69
532.724	280.69
532.938	304.69
533.153	292.69
533.367	288.69
533.582	282.69
533.796	286.69
534.011	296.69
534.225	294.69
534.44	280.69
534.654	267.69
534.868	288.69
535.083	266.69
535.297	294.69
535.511	301.69
535.726	277.69
535.94	281.69
536.154	268.69
536.369	267.69
536.583	277.69
536.797	268.69
537.011	272.69
537.225	267.69
537.44	264.69
537.654	265.69
537.868	275.69
538.082	260.69
538.296	263.69
538.51	261.69
538.724	264.69
538.938	272.69
539.153	292.69
539.367	271.69
539.581	274.69
539.795	266.69
540.009	271.69
540.222	262.69
540.436	276.69
540.65	252.69
540.864	271.69
541.078	273.69
541.292	281.69
541.506	268.69
541.72	273.69
541.934	269.69
542.147	260.69
542.361	286.69
542.575	248.69
542.789	276.69
543.002	276.69
543.216	257.69
543.43	254.69
543.644	269.69
543.857	270.69
544.071	275.69
544.285	272.69
544.498	260.69
544.712	278.69
544.925	269.69
545.139	285.69
545.352	290.69
545.566	285.69
545.779	297.69
545.993	263.69
546.206	267.69
546.42	276.69
546.633	292.69
546.847	284.69
547.06	269.69
547.274	270.69
547.487	273.69
547.7	282.69
547.914	276.69
548.127	272.69
548.34	267.69
548.554	282.69
548.767	291.69
548.98	285.69
549.193	290.69
549.407	279.69
549.62	278.69
549.833	264.69
550.046	276.69
550.259	277.69
550.473	280.69
550.686	264.69
550.899	279.69
551.112	272.69
551.325	280.69
551.538	276.69
551.751	280.69
551.964	289.69
552.177	282.69
552.39	280.69
552.603	288.69
552.816	272.69
553.029	298.69
553.242	286.69
553.455	306.69
553.667	309.69
553.88	295.69
554.093	285.69
554.306	271.69
554.519	272.69
554.732	271.69
554.944	267.69
555.157	267.69
555.37	262.69
555.583	261.69
555.795	252.69
556.008	266.69
556.221	246.69
556.433	246.69
556.646	249.69
556.859	236.69
557.071	249.69
557.284	249.69
557.496	243.69
557.709	231.69
557.921	251.69
558.134	246.69
558.346	230.69
558.559	243.69
558.771	242.69
558.984	241.69
559.196	244.69
559.409	245.69
559.621	242.69
559.833	234.69
560.046	226.69
560.258	219.69
560.47	242.69
560.683	225.69
560.895	258.69
561.107	247.69
561.32	240.69
561.532	245.69
561.744	221.69
561.956	231.69
562.168	232.69
562.381	244.69
562.593	224.69
562.805	254.69
563.017	244.69
563.229	223.69
563.441	245.69
563.653	244.69
563.865	222.69
564.077	246.69
564.289	247.69
564.501	265.69
564.713	249.69
564.925	250.69
565.137	262.69
565.349	251.69
565.561	241.69
565.773	265.69
565.985	282.69
566.197	292.69
566.408	311.69
566.62	321.69
566.832	319.69
567.044	353.69
567.255	336.69
567.467	349.69
567.679	354.69
567.891	394.69
568.102	398.69
568.314	390.69
568.526	353.69
568.737	324.69
568.949	304.69
569.161	274.69
569.372	269.69
569.584	271.69
569.795	258.69
570.007	233.69
570.218	232.69
570.43	241.69
570.641	240.69
570.853	242.69
571.064	259.69
571.276	235.69
571.487	223.69
571.698	228.69
571.91	200.69
572.121	215.69
572.333	219.69
572.544	223.69
572.755	203.69
572.966	209.69
573.178	212.69
573.389	203.69
573.6	204.69
573.811	187.69
574.023	209.69
574.234	205.69
574.445	197.69
574.656	192.69
574.867	213.69
575.078	200.69
575.289	221.69
575.501	194.69
575.712	206.69
575.923	201.69
576.134	188.69
576.345	206.69
576.556	188.69
576.767	194.69
576.978	191.69
577.188	189.69
577.399	189.69
577.61	192.69
577.821	173.69
578.032	185.69
578.243	178.69
578.454	199.69
578.665	211.69
578.875	172.69
579.086	181.69
579.297	172.69
579.508	184.69
579.718	181.69
579.929	198.69
580.14	189.69
580.35	192.69
580.561	186.69
580.772	179.69
580.982	172.69
581.193	171.69
581.403	180.69
581.614	189.69
581.825	179.69
582.035	171.69
582.246	182.69
582.456	185.69
582.667	189.69
582.877	166.69
583.087	159.69
583.298	182.69
583.508	179.69
583.719	192.69
583.929	169.69
584.139	170.69
584.35	186.69
584.56	176.69
584.77	177.69
584.981	186.69
585.191	184.69
585.401	181.69
585.611	164.69
585.821	169.69
586.032	179.69
586.242	157.69
586.452	174.69
586.662	183.69
586.872	188.69
587.082	165.69
587.292	166.69
587.502	171.69
587.713	170.69
587.923	169.69
588.133	179.69
588.343	181.69
588.553	177.69
588.762	183.69
588.972	183.69
589.182	161.69
589.392	163.69
589.602	169.69
589.812	182.69
590.022	198.69
590.232	157.69
590.441	179.69
590.651	166.69
590.861	171.69
591.071	165.69
591.281	186.69
591.49	185.69
591.7	195.69
591.91	206.69
592.119	193.69
592.329	178.69
592.539	205.69
592.748	181.69
592.958	201.69
593.167	203.69
593.377	215.69
593.587	229.69
593.796	215.69
594.006	208.69
594.215	202.69
594.424	225.69
594.634	197.69
594.843	213.69
595.053	204.69
595.262	187.69
595.472	171.69
595.681	175.69
595.89	174.69
596.1	154.69
596.309	168.69
596.518	180.69
596.727	174.69
596.937	169.69
597.146	189.69
597.355	174.69
597.564	172.69
597.774	167.69
597.983	163.69
598.192	158.69
598.401	164.69
598.61	150.69
598.819	161.69
599.028	153.69
599.237	161.69
599.446	151.69
599.655	156.69
599.864	143.69
600.073	143.69
600.282	161.69
600.491	147.69
600.7	146.69
600.909	161.69
601.118	158.69
601.327	148.69
601.536	164.69
601.745	151.69
601.953	156.69
602.162	154.69
602.371	158.69
602.58	159.69
602.789	141.69
602.997	145.69
603.206	153.69
603.415	151.69
603.623	145.69
603.832	153.69
604.041	153.69
604.249	152.69
604.458	153.69
604.666	139.69
604.875	154.69
605.084	142.69
605.292	151.69
605.501	157.69
605.709	153.69
605.918	160.69
606.126	153.69
606.334	157.69
606.543	164.69
606.751	153.69
606.96	141.69
607.168	169.69
607.376	145.69
607.585	144.69
607.793	155.69
608.001	148.69
608.21	136.69
608.418	148.69
608.626	133.69
608.834	136.69
609.043	137.69
609.251	140.69
609.459	149.69
609.667	165.69
609.875	160.69
610.083	141.69
610.291	141.69
610.499	150.69
610.707	145.69
610.916	150.69
611.124	146.69
611.332	139.69
611.54	156.69
611.748	153.69
611.955	140.69
612.163	141.69
612.371	131.69
612.579	136.69
612.787	143.69
612.995	160.69
613.203	146.69
613.411	132.69
613.618	146.69
613.826	152.69
614.034	149.69
614.242	138.69
614.449	141.69
614.657	164.69
614.865	152.69
615.072	136.69
615.28	136.69
615.488	143.69
615.695	143.69
615.903	154.69
616.111	145.69
616.318	132.69
616.526	136.69
616.733	173.69
616.941	131.69
617.148	156.69
617.356	145.69
617.563	126.69
617.771	159.69
617.978	142.69
618.185	140.69
618.393	141.69
618.6	140.69
618.807	146.69
619.015	138.69
619.222	144.69
619.429	143.69
619.637	145.69
619.844	143.69
620.051	140.69
620.258	143.69
620.466	131.69
620.673	154.69
620.88	156.69
621.087	145.69
621.294	147.69
621.501	153.69
621.708	145.69
621.915	140.69
622.122	138.69
622.329	137.69
622.536	132.69
622.743	156.69
622.95	129.69
623.157	144.69
623.364	126.69
623.571	124.69
623.778	143.69
623.985	128.69
624.192	142.69
624.399	140.69
624.606	134.69
624.812	122.69
625.019	150.69
625.226	141.69
625.433	142.69
625.639	136.69
625.846	139.69
626.053	131.69
626.259	135.69
626.466	134.69
626.673	143.69
626.879	146.69
627.086	138.69
627.293	137.69
627.499	120.69
627.706	128.69
627.912	131.69
628.119	119.69
628.325	123.69
628.532	128.69
628.738	128.69
628.945	130.69
629.151	128.69
629.357	138.69
629.564	150.69
629.77	122.69
629.976	132.69
630.183	144.69
630.389	126.69
630.595	128.69
630.802	120.69
631.008	118.69
631.214	127.69
631.42	129.69
631.627	116.69
631.833	132.69
632.039	133.69
632.245	124.69
632.451	110.69
632.657	120.69
632.863	128.69
633.069	132.69
633.275	128.69
633.481	134.69
633.688	135.69
633.893	140.69
634.099	126.69
634.305	114.69
634.511	121.69
634.717	132.69
634.923	117.69
635.129	116.69
635.335	126.69
635.541	114.69
635.747	126.69
635.952	109.69
636.158	120.69
636.364	116.69
636.57	130.69
636.775	111.69
636.981	112.69
637.187	126.69
637.392	122.69
637.598	124.69
637.804	131.69
638.009	118.69
638.215	108.69
638.421	114.69
638.626	121.69
638.832	125.69
639.037	130.69
639.243	133.69
639.448	129.69
639.654	128.69
639.859	130.69
640.065	112.69
640.27	114.69
640.475	119.69
640.681	122.69
640.886	117.69
641.091	118.69
641.297	118.69
641.502	118.69
641.707	117.69
641.913	121.69
642.118	112.69
642.323	115.69
642.528	118.69
642.733	123.69
642.939	119.69
643.144	118.69
643.349	110.69
643.554	124.69
643.759	122.69
643.964	120.69
644.169	121.69
644.374	125.69
644.579	115.69
644.784	120.69
644.989	116.69
645.194	129.69
645.399	118.69
645.604	119.69
645.809	119.69
646.014	132.69
646.219	118.69
646.423	102.69
646.628	123.69
646.833	116.69
647.038	121.69
647.243	126.69
647.447	119.69
647.652	116.69
647.857	145.69
648.062	137.69
648.266	128.69
648.471	130.69
648.676	130.69
648.88	112.69
649.085	119.69
649.289	116.69
649.494	119.69
649.698	133.69
649.903	119.69
650.107	113.69
650.312	128.69
650.516	124.69
650.721	117.69
650.925	98.69
651.13	116.69
651.334	118.69
651.539	120.69
651.743	108.69
651.947	116.69
652.152	122.69
652.356	110.69
652.56	114.69
652.764	103.69
652.969	105.69
653.173	107.69
653.377	115.69
653.581	102.69
653.785	86.69
653.99	121.69
654.194	122.69
654.398	100.69
654.602	88.69
654.806	104.69
655.01	117.69
655.214	108.69
655.418	106.69
655.622	98.69
655.826	113.69
656.03	100.69
656.234	102.69
656.438	106.69
656.642	103.69
656.846	118.69
657.049	104.69
657.253	119.69
657.457	114.69
657.661	101.69
657.865	108.69
658.068	89.69
658.272	99.69
658.476	95.69
658.68	113.69
658.883	94.69
659.087	89.69
659.291	95.69
659.494	77.69
659.698	100.69
659.901	99.69
660.105	87.69
660.309	92.69
660.512	84.69
660.716	84.69
660.919	93.69
661.123	93.69
661.326	76.69
661.53	75.69
661.733	83.69
661.936	87.69
662.14	88.69
662.343	84.69
662.546	78.69
662.75	87.69
662.953	89.69
663.156	69.69
663.36	97.69
663.563	82.69
663.766	103.69
663.969	97.69
664.173	86.69
664.376	90.69
664.579	83.69
664.782	86.69
664.985	84.69
665.188	81.69
665.391	83.69
665.594	84.69
665.797	84.69
666	78.69
666.203	85.69
666.406	78.69
666.609	81.69
666.812	80.69
667.015	82.69
667.218	87.69
667.421	66.69
667.624	87.69
667.827	84.69
668.03	67.69
668.232	80.69
668.435	80.69
668.638	76.69
668.841	78.69
669.043	78.69
669.246	91.69
669.449	70.69
669.651	74.69
669.854	71.69
670.057	84.69
670.259	83.69
670.462	92.69
670.665	85.69
670.867	78.69
671.07	76.69
671.272	80.69
671.475	85.69
671.677	87.69
671.88	81.69
672.082	78.69
672.284	73.69
672.487	74.69
672.689	74.69
672.892	67.69
