Data from Fe(NO3)3@0.025M.TitratingCurve.Agarose3%dH2O.NegLispCup.LampEnergy10.LIBS07252019_HRD10591_16-54-07-335.txt Node
Date: Thu Jul 25 16:54:07 EDT 2019
User: cochatt
Spectrometer: HR+D1059
Trigger mode: 1
Integration Time (sec): 1.000000E-1
Scans to average: 1
Electric dark correction enabled: true
Nonlinearity correction enabled: false
Boxcar width: 0
XAxis mode: Wavelengths
Number of Pixels in Spectrum: 2048
>>>>>Begin Spectral Data<<<<<
223.165	-23.31
223.4	-23.31
223.635	-23.31
223.869	-23.31
224.104	-16.31
224.338	-10.31
224.573	-20.31
224.808	-25.31
225.042	1.69
225.277	-4.31
225.511	-5.31
225.746	3.69
225.98	-3.31
226.215	13.69
226.449	22.69
226.683	25.69
226.918	36.69
227.152	27.69
227.387	21.69
227.621	40.69
227.856	44.69
228.09	46.69
228.324	54.69
228.559	61.69
228.793	60.69
229.027	82.69
229.262	84.69
229.496	88.69
229.73	106.69
229.964	72.69
230.199	90.69
230.433	92.69
230.667	85.69
230.901	87.69
231.136	98.69
231.37	110.69
231.604	109.69
231.838	104.69
232.072	104.69
232.306	114.69
232.541	106.69
232.775	126.69
233.009	110.69
233.243	114.69
233.477	104.69
233.711	104.69
233.945	114.69
234.179	116.69
234.413	108.69
234.647	118.69
234.881	112.69
235.115	117.69
235.349	113.69
235.583	123.69
235.817	125.69
236.051	112.69
236.285	111.69
236.519	104.69
236.753	111.69
236.987	116.69
237.221	115.69
237.455	115.69
237.689	104.69
237.922	116.69
238.156	133.69
238.39	111.69
238.624	138.69
238.858	130.69
239.091	123.69
239.325	130.69
239.559	140.69
239.793	127.69
240.027	139.69
240.26	127.69
240.494	123.69
240.728	132.69
240.961	132.69
241.195	137.69
241.429	124.69
241.662	127.69
241.896	137.69
242.13	134.69
242.363	128.69
242.597	131.69
242.83	150.69
243.064	127.69
243.298	140.69
243.531	118.69
243.765	131.69
243.998	134.69
244.232	138.69
244.465	131.69
244.699	130.69
244.932	140.69
245.166	134.69
245.399	153.69
245.633	135.69
245.866	146.69
246.099	133.69
246.333	136.69
246.566	148.69
246.8	131.69
247.033	150.69
247.266	132.69
247.5	138.69
247.733	139.69
247.966	131.69
248.2	164.69
248.433	138.69
248.666	148.69
248.899	151.69
249.133	146.69
249.366	161.69
249.599	175.69
249.832	174.69
250.066	170.69
250.299	171.69
250.532	161.69
250.765	151.69
250.998	154.69
251.231	148.69
251.465	154.69
251.698	173.69
251.931	166.69
252.164	178.69
252.397	168.69
252.63	168.69
252.863	193.69
253.096	171.69
253.329	158.69
253.562	167.69
253.795	181.69
254.028	192.69
254.261	168.69
254.494	170.69
254.727	190.69
254.96	166.69
255.193	168.69
255.426	195.69
255.659	169.69
255.892	170.69
256.124	175.69
256.357	169.69
256.59	178.69
256.823	174.69
257.056	180.69
257.289	169.69
257.521	171.69
257.754	172.69
257.987	172.69
258.22	178.69
258.452	171.69
258.685	184.69
258.918	183.69
259.151	188.69
259.383	194.69
259.616	178.69
259.849	219.69
260.081	212.69
260.314	216.69
260.547	203.69
260.779	194.69
261.012	201.69
261.244	208.69
261.477	201.69
261.71	207.69
261.942	190.69
262.175	197.69
262.407	193.69
262.64	203.69
262.872	212.69
263.105	200.69
263.337	212.69
263.57	212.69
263.802	199.69
264.035	194.69
264.267	199.69
264.499	186.69
264.732	198.69
264.964	195.69
265.197	208.69
265.429	192.69
265.661	222.69
265.894	215.69
266.126	200.69
266.358	213.69
266.591	204.69
266.823	215.69
267.055	209.69
267.287	203.69
267.52	219.69
267.752	205.69
267.984	230.69
268.216	200.69
268.448	215.69
268.681	225.69
268.913	194.69
269.145	211.69
269.377	209.69
269.609	216.69
269.841	194.69
270.073	223.69
270.306	216.69
270.538	225.69
270.77	209.69
271.002	234.69
271.234	217.69
271.466	209.69
271.698	227.69
271.93	232.69
272.162	227.69
272.394	242.69
272.626	235.69
272.858	240.69
273.09	246.69
273.322	230.69
273.553	234.69
273.785	233.69
274.017	243.69
274.249	262.69
274.481	242.69
274.713	265.69
274.945	270.69
275.176	281.69
275.408	271.69
275.64	258.69
275.872	252.69
276.104	258.69
276.335	249.69
276.567	233.69
276.799	254.69
277.031	246.69
277.262	244.69
277.494	245.69
277.726	236.69
277.957	240.69
278.189	254.69
278.421	258.69
278.652	244.69
278.884	253.69
279.115	240.69
279.347	241.69
279.579	242.69
279.81	239.69
280.042	253.69
280.273	247.69
280.505	253.69
280.736	254.69
280.968	262.69
281.199	255.69
281.431	245.69
281.662	256.69
281.894	250.69
282.125	254.69
282.356	257.69
282.588	253.69
282.819	257.69
283.051	271.69
283.282	278.69
283.513	273.69
283.745	254.69
283.976	256.69
284.207	274.69
284.439	272.69
284.67	266.69
284.901	282.69
285.132	274.69
285.364	275.69
285.595	280.69
285.826	270.69
286.057	294.69
286.288	285.69
286.52	278.69
286.751	278.69
286.982	273.69
287.213	273.69
287.444	265.69
287.675	279.69
287.906	258.69
288.138	276.69
288.369	269.69
288.6	273.69
288.831	277.69
289.062	287.69
289.293	288.69
289.524	305.69
289.755	283.69
289.986	287.69
290.217	279.69
290.448	298.69
290.679	292.69
290.91	285.69
291.141	277.69
291.371	282.69
291.602	291.69
291.833	278.69
292.064	286.69
292.295	277.69
292.526	290.69
292.757	277.69
292.987	290.69
293.218	246.69
293.449	292.69
293.68	286.69
293.91	275.69
294.141	294.69
294.372	284.69
294.603	277.69
294.833	302.69
295.064	290.69
295.295	291.69
295.525	294.69
295.756	292.69
295.987	291.69
296.217	286.69
296.448	281.69
296.679	299.69
296.909	298.69
297.14	291.69
297.37	318.69
297.601	298.69
297.831	298.69
298.062	326.69
298.292	290.69
298.523	302.69
298.753	322.69
298.984	319.69
299.214	295.69
299.445	308.69
299.675	308.69
299.905	306.69
300.136	323.69
300.366	307.69
300.597	321.69
300.827	324.69
301.057	329.69
301.288	326.69
301.518	314.69
301.748	324.69
301.979	320.69
302.209	311.69
302.439	319.69
302.669	314.69
302.9	323.69
303.13	344.69
303.36	340.69
303.59	323.69
303.82	322.69
304.051	309.69
304.281	314.69
304.511	339.69
304.741	351.69
304.971	327.69
305.201	328.69
305.431	302.69
305.661	329.69
305.891	326.69
306.121	331.69
306.352	345.69
306.582	321.69
306.812	322.69
307.042	335.69
307.272	340.69
307.502	344.69
307.731	343.69
307.961	327.69
308.191	327.69
308.421	319.69
308.651	335.69
308.881	330.69
309.111	319.69
309.341	328.69
309.571	321.69
309.8	333.69
310.03	326.69
310.26	335.69
310.49	320.69
310.72	340.69
310.949	336.69
311.179	338.69
311.409	334.69
311.639	356.69
311.868	356.69
312.098	356.69
312.328	348.69
312.557	355.69
312.787	337.69
313.017	333.69
313.246	350.69
313.476	354.69
313.706	371.69
313.935	372.69
314.165	352.69
314.394	366.69
314.624	357.69
314.853	348.69
315.083	360.69
315.312	351.69
315.542	355.69
315.771	341.69
316.001	361.69
316.23	332.69
316.46	355.69
316.689	360.69
316.919	344.69
317.148	346.69
317.377	364.69
317.607	379.69
317.836	367.69
318.065	344.69
318.295	354.69
318.524	369.69
318.753	355.69
318.983	343.69
319.212	361.69
319.441	365.69
319.67	374.69
319.9	390.69
320.129	357.69
320.358	359.69
320.587	378.69
320.816	363.69
321.046	372.69
321.275	377.69
321.504	366.69
321.733	357.69
321.962	350.69
322.191	370.69
322.42	378.69
322.649	380.69
322.878	379.69
323.108	378.69
323.337	388.69
323.566	392.69
323.795	382.69
324.024	369.69
324.253	358.69
324.482	380.69
324.71	394.69
324.939	363.69
325.168	364.69
325.397	387.69
325.626	370.69
325.855	373.69
326.084	383.69
326.313	387.69
326.542	386.69
326.77	387.69
326.999	387.69
327.228	373.69
327.457	391.69
327.686	387.69
327.914	391.69
328.143	377.69
328.372	385.69
328.6	386.69
328.829	387.69
329.058	403.69
329.287	385.69
329.515	395.69
329.744	378.69
329.972	391.69
330.201	387.69
330.43	381.69
330.658	385.69
330.887	400.69
331.115	411.69
331.344	418.69
331.572	417.69
331.801	411.69
332.03	403.69
332.258	417.69
332.486	421.69
332.715	426.69
332.943	427.69
333.172	422.69
333.4	442.69
333.629	436.69
333.857	448.69
334.085	443.69
334.314	456.69
334.542	444.69
334.771	442.69
334.999	435.69
335.227	461.69
335.455	433.69
335.684	472.69
335.912	466.69
336.14	454.69
336.369	442.69
336.597	464.69
336.825	444.69
337.053	433.69
337.281	417.69
337.51	419.69
337.738	432.69
337.966	423.69
338.194	435.69
338.422	419.69
338.65	437.69
338.878	426.69
339.106	440.69
339.334	431.69
339.562	411.69
339.79	427.69
340.018	419.69
340.246	432.69
340.474	430.69
340.702	410.69
340.93	430.69
341.158	419.69
341.386	403.69
341.614	415.69
341.842	422.69
342.07	415.69
342.298	411.69
342.526	414.69
342.754	407.69
342.981	422.69
343.209	410.69
343.437	451.69
343.665	436.69
343.893	434.69
344.12	450.69
344.348	471.69
344.576	444.69
344.804	448.69
345.031	417.69
345.259	426.69
345.487	414.69
345.714	408.69
345.942	414.69
346.17	410.69
346.397	425.69
346.625	410.69
346.853	378.69
347.08	406.69
347.308	401.69
347.535	415.69
347.763	406.69
347.99	418.69
348.218	395.69
348.445	396.69
348.673	389.69
348.9	416.69
349.128	409.69
349.355	400.69
349.583	400.69
349.81	396.69
350.037	418.69
350.265	413.69
350.492	407.69
350.72	406.69
350.947	390.69
351.174	386.69
351.402	378.69
351.629	377.69
351.856	394.69
352.083	392.69
352.311	392.69
352.538	411.69
352.765	402.69
352.992	400.69
353.22	392.69
353.447	392.69
353.674	390.69
353.901	411.69
354.128	392.69
354.355	393.69
354.583	404.69
354.81	404.69
355.037	375.69
355.264	408.69
355.491	404.69
355.718	406.69
355.945	406.69
356.172	396.69
356.399	371.69
356.626	393.69
356.853	413.69
357.08	396.69
357.307	392.69
357.534	395.69
357.761	386.69
357.988	414.69
358.215	410.69
358.441	409.69
358.668	406.69
358.895	402.69
359.122	393.69
359.349	410.69
359.576	385.69
359.802	403.69
360.029	397.69
360.256	418.69
360.483	404.69
360.709	416.69
360.936	415.69
361.163	391.69
361.39	402.69
361.616	407.69
361.843	399.69
362.07	416.69
362.296	419.69
362.523	412.69
362.749	418.69
362.976	415.69
363.203	422.69
363.429	412.69
363.656	413.69
363.882	404.69
364.109	390.69
364.335	406.69
364.562	411.69
364.788	411.69
365.015	415.69
365.241	408.69
365.468	427.69
365.694	430.69
365.92	422.69
366.147	371.69
366.373	414.69
366.599	430.69
366.826	414.69
367.052	413.69
367.278	417.69
367.505	410.69
367.731	414.69
367.957	400.69
368.184	410.69
368.41	425.69
368.636	417.69
368.862	397.69
369.089	402.69
369.315	407.69
369.541	431.69
369.767	428.69
369.993	413.69
370.219	408.69
370.445	436.69
370.672	438.69
370.898	447.69
371.124	422.69
371.35	421.69
371.576	439.69
371.802	442.69
372.028	433.69
372.254	439.69
372.48	448.69
372.706	435.69
372.932	446.69
373.158	443.69
373.384	441.69
373.61	464.69
373.835	453.69
374.061	438.69
374.287	471.69
374.513	456.69
374.739	454.69
374.965	467.69
375.191	459.69
375.416	446.69
375.642	444.69
375.868	454.69
376.094	463.69
376.319	451.69
376.545	440.69
376.771	454.69
376.997	428.69
377.222	421.69
377.448	430.69
377.674	446.69
377.899	442.69
378.125	424.69
378.35	457.69
378.576	437.69
378.802	437.69
379.027	436.69
379.253	436.69
379.478	429.69
379.704	454.69
379.929	449.69
380.155	433.69
380.38	439.69
380.606	422.69
380.831	436.69
381.057	421.69
381.282	443.69
381.507	450.69
381.733	451.69
381.958	447.69
382.184	456.69
382.409	442.69
382.634	454.69
382.86	451.69
383.085	472.69
383.31	479.69
383.535	474.69
383.761	474.69
383.986	458.69
384.211	474.69
384.436	478.69
384.662	472.69
384.887	482.69
385.112	472.69
385.337	499.69
385.562	486.69
385.787	483.69
386.013	491.69
386.238	512.69
386.463	481.69
386.688	500.69
386.913	479.69
387.138	512.69
387.363	512.69
387.588	516.69
387.813	518.69
388.038	495.69
388.263	480.69
388.488	479.69
388.713	502.69
388.938	496.69
389.163	499.69
389.387	518.69
389.612	487.69
389.837	511.69
390.062	485.69
390.287	498.69
390.512	497.69
390.736	484.69
390.961	511.69
391.186	531.69
391.411	513.69
391.636	505.69
391.86	539.69
392.085	523.69
392.31	535.69
392.534	530.69
392.759	519.69
392.984	524.69
393.208	523.69
393.433	539.69
393.658	511.69
393.882	526.69
394.107	502.69
394.331	529.69
394.556	526.69
394.78	523.69
395.005	505.69
395.229	517.69
395.454	530.69
395.678	528.69
395.903	533.69
396.127	542.69
396.352	545.69
396.576	530.69
396.801	540.69
397.025	543.69
397.249	544.69
397.474	535.69
397.698	553.69
397.922	534.69
398.147	554.69
398.371	569.69
398.595	574.69
398.82	567.69
399.044	606.69
399.268	593.69
399.492	644.69
399.717	664.69
399.941	665.69
400.165	649.69
400.389	647.69
400.613	666.69
400.837	614.69
401.062	590.69
401.286	596.69
401.51	603.69
401.734	595.69
401.958	586.69
402.182	600.69
402.406	584.69
402.63	552.69
402.854	587.69
403.078	568.69
403.302	580.69
403.526	598.69
403.75	577.69
403.974	604.69
404.198	600.69
404.422	614.69
404.645	602.69
404.869	608.69
405.093	598.69
405.317	600.69
405.541	613.69
405.765	622.69
405.988	599.69
406.212	612.69
406.436	624.69
406.66	618.69
406.883	620.69
407.107	642.69
407.331	630.69
407.555	656.69
407.778	672.69
408.002	635.69
408.226	659.69
408.449	636.69
408.673	620.69
408.896	650.69
409.12	611.69
409.344	623.69
409.567	622.69
409.791	629.69
410.014	635.69
410.238	622.69
410.461	620.69
410.685	607.69
410.908	602.69
411.132	609.69
411.355	595.69
411.578	616.69
411.802	603.69
412.025	592.69
412.249	600.69
412.472	580.69
412.695	583.69
412.919	587.69
413.142	569.69
413.365	601.69
413.589	613.69
413.812	584.69
414.035	576.69
414.258	581.69
414.482	567.69
414.705	599.69
414.928	583.69
415.151	570.69
415.374	589.69
415.597	571.69
415.821	565.69
416.044	571.69
416.267	572.69
416.49	553.69
416.713	553.69
416.936	570.69
417.159	574.69
417.382	557.69
417.605	554.69
417.828	556.69
418.051	560.69
418.274	540.69
418.497	558.69
418.72	561.69
418.943	545.69
419.166	578.69
419.389	624.69
419.611	606.69
419.834	595.69
420.057	582.69
420.28	564.69
420.503	542.69
420.726	560.69
420.948	560.69
421.171	530.69
421.394	567.69
421.617	537.69
421.839	553.69
422.062	548.69
422.285	538.69
422.507	545.69
422.73	548.69
422.953	542.69
423.175	565.69
423.398	564.69
423.621	553.69
423.843	548.69
424.066	557.69
424.288	572.69
424.511	551.69
424.733	551.69
424.956	555.69
425.178	550.69
425.401	559.69
425.623	550.69
425.846	571.69
426.068	534.69
426.291	555.69
426.513	542.69
426.735	555.69
426.958	550.69
427.18	521.69
427.402	558.69
427.625	548.69
427.847	522.69
428.069	517.69
428.292	541.69
428.514	527.69
428.736	524.69
428.958	520.69
429.181	520.69
429.403	524.69
429.625	534.69
429.847	530.69
430.069	532.69
430.292	500.69
430.514	514.69
430.736	528.69
430.958	553.69
431.18	530.69
431.402	543.69
431.624	523.69
431.846	522.69
432.068	523.69
432.29	546.69
432.512	526.69
432.734	533.69
432.956	518.69
433.178	550.69
433.4	545.69
433.622	544.69
433.844	518.69
434.066	555.69
434.287	540.69
434.509	523.69
434.731	535.69
434.953	554.69
435.175	542.69
435.397	564.69
435.618	553.69
435.84	539.69
436.062	553.69
436.284	542.69
436.505	513.69
436.727	520.69
436.949	534.69
437.17	537.69
437.392	544.69
437.614	520.69
437.835	489.69
438.057	516.69
438.278	507.69
438.5	520.69
438.721	508.69
438.943	500.69
439.165	512.69
439.386	499.69
439.608	504.69
439.829	506.69
440.05	489.69
440.272	503.69
440.493	524.69
440.715	503.69
440.936	523.69
441.158	533.69
441.379	512.69
441.6	532.69
441.822	507.69
442.043	542.69
442.264	534.69
442.486	522.69
442.707	528.69
442.928	529.69
443.149	565.69
443.371	526.69
443.592	524.69
443.813	523.69
444.034	527.69
444.255	545.69
444.476	564.69
444.698	547.69
444.919	551.69
445.14	678.69
445.361	598.69
445.582	532.69
445.803	524.69
446.024	532.69
446.245	536.69
446.466	544.69
446.687	518.69
446.908	515.69
447.129	491.69
447.35	514.69
447.571	489.69
447.792	480.69
448.013	497.69
448.234	506.69
448.455	498.69
448.675	491.69
448.896	523.69
449.117	477.69
449.338	480.69
449.559	474.69
449.779	483.69
450	490.69
450.221	482.69
450.442	465.69
450.662	476.69
450.883	477.69
451.104	487.69
451.324	481.69
451.545	457.69
451.766	472.69
451.986	479.69
452.207	457.69
452.428	460.69
452.648	471.69
452.869	464.69
453.089	452.69
453.31	447.69
453.53	471.69
453.751	481.69
453.971	462.69
454.192	475.69
454.412	456.69
454.633	447.69
454.853	462.69
455.073	464.69
455.294	474.69
455.514	464.69
455.734	466.69
455.955	459.69
456.175	462.69
456.395	447.69
456.616	467.69
456.836	470.69
457.056	450.69
457.276	471.69
457.497	448.69
457.717	467.69
457.937	470.69
458.157	476.69
458.377	485.69
458.598	500.69
458.818	489.69
459.038	479.69
459.258	500.69
459.478	504.69
459.698	514.69
459.918	537.69
460.138	542.69
460.358	544.69
460.578	535.69
460.798	543.69
461.018	538.69
461.238	554.69
461.458	556.69
461.678	554.69
461.898	557.69
462.118	582.69
462.338	585.69
462.558	584.69
462.777	586.69
462.997	610.69
463.217	600.69
463.437	618.69
463.657	602.69
463.876	626.69
464.096	614.69
464.316	586.69
464.536	595.69
464.755	580.69
464.975	574.69
465.195	558.69
465.414	566.69
465.634	554.69
465.854	518.69
466.073	515.69
466.293	525.69
466.512	527.69
466.732	518.69
466.951	544.69
467.171	508.69
467.391	500.69
467.61	486.69
467.829	512.69
468.049	503.69
468.268	488.69
468.488	491.69
468.707	483.69
468.927	477.69
469.146	498.69
469.365	516.69
469.585	514.69
469.804	499.69
470.023	503.69
470.243	508.69
470.462	523.69
470.681	516.69
470.901	532.69
471.12	510.69
471.339	501.69
471.558	497.69
471.777	489.69
471.997	494.69
472.216	510.69
472.435	480.69
472.654	484.69
472.873	512.69
473.092	510.69
473.311	500.69
473.53	516.69
473.749	495.69
473.968	507.69
474.187	528.69
474.406	520.69
474.625	514.69
474.844	514.69
475.063	535.69
475.282	528.69
475.501	524.69
475.72	526.69
475.939	513.69
476.158	518.69
476.377	543.69
476.596	544.69
476.814	563.69
477.033	544.69
477.252	556.69
477.471	544.69
477.69	570.69
477.908	547.69
478.127	565.69
478.346	562.69
478.564	560.69
478.783	582.69
479.002	591.69
479.22	584.69
479.439	607.69
479.658	595.69
479.876	597.69
480.095	606.69
480.313	617.69
480.532	599.69
480.751	592.69
480.969	623.69
481.188	603.69
481.406	599.69
481.624	608.69
481.843	586.69
482.061	602.69
482.28	626.69
482.498	596.69
482.717	618.69
482.935	611.69
483.153	599.69
483.372	590.69
483.59	587.69
483.808	611.69
484.027	623.69
484.245	612.69
484.463	614.69
484.681	630.69
484.9	612.69
485.118	646.69
485.336	632.69
485.554	625.69
485.772	613.69
485.99	637.69
486.209	608.69
486.427	608.69
486.645	627.69
486.863	643.69
487.081	635.69
487.299	634.69
487.517	610.69
487.735	622.69
487.953	649.69
488.171	642.69
488.389	631.69
488.607	621.69
488.825	643.69
489.043	644.69
489.261	624.69
489.479	635.69
489.696	634.69
489.914	622.69
490.132	619.69
490.35	630.69
490.568	648.69
490.786	617.69
491.003	598.69
491.221	627.69
491.439	613.69
491.657	624.69
491.874	627.69
492.092	647.69
492.31	643.69
492.527	642.69
492.745	644.69
492.963	645.69
493.18	650.69
493.398	639.69
493.615	632.69
493.833	641.69
494.05	654.69
494.268	639.69
494.485	628.69
494.703	643.69
494.92	646.69
495.138	648.69
495.355	651.69
495.573	657.69
495.79	668.69
496.008	681.69
496.225	655.69
496.442	678.69
496.66	691.69
496.877	675.69
497.094	684.69
497.312	706.69
497.529	693.69
497.746	723.69
497.963	719.69
498.181	752.69
498.398	766.69
498.615	783.69
498.832	786.69
499.049	855.69
499.267	844.69
499.484	876.69
499.701	932.69
499.918	954.69
500.135	998.69
500.352	1027.69
500.569	1030.69
500.786	1017.69
501.003	1007.69
501.22	986.69
501.437	944.69
501.654	879.69
501.871	872.69
502.088	870.69
502.305	849.69
502.522	806.69
502.739	786.69
502.956	744.69
503.172	742.69
503.389	745.69
503.606	704.69
503.823	720.69
504.04	717.69
504.256	710.69
504.473	669.69
504.69	688.69
504.907	663.69
505.123	646.69
505.34	663.69
505.557	619.69
505.773	648.69
505.99	620.69
506.207	610.69
506.423	587.69
506.64	599.69
506.856	607.69
507.073	599.69
507.289	563.69
507.506	586.69
507.722	600.69
507.939	560.69
508.155	560.69
508.372	596.69
508.588	544.69
508.805	574.69
509.021	549.69
509.238	578.69
509.454	536.69
509.67	541.69
509.887	555.69
510.103	531.69
510.319	547.69
510.536	531.69
510.752	512.69
510.968	537.69
511.184	518.69
511.401	527.69
511.617	516.69
511.833	534.69
512.049	523.69
512.265	534.69
512.481	524.69
512.698	522.69
512.914	520.69
513.13	535.69
513.346	538.69
513.562	535.69
513.778	525.69
513.994	517.69
514.21	527.69
514.426	491.69
514.642	531.69
514.858	535.69
515.074	530.69
515.29	548.69
515.506	539.69
515.721	554.69
515.937	546.69
516.153	542.69
516.369	562.69
516.585	545.69
516.801	570.69
517.016	568.69
517.232	574.69
517.448	567.69
517.664	578.69
517.879	550.69
518.095	574.69
518.311	598.69
518.527	540.69
518.742	570.69
518.958	545.69
519.173	544.69
519.389	551.69
519.605	551.69
519.82	557.69
520.036	542.69
520.251	550.69
520.467	542.69
520.682	525.69
520.898	530.69
521.113	514.69
521.329	523.69
521.544	509.69
521.76	522.69
521.975	510.69
522.19	511.69
522.406	488.69
522.621	510.69
522.836	465.69
523.052	514.69
523.267	500.69
523.482	492.69
523.698	479.69
523.913	470.69
524.128	480.69
524.343	487.69
524.559	504.69
524.774	485.69
524.989	494.69
525.204	480.69
525.419	467.69
525.634	452.69
525.849	475.69
526.064	486.69
526.28	471.69
526.495	466.69
526.71	484.69
526.925	488.69
527.14	455.69
527.355	468.69
527.57	486.69
527.785	464.69
527.999	474.69
528.214	459.69
528.429	465.69
528.644	453.69
528.859	464.69
529.074	460.69
529.289	465.69
529.503	483.69
529.718	494.69
529.933	458.69
530.148	451.69
530.363	462.69
530.577	452.69
530.792	453.69
531.007	464.69
531.221	466.69
531.436	456.69
531.651	449.69
531.865	443.69
532.08	471.69
532.295	476.69
532.509	452.69
532.724	452.69
532.938	470.69
533.153	459.69
533.367	438.69
533.582	438.69
533.796	472.69
534.011	467.69
534.225	446.69
534.44	446.69
534.654	448.69
534.868	461.69
535.083	475.69
535.297	458.69
535.511	442.69
535.726	437.69
535.94	450.69
536.154	432.69
536.369	438.69
536.583	422.69
536.797	438.69
537.011	436.69
537.225	434.69
537.44	441.69
537.654	440.69
537.868	442.69
538.082	433.69
538.296	447.69
538.51	436.69
538.724	440.69
538.938	434.69
539.153	443.69
539.367	414.69
539.581	408.69
539.795	416.69
540.009	432.69
540.222	434.69
540.436	430.69
540.65	421.69
540.864	420.69
541.078	440.69
541.292	405.69
541.506	427.69
541.72	434.69
541.934	444.69
542.147	436.69
542.361	426.69
542.575	428.69
542.789	413.69
543.002	422.69
543.216	416.69
543.43	416.69
543.644	405.69
543.857	418.69
544.071	414.69
544.285	445.69
544.498	412.69
544.712	410.69
544.925	430.69
545.139	422.69
545.352	410.69
545.566	416.69
545.779	425.69
545.993	436.69
546.206	418.69
546.42	408.69
546.633	440.69
546.847	418.69
547.06	434.69
547.274	440.69
547.487	408.69
547.7	423.69
547.914	423.69
548.127	435.69
548.34	436.69
548.554	435.69
548.767	439.69
548.98	416.69
549.193	442.69
549.407	418.69
549.62	408.69
549.833	418.69
550.046	415.69
550.259	428.69
550.473	408.69
550.686	421.69
550.899	444.69
551.112	407.69
551.325	427.69
551.538	415.69
551.751	410.69
551.964	429.69
552.177	447.69
552.39	416.69
552.603	421.69
552.816	422.69
553.029	427.69
553.242	427.69
553.455	419.69
553.667	421.69
553.88	415.69
554.093	417.69
554.306	423.69
554.519	386.69
554.732	399.69
554.944	392.69
555.157	382.69
555.37	397.69
555.583	403.69
555.795	399.69
556.008	377.69
556.221	376.69
556.433	401.69
556.646	391.69
556.859	372.69
557.071	385.69
557.284	381.69
557.496	371.69
557.709	391.69
557.921	369.69
558.134	373.69
558.346	371.69
558.559	379.69
558.771	364.69
558.984	385.69
559.196	375.69
559.409	374.69
559.621	360.69
559.833	359.69
560.046	347.69
560.258	366.69
560.47	340.69
560.683	366.69
560.895	359.69
561.107	373.69
561.32	340.69
561.532	368.69
561.744	382.69
561.956	366.69
562.168	373.69
562.381	352.69
562.593	359.69
562.805	367.69
563.017	376.69
563.229	385.69
563.441	380.69
563.653	370.69
563.865	377.69
564.077	400.69
564.289	374.69
564.501	382.69
564.713	366.69
564.925	386.69
565.137	400.69
565.349	388.69
565.561	397.69
565.773	412.69
565.985	425.69
566.197	434.69
566.408	420.69
566.62	453.69
566.832	464.69
567.044	448.69
567.255	448.69
567.467	463.69
567.679	432.69
567.891	451.69
568.102	462.69
568.314	439.69
568.526	451.69
568.737	426.69
568.949	422.69
569.161	397.69
569.372	389.69
569.584	386.69
569.795	376.69
570.007	366.69
570.218	380.69
570.43	362.69
570.641	344.69
570.853	354.69
571.064	343.69
571.276	354.69
571.487	350.69
571.698	328.69
571.91	353.69
572.121	321.69
572.333	323.69
572.544	338.69
572.755	327.69
572.966	312.69
573.178	338.69
573.389	315.69
573.6	312.69
573.811	311.69
574.023	286.69
574.234	308.69
574.445	314.69
574.656	315.69
574.867	318.69
575.078	276.69
575.289	305.69
575.501	312.69
575.712	303.69
575.923	284.69
576.134	299.69
576.345	290.69
576.556	299.69
576.767	280.69
576.978	287.69
577.188	273.69
577.399	283.69
577.61	292.69
577.821	278.69
578.032	288.69
578.243	276.69
578.454	295.69
578.665	286.69
578.875	288.69
579.086	281.69
579.297	282.69
579.508	286.69
579.718	284.69
579.929	292.69
580.14	260.69
580.35	273.69
580.561	268.69
580.772	274.69
580.982	279.69
581.193	276.69
581.403	268.69
581.614	259.69
581.825	261.69
582.035	270.69
582.246	278.69
582.456	254.69
582.667	256.69
582.877	261.69
583.087	269.69
583.298	252.69
583.508	265.69
583.719	245.69
583.929	263.69
584.139	262.69
584.35	252.69
584.56	264.69
584.77	247.69
584.981	266.69
585.191	268.69
585.401	258.69
585.611	260.69
585.821	251.69
586.032	267.69
586.242	264.69
586.452	269.69
586.662	274.69
586.872	258.69
587.082	244.69
587.292	255.69
587.502	255.69
587.713	247.69
587.923	250.69
588.133	250.69
588.343	255.69
588.553	258.69
588.762	266.69
588.972	254.69
589.182	275.69
589.392	262.69
589.602	270.69
589.812	269.69
590.022	266.69
590.232	260.69
590.441	259.69
590.651	242.69
590.861	255.69
591.071	266.69
591.281	258.69
591.49	268.69
591.7	254.69
591.91	271.69
592.119	253.69
592.329	256.69
592.539	266.69
592.748	273.69
592.958	266.69
593.167	259.69
593.377	260.69
593.587	271.69
593.796	271.69
594.006	262.69
594.215	278.69
594.424	267.69
594.634	253.69
594.843	233.69
595.053	258.69
595.262	261.69
595.472	248.69
595.681	250.69
595.89	253.69
596.1	252.69
596.309	236.69
596.518	239.69
596.727	225.69
596.937	228.69
597.146	222.69
597.355	226.69
597.564	234.69
597.774	239.69
597.983	224.69
598.192	231.69
598.401	222.69
598.61	223.69
598.819	234.69
599.028	228.69
599.237	236.69
599.446	218.69
599.655	209.69
599.864	216.69
600.073	226.69
600.282	212.69
600.491	232.69
600.7	216.69
600.909	224.69
601.118	209.69
601.327	221.69
601.536	211.69
601.745	213.69
601.953	226.69
602.162	227.69
602.371	223.69
602.58	207.69
602.789	213.69
602.997	211.69
603.206	199.69
603.415	212.69
603.623	204.69
603.832	194.69
604.041	222.69
604.249	206.69
604.458	198.69
604.666	195.69
604.875	197.69
605.084	203.69
605.292	206.69
605.501	217.69
605.709	222.69
605.918	194.69
606.126	211.69
606.334	210.69
606.543	203.69
606.751	208.69
606.96	210.69
607.168	226.69
607.376	197.69
607.585	204.69
607.793	213.69
608.001	208.69
608.21	193.69
608.418	216.69
608.626	208.69
608.834	200.69
609.043	209.69
609.251	206.69
609.459	187.69
609.667	217.69
609.875	209.69
610.083	212.69
610.291	208.69
610.499	205.69
610.707	212.69
610.916	209.69
611.124	198.69
611.332	193.69
611.54	202.69
611.748	201.69
611.955	199.69
612.163	196.69
612.371	196.69
612.579	193.69
612.787	188.69
612.995	192.69
613.203	194.69
613.411	181.69
613.618	184.69
613.826	188.69
614.034	184.69
614.242	191.69
614.449	195.69
614.657	188.69
614.865	192.69
615.072	200.69
615.28	198.69
615.488	198.69
615.695	199.69
615.903	196.69
616.111	189.69
616.318	198.69
616.526	187.69
616.733	197.69
616.941	203.69
617.148	192.69
617.356	198.69
617.563	184.69
617.771	184.69
617.978	185.69
618.185	188.69
618.393	200.69
618.6	184.69
618.807	198.69
619.015	190.69
619.222	186.69
619.429	178.69
619.637	194.69
619.844	214.69
620.051	178.69
620.258	183.69
620.466	186.69
620.673	179.69
620.88	198.69
621.087	162.69
621.294	179.69
621.501	184.69
621.708	182.69
621.915	176.69
622.122	201.69
622.329	184.69
622.536	204.69
622.743	192.69
622.95	167.69
623.157	178.69
623.364	182.69
623.571	188.69
623.778	187.69
623.985	192.69
624.192	186.69
624.399	167.69
624.606	176.69
624.812	176.69
625.019	183.69
625.226	171.69
625.433	187.69
625.639	166.69
625.846	181.69
626.053	188.69
626.259	168.69
626.466	174.69
626.673	176.69
626.879	163.69
627.086	160.69
627.293	194.69
627.499	186.69
627.706	182.69
627.912	181.69
628.119	168.69
628.325	165.69
628.532	172.69
628.738	167.69
628.945	171.69
629.151	153.69
629.357	160.69
629.564	184.69
629.77	168.69
629.976	163.69
630.183	174.69
630.389	166.69
630.595	163.69
630.802	169.69
631.008	174.69
631.214	154.69
631.42	176.69
631.627	175.69
631.833	171.69
632.039	176.69
632.245	155.69
632.451	171.69
632.657	170.69
632.863	163.69
633.069	166.69
633.275	182.69
633.481	161.69
633.688	160.69
633.893	170.69
634.099	159.69
634.305	154.69
634.511	152.69
634.717	158.69
634.923	152.69
635.129	163.69
635.335	162.69
635.541	161.69
635.747	153.69
635.952	154.69
636.158	154.69
636.364	154.69
636.57	167.69
636.775	156.69
636.981	162.69
637.187	159.69
637.392	141.69
637.598	170.69
637.804	161.69
638.009	152.69
638.215	156.69
638.421	153.69
638.626	133.69
638.832	159.69
639.037	158.69
639.243	153.69
639.448	151.69
639.654	160.69
639.859	156.69
640.065	146.69
640.27	153.69
640.475	161.69
640.681	172.69
640.886	153.69
641.091	146.69
641.297	161.69
641.502	149.69
641.707	160.69
641.913	152.69
642.118	151.69
642.323	150.69
642.528	151.69
642.733	160.69
642.939	155.69
643.144	158.69
643.349	150.69
643.554	145.69
643.759	148.69
643.964	171.69
644.169	150.69
644.374	160.69
644.579	145.69
644.784	146.69
644.989	138.69
645.194	155.69
645.399	156.69
645.604	161.69
645.809	148.69
646.014	163.69
646.219	160.69
646.423	170.69
646.628	147.69
646.833	163.69
647.038	162.69
647.243	154.69
647.447	156.69
647.652	165.69
647.857	149.69
648.062	150.69
648.266	164.69
648.471	159.69
648.676	157.69
648.88	151.69
649.085	166.69
649.289	162.69
649.494	167.69
649.698	154.69
649.903	149.69
650.107	165.69
650.312	166.69
650.516	158.69
650.721	150.69
650.925	147.69
651.13	154.69
651.334	138.69
651.539	144.69
651.743	151.69
651.947	143.69
652.152	152.69
652.356	152.69
652.56	166.69
652.764	147.69
652.969	155.69
653.173	153.69
653.377	155.69
653.581	170.69
653.785	148.69
653.99	152.69
654.194	148.69
654.398	151.69
654.602	152.69
654.806	156.69
655.01	158.69
655.214	145.69
655.418	162.69
655.622	155.69
655.826	158.69
656.03	142.69
656.234	150.69
656.438	168.69
656.642	166.69
656.846	156.69
657.049	160.69
657.253	133.69
657.457	137.69
657.661	138.69
657.865	136.69
658.068	131.69
658.272	119.69
658.476	123.69
658.68	127.69
658.883	110.69
659.087	112.69
659.291	98.69
659.494	95.69
659.698	91.69
659.901	98.69
660.105	84.69
660.309	94.69
660.512	102.69
660.716	92.69
660.919	95.69
661.123	92.69
661.326	87.69
661.53	99.69
661.733	91.69
661.936	88.69
662.14	82.69
662.343	91.69
662.546	93.69
662.75	87.69
662.953	90.69
663.156	78.69
663.36	95.69
663.563	85.69
663.766	87.69
663.969	88.69
664.173	81.69
664.376	64.69
664.579	92.69
664.782	98.69
664.985	71.69
665.188	85.69
665.391	75.69
665.594	86.69
665.797	75.69
666	80.69
666.203	92.69
666.406	82.69
666.609	81.69
666.812	83.69
667.015	87.69
667.218	76.69
667.421	87.69
667.624	83.69
667.827	79.69
668.03	82.69
668.232	71.69
668.435	67.69
668.638	82.69
668.841	84.69
669.043	79.69
669.246	86.69
669.449	80.69
669.651	89.69
669.854	83.69
670.057	88.69
670.259	60.69
670.462	87.69
670.665	83.69
670.867	81.69
671.07	78.69
671.272	91.69
671.475	89.69
671.677	93.69
671.88	65.69
672.082	81.69
672.284	84.69
672.487	73.69
672.689	78.69
672.892	73.69
