Data from Fe(NO3)3@0.05M.TitratingCurve.Agarose3%dH2O.NegLispCup.LampEnergy10.LIBS07252019_HRD10591_16-48-42-334.txt Node
Date: Thu Jul 25 16:48:42 EDT 2019
User: cochatt
Spectrometer: HR+D1059
Trigger mode: 1
Integration Time (sec): 1.000000E-1
Scans to average: 1
Electric dark correction enabled: true
Nonlinearity correction enabled: false
Boxcar width: 0
XAxis mode: Wavelengths
Number of Pixels in Spectrum: 2048
>>>>>Begin Spectral Data<<<<<
223.165	-10.62
223.4	-10.62
223.635	-10.62
223.869	-28.62
224.104	-16.62
224.338	-2.62
224.573	-15.62
224.808	-15.62
225.042	-8.62
225.277	-2.62
225.511	-4.62
225.746	-1.62
225.98	11.38
226.215	12.38
226.449	11.38
226.683	9.38
226.918	30.38
227.152	32.38
227.387	48.38
227.621	62.38
227.856	52.38
228.09	39.38
228.324	48.38
228.559	59.38
228.793	57.38
229.027	87.38
229.262	69.38
229.496	90.38
229.73	96.38
229.964	81.38
230.199	95.38
230.433	103.38
230.667	99.38
230.901	96.38
231.136	100.38
231.37	100.38
231.604	111.38
231.838	102.38
232.072	104.38
232.306	109.38
232.541	101.38
232.775	111.38
233.009	120.38
233.243	102.38
233.477	94.38
233.711	104.38
233.945	94.38
234.179	104.38
234.413	119.38
234.647	115.38
234.881	109.38
235.115	103.38
235.349	115.38
235.583	108.38
235.817	106.38
236.051	110.38
236.285	108.38
236.519	104.38
236.753	104.38
236.987	105.38
237.221	98.38
237.455	103.38
237.689	118.38
237.922	115.38
238.156	108.38
238.39	112.38
238.624	102.38
238.858	102.38
239.091	102.38
239.325	102.38
239.559	98.38
239.793	108.38
240.027	100.38
240.26	110.38
240.494	117.38
240.728	132.38
240.961	113.38
241.195	120.38
241.429	116.38
241.662	100.38
241.896	117.38
242.13	122.38
242.363	113.38
242.597	105.38
242.83	125.38
243.064	111.38
243.298	119.38
243.531	117.38
243.765	124.38
243.998	121.38
244.232	115.38
244.465	136.38
244.699	108.38
244.932	121.38
245.166	125.38
245.399	132.38
245.633	113.38
245.866	123.38
246.099	130.38
246.333	113.38
246.566	111.38
246.8	130.38
247.033	119.38
247.266	135.38
247.5	117.38
247.733	119.38
247.966	116.38
248.2	106.38
248.433	133.38
248.666	127.38
248.899	135.38
249.133	128.38
249.366	144.38
249.599	132.38
249.832	127.38
250.066	138.38
250.299	131.38
250.532	140.38
250.765	137.38
250.998	126.38
251.231	127.38
251.465	135.38
251.698	131.38
251.931	137.38
252.164	135.38
252.397	138.38
252.63	139.38
252.863	150.38
253.096	151.38
253.329	129.38
253.562	145.38
253.795	138.38
254.028	151.38
254.261	144.38
254.494	141.38
254.727	149.38
254.96	132.38
255.193	138.38
255.426	139.38
255.659	137.38
255.892	140.38
256.124	152.38
256.357	152.38
256.59	164.38
256.823	135.38
257.056	167.38
257.289	148.38
257.521	150.38
257.754	144.38
257.987	151.38
258.22	153.38
258.452	135.38
258.685	169.38
258.918	170.38
259.151	147.38
259.383	160.38
259.616	154.38
259.849	159.38
260.081	160.38
260.314	150.38
260.547	152.38
260.779	147.38
261.012	164.38
261.244	158.38
261.477	174.38
261.71	160.38
261.942	158.38
262.175	158.38
262.407	168.38
262.64	151.38
262.872	142.38
263.105	156.38
263.337	157.38
263.57	153.38
263.802	168.38
264.035	168.38
264.267	154.38
264.499	158.38
264.732	161.38
264.964	163.38
265.197	168.38
265.429	157.38
265.661	164.38
265.894	169.38
266.126	158.38
266.358	150.38
266.591	166.38
266.823	168.38
267.055	174.38
267.287	172.38
267.52	184.38
267.752	162.38
267.984	159.38
268.216	169.38
268.448	181.38
268.681	176.38
268.913	167.38
269.145	180.38
269.377	184.38
269.609	174.38
269.841	173.38
270.073	175.38
270.306	176.38
270.538	175.38
270.77	183.38
271.002	181.38
271.234	173.38
271.466	169.38
271.698	165.38
271.93	171.38
272.162	185.38
272.394	194.38
272.626	179.38
272.858	175.38
273.09	194.38
273.322	189.38
273.553	181.38
273.785	182.38
274.017	182.38
274.249	180.38
274.481	190.38
274.713	167.38
274.945	186.38
275.176	196.38
275.408	195.38
275.64	204.38
275.872	184.38
276.104	181.38
276.335	209.38
276.567	205.38
276.799	191.38
277.031	187.38
277.262	184.38
277.494	198.38
277.726	199.38
277.957	188.38
278.189	193.38
278.421	201.38
278.652	194.38
278.884	191.38
279.115	199.38
279.347	206.38
279.579	201.38
279.81	199.38
280.042	208.38
280.273	204.38
280.505	192.38
280.736	195.38
280.968	207.38
281.199	202.38
281.431	214.38
281.662	209.38
281.894	205.38
282.125	200.38
282.356	214.38
282.588	218.38
282.819	198.38
283.051	218.38
283.282	212.38
283.513	213.38
283.745	219.38
283.976	199.38
284.207	214.38
284.439	208.38
284.67	213.38
284.901	240.38
285.132	209.38
285.364	211.38
285.595	208.38
285.826	212.38
286.057	227.38
286.288	224.38
286.52	225.38
286.751	211.38
286.982	218.38
287.213	220.38
287.444	202.38
287.675	209.38
287.906	213.38
288.138	217.38
288.369	219.38
288.6	211.38
288.831	212.38
289.062	230.38
289.293	215.38
289.524	235.38
289.755	207.38
289.986	227.38
290.217	216.38
290.448	218.38
290.679	219.38
290.91	227.38
291.141	226.38
291.371	230.38
291.602	249.38
291.833	235.38
292.064	219.38
292.295	211.38
292.526	217.38
292.757	221.38
292.987	224.38
293.218	218.38
293.449	222.38
293.68	237.38
293.91	233.38
294.141	244.38
294.372	236.38
294.603	210.38
294.833	215.38
295.064	246.38
295.295	228.38
295.525	230.38
295.756	246.38
295.987	230.38
296.217	223.38
296.448	227.38
296.679	237.38
296.909	242.38
297.14	245.38
297.37	246.38
297.601	235.38
297.831	255.38
298.062	255.38
298.292	230.38
298.523	255.38
298.753	257.38
298.984	231.38
299.214	243.38
299.445	226.38
299.675	234.38
299.905	241.38
300.136	243.38
300.366	219.38
300.597	241.38
300.827	247.38
301.057	251.38
301.288	222.38
301.518	252.38
301.748	244.38
301.979	253.38
302.209	249.38
302.439	246.38
302.669	256.38
302.9	238.38
303.13	257.38
303.36	259.38
303.59	247.38
303.82	251.38
304.051	280.38
304.281	255.38
304.511	246.38
304.741	257.38
304.971	256.38
305.201	255.38
305.431	268.38
305.661	232.38
305.891	246.38
306.121	244.38
306.352	269.38
306.582	248.38
306.812	251.38
307.042	246.38
307.272	260.38
307.502	256.38
307.731	247.38
307.961	245.38
308.191	247.38
308.421	262.38
308.651	245.38
308.881	229.38
309.111	250.38
309.341	245.38
309.571	240.38
309.8	249.38
310.03	253.38
310.26	224.38
310.49	240.38
310.72	252.38
310.949	257.38
311.179	268.38
311.409	247.38
311.639	262.38
311.868	247.38
312.098	264.38
312.328	236.38
312.557	246.38
312.787	257.38
313.017	272.38
313.246	258.38
313.476	240.38
313.706	257.38
313.935	281.38
314.165	248.38
314.394	249.38
314.624	272.38
314.853	259.38
315.083	259.38
315.312	264.38
315.542	275.38
315.771	275.38
316.001	268.38
316.23	254.38
316.46	257.38
316.689	278.38
316.919	256.38
317.148	277.38
317.377	282.38
317.607	258.38
317.836	256.38
318.065	269.38
318.295	274.38
318.524	250.38
318.753	250.38
318.983	272.38
319.212	271.38
319.441	275.38
319.67	281.38
319.9	238.38
320.129	263.38
320.358	246.38
320.587	263.38
320.816	252.38
321.046	252.38
321.275	254.38
321.504	263.38
321.733	266.38
321.962	249.38
322.191	248.38
322.42	260.38
322.649	250.38
322.878	273.38
323.108	266.38
323.337	264.38
323.566	265.38
323.795	273.38
324.024	267.38
324.253	263.38
324.482	263.38
324.71	280.38
324.939	271.38
325.168	267.38
325.397	288.38
325.626	270.38
325.855	278.38
326.084	276.38
326.313	282.38
326.542	272.38
326.77	274.38
326.999	304.38
327.228	273.38
327.457	281.38
327.686	287.38
327.914	272.38
328.143	287.38
328.372	289.38
328.6	283.38
328.829	265.38
329.058	275.38
329.287	264.38
329.515	293.38
329.744	307.38
329.972	277.38
330.201	291.38
330.43	293.38
330.658	292.38
330.887	292.38
331.115	285.38
331.344	298.38
331.572	302.38
331.801	314.38
332.03	308.38
332.258	327.38
332.486	323.38
332.715	331.38
332.943	328.38
333.172	344.38
333.4	365.38
333.629	347.38
333.857	359.38
334.085	377.38
334.314	349.38
334.542	329.38
334.771	341.38
334.999	347.38
335.227	348.38
335.455	341.38
335.684	353.38
335.912	345.38
336.14	332.38
336.369	341.38
336.597	320.38
336.825	341.38
337.053	324.38
337.281	346.38
337.51	328.38
337.738	327.38
337.966	312.38
338.194	301.38
338.422	291.38
338.65	315.38
338.878	303.38
339.106	287.38
339.334	313.38
339.562	309.38
339.79	314.38
340.018	303.38
340.246	292.38
340.474	286.38
340.702	300.38
340.93	294.38
341.158	295.38
341.386	303.38
341.614	287.38
341.842	292.38
342.07	291.38
342.298	288.38
342.526	311.38
342.754	294.38
342.981	300.38
343.209	300.38
343.437	323.38
343.665	318.38
343.893	343.38
344.12	371.38
344.348	329.38
344.576	313.38
344.804	304.38
345.031	315.38
345.259	309.38
345.487	311.38
345.714	300.38
345.942	290.38
346.17	281.38
346.397	297.38
346.625	301.38
346.853	276.38
347.08	289.38
347.308	297.38
347.535	299.38
347.763	304.38
347.99	302.38
348.218	295.38
348.445	281.38
348.673	297.38
348.9	295.38
349.128	309.38
349.355	292.38
349.583	303.38
349.81	296.38
350.037	275.38
350.265	283.38
350.492	267.38
350.72	267.38
350.947	281.38
351.174	300.38
351.402	291.38
351.629	294.38
351.856	287.38
352.083	283.38
352.311	281.38
352.538	283.38
352.765	280.38
352.992	281.38
353.22	267.38
353.447	293.38
353.674	293.38
353.901	284.38
354.128	272.38
354.355	273.38
354.583	283.38
354.81	259.38
355.037	279.38
355.264	283.38
355.491	289.38
355.718	292.38
355.945	284.38
356.172	287.38
356.399	289.38
356.626	273.38
356.853	290.38
357.08	299.38
357.307	290.38
357.534	272.38
357.761	272.38
357.988	286.38
358.215	291.38
358.441	289.38
358.668	282.38
358.895	286.38
359.122	260.38
359.349	283.38
359.576	287.38
359.802	272.38
360.029	289.38
360.256	273.38
360.483	290.38
360.709	279.38
360.936	303.38
361.163	282.38
361.39	273.38
361.616	272.38
361.843	291.38
362.07	283.38
362.296	279.38
362.523	273.38
362.749	277.38
362.976	269.38
363.203	280.38
363.429	285.38
363.656	299.38
363.882	289.38
364.109	287.38
364.335	291.38
364.562	292.38
364.788	290.38
365.015	284.38
365.241	281.38
365.468	300.38
365.694	265.38
365.92	303.38
366.147	276.38
366.373	264.38
366.599	304.38
366.826	282.38
367.052	295.38
367.278	287.38
367.505	293.38
367.731	303.38
367.957	294.38
368.184	281.38
368.41	264.38
368.636	292.38
368.862	303.38
369.089	295.38
369.315	293.38
369.541	293.38
369.767	301.38
369.993	296.38
370.219	304.38
370.445	289.38
370.672	301.38
370.898	314.38
371.124	307.38
371.35	319.38
371.576	309.38
371.802	330.38
372.028	301.38
372.254	324.38
372.48	313.38
372.706	329.38
372.932	315.38
373.158	332.38
373.384	343.38
373.61	341.38
373.835	289.38
374.061	310.38
374.287	327.38
374.513	339.38
374.739	334.38
374.965	341.38
375.191	346.38
375.416	354.38
375.642	332.38
375.868	327.38
376.094	315.38
376.319	323.38
376.545	316.38
376.771	326.38
376.997	325.38
377.222	329.38
377.448	298.38
377.674	309.38
377.899	314.38
378.125	318.38
378.35	316.38
378.576	319.38
378.802	319.38
379.027	303.38
379.253	309.38
379.478	324.38
379.704	316.38
379.929	309.38
380.155	319.38
380.38	333.38
380.606	317.38
380.831	331.38
381.057	315.38
381.282	338.38
381.507	319.38
381.733	313.38
381.958	306.38
382.184	331.38
382.409	313.38
382.634	339.38
382.86	320.38
383.085	332.38
383.31	340.38
383.535	334.38
383.761	331.38
383.986	331.38
384.211	348.38
384.436	375.38
384.662	347.38
384.887	360.38
385.112	376.38
385.337	375.38
385.562	378.38
385.787	371.38
386.013	372.38
386.238	348.38
386.463	383.38
386.688	346.38
386.913	359.38
387.138	377.38
387.363	361.38
387.588	371.38
387.813	389.38
388.038	362.38
388.263	360.38
388.488	375.38
388.713	371.38
388.938	371.38
389.163	368.38
389.387	370.38
389.612	382.38
389.837	381.38
390.062	373.38
390.287	376.38
390.512	369.38
390.736	353.38
390.961	400.38
391.186	400.38
391.411	390.38
391.636	391.38
391.86	394.38
392.085	409.38
392.31	413.38
392.534	408.38
392.759	393.38
392.984	405.38
393.208	393.38
393.433	375.38
393.658	381.38
393.882	363.38
394.107	393.38
394.331	391.38
394.556	393.38
394.78	394.38
395.005	400.38
395.229	421.38
395.454	423.38
395.678	414.38
395.903	407.38
396.127	415.38
396.352	403.38
396.576	396.38
396.801	405.38
397.025	407.38
397.249	414.38
397.474	420.38
397.698	430.38
397.922	424.38
398.147	422.38
398.371	417.38
398.595	439.38
398.82	457.38
399.044	481.38
399.268	520.38
399.492	576.38
399.717	631.38
399.941	644.38
400.165	595.38
400.389	523.38
400.613	482.38
400.837	478.38
401.062	484.38
401.286	467.38
401.51	450.38
401.734	453.38
401.958	479.38
402.182	464.38
402.406	462.38
402.63	470.38
402.854	481.38
403.078	477.38
403.302	489.38
403.526	512.38
403.75	515.38
403.974	504.38
404.198	479.38
404.422	520.38
404.645	500.38
404.869	500.38
405.093	510.38
405.317	486.38
405.541	515.38
405.765	485.38
405.988	517.38
406.212	503.38
406.436	499.38
406.66	499.38
406.883	509.38
407.107	550.38
407.331	583.38
407.555	576.38
407.778	561.38
408.002	562.38
408.226	527.38
408.449	531.38
408.673	521.38
408.896	538.38
409.12	511.38
409.344	539.38
409.567	520.38
409.791	535.38
410.014	512.38
410.238	495.38
410.461	525.38
410.685	483.38
410.908	513.38
411.132	486.38
411.355	490.38
411.578	520.38
411.802	493.38
412.025	496.38
412.249	500.38
412.472	492.38
412.695	480.38
412.919	467.38
413.142	464.38
413.365	469.38
413.589	490.38
413.812	477.38
414.035	462.38
414.258	486.38
414.482	479.38
414.705	469.38
414.928	477.38
415.151	488.38
415.374	469.38
415.597	483.38
415.821	479.38
416.044	468.38
416.267	476.38
416.49	460.38
416.713	458.38
416.936	467.38
417.159	451.38
417.382	455.38
417.605	465.38
417.828	474.38
418.051	456.38
418.274	461.38
418.497	459.38
418.72	468.38
418.943	481.38
419.166	509.38
419.389	504.38
419.611	506.38
419.834	500.38
420.057	511.38
420.28	475.38
420.503	460.38
420.726	473.38
420.948	465.38
421.171	467.38
421.394	484.38
421.617	465.38
421.839	466.38
422.062	474.38
422.285	472.38
422.507	489.38
422.73	471.38
422.953	469.38
423.175	474.38
423.398	478.38
423.621	478.38
423.843	503.38
424.066	496.38
424.288	479.38
424.511	480.38
424.733	522.38
424.956	471.38
425.178	469.38
425.401	460.38
425.623	476.38
425.846	452.38
426.068	454.38
426.291	447.38
426.513	459.38
426.735	453.38
426.958	460.38
427.18	427.38
427.402	441.38
427.625	430.38
427.847	440.38
428.069	449.38
428.292	442.38
428.514	447.38
428.736	433.38
428.958	441.38
429.181	423.38
429.403	425.38
429.625	398.38
429.847	402.38
430.069	420.38
430.292	419.38
430.514	410.38
430.736	430.38
430.958	425.38
431.18	415.38
431.402	408.38
431.624	389.38
431.846	425.38
432.068	437.38
432.29	433.38
432.512	426.38
432.734	437.38
432.956	459.38
433.178	439.38
433.4	435.38
433.622	444.38
433.844	449.38
434.066	440.38
434.287	443.38
434.509	449.38
434.731	449.38
434.953	461.38
435.175	496.38
435.397	467.38
435.618	455.38
435.84	437.38
436.062	424.38
436.284	461.38
436.505	447.38
436.727	444.38
436.949	448.38
437.17	432.38
437.392	429.38
437.614	436.38
437.835	411.38
438.057	390.38
438.278	415.38
438.5	422.38
438.721	418.38
438.943	432.38
439.165	430.38
439.386	425.38
439.608	435.38
439.829	436.38
440.05	458.38
440.272	452.38
440.493	423.38
440.715	454.38
440.936	461.38
441.158	437.38
441.379	457.38
441.6	462.38
441.822	473.38
442.043	465.38
442.264	488.38
442.486	451.38
442.707	476.38
442.928	474.38
443.149	484.38
443.371	470.38
443.592	468.38
443.813	471.38
444.034	493.38
444.255	487.38
444.476	509.38
444.698	517.38
444.919	565.38
445.14	668.38
445.361	558.38
445.582	503.38
445.803	479.38
446.024	441.38
446.245	461.38
446.466	465.38
446.687	443.38
446.908	446.38
447.129	440.38
447.35	437.38
447.571	419.38
447.792	439.38
448.013	416.38
448.234	420.38
448.455	405.38
448.675	432.38
448.896	404.38
449.117	401.38
449.338	400.38
449.559	400.38
449.779	413.38
450	395.38
450.221	400.38
450.442	413.38
450.662	437.38
450.883	437.38
451.104	416.38
451.324	417.38
451.545	417.38
451.766	404.38
451.986	423.38
452.207	416.38
452.428	401.38
452.648	400.38
452.869	412.38
453.089	402.38
453.31	381.38
453.53	402.38
453.751	389.38
453.971	387.38
454.192	384.38
454.412	387.38
454.633	398.38
454.853	376.38
455.073	390.38
455.294	383.38
455.514	382.38
455.734	401.38
455.955	393.38
456.175	384.38
456.395	368.38
456.616	391.38
456.836	389.38
457.056	397.38
457.276	385.38
457.497	397.38
457.717	382.38
457.937	401.38
458.157	378.38
458.377	376.38
458.598	383.38
458.818	406.38
459.038	391.38
459.258	399.38
459.478	442.38
459.698	448.38
459.918	441.38
460.138	456.38
460.358	463.38
460.578	485.38
460.798	479.38
461.018	499.38
461.238	501.38
461.458	478.38
461.678	475.38
461.898	508.38
462.118	501.38
462.338	505.38
462.558	531.38
462.777	573.38
462.997	595.38
463.217	640.38
463.437	622.38
463.657	575.38
463.876	563.38
464.096	576.38
464.316	563.38
464.536	555.38
464.755	540.38
464.975	535.38
465.195	509.38
465.414	503.38
465.634	476.38
465.854	447.38
466.073	455.38
466.293	471.38
466.512	441.38
466.732	438.38
466.951	436.38
467.171	423.38
467.391	423.38
467.61	441.38
467.829	421.38
468.049	420.38
468.268	413.38
468.488	401.38
468.707	424.38
468.927	422.38
469.146	419.38
469.365	439.38
469.585	414.38
469.804	429.38
470.023	422.38
470.243	411.38
470.462	449.38
470.681	445.38
470.901	447.38
471.12	441.38
471.339	437.38
471.558	420.38
471.777	403.38
471.997	413.38
472.216	422.38
472.435	411.38
472.654	403.38
472.873	404.38
473.092	401.38
473.311	405.38
473.53	388.38
473.749	399.38
473.968	406.38
474.187	383.38
474.406	393.38
474.625	391.38
474.844	389.38
475.063	389.38
475.282	390.38
475.501	397.38
475.72	410.38
475.939	400.38
476.158	402.38
476.377	408.38
476.596	408.38
476.814	397.38
477.033	415.38
477.252	416.38
477.471	426.38
477.69	429.38
477.908	456.38
478.127	448.38
478.346	455.38
478.564	461.38
478.783	488.38
479.002	463.38
479.22	479.38
479.439	472.38
479.658	468.38
479.876	462.38
480.095	485.38
480.313	492.38
480.532	492.38
480.751	487.38
480.969	469.38
481.188	484.38
481.406	451.38
481.624	452.38
481.843	424.38
482.061	426.38
482.28	439.38
482.498	431.38
482.717	443.38
482.935	435.38
483.153	440.38
483.372	450.38
483.59	445.38
483.808	446.38
484.027	430.38
484.245	466.38
484.463	437.38
484.681	446.38
484.9	443.38
485.118	468.38
485.336	439.38
485.554	468.38
485.772	447.38
485.99	459.38
486.209	441.38
486.427	473.38
486.645	459.38
486.863	467.38
487.081	465.38
487.299	472.38
487.517	451.38
487.735	471.38
487.953	447.38
488.171	479.38
488.389	466.38
488.607	448.38
488.825	446.38
489.043	428.38
489.261	458.38
489.479	464.38
489.696	451.38
489.914	460.38
490.132	456.38
490.35	460.38
490.568	468.38
490.786	451.38
491.003	453.38
491.221	485.38
491.439	467.38
491.657	471.38
491.874	476.38
492.092	494.38
492.31	477.38
492.527	469.38
492.745	484.38
492.963	470.38
493.18	494.38
493.398	495.38
493.615	482.38
493.833	497.38
494.05	462.38
494.268	495.38
494.485	483.38
494.703	496.38
494.92	474.38
495.138	494.38
495.355	520.38
495.573	483.38
495.79	509.38
496.008	519.38
496.225	520.38
496.442	505.38
496.66	518.38
496.877	521.38
497.094	503.38
497.312	530.38
497.529	510.38
497.746	557.38
497.963	560.38
498.181	592.38
498.398	603.38
498.615	634.38
498.832	672.38
499.049	704.38
499.267	759.38
499.484	795.38
499.701	848.38
499.918	956.38
500.135	1051.38
500.352	1180.38
500.569	1214.38
500.786	1207.38
501.003	1094.38
501.22	1041.38
501.437	905.38
501.654	825.38
501.871	768.38
502.088	726.38
502.305	714.38
502.522	663.38
502.739	645.38
502.956	596.38
503.172	590.38
503.389	549.38
503.606	544.38
503.823	558.38
504.04	545.38
504.256	551.38
504.473	559.38
504.69	547.38
504.907	557.38
505.123	523.38
505.34	500.38
505.557	467.38
505.773	481.38
505.99	463.38
506.207	465.38
506.423	442.38
506.64	439.38
506.856	439.38
507.073	453.38
507.289	441.38
507.506	423.38
507.722	445.38
507.939	420.38
508.155	429.38
508.372	426.38
508.588	423.38
508.805	415.38
509.021	405.38
509.238	393.38
509.454	409.38
509.67	413.38
509.887	389.38
510.103	394.38
510.319	391.38
510.536	373.38
510.752	391.38
510.968	394.38
511.184	400.38
511.401	408.38
511.617	397.38
511.833	409.38
512.049	389.38
512.265	414.38
512.481	407.38
512.698	404.38
512.914	396.38
513.13	395.38
513.346	390.38
513.562	383.38
513.778	385.38
513.994	395.38
514.21	386.38
514.426	418.38
514.642	388.38
514.858	433.38
515.074	397.38
515.29	409.38
515.506	416.38
515.721	407.38
515.937	427.38
516.153	420.38
516.369	459.38
516.585	439.38
516.801	452.38
517.016	466.38
517.232	469.38
517.448	477.38
517.664	512.38
517.879	529.38
518.095	507.38
518.311	503.38
518.527	478.38
518.742	469.38
518.958	479.38
519.173	461.38
519.389	421.38
519.605	423.38
519.82	419.38
520.036	412.38
520.251	414.38
520.467	406.38
520.682	377.38
520.898	384.38
521.113	384.38
521.329	388.38
521.544	398.38
521.76	389.38
521.975	387.38
522.19	377.38
522.406	372.38
522.621	386.38
522.836	392.38
523.052	371.38
523.267	363.38
523.482	355.38
523.698	353.38
523.913	373.38
524.128	383.38
524.343	376.38
524.559	368.38
524.774	377.38
524.989	372.38
525.204	369.38
525.419	366.38
525.634	358.38
525.849	363.38
526.064	371.38
526.28	360.38
526.495	347.38
526.71	353.38
526.925	351.38
527.14	362.38
527.355	369.38
527.57	379.38
527.785	357.38
527.999	355.38
528.214	357.38
528.429	356.38
528.644	360.38
528.859	357.38
529.074	357.38
529.289	360.38
529.503	367.38
529.718	368.38
529.933	350.38
530.148	366.38
530.363	363.38
530.577	369.38
530.792	371.38
531.007	351.38
531.221	356.38
531.436	350.38
531.651	367.38
531.865	373.38
532.08	349.38
532.295	346.38
532.509	349.38
532.724	354.38
532.938	351.38
533.153	360.38
533.367	357.38
533.582	363.38
533.796	348.38
534.011	343.38
534.225	354.38
534.44	360.38
534.654	360.38
534.868	351.38
535.083	351.38
535.297	353.38
535.511	360.38
535.726	340.38
535.94	337.38
536.154	329.38
536.369	327.38
536.583	336.38
536.797	336.38
537.011	356.38
537.225	348.38
537.44	336.38
537.654	351.38
537.868	329.38
538.082	340.38
538.296	352.38
538.51	342.38
538.724	320.38
538.938	350.38
539.153	324.38
539.367	341.38
539.581	342.38
539.795	336.38
540.009	345.38
540.222	317.38
540.436	332.38
540.65	332.38
540.864	329.38
541.078	335.38
541.292	330.38
541.506	333.38
541.72	335.38
541.934	340.38
542.147	341.38
542.361	337.38
542.575	316.38
542.789	325.38
543.002	331.38
543.216	308.38
543.43	318.38
543.644	347.38
543.857	343.38
544.071	321.38
544.285	327.38
544.498	336.38
544.712	336.38
544.925	335.38
545.139	337.38
545.352	329.38
545.566	327.38
545.779	336.38
545.993	342.38
546.206	338.38
546.42	355.38
546.633	332.38
546.847	353.38
547.06	355.38
547.274	338.38
547.487	354.38
547.7	363.38
547.914	340.38
548.127	343.38
548.34	337.38
548.554	328.38
548.767	365.38
548.98	368.38
549.193	354.38
549.407	361.38
549.62	347.38
549.833	341.38
550.046	339.38
550.259	332.38
550.473	331.38
550.686	348.38
550.899	348.38
551.112	313.38
551.325	351.38
551.538	341.38
551.751	335.38
551.964	330.38
552.177	346.38
552.39	326.38
552.603	362.38
552.816	350.38
553.029	358.38
553.242	365.38
553.455	368.38
553.667	369.38
553.88	350.38
554.093	348.38
554.306	343.38
554.519	345.38
554.732	340.38
554.944	333.38
555.157	332.38
555.37	332.38
555.583	317.38
555.795	319.38
556.008	320.38
556.221	307.38
556.433	319.38
556.646	309.38
556.859	299.38
557.071	302.38
557.284	320.38
557.496	295.38
557.709	309.38
557.921	301.38
558.134	281.38
558.346	281.38
558.559	305.38
558.771	289.38
558.984	271.38
559.196	302.38
559.409	283.38
559.621	299.38
559.833	280.38
560.046	274.38
560.258	283.38
560.47	301.38
560.683	276.38
560.895	288.38
561.107	267.38
561.32	290.38
561.532	302.38
561.744	335.38
561.956	272.38
562.168	288.38
562.381	315.38
562.593	281.38
562.805	282.38
563.017	301.38
563.229	310.38
563.441	279.38
563.653	300.38
563.865	303.38
564.077	292.38
564.289	310.38
564.501	294.38
564.713	303.38
564.925	307.38
565.137	308.38
565.349	318.38
565.561	323.38
565.773	337.38
565.985	326.38
566.197	352.38
566.408	375.38
566.62	398.38
566.832	419.38
567.044	409.38
567.255	412.38
567.467	428.38
567.679	447.38
567.891	471.38
568.102	455.38
568.314	460.38
568.526	407.38
568.737	401.38
568.949	361.38
569.161	345.38
569.372	323.38
569.584	320.38
569.795	315.38
570.007	299.38
570.218	295.38
570.43	281.38
570.641	279.38
570.853	287.38
571.064	297.38
571.276	309.38
571.487	290.38
571.698	273.38
571.91	272.38
572.121	265.38
572.333	249.38
572.544	273.38
572.755	258.38
572.966	252.38
573.178	259.38
573.389	247.38
573.6	243.38
573.811	246.38
574.023	253.38
574.234	261.38
574.445	265.38
574.656	255.38
574.867	244.38
575.078	246.38
575.289	259.38
575.501	244.38
575.712	232.38
575.923	248.38
576.134	237.38
576.345	236.38
576.556	240.38
576.767	239.38
576.978	235.38
577.188	241.38
577.399	223.38
577.61	224.38
577.821	221.38
578.032	222.38
578.243	238.38
578.454	233.38
578.665	232.38
578.875	202.38
579.086	214.38
579.297	206.38
579.508	225.38
579.718	233.38
579.929	227.38
580.14	229.38
580.35	210.38
580.561	217.38
580.772	220.38
580.982	222.38
581.193	220.38
581.403	223.38
581.614	192.38
581.825	230.38
582.035	223.38
582.246	218.38
582.456	217.38
582.667	226.38
582.877	215.38
583.087	222.38
583.298	206.38
583.508	201.38
583.719	212.38
583.929	214.38
584.139	195.38
584.35	199.38
584.56	219.38
584.77	221.38
584.981	217.38
585.191	216.38
585.401	209.38
585.611	216.38
585.821	233.38
586.032	211.38
586.242	205.38
586.452	210.38
586.662	205.38
586.872	224.38
587.082	204.38
587.292	205.38
587.502	204.38
587.713	192.38
587.923	204.38
588.133	205.38
588.343	197.38
588.553	218.38
588.762	203.38
588.972	202.38
589.182	208.38
589.392	206.38
589.602	200.38
589.812	198.38
590.022	208.38
590.232	193.38
590.441	219.38
590.651	219.38
590.861	218.38
591.071	224.38
591.281	220.38
591.49	208.38
591.7	199.38
591.91	203.38
592.119	237.38
592.329	217.38
592.539	232.38
592.748	246.38
592.958	216.38
593.167	227.38
593.377	220.38
593.587	248.38
593.796	234.38
594.006	249.38
594.215	230.38
594.424	243.38
594.634	239.38
594.843	231.38
595.053	228.38
595.262	232.38
595.472	228.38
595.681	219.38
595.89	219.38
596.1	214.38
596.309	215.38
596.518	202.38
596.727	199.38
596.937	192.38
597.146	198.38
597.355	207.38
597.564	200.38
597.774	195.38
597.983	196.38
598.192	184.38
598.401	187.38
598.61	198.38
598.819	190.38
599.028	198.38
599.237	175.38
599.446	191.38
599.655	186.38
599.864	186.38
600.073	201.38
600.282	200.38
600.491	190.38
600.7	182.38
600.909	174.38
601.118	168.38
601.327	180.38
601.536	170.38
601.745	179.38
601.953	188.38
602.162	179.38
602.371	185.38
602.58	181.38
602.789	181.38
602.997	186.38
603.206	188.38
603.415	176.38
603.623	171.38
603.832	200.38
604.041	172.38
604.249	183.38
604.458	170.38
604.666	166.38
604.875	166.38
605.084	200.38
605.292	167.38
605.501	179.38
605.709	177.38
605.918	165.38
606.126	188.38
606.334	185.38
606.543	175.38
606.751	173.38
606.96	179.38
607.168	185.38
607.376	179.38
607.585	152.38
607.793	174.38
608.001	176.38
608.21	160.38
608.418	183.38
608.626	173.38
608.834	175.38
609.043	184.38
609.251	165.38
609.459	159.38
609.667	185.38
609.875	164.38
610.083	165.38
610.291	166.38
610.499	181.38
610.707	181.38
610.916	161.38
611.124	163.38
611.332	173.38
611.54	177.38
611.748	169.38
611.955	173.38
612.163	155.38
612.371	176.38
612.579	156.38
612.787	168.38
612.995	163.38
613.203	177.38
613.411	166.38
613.618	165.38
613.826	169.38
614.034	174.38
614.242	168.38
614.449	174.38
614.657	161.38
614.865	156.38
615.072	161.38
615.28	164.38
615.488	160.38
615.695	165.38
615.903	170.38
616.111	172.38
616.318	182.38
616.526	161.38
616.733	188.38
616.941	159.38
617.148	185.38
617.356	154.38
617.563	160.38
617.771	157.38
617.978	165.38
618.185	177.38
618.393	154.38
618.6	157.38
618.807	164.38
619.015	178.38
619.222	160.38
619.429	173.38
619.637	158.38
619.844	163.38
620.051	160.38
620.258	148.38
620.466	175.38
620.673	168.38
620.88	140.38
621.087	166.38
621.294	151.38
621.501	172.38
621.708	174.38
621.915	157.38
622.122	153.38
622.329	146.38
622.536	152.38
622.743	166.38
622.95	165.38
623.157	155.38
623.364	162.38
623.571	162.38
623.778	161.38
623.985	170.38
624.192	160.38
624.399	152.38
624.606	157.38
624.812	164.38
625.019	151.38
625.226	166.38
625.433	160.38
625.639	169.38
625.846	159.38
626.053	161.38
626.259	143.38
626.466	144.38
626.673	168.38
626.879	154.38
627.086	152.38
627.293	144.38
627.499	154.38
627.706	163.38
627.912	156.38
628.119	148.38
628.325	150.38
628.532	149.38
628.738	159.38
628.945	141.38
629.151	164.38
629.357	147.38
629.564	143.38
629.77	142.38
629.976	133.38
630.183	139.38
630.389	156.38
630.595	141.38
630.802	156.38
631.008	143.38
631.214	156.38
631.42	142.38
631.627	152.38
631.833	136.38
632.039	153.38
632.245	140.38
632.451	149.38
632.657	141.38
632.863	156.38
633.069	137.38
633.275	132.38
633.481	128.38
633.688	139.38
633.893	141.38
634.099	144.38
634.305	150.38
634.511	144.38
634.717	137.38
634.923	142.38
635.129	140.38
635.335	132.38
635.541	136.38
635.747	149.38
635.952	142.38
636.158	126.38
636.364	139.38
636.57	145.38
636.775	120.38
636.981	139.38
637.187	133.38
637.392	134.38
637.598	129.38
637.804	137.38
638.009	140.38
638.215	140.38
638.421	130.38
638.626	136.38
638.832	134.38
639.037	117.38
639.243	153.38
639.448	140.38
639.654	131.38
639.859	126.38
640.065	134.38
640.27	143.38
640.475	136.38
640.681	127.38
640.886	118.38
641.091	136.38
641.297	129.38
641.502	134.38
641.707	131.38
641.913	143.38
642.118	124.38
642.323	112.38
642.528	131.38
642.733	129.38
642.939	134.38
643.144	132.38
643.349	128.38
643.554	131.38
643.759	136.38
643.964	133.38
644.169	122.38
644.374	131.38
644.579	134.38
644.784	135.38
644.989	131.38
645.194	132.38
645.399	135.38
645.604	119.38
645.809	126.38
646.014	130.38
646.219	129.38
646.423	127.38
646.628	135.38
646.833	137.38
647.038	119.38
647.243	129.38
647.447	116.38
647.652	123.38
647.857	117.38
648.062	140.38
648.266	139.38
648.471	142.38
648.676	136.38
648.88	150.38
649.085	127.38
649.289	123.38
649.494	127.38
649.698	121.38
649.903	116.38
650.107	140.38
650.312	129.38
650.516	136.38
650.721	128.38
650.925	138.38
651.13	121.38
651.334	127.38
651.539	126.38
651.743	123.38
651.947	122.38
652.152	139.38
652.356	112.38
652.56	116.38
652.764	121.38
652.969	107.38
653.173	122.38
653.377	112.38
653.581	106.38
653.785	106.38
653.99	105.38
654.194	126.38
654.398	109.38
654.602	103.38
654.806	116.38
655.01	125.38
655.214	123.38
655.418	116.38
655.622	109.38
655.826	115.38
656.03	106.38
656.234	104.38
656.438	106.38
656.642	111.38
656.846	111.38
657.049	103.38
657.253	109.38
657.457	102.38
657.661	87.38
657.865	117.38
658.068	102.38
658.272	94.38
658.476	102.38
658.68	90.38
658.883	109.38
659.087	99.38
659.291	102.38
659.494	95.38
659.698	99.38
659.901	104.38
660.105	95.38
660.309	90.38
660.512	89.38
660.716	105.38
660.919	103.38
661.123	109.38
661.326	86.38
661.53	85.38
661.733	85.38
661.936	93.38
662.14	87.38
662.343	99.38
662.546	97.38
662.75	95.38
662.953	93.38
663.156	85.38
663.36	94.38
663.563	82.38
663.766	90.38
663.969	83.38
664.173	91.38
664.376	86.38
664.579	76.38
664.782	88.38
664.985	80.38
665.188	92.38
665.391	82.38
665.594	92.38
665.797	89.38
666	99.38
666.203	80.38
666.406	91.38
666.609	89.38
666.812	89.38
667.015	92.38
667.218	93.38
667.421	82.38
667.624	95.38
667.827	90.38
668.03	87.38
668.232	78.38
668.435	89.38
668.638	91.38
668.841	78.38
669.043	81.38
669.246	96.38
669.449	93.38
669.651	88.38
669.854	100.38
670.057	78.38
670.259	80.38
670.462	100.38
670.665	85.38
670.867	84.38
671.07	94.38
671.272	96.38
671.475	89.38
671.677	80.38
671.88	89.38
672.082	76.38
672.284	97.38
672.487	92.38
672.689	65.38
672.892	79.38
