Data from Fe(NO3)3@0.1M.TitratingCurve.Agarose3%dH2O.NegLispCup.LampEnergy10.LIBS07252019_HRD10591_16-39-59-332.txt Node
Date: Thu Jul 25 16:39:59 EDT 2019
User: cochatt
Spectrometer: HR+D1059
Trigger mode: 1
Integration Time (sec): 1.000000E-1
Scans to average: 1
Electric dark correction enabled: true
Nonlinearity correction enabled: false
Boxcar width: 0
XAxis mode: Wavelengths
Number of Pixels in Spectrum: 2048
>>>>>Begin Spectral Data<<<<<
223.165	-6.31
223.4	-6.31
223.635	-6.31
223.869	-11.31
224.104	-4.31
224.338	-15.31
224.573	-16.31
224.808	-14.31
225.042	-6.31
225.277	-13.31
225.511	-8.31
225.746	-17.31
225.98	3.69
226.215	19.69
226.449	13.69
226.683	26.69
226.918	16.69
227.152	32.69
227.387	42.69
227.621	38.69
227.856	51.69
228.09	54.69
228.324	45.69
228.559	64.69
228.793	66.69
229.027	78.69
229.262	77.69
229.496	85.69
229.73	112.69
229.964	99.69
230.199	92.69
230.433	101.69
230.667	114.69
230.901	113.69
231.136	116.69
231.37	109.69
231.604	105.69
231.838	102.69
232.072	101.69
232.306	120.69
232.541	112.69
232.775	112.69
233.009	104.69
233.243	111.69
233.477	116.69
233.711	119.69
233.945	110.69
234.179	96.69
234.413	123.69
234.647	126.69
234.881	112.69
235.115	123.69
235.349	112.69
235.583	116.69
235.817	114.69
236.051	99.69
236.285	101.69
236.519	109.69
236.753	117.69
236.987	112.69
237.221	106.69
237.455	107.69
237.689	120.69
237.922	114.69
238.156	120.69
238.39	114.69
238.624	107.69
238.858	122.69
239.091	105.69
239.325	120.69
239.559	122.69
239.793	109.69
240.027	133.69
240.26	121.69
240.494	112.69
240.728	122.69
240.961	146.69
241.195	119.69
241.429	117.69
241.662	132.69
241.896	128.69
242.13	131.69
242.363	126.69
242.597	116.69
242.83	146.69
243.064	127.69
243.298	128.69
243.531	133.69
243.765	131.69
243.998	145.69
244.232	135.69
244.465	132.69
244.699	148.69
244.932	158.69
245.166	143.69
245.399	129.69
245.633	147.69
245.866	139.69
246.099	146.69
246.333	152.69
246.566	131.69
246.8	139.69
247.033	156.69
247.266	138.69
247.5	151.69
247.733	154.69
247.966	145.69
248.2	148.69
248.433	152.69
248.666	161.69
248.899	155.69
249.133	142.69
249.366	150.69
249.599	150.69
249.832	166.69
250.066	153.69
250.299	140.69
250.532	154.69
250.765	149.69
250.998	156.69
251.231	157.69
251.465	172.69
251.698	160.69
251.931	172.69
252.164	177.69
252.397	165.69
252.63	149.69
252.863	168.69
253.096	156.69
253.329	163.69
253.562	168.69
253.795	192.69
254.028	172.69
254.261	181.69
254.494	155.69
254.727	155.69
254.96	186.69
255.193	180.69
255.426	180.69
255.659	181.69
255.892	180.69
256.124	176.69
256.357	178.69
256.59	179.69
256.823	195.69
257.056	181.69
257.289	170.69
257.521	186.69
257.754	188.69
257.987	183.69
258.22	180.69
258.452	177.69
258.685	182.69
258.918	197.69
259.151	186.69
259.383	189.69
259.616	185.69
259.849	188.69
260.081	183.69
260.314	207.69
260.547	184.69
260.779	179.69
261.012	196.69
261.244	178.69
261.477	194.69
261.71	193.69
261.942	198.69
262.175	196.69
262.407	187.69
262.64	200.69
262.872	182.69
263.105	205.69
263.337	218.69
263.57	196.69
263.802	188.69
264.035	204.69
264.267	194.69
264.499	210.69
264.732	197.69
264.964	204.69
265.197	190.69
265.429	187.69
265.661	192.69
265.894	203.69
266.126	211.69
266.358	202.69
266.591	207.69
266.823	214.69
267.055	206.69
267.287	206.69
267.52	210.69
267.752	217.69
267.984	223.69
268.216	211.69
268.448	240.69
268.681	219.69
268.913	219.69
269.145	206.69
269.377	229.69
269.609	230.69
269.841	221.69
270.073	230.69
270.306	212.69
270.538	212.69
270.77	220.69
271.002	230.69
271.234	225.69
271.466	211.69
271.698	221.69
271.93	216.69
272.162	213.69
272.394	219.69
272.626	237.69
272.858	228.69
273.09	213.69
273.322	235.69
273.553	235.69
273.785	253.69
274.017	227.69
274.249	229.69
274.481	242.69
274.713	241.69
274.945	244.69
275.176	248.69
275.408	248.69
275.64	246.69
275.872	233.69
276.104	242.69
276.335	248.69
276.567	243.69
276.799	245.69
277.031	243.69
277.262	245.69
277.494	234.69
277.726	237.69
277.957	260.69
278.189	253.69
278.421	228.69
278.652	263.69
278.884	254.69
279.115	248.69
279.347	245.69
279.579	256.69
279.81	245.69
280.042	256.69
280.273	259.69
280.505	233.69
280.736	258.69
280.968	257.69
281.199	273.69
281.431	271.69
281.662	255.69
281.894	254.69
282.125	258.69
282.356	269.69
282.588	265.69
282.819	255.69
283.051	262.69
283.282	268.69
283.513	263.69
283.745	292.69
283.976	273.69
284.207	263.69
284.439	278.69
284.67	275.69
284.901	282.69
285.132	270.69
285.364	257.69
285.595	272.69
285.826	273.69
286.057	285.69
286.288	273.69
286.52	271.69
286.751	287.69
286.982	276.69
287.213	293.69
287.444	282.69
287.675	275.69
287.906	290.69
288.138	293.69
288.369	297.69
288.6	302.69
288.831	280.69
289.062	273.69
289.293	277.69
289.524	292.69
289.755	297.69
289.986	277.69
290.217	290.69
290.448	301.69
290.679	294.69
290.91	283.69
291.141	283.69
291.371	286.69
291.602	296.69
291.833	309.69
292.064	301.69
292.295	287.69
292.526	289.69
292.757	283.69
292.987	300.69
293.218	297.69
293.449	304.69
293.68	310.69
293.91	299.69
294.141	309.69
294.372	291.69
294.603	291.69
294.833	304.69
295.064	298.69
295.295	312.69
295.525	292.69
295.756	296.69
295.987	292.69
296.217	309.69
296.448	314.69
296.679	313.69
296.909	301.69
297.14	301.69
297.37	335.69
297.601	330.69
297.831	317.69
298.062	316.69
298.292	309.69
298.523	336.69
298.753	331.69
298.984	319.69
299.214	298.69
299.445	316.69
299.675	314.69
299.905	321.69
300.136	330.69
300.366	327.69
300.597	312.69
300.827	328.69
301.057	334.69
301.288	329.69
301.518	334.69
301.748	316.69
301.979	321.69
302.209	344.69
302.439	326.69
302.669	330.69
302.9	345.69
303.13	341.69
303.36	324.69
303.59	332.69
303.82	330.69
304.051	328.69
304.281	332.69
304.511	337.69
304.741	331.69
304.971	317.69
305.201	342.69
305.431	341.69
305.661	341.69
305.891	325.69
306.121	324.69
306.352	335.69
306.582	349.69
306.812	326.69
307.042	325.69
307.272	327.69
307.502	340.69
307.731	332.69
307.961	334.69
308.191	340.69
308.421	317.69
308.651	331.69
308.881	324.69
309.111	336.69
309.341	330.69
309.571	325.69
309.8	346.69
310.03	342.69
310.26	336.69
310.49	296.69
310.72	320.69
310.949	354.69
311.179	344.69
311.409	324.69
311.639	358.69
311.868	346.69
312.098	346.69
312.328	349.69
312.557	333.69
312.787	325.69
313.017	354.69
313.246	361.69
313.476	353.69
313.706	345.69
313.935	366.69
314.165	353.69
314.394	368.69
314.624	342.69
314.853	353.69
315.083	323.69
315.312	348.69
315.542	374.69
315.771	363.69
316.001	346.69
316.23	359.69
316.46	342.69
316.689	349.69
316.919	355.69
317.148	353.69
317.377	349.69
317.607	360.69
317.836	346.69
318.065	363.69
318.295	352.69
318.524	347.69
318.753	353.69
318.983	354.69
319.212	342.69
319.441	361.69
319.67	368.69
319.9	352.69
320.129	357.69
320.358	346.69
320.587	356.69
320.816	362.69
321.046	379.69
321.275	348.69
321.504	336.69
321.733	362.69
321.962	351.69
322.191	359.69
322.42	357.69
322.649	346.69
322.878	360.69
323.108	344.69
323.337	364.69
323.566	373.69
323.795	361.69
324.024	361.69
324.253	358.69
324.482	379.69
324.71	380.69
324.939	362.69
325.168	361.69
325.397	380.69
325.626	363.69
325.855	392.69
326.084	407.69
326.313	397.69
326.542	384.69
326.77	405.69
326.999	384.69
327.228	380.69
327.457	394.69
327.686	372.69
327.914	363.69
328.143	388.69
328.372	387.69
328.6	398.69
328.829	367.69
329.058	382.69
329.287	378.69
329.515	386.69
329.744	388.69
329.972	391.69
330.201	376.69
330.43	388.69
330.658	389.69
330.887	392.69
331.115	393.69
331.344	402.69
331.572	404.69
331.801	396.69
332.03	429.69
332.258	441.69
332.486	440.69
332.715	427.69
332.943	462.69
333.172	472.69
333.4	488.69
333.629	535.69
333.857	485.69
334.085	480.69
334.314	487.69
334.542	480.69
334.771	509.69
334.999	497.69
335.227	508.69
335.455	482.69
335.684	475.69
335.912	458.69
336.14	465.69
336.369	482.69
336.597	455.69
336.825	451.69
337.053	452.69
337.281	428.69
337.51	471.69
337.738	445.69
337.966	427.69
338.194	433.69
338.422	435.69
338.65	416.69
338.878	430.69
339.106	439.69
339.334	432.69
339.562	398.69
339.79	397.69
340.018	408.69
340.246	394.69
340.474	394.69
340.702	388.69
340.93	398.69
341.158	413.69
341.386	383.69
341.614	407.69
341.842	403.69
342.07	427.69
342.298	417.69
342.526	406.69
342.754	397.69
342.981	404.69
343.209	425.69
343.437	418.69
343.665	456.69
343.893	471.69
344.12	492.69
344.348	477.69
344.576	461.69
344.804	446.69
345.031	456.69
345.259	434.69
345.487	413.69
345.714	406.69
345.942	408.69
346.17	400.69
346.397	382.69
346.625	392.69
346.853	382.69
347.08	403.69
347.308	399.69
347.535	407.69
347.763	413.69
347.99	396.69
348.218	386.69
348.445	406.69
348.673	374.69
348.9	402.69
349.128	390.69
349.355	382.69
349.583	387.69
349.81	403.69
350.037	407.69
350.265	392.69
350.492	373.69
350.72	383.69
350.947	375.69
351.174	403.69
351.402	374.69
351.629	392.69
351.856	370.69
352.083	377.69
352.311	364.69
352.538	390.69
352.765	388.69
352.992	376.69
353.22	380.69
353.447	370.69
353.674	377.69
353.901	371.69
354.128	397.69
354.355	364.69
354.583	376.69
354.81	370.69
355.037	381.69
355.264	376.69
355.491	379.69
355.718	389.69
355.945	395.69
356.172	385.69
356.399	395.69
356.626	388.69
356.853	377.69
357.08	396.69
357.307	402.69
357.534	369.69
357.761	365.69
357.988	376.69
358.215	368.69
358.441	394.69
358.668	385.69
358.895	395.69
359.122	384.69
359.349	398.69
359.576	380.69
359.802	387.69
360.029	379.69
360.256	371.69
360.483	391.69
360.709	374.69
360.936	399.69
361.163	395.69
361.39	389.69
361.616	387.69
361.843	395.69
362.07	390.69
362.296	390.69
362.523	380.69
362.749	388.69
362.976	381.69
363.203	399.69
363.429	382.69
363.656	388.69
363.882	408.69
364.109	406.69
364.335	378.69
364.562	368.69
364.788	388.69
365.015	386.69
365.241	395.69
365.468	375.69
365.694	394.69
365.92	374.69
366.147	384.69
366.373	393.69
366.599	381.69
366.826	396.69
367.052	370.69
367.278	388.69
367.505	389.69
367.731	401.69
367.957	402.69
368.184	394.69
368.41	406.69
368.636	409.69
368.862	425.69
369.089	406.69
369.315	414.69
369.541	417.69
369.767	426.69
369.993	418.69
370.219	417.69
370.445	391.69
370.672	411.69
370.898	434.69
371.124	408.69
371.35	427.69
371.576	437.69
371.802	427.69
372.028	428.69
372.254	434.69
372.48	431.69
372.706	417.69
372.932	450.69
373.158	438.69
373.384	440.69
373.61	413.69
373.835	427.69
374.061	415.69
374.287	433.69
374.513	446.69
374.739	460.69
374.965	473.69
375.191	465.69
375.416	464.69
375.642	459.69
375.868	450.69
376.094	444.69
376.319	425.69
376.545	428.69
376.771	435.69
376.997	437.69
377.222	433.69
377.448	417.69
377.674	441.69
377.899	424.69
378.125	425.69
378.35	434.69
378.576	423.69
378.802	420.69
379.027	443.69
379.253	433.69
379.478	420.69
379.704	418.69
379.929	417.69
380.155	430.69
380.38	424.69
380.606	443.69
380.831	422.69
381.057	432.69
381.282	405.69
381.507	429.69
381.733	433.69
381.958	416.69
382.184	432.69
382.409	451.69
382.634	447.69
382.86	421.69
383.085	463.69
383.31	464.69
383.535	461.69
383.761	446.69
383.986	471.69
384.211	496.69
384.436	470.69
384.662	504.69
384.887	495.69
385.112	501.69
385.337	496.69
385.562	496.69
385.787	533.69
386.013	509.69
386.238	486.69
386.463	507.69
386.688	540.69
386.913	518.69
387.138	508.69
387.363	514.69
387.588	478.69
387.813	507.69
388.038	495.69
388.263	491.69
388.488	520.69
388.713	508.69
388.938	493.69
389.163	490.69
389.387	478.69
389.612	490.69
389.837	527.69
390.062	512.69
390.287	496.69
390.512	482.69
390.736	493.69
390.961	522.69
391.186	515.69
391.411	531.69
391.636	544.69
391.86	553.69
392.085	576.69
392.31	559.69
392.534	548.69
392.759	524.69
392.984	534.69
393.208	532.69
393.433	533.69
393.658	533.69
393.882	524.69
394.107	541.69
394.331	535.69
394.556	560.69
394.78	546.69
395.005	580.69
395.229	539.69
395.454	550.69
395.678	562.69
395.903	580.69
396.127	558.69
396.352	569.69
396.576	562.69
396.801	559.69
397.025	549.69
397.249	564.69
397.474	589.69
397.698	588.69
397.922	585.69
398.147	586.69
398.371	602.69
398.595	608.69
398.82	630.69
399.044	670.69
399.268	735.69
399.492	840.69
399.717	906.69
399.941	904.69
400.165	829.69
400.389	744.69
400.613	703.69
400.837	661.69
401.062	637.69
401.286	662.69
401.51	663.69
401.734	636.69
401.958	637.69
402.182	637.69
402.406	666.69
402.63	648.69
402.854	661.69
403.078	676.69
403.302	698.69
403.526	713.69
403.75	719.69
403.974	710.69
404.198	698.69
404.422	742.69
404.645	707.69
404.869	707.69
405.093	715.69
405.317	659.69
405.541	708.69
405.765	688.69
405.988	694.69
406.212	668.69
406.436	715.69
406.66	708.69
406.883	712.69
407.107	789.69
407.331	805.69
407.555	801.69
407.778	804.69
408.002	788.69
408.226	787.69
408.449	780.69
408.673	741.69
408.896	717.69
409.12	721.69
409.344	741.69
409.567	736.69
409.791	710.69
410.014	723.69
410.238	672.69
410.461	685.69
410.685	702.69
410.908	676.69
411.132	692.69
411.355	674.69
411.578	681.69
411.802	660.69
412.025	686.69
412.249	667.69
412.472	684.69
412.695	663.69
412.919	648.69
413.142	641.69
413.365	667.69
413.589	665.69
413.812	623.69
414.035	634.69
414.258	669.69
414.482	648.69
414.705	653.69
414.928	674.69
415.151	660.69
415.374	662.69
415.597	638.69
415.821	638.69
416.044	641.69
416.267	638.69
416.49	627.69
416.713	604.69
416.936	624.69
417.159	638.69
417.382	628.69
417.605	630.69
417.828	646.69
418.051	637.69
418.274	642.69
418.497	641.69
418.72	650.69
418.943	658.69
419.166	684.69
419.389	737.69
419.611	709.69
419.834	696.69
420.057	682.69
420.28	642.69
420.503	638.69
420.726	634.69
420.948	634.69
421.171	636.69
421.394	615.69
421.617	626.69
421.839	644.69
422.062	648.69
422.285	636.69
422.507	652.69
422.73	645.69
422.953	645.69
423.175	678.69
423.398	655.69
423.621	674.69
423.843	664.69
424.066	661.69
424.288	659.69
424.511	669.69
424.733	663.69
424.956	636.69
425.178	652.69
425.401	641.69
425.623	636.69
425.846	605.69
426.068	607.69
426.291	604.69
426.513	620.69
426.735	613.69
426.958	585.69
427.18	573.69
427.402	601.69
427.625	616.69
427.847	592.69
428.069	585.69
428.292	579.69
428.514	579.69
428.736	585.69
428.958	564.69
429.181	585.69
429.403	573.69
429.625	566.69
429.847	582.69
430.069	570.69
430.292	586.69
430.514	587.69
430.736	587.69
430.958	560.69
431.18	576.69
431.402	577.69
431.624	583.69
431.846	574.69
432.068	575.69
432.29	600.69
432.512	598.69
432.734	614.69
432.956	595.69
433.178	592.69
433.4	596.69
433.622	592.69
433.844	590.69
434.066	585.69
434.287	596.69
434.509	614.69
434.731	649.69
434.953	629.69
435.175	604.69
435.397	633.69
435.618	617.69
435.84	616.69
436.062	587.69
436.284	575.69
436.505	597.69
436.727	594.69
436.949	601.69
437.17	600.69
437.392	565.69
437.614	544.69
437.835	546.69
438.057	558.69
438.278	575.69
438.5	562.69
438.721	565.69
438.943	550.69
439.165	570.69
439.386	585.69
439.608	608.69
439.829	605.69
440.05	603.69
440.272	612.69
440.493	598.69
440.715	606.69
440.936	610.69
441.158	605.69
441.379	608.69
441.6	649.69
441.822	674.69
442.043	640.69
442.264	638.69
442.486	629.69
442.707	632.69
442.928	652.69
443.149	644.69
443.371	613.69
443.592	664.69
443.813	662.69
444.034	661.69
444.255	674.69
444.476	706.69
444.698	729.69
444.919	743.69
445.14	840.69
445.361	733.69
445.582	674.69
445.803	648.69
446.024	632.69
446.245	621.69
446.466	589.69
446.687	594.69
446.908	595.69
447.129	589.69
447.35	597.69
447.571	562.69
447.792	555.69
448.013	581.69
448.234	566.69
448.455	565.69
448.675	536.69
448.896	551.69
449.117	525.69
449.338	541.69
449.559	547.69
449.779	527.69
450	535.69
450.221	534.69
450.442	559.69
450.662	532.69
450.883	555.69
451.104	555.69
451.324	557.69
451.545	556.69
451.766	558.69
451.986	537.69
452.207	557.69
452.428	523.69
452.648	537.69
452.869	524.69
453.089	508.69
453.31	512.69
453.53	535.69
453.751	526.69
453.971	528.69
454.192	529.69
454.412	516.69
454.633	516.69
454.853	516.69
455.073	519.69
455.294	504.69
455.514	533.69
455.734	504.69
455.955	507.69
456.175	524.69
456.395	504.69
456.616	506.69
456.836	504.69
457.056	490.69
457.276	510.69
457.497	504.69
457.717	481.69
457.937	516.69
458.157	511.69
458.377	512.69
458.598	532.69
458.818	536.69
459.038	546.69
459.258	581.69
459.478	588.69
459.698	593.69
459.918	605.69
460.138	654.69
460.358	636.69
460.578	639.69
460.798	684.69
461.018	696.69
461.238	672.69
461.458	659.69
461.678	672.69
461.898	690.69
462.118	692.69
462.338	705.69
462.558	733.69
462.777	725.69
462.997	813.69
463.217	849.69
463.437	837.69
463.657	814.69
463.876	781.69
464.096	776.69
464.316	764.69
464.536	737.69
464.755	739.69
464.975	737.69
465.195	685.69
465.414	664.69
465.634	621.69
465.854	627.69
466.073	613.69
466.293	591.69
466.512	572.69
466.732	565.69
466.951	552.69
467.171	554.69
467.391	559.69
467.61	562.69
467.829	548.69
468.049	572.69
468.268	522.69
468.488	517.69
468.707	547.69
468.927	543.69
469.146	555.69
469.365	551.69
469.585	550.69
469.804	541.69
470.023	577.69
470.243	582.69
470.462	582.69
470.681	599.69
470.901	584.69
471.12	563.69
471.339	575.69
471.558	561.69
471.777	544.69
471.997	531.69
472.216	543.69
472.435	517.69
472.654	517.69
472.873	536.69
473.092	519.69
473.311	528.69
473.53	520.69
473.749	548.69
473.968	516.69
474.187	539.69
474.406	525.69
474.625	538.69
474.844	517.69
475.063	538.69
475.282	527.69
475.501	532.69
475.72	521.69
475.939	529.69
476.158	540.69
476.377	563.69
476.596	540.69
476.814	567.69
477.033	555.69
477.252	549.69
477.471	560.69
477.69	589.69
477.908	596.69
478.127	596.69
478.346	614.69
478.564	607.69
478.783	594.69
479.002	647.69
479.22	644.69
479.439	649.69
479.658	611.69
479.876	632.69
480.095	636.69
480.313	653.69
480.532	686.69
480.751	684.69
480.969	617.69
481.188	628.69
481.406	630.69
481.624	577.69
481.843	600.69
482.061	570.69
482.28	590.69
482.498	599.69
482.717	594.69
482.935	594.69
483.153	569.69
483.372	594.69
483.59	598.69
483.808	563.69
484.027	600.69
484.245	582.69
484.463	590.69
484.681	604.69
484.9	607.69
485.118	612.69
485.336	610.69
485.554	592.69
485.772	587.69
485.99	601.69
486.209	617.69
486.427	605.69
486.645	599.69
486.863	619.69
487.081	600.69
487.299	588.69
487.517	618.69
487.735	602.69
487.953	602.69
488.171	616.69
488.389	625.69
488.607	592.69
488.825	610.69
489.043	595.69
489.261	617.69
489.479	592.69
489.696	592.69
489.914	573.69
490.132	601.69
490.35	634.69
490.568	616.69
490.786	627.69
491.003	629.69
491.221	612.69
491.439	599.69
491.657	615.69
491.874	619.69
492.092	614.69
492.31	613.69
492.527	622.69
492.745	631.69
492.963	644.69
493.18	632.69
493.398	633.69
493.615	622.69
493.833	617.69
494.05	644.69
494.268	648.69
494.485	653.69
494.703	667.69
494.92	636.69
495.138	608.69
495.355	648.69
495.573	628.69
495.79	665.69
496.008	662.69
496.225	668.69
496.442	665.69
496.66	681.69
496.877	676.69
497.094	688.69
497.312	716.69
497.529	729.69
497.746	746.69
497.963	738.69
498.181	789.69
498.398	837.69
498.615	860.69
498.832	891.69
499.049	979.69
499.267	1038.69
499.484	1110.69
499.701	1236.69
499.918	1317.69
500.135	1520.69
500.352	1670.69
500.569	1709.69
500.786	1717.69
501.003	1614.69
501.22	1456.69
501.437	1328.69
501.654	1190.69
501.871	1068.69
502.088	1014.69
502.305	974.69
502.522	871.69
502.739	881.69
502.956	842.69
503.172	795.69
503.389	778.69
503.606	722.69
503.823	707.69
504.04	731.69
504.256	741.69
504.473	747.69
504.69	747.69
504.907	718.69
505.123	686.69
505.34	667.69
505.557	654.69
505.773	610.69
505.99	605.69
506.207	593.69
506.423	609.69
506.64	584.69
506.856	594.69
507.073	574.69
507.289	568.69
507.506	551.69
507.722	576.69
507.939	564.69
508.155	553.69
508.372	566.69
508.588	550.69
508.805	548.69
509.021	549.69
509.238	534.69
509.454	526.69
509.67	520.69
509.887	521.69
510.103	537.69
510.319	538.69
510.536	542.69
510.752	509.69
510.968	505.69
511.184	526.69
511.401	547.69
511.617	531.69
511.833	530.69
512.049	524.69
512.265	519.69
512.481	519.69
512.698	517.69
512.914	515.69
513.13	532.69
513.346	517.69
513.562	541.69
513.778	527.69
513.994	534.69
514.21	534.69
514.426	520.69
514.642	521.69
514.858	545.69
515.074	559.69
515.29	555.69
515.506	562.69
515.721	537.69
515.937	557.69
516.153	599.69
516.369	576.69
516.585	586.69
516.801	613.69
517.016	636.69
517.232	651.69
517.448	677.69
517.664	701.69
517.879	692.69
518.095	702.69
518.311	684.69
518.527	679.69
518.742	644.69
518.958	626.69
519.173	614.69
519.389	597.69
519.605	573.69
519.82	545.69
520.036	549.69
520.251	528.69
520.467	523.69
520.682	530.69
520.898	527.69
521.113	530.69
521.329	545.69
521.544	508.69
521.76	514.69
521.975	493.69
522.19	512.69
522.406	497.69
522.621	482.69
522.836	501.69
523.052	509.69
523.267	488.69
523.482	474.69
523.698	466.69
523.913	476.69
524.128	498.69
524.343	471.69
524.559	493.69
524.774	473.69
524.989	462.69
525.204	485.69
525.419	453.69
525.634	465.69
525.849	474.69
526.064	476.69
526.28	482.69
526.495	450.69
526.71	473.69
526.925	480.69
527.14	464.69
527.355	451.69
527.57	468.69
527.785	456.69
527.999	466.69
528.214	468.69
528.429	473.69
528.644	480.69
528.859	487.69
529.074	481.69
529.289	477.69
529.503	466.69
529.718	464.69
529.933	457.69
530.148	453.69
530.363	473.69
530.577	474.69
530.792	448.69
531.007	460.69
531.221	472.69
531.436	447.69
531.651	473.69
531.865	490.69
532.08	454.69
532.295	468.69
532.509	474.69
532.724	455.69
532.938	470.69
533.153	467.69
533.367	465.69
533.582	459.69
533.796	465.69
534.011	462.69
534.225	460.69
534.44	462.69
534.654	458.69
534.868	470.69
535.083	465.69
535.297	448.69
535.511	424.69
535.726	446.69
535.94	451.69
536.154	433.69
536.369	444.69
536.583	451.69
536.797	463.69
537.011	435.69
537.225	433.69
537.44	448.69
537.654	425.69
537.868	436.69
538.082	408.69
538.296	440.69
538.51	433.69
538.724	445.69
538.938	416.69
539.153	417.69
539.367	429.69
539.581	414.69
539.795	420.69
540.009	434.69
540.222	438.69
540.436	414.69
540.65	413.69
540.864	401.69
541.078	437.69
541.292	428.69
541.506	442.69
541.72	440.69
541.934	435.69
542.147	439.69
542.361	426.69
542.575	410.69
542.789	412.69
543.002	418.69
543.216	416.69
543.43	422.69
543.644	428.69
543.857	419.69
544.071	434.69
544.285	420.69
544.498	446.69
544.712	424.69
544.925	426.69
545.139	416.69
545.352	444.69
545.566	438.69
545.779	436.69
545.993	442.69
546.206	466.69
546.42	460.69
546.633	420.69
546.847	429.69
547.06	437.69
547.274	439.69
547.487	439.69
547.7	445.69
547.914	436.69
548.127	444.69
548.34	440.69
548.554	445.69
548.767	430.69
548.98	450.69
549.193	438.69
549.407	421.69
549.62	431.69
549.833	441.69
550.046	435.69
550.259	448.69
550.473	422.69
550.686	417.69
550.899	416.69
551.112	434.69
551.325	442.69
551.538	417.69
551.751	422.69
551.964	435.69
552.177	440.69
552.39	438.69
552.603	443.69
552.816	459.69
553.029	488.69
553.242	480.69
553.455	459.69
553.667	476.69
553.88	474.69
554.093	437.69
554.306	438.69
554.519	433.69
554.732	428.69
554.944	419.69
555.157	416.69
555.37	411.69
555.583	424.69
555.795	404.69
556.008	394.69
556.221	384.69
556.433	377.69
556.646	373.69
556.859	361.69
557.071	394.69
557.284	398.69
557.496	360.69
557.709	370.69
557.921	368.69
558.134	366.69
558.346	366.69
558.559	374.69
558.771	377.69
558.984	362.69
559.196	370.69
559.409	359.69
559.621	350.69
559.833	375.69
560.046	381.69
560.258	368.69
560.47	366.69
560.683	369.69
560.895	370.69
561.107	366.69
561.32	356.69
561.532	386.69
561.744	382.69
561.956	370.69
562.168	357.69
562.381	352.69
562.593	350.69
562.805	362.69
563.017	368.69
563.229	384.69
563.441	357.69
563.653	380.69
563.865	391.69
564.077	385.69
564.289	385.69
564.501	416.69
564.713	394.69
564.925	405.69
565.137	390.69
565.349	403.69
565.561	412.69
565.773	429.69
565.985	440.69
566.197	441.69
566.408	511.69
566.62	526.69
566.832	552.69
567.044	558.69
567.255	580.69
567.467	578.69
567.679	584.69
567.891	626.69
568.102	649.69
568.314	596.69
568.526	546.69
568.737	517.69
568.949	472.69
569.161	442.69
569.372	425.69
569.584	401.69
569.795	404.69
570.007	387.69
570.218	391.69
570.43	384.69
570.641	371.69
570.853	368.69
571.064	373.69
571.276	373.69
571.487	377.69
571.698	358.69
571.91	355.69
572.121	333.69
572.333	333.69
572.544	319.69
572.755	322.69
572.966	316.69
573.178	320.69
573.389	316.69
573.6	313.69
573.811	302.69
574.023	297.69
574.234	313.69
574.445	306.69
574.656	318.69
574.867	301.69
575.078	295.69
575.289	317.69
575.501	308.69
575.712	314.69
575.923	295.69
576.134	293.69
576.345	289.69
576.556	293.69
576.767	282.69
576.978	290.69
577.188	298.69
577.399	299.69
577.61	289.69
577.821	297.69
578.032	275.69
578.243	271.69
578.454	276.69
578.665	276.69
578.875	266.69
579.086	260.69
579.297	277.69
579.508	292.69
579.718	283.69
579.929	283.69
580.14	251.69
580.35	255.69
580.561	268.69
580.772	276.69
580.982	271.69
581.193	255.69
581.403	266.69
581.614	258.69
581.825	285.69
582.035	259.69
582.246	268.69
582.456	272.69
582.667	278.69
582.877	274.69
583.087	267.69
583.298	267.69
583.508	263.69
583.719	245.69
583.929	264.69
584.139	251.69
584.35	253.69
584.56	264.69
584.77	256.69
584.981	257.69
585.191	265.69
585.401	261.69
585.611	258.69
585.821	259.69
586.032	269.69
586.242	273.69
586.452	257.69
586.662	273.69
586.872	246.69
587.082	241.69
587.292	261.69
587.502	257.69
587.713	265.69
587.923	257.69
588.133	263.69
588.343	244.69
588.553	247.69
588.762	256.69
588.972	257.69
589.182	269.69
589.392	255.69
589.602	265.69
589.812	251.69
590.022	275.69
590.232	259.69
590.441	270.69
590.651	278.69
590.861	263.69
591.071	248.69
591.281	251.69
591.49	251.69
591.7	241.69
591.91	287.69
592.119	281.69
592.329	281.69
592.539	285.69
592.748	291.69
592.958	304.69
593.167	297.69
593.377	291.69
593.587	302.69
593.796	315.69
594.006	322.69
594.215	314.69
594.424	299.69
594.634	314.69
594.843	301.69
595.053	280.69
595.262	285.69
595.472	282.69
595.681	269.69
595.89	262.69
596.1	265.69
596.309	268.69
596.518	255.69
596.727	235.69
596.937	256.69
597.146	249.69
597.355	249.69
597.564	224.69
597.774	240.69
597.983	231.69
598.192	220.69
598.401	225.69
598.61	241.69
598.819	220.69
599.028	233.69
599.237	253.69
599.446	212.69
599.655	232.69
599.864	231.69
600.073	223.69
600.282	213.69
600.491	224.69
600.7	228.69
600.909	229.69
601.118	206.69
601.327	226.69
601.536	229.69
601.745	218.69
601.953	210.69
602.162	216.69
602.371	216.69
602.58	210.69
602.789	212.69
602.997	209.69
603.206	184.69
603.415	210.69
603.623	221.69
603.832	217.69
604.041	211.69
604.249	217.69
604.458	194.69
604.666	212.69
604.875	205.69
605.084	200.69
605.292	215.69
605.501	213.69
605.709	203.69
605.918	196.69
606.126	200.69
606.334	196.69
606.543	197.69
606.751	216.69
606.96	193.69
607.168	198.69
607.376	198.69
607.585	202.69
607.793	213.69
608.001	212.69
608.21	214.69
608.418	213.69
608.626	193.69
608.834	192.69
609.043	212.69
609.251	195.69
609.459	200.69
609.667	200.69
609.875	208.69
610.083	202.69
610.291	202.69
610.499	212.69
610.707	182.69
610.916	197.69
611.124	214.69
611.332	199.69
611.54	200.69
611.748	194.69
611.955	201.69
612.163	198.69
612.371	192.69
612.579	185.69
612.787	200.69
612.995	212.69
613.203	190.69
613.411	188.69
613.618	197.69
613.826	199.69
614.034	204.69
614.242	186.69
614.449	198.69
614.657	190.69
614.865	197.69
615.072	206.69
615.28	195.69
615.488	192.69
615.695	198.69
615.903	200.69
616.111	195.69
616.318	200.69
616.526	195.69
616.733	203.69
616.941	201.69
617.148	206.69
617.356	210.69
617.563	212.69
617.771	219.69
617.978	209.69
618.185	203.69
618.393	189.69
618.6	171.69
618.807	191.69
619.015	191.69
619.222	201.69
619.429	197.69
619.637	192.69
619.844	202.69
620.051	200.69
620.258	181.69
620.466	182.69
620.673	190.69
620.88	170.69
621.087	180.69
621.294	175.69
621.501	181.69
621.708	197.69
621.915	194.69
622.122	167.69
622.329	198.69
622.536	186.69
622.743	184.69
622.95	196.69
623.157	182.69
623.364	172.69
623.571	182.69
623.778	184.69
623.985	189.69
624.192	187.69
624.399	172.69
624.606	180.69
624.812	189.69
625.019	166.69
625.226	180.69
625.433	186.69
625.639	184.69
625.846	181.69
626.053	183.69
626.259	176.69
626.466	170.69
626.673	163.69
626.879	165.69
627.086	180.69
627.293	176.69
627.499	173.69
627.706	176.69
627.912	162.69
628.119	164.69
628.325	176.69
628.532	162.69
628.738	176.69
628.945	198.69
629.151	182.69
629.357	162.69
629.564	165.69
629.77	177.69
629.976	169.69
630.183	165.69
630.389	168.69
630.595	159.69
630.802	159.69
631.008	172.69
631.214	168.69
631.42	166.69
631.627	162.69
631.833	169.69
632.039	161.69
632.245	161.69
632.451	171.69
632.657	160.69
632.863	139.69
633.069	155.69
633.275	163.69
633.481	157.69
633.688	164.69
633.893	160.69
634.099	171.69
634.305	180.69
634.511	158.69
634.717	168.69
634.923	152.69
635.129	173.69
635.335	155.69
635.541	148.69
635.747	151.69
635.952	164.69
636.158	165.69
636.364	161.69
636.57	142.69
636.775	148.69
636.981	160.69
637.187	145.69
637.392	144.69
637.598	148.69
637.804	157.69
638.009	132.69
638.215	161.69
638.421	130.69
638.626	147.69
638.832	147.69
639.037	162.69
639.243	150.69
639.448	164.69
639.654	153.69
639.859	162.69
640.065	159.69
640.27	158.69
640.475	152.69
640.681	152.69
640.886	148.69
641.091	163.69
641.297	149.69
641.502	148.69
641.707	153.69
641.913	131.69
642.118	133.69
642.323	140.69
642.528	142.69
642.733	135.69
642.939	147.69
643.144	131.69
643.349	141.69
643.554	144.69
643.759	142.69
643.964	157.69
644.169	142.69
644.374	156.69
644.579	121.69
644.784	132.69
644.989	144.69
645.194	157.69
645.399	152.69
645.604	153.69
645.809	139.69
646.014	160.69
646.219	143.69
646.423	140.69
646.628	132.69
646.833	165.69
647.038	140.69
647.243	145.69
647.447	138.69
647.652	162.69
647.857	157.69
648.062	154.69
648.266	138.69
648.471	161.69
648.676	146.69
648.88	137.69
649.085	148.69
649.289	138.69
649.494	145.69
649.698	141.69
649.903	141.69
650.107	147.69
650.312	152.69
650.516	135.69
650.721	132.69
650.925	146.69
651.13	126.69
651.334	125.69
651.539	129.69
651.743	133.69
651.947	131.69
652.152	139.69
652.356	126.69
652.56	128.69
652.764	125.69
652.969	136.69
653.173	124.69
653.377	114.69
653.581	132.69
653.785	112.69
653.99	116.69
654.194	137.69
654.398	109.69
654.602	128.69
654.806	126.69
655.01	129.69
655.214	120.69
655.418	130.69
655.622	113.69
655.826	134.69
656.03	107.69
656.234	120.69
656.438	124.69
656.642	134.69
656.846	130.69
657.049	112.69
657.253	117.69
657.457	113.69
657.661	100.69
657.865	104.69
658.068	100.69
658.272	107.69
658.476	97.69
658.68	86.69
658.883	109.69
659.087	96.69
659.291	106.69
659.494	104.69
659.698	99.69
659.901	103.69
660.105	103.69
660.309	100.69
660.512	96.69
660.716	96.69
660.919	94.69
661.123	109.69
661.326	89.69
661.53	82.69
661.733	92.69
661.936	99.69
662.14	104.69
662.343	91.69
662.546	89.69
662.75	92.69
662.953	97.69
663.156	85.69
663.36	71.69
663.563	92.69
663.766	72.69
663.969	84.69
664.173	80.69
664.376	88.69
664.579	78.69
664.782	65.69
664.985	85.69
665.188	82.69
665.391	97.69
665.594	78.69
665.797	77.69
666	93.69
666.203	85.69
666.406	90.69
666.609	71.69
666.812	81.69
667.015	96.69
667.218	90.69
667.421	89.69
667.624	93.69
667.827	83.69
668.03	86.69
668.232	82.69
668.435	76.69
668.638	94.69
668.841	98.69
669.043	86.69
669.246	82.69
669.449	84.69
669.651	88.69
669.854	85.69
670.057	89.69
670.259	73.69
670.462	86.69
670.665	77.69
670.867	78.69
671.07	76.69
671.272	69.69
671.475	89.69
671.677	78.69
671.88	79.69
672.082	86.69
672.284	86.69
672.487	80.69
672.689	83.69
672.892	84.69
