Data from Fe(NO3)3@0.0125M.TitratingCurve.Agarose3%dH2O.NegLispCup.LampEnergy10.LIBS07252019_HRD10591_16-58-44-336.txt Node
Date: Thu Jul 25 16:58:44 EDT 2019
User: cochatt
Spectrometer: HR+D1059
Trigger mode: 1
Integration Time (sec): 1.000000E-1
Scans to average: 1
Electric dark correction enabled: true
Nonlinearity correction enabled: false
Boxcar width: 0
XAxis mode: Wavelengths
Number of Pixels in Spectrum: 2048
>>>>>Begin Spectral Data<<<<<
223.165	-20.5
223.4	-20.5
223.635	-20.5
223.869	-0.5
224.104	2.5
224.338	-19.5
224.573	-19.5
224.808	-15.5
225.042	-12.5
225.277	-5.5
225.511	6.5
225.746	-3.5
225.98	2.5
226.215	17.5
226.449	17.5
226.683	16.5
226.918	17.5
227.152	16.5
227.387	31.5
227.621	37.5
227.856	49.5
228.09	50.5
228.324	40.5
228.559	50.5
228.793	68.5
229.027	94.5
229.262	104.5
229.496	114.5
229.73	112.5
229.964	127.5
230.199	137.5
230.433	130.5
230.667	119.5
230.901	119.5
231.136	121.5
231.37	136.5
231.604	129.5
231.838	145.5
232.072	134.5
232.306	144.5
232.541	134.5
232.775	146.5
233.009	134.5
233.243	137.5
233.477	159.5
233.711	162.5
233.945	146.5
234.179	141.5
234.413	150.5
234.647	143.5
234.881	149.5
235.115	153.5
235.349	146.5
235.583	139.5
235.817	144.5
236.051	155.5
236.285	162.5
236.519	156.5
236.753	159.5
236.987	146.5
237.221	153.5
237.455	178.5
237.689	152.5
237.922	172.5
238.156	177.5
238.39	167.5
238.624	170.5
238.858	168.5
239.091	198.5
239.325	170.5
239.559	176.5
239.793	178.5
240.027	194.5
240.26	182.5
240.494	170.5
240.728	182.5
240.961	185.5
241.195	182.5
241.429	184.5
241.662	194.5
241.896	178.5
242.13	210.5
242.363	195.5
242.597	167.5
242.83	199.5
243.064	181.5
243.298	193.5
243.531	186.5
243.765	209.5
243.998	198.5
244.232	198.5
244.465	215.5
244.699	195.5
244.932	209.5
245.166	219.5
245.399	208.5
245.633	194.5
245.866	211.5
246.099	212.5
246.333	219.5
246.566	220.5
246.8	211.5
247.033	232.5
247.266	220.5
247.5	211.5
247.733	231.5
247.966	253.5
248.2	242.5
248.433	220.5
248.666	219.5
248.899	225.5
249.133	229.5
249.366	262.5
249.599	242.5
249.832	236.5
250.066	234.5
250.299	235.5
250.532	227.5
250.765	234.5
250.998	242.5
251.231	219.5
251.465	246.5
251.698	243.5
251.931	251.5
252.164	271.5
252.397	252.5
252.63	252.5
252.863	250.5
253.096	281.5
253.329	282.5
253.562	260.5
253.795	275.5
254.028	293.5
254.261	298.5
254.494	247.5
254.727	278.5
254.96	269.5
255.193	258.5
255.426	276.5
255.659	292.5
255.892	289.5
256.124	295.5
256.357	280.5
256.59	311.5
256.823	296.5
257.056	293.5
257.289	306.5
257.521	310.5
257.754	308.5
257.987	292.5
258.22	294.5
258.452	290.5
258.685	310.5
258.918	303.5
259.151	309.5
259.383	321.5
259.616	313.5
259.849	330.5
260.081	331.5
260.314	337.5
260.547	336.5
260.779	334.5
261.012	323.5
261.244	297.5
261.477	337.5
261.71	345.5
261.942	323.5
262.175	341.5
262.407	336.5
262.64	336.5
262.872	321.5
263.105	359.5
263.337	358.5
263.57	340.5
263.802	350.5
264.035	346.5
264.267	350.5
264.499	342.5
264.732	342.5
264.964	340.5
265.197	327.5
265.429	348.5
265.661	345.5
265.894	360.5
266.126	362.5
266.358	360.5
266.591	342.5
266.823	372.5
267.055	378.5
267.287	347.5
267.52	366.5
267.752	358.5
267.984	368.5
268.216	372.5
268.448	386.5
268.681	377.5
268.913	390.5
269.145	382.5
269.377	385.5
269.609	385.5
269.841	356.5
270.073	376.5
270.306	388.5
270.538	393.5
270.77	378.5
271.002	387.5
271.234	398.5
271.466	378.5
271.698	390.5
271.93	409.5
272.162	382.5
272.394	408.5
272.626	388.5
272.858	423.5
273.09	407.5
273.322	417.5
273.553	398.5
273.785	423.5
274.017	440.5
274.249	446.5
274.481	448.5
274.713	436.5
274.945	479.5
275.176	470.5
275.408	465.5
275.64	486.5
275.872	455.5
276.104	458.5
276.335	435.5
276.567	454.5
276.799	454.5
277.031	463.5
277.262	434.5
277.494	458.5
277.726	437.5
277.957	441.5
278.189	464.5
278.421	438.5
278.652	467.5
278.884	480.5
279.115	460.5
279.347	461.5
279.579	470.5
279.81	470.5
280.042	494.5
280.273	480.5
280.505	476.5
280.736	458.5
280.968	473.5
281.199	486.5
281.431	480.5
281.662	462.5
281.894	493.5
282.125	479.5
282.356	483.5
282.588	467.5
282.819	469.5
283.051	484.5
283.282	499.5
283.513	493.5
283.745	498.5
283.976	490.5
284.207	489.5
284.439	508.5
284.67	518.5
284.901	523.5
285.132	496.5
285.364	527.5
285.595	522.5
285.826	508.5
286.057	528.5
286.288	504.5
286.52	526.5
286.751	528.5
286.982	519.5
287.213	518.5
287.444	542.5
287.675	542.5
287.906	539.5
288.138	544.5
288.369	528.5
288.6	554.5
288.831	542.5
289.062	544.5
289.293	540.5
289.524	547.5
289.755	525.5
289.986	565.5
290.217	544.5
290.448	558.5
290.679	554.5
290.91	539.5
291.141	582.5
291.371	561.5
291.602	556.5
291.833	556.5
292.064	565.5
292.295	574.5
292.526	563.5
292.757	570.5
292.987	560.5
293.218	558.5
293.449	572.5
293.68	568.5
293.91	561.5
294.141	564.5
294.372	559.5
294.603	589.5
294.833	552.5
295.064	582.5
295.295	582.5
295.525	587.5
295.756	603.5
295.987	566.5
296.217	598.5
296.448	586.5
296.679	562.5
296.909	571.5
297.14	587.5
297.37	625.5
297.601	605.5
297.831	610.5
298.062	595.5
298.292	608.5
298.523	632.5
298.753	628.5
298.984	620.5
299.214	619.5
299.445	610.5
299.675	609.5
299.905	626.5
300.136	622.5
300.366	624.5
300.597	612.5
300.827	648.5
301.057	633.5
301.288	615.5
301.518	630.5
301.748	650.5
301.979	652.5
302.209	658.5
302.439	656.5
302.669	645.5
302.9	634.5
303.13	642.5
303.36	638.5
303.59	682.5
303.82	644.5
304.051	676.5
304.281	672.5
304.511	665.5
304.741	673.5
304.971	654.5
305.201	660.5
305.431	674.5
305.661	675.5
305.891	658.5
306.121	674.5
306.352	703.5
306.582	672.5
306.812	640.5
307.042	672.5
307.272	649.5
307.502	649.5
307.731	680.5
307.961	660.5
308.191	642.5
308.421	676.5
308.651	679.5
308.881	672.5
309.111	685.5
309.341	663.5
309.571	696.5
309.8	680.5
310.03	683.5
310.26	683.5
310.49	654.5
310.72	698.5
310.949	707.5
311.179	716.5
311.409	693.5
311.639	705.5
311.868	712.5
312.098	708.5
312.328	698.5
312.557	720.5
312.787	712.5
313.017	719.5
313.246	724.5
313.476	699.5
313.706	734.5
313.935	743.5
314.165	733.5
314.394	726.5
314.624	736.5
314.853	722.5
315.083	746.5
315.312	749.5
315.542	751.5
315.771	748.5
316.001	762.5
316.23	780.5
316.46	754.5
316.689	792.5
316.919	770.5
317.148	776.5
317.377	764.5
317.607	773.5
317.836	780.5
318.065	748.5
318.295	770.5
318.524	788.5
318.753	755.5
318.983	775.5
319.212	789.5
319.441	774.5
319.67	814.5
319.9	776.5
320.129	787.5
320.358	781.5
320.587	805.5
320.816	794.5
321.046	809.5
321.275	801.5
321.504	801.5
321.733	822.5
321.962	787.5
322.191	806.5
322.42	817.5
322.649	786.5
322.878	786.5
323.108	840.5
323.337	808.5
323.566	814.5
323.795	838.5
324.024	817.5
324.253	802.5
324.482	822.5
324.71	803.5
324.939	814.5
325.168	818.5
325.397	813.5
325.626	810.5
325.855	820.5
326.084	833.5
326.313	820.5
326.542	842.5
326.77	830.5
326.999	828.5
327.228	828.5
327.457	847.5
327.686	815.5
327.914	833.5
328.143	853.5
328.372	847.5
328.6	855.5
328.829	850.5
329.058	830.5
329.287	830.5
329.515	811.5
329.744	867.5
329.972	848.5
330.201	887.5
330.43	879.5
330.658	857.5
330.887	845.5
331.115	875.5
331.344	844.5
331.572	852.5
331.801	868.5
332.03	888.5
332.258	875.5
332.486	879.5
332.715	857.5
332.943	863.5
333.172	864.5
333.4	892.5
333.629	898.5
333.857	914.5
334.085	902.5
334.314	886.5
334.542	900.5
334.771	900.5
334.999	918.5
335.227	919.5
335.455	921.5
335.684	921.5
335.912	911.5
336.14	924.5
336.369	891.5
336.597	931.5
336.825	923.5
337.053	914.5
337.281	895.5
337.51	922.5
337.738	908.5
337.966	900.5
338.194	897.5
338.422	918.5
338.65	899.5
338.878	908.5
339.106	901.5
339.334	902.5
339.562	896.5
339.79	897.5
340.018	914.5
340.246	910.5
340.474	893.5
340.702	942.5
340.93	887.5
341.158	882.5
341.386	898.5
341.614	888.5
341.842	910.5
342.07	910.5
342.298	907.5
342.526	900.5
342.754	902.5
342.981	880.5
343.209	896.5
343.437	923.5
343.665	908.5
343.893	913.5
344.12	933.5
344.348	913.5
344.576	916.5
344.804	911.5
345.031	898.5
345.259	914.5
345.487	882.5
345.714	936.5
345.942	908.5
346.17	898.5
346.397	894.5
346.625	875.5
346.853	874.5
347.08	888.5
347.308	885.5
347.535	873.5
347.763	923.5
347.99	892.5
348.218	875.5
348.445	856.5
348.673	867.5
348.9	868.5
349.128	897.5
349.355	876.5
349.583	872.5
349.81	872.5
350.037	868.5
350.265	879.5
350.492	870.5
350.72	859.5
350.947	889.5
351.174	880.5
351.402	868.5
351.629	867.5
351.856	872.5
352.083	869.5
352.311	847.5
352.538	866.5
352.765	860.5
352.992	866.5
353.22	880.5
353.447	872.5
353.674	882.5
353.901	878.5
354.128	865.5
354.355	855.5
354.583	866.5
354.81	856.5
355.037	858.5
355.264	861.5
355.491	844.5
355.718	858.5
355.945	849.5
356.172	867.5
356.399	873.5
356.626	881.5
356.853	880.5
357.08	851.5
357.307	878.5
357.534	881.5
357.761	890.5
357.988	875.5
358.215	865.5
358.441	867.5
358.668	849.5
358.895	875.5
359.122	860.5
359.349	860.5
359.576	880.5
359.802	891.5
360.029	873.5
360.256	859.5
360.483	866.5
360.709	869.5
360.936	887.5
361.163	892.5
361.39	868.5
361.616	871.5
361.843	878.5
362.07	892.5
362.296	870.5
362.523	882.5
362.749	878.5
362.976	885.5
363.203	890.5
363.429	850.5
363.656	898.5
363.882	916.5
364.109	890.5
364.335	884.5
364.562	906.5
364.788	922.5
365.015	900.5
365.241	902.5
365.468	883.5
365.694	886.5
365.92	889.5
366.147	905.5
366.373	912.5
366.599	900.5
366.826	916.5
367.052	916.5
367.278	881.5
367.505	920.5
367.731	931.5
367.957	917.5
368.184	904.5
368.41	908.5
368.636	878.5
368.862	920.5
369.089	907.5
369.315	931.5
369.541	938.5
369.767	904.5
369.993	905.5
370.219	895.5
370.445	944.5
370.672	913.5
370.898	927.5
371.124	942.5
371.35	922.5
371.576	936.5
371.802	924.5
372.028	945.5
372.254	940.5
372.48	938.5
372.706	939.5
372.932	935.5
373.158	943.5
373.384	951.5
373.61	946.5
373.835	963.5
374.061	948.5
374.287	942.5
374.513	930.5
374.739	962.5
374.965	944.5
375.191	950.5
375.416	939.5
375.642	932.5
375.868	939.5
376.094	948.5
376.319	934.5
376.545	947.5
376.771	924.5
376.997	933.5
377.222	894.5
377.448	900.5
377.674	930.5
377.899	929.5
378.125	937.5
378.35	919.5
378.576	944.5
378.802	936.5
379.027	923.5
379.253	935.5
379.478	924.5
379.704	902.5
379.929	895.5
380.155	927.5
380.38	955.5
380.606	924.5
380.831	917.5
381.057	950.5
381.282	931.5
381.507	946.5
381.733	953.5
381.958	949.5
382.184	951.5
382.409	932.5
382.634	955.5
382.86	936.5
383.085	954.5
383.31	941.5
383.535	987.5
383.761	970.5
383.986	975.5
384.211	950.5
384.436	972.5
384.662	930.5
384.887	951.5
385.112	964.5
385.337	979.5
385.562	956.5
385.787	971.5
386.013	985.5
386.238	1022.5
386.463	1022.5
386.688	988.5
386.913	1000.5
387.138	1022.5
387.363	970.5
387.588	1012.5
387.813	1025.5
388.038	1035.5
388.263	1014.5
388.488	1014.5
388.713	993.5
388.938	1018.5
389.163	1032.5
389.387	1001.5
389.612	995.5
389.837	1048.5
390.062	1006.5
390.287	998.5
390.512	1024.5
390.736	998.5
390.961	1030.5
391.186	1012.5
391.411	1015.5
391.636	1035.5
391.86	1030.5
392.085	982.5
392.31	1042.5
392.534	1014.5
392.759	1036.5
392.984	1024.5
393.208	1043.5
393.433	1059.5
393.658	1011.5
393.882	1015.5
394.107	1036.5
394.331	1008.5
394.556	1009.5
394.78	1031.5
395.005	1057.5
395.229	1037.5
395.454	1007.5
395.678	1042.5
395.903	1056.5
396.127	1059.5
396.352	1074.5
396.576	1033.5
396.801	1044.5
397.025	1072.5
397.249	1078.5
397.474	1065.5
397.698	1050.5
397.922	1088.5
398.147	1058.5
398.371	1084.5
398.595	1103.5
398.82	1104.5
399.044	1134.5
399.268	1090.5
399.492	1152.5
399.717	1116.5
399.941	1154.5
400.165	1140.5
400.389	1151.5
400.613	1144.5
400.837	1152.5
401.062	1132.5
401.286	1117.5
401.51	1108.5
401.734	1128.5
401.958	1136.5
402.182	1126.5
402.406	1085.5
402.63	1092.5
402.854	1096.5
403.078	1102.5
403.302	1126.5
403.526	1123.5
403.75	1096.5
403.974	1092.5
404.198	1112.5
404.422	1123.5
404.645	1089.5
404.869	1117.5
405.093	1099.5
405.317	1118.5
405.541	1145.5
405.765	1136.5
405.988	1157.5
406.212	1164.5
406.436	1130.5
406.66	1182.5
406.883	1136.5
407.107	1167.5
407.331	1172.5
407.555	1180.5
407.778	1151.5
408.002	1191.5
408.226	1192.5
408.449	1182.5
408.673	1180.5
408.896	1171.5
409.12	1182.5
409.344	1186.5
409.567	1137.5
409.791	1161.5
410.014	1179.5
410.238	1140.5
410.461	1117.5
410.685	1159.5
410.908	1168.5
411.132	1162.5
411.355	1127.5
411.578	1128.5
411.802	1123.5
412.025	1116.5
412.249	1112.5
412.472	1111.5
412.695	1109.5
412.919	1091.5
413.142	1108.5
413.365	1141.5
413.589	1098.5
413.812	1135.5
414.035	1091.5
414.258	1100.5
414.482	1082.5
414.705	1085.5
414.928	1086.5
415.151	1094.5
415.374	1083.5
415.597	1071.5
415.821	1095.5
416.044	1078.5
416.267	1081.5
416.49	1080.5
416.713	1055.5
416.936	1074.5
417.159	1049.5
417.382	1034.5
417.605	1039.5
417.828	1055.5
418.051	1066.5
418.274	1039.5
418.497	1010.5
418.72	1023.5
418.943	1046.5
419.166	1057.5
419.389	1133.5
419.611	1100.5
419.834	1106.5
420.057	1082.5
420.28	1073.5
420.503	1033.5
420.726	986.5
420.948	991.5
421.171	1018.5
421.394	1022.5
421.617	1009.5
421.839	1012.5
422.062	1050.5
422.285	1029.5
422.507	1038.5
422.73	1042.5
422.953	1001.5
423.175	1024.5
423.398	1031.5
423.621	1000.5
423.843	1016.5
424.066	1029.5
424.288	1020.5
424.511	1012.5
424.733	1048.5
424.956	1027.5
425.178	1013.5
425.401	1020.5
425.623	1051.5
425.846	1017.5
426.068	1044.5
426.291	1007.5
426.513	1013.5
426.735	1029.5
426.958	1022.5
427.18	992.5
427.402	1006.5
427.625	1031.5
427.847	1026.5
428.069	1015.5
428.292	1028.5
428.514	1054.5
428.736	1016.5
428.958	1042.5
429.181	976.5
429.403	1009.5
429.625	994.5
429.847	1006.5
430.069	1015.5
430.292	995.5
430.514	997.5
430.736	1014.5
430.958	1030.5
431.18	1014.5
431.402	1006.5
431.624	990.5
431.846	1000.5
432.068	1016.5
432.29	1003.5
432.512	993.5
432.734	1017.5
432.956	1001.5
433.178	1010.5
433.4	1012.5
433.622	1027.5
433.844	1059.5
434.066	1024.5
434.287	1003.5
434.509	1009.5
434.731	1032.5
434.953	990.5
435.175	1010.5
435.397	1001.5
435.618	984.5
435.84	993.5
436.062	983.5
436.284	965.5
436.505	965.5
436.727	990.5
436.949	976.5
437.17	972.5
437.392	984.5
437.614	988.5
437.835	987.5
438.057	962.5
438.278	978.5
438.5	958.5
438.721	973.5
438.943	984.5
439.165	961.5
439.386	966.5
439.608	984.5
439.829	975.5
440.05	1006.5
440.272	991.5
440.493	975.5
440.715	964.5
440.936	1002.5
441.158	972.5
441.379	1012.5
441.6	1018.5
441.822	988.5
442.043	969.5
442.264	1008.5
442.486	990.5
442.707	984.5
442.928	1008.5
443.149	994.5
443.371	985.5
443.592	1026.5
443.813	990.5
444.034	983.5
444.255	975.5
444.476	1002.5
444.698	975.5
444.919	991.5
445.14	1107.5
445.361	1046.5
445.582	1012.5
445.803	999.5
446.024	974.5
446.245	968.5
446.466	999.5
446.687	960.5
446.908	983.5
447.129	950.5
447.35	956.5
447.571	923.5
447.792	908.5
448.013	935.5
448.234	919.5
448.455	930.5
448.675	891.5
448.896	946.5
449.117	896.5
449.338	945.5
449.559	913.5
449.779	920.5
450	918.5
450.221	935.5
450.442	896.5
450.662	888.5
450.883	901.5
451.104	926.5
451.324	940.5
451.545	912.5
451.766	909.5
451.986	872.5
452.207	903.5
452.428	897.5
452.648	927.5
452.869	915.5
453.089	907.5
453.31	882.5
453.53	853.5
453.751	891.5
453.971	888.5
454.192	909.5
454.412	882.5
454.633	880.5
454.853	906.5
455.073	890.5
455.294	886.5
455.514	883.5
455.734	874.5
455.955	874.5
456.175	851.5
456.395	867.5
456.616	919.5
456.836	882.5
457.056	896.5
457.276	902.5
457.497	908.5
457.717	873.5
457.937	869.5
458.157	911.5
458.377	915.5
458.598	902.5
458.818	929.5
459.038	928.5
459.258	945.5
459.478	954.5
459.698	947.5
459.918	954.5
460.138	972.5
460.358	973.5
460.578	949.5
460.798	971.5
461.018	968.5
461.238	1014.5
461.458	1004.5
461.678	1000.5
461.898	1031.5
462.118	990.5
462.338	1036.5
462.558	1040.5
462.777	1041.5
462.997	1001.5
463.217	1033.5
463.437	1054.5
463.657	1045.5
463.876	1040.5
464.096	1049.5
464.316	1032.5
464.536	1046.5
464.755	1051.5
464.975	1001.5
465.195	985.5
465.414	1012.5
465.634	977.5
465.854	979.5
466.073	999.5
466.293	978.5
466.512	978.5
466.732	960.5
466.951	981.5
467.171	958.5
467.391	981.5
467.61	981.5
467.829	960.5
468.049	955.5
468.268	948.5
468.488	934.5
468.707	956.5
468.927	967.5
469.146	943.5
469.365	949.5
469.585	956.5
469.804	957.5
470.023	977.5
470.243	959.5
470.462	960.5
470.681	955.5
470.901	947.5
471.12	964.5
471.339	985.5
471.558	980.5
471.777	995.5
471.997	945.5
472.216	960.5
472.435	987.5
472.654	969.5
472.873	990.5
473.092	978.5
473.311	972.5
473.53	967.5
473.749	993.5
473.968	974.5
474.187	987.5
474.406	989.5
474.625	987.5
474.844	1004.5
475.063	1023.5
475.282	996.5
475.501	1001.5
475.72	1032.5
475.939	1041.5
476.158	1051.5
476.377	1061.5
476.596	1092.5
476.814	1067.5
477.033	1039.5
477.252	1058.5
477.471	1055.5
477.69	1080.5
477.908	1134.5
478.127	1119.5
478.346	1080.5
478.564	1120.5
478.783	1090.5
479.002	1123.5
479.22	1108.5
479.439	1167.5
479.658	1136.5
479.876	1124.5
480.095	1146.5
480.313	1125.5
480.532	1163.5
480.751	1163.5
480.969	1161.5
481.188	1156.5
481.406	1153.5
481.624	1177.5
481.843	1150.5
482.061	1169.5
482.28	1172.5
482.498	1192.5
482.717	1167.5
482.935	1175.5
483.153	1188.5
483.372	1186.5
483.59	1152.5
483.808	1182.5
484.027	1186.5
484.245	1192.5
484.463	1176.5
484.681	1218.5
484.9	1214.5
485.118	1205.5
485.336	1208.5
485.554	1197.5
485.772	1176.5
485.99	1230.5
486.209	1207.5
486.427	1191.5
486.645	1195.5
486.863	1224.5
487.081	1218.5
487.299	1203.5
487.517	1207.5
487.735	1196.5
487.953	1219.5
488.171	1239.5
488.389	1207.5
488.607	1214.5
488.825	1228.5
489.043	1209.5
489.261	1215.5
489.479	1235.5
489.696	1230.5
489.914	1231.5
490.132	1231.5
490.35	1207.5
490.568	1231.5
490.786	1227.5
491.003	1226.5
491.221	1218.5
491.439	1220.5
491.657	1209.5
491.874	1245.5
492.092	1250.5
492.31	1241.5
492.527	1228.5
492.745	1273.5
492.963	1236.5
493.18	1232.5
493.398	1214.5
493.615	1233.5
493.833	1247.5
494.05	1237.5
494.268	1253.5
494.485	1265.5
494.703	1269.5
494.92	1298.5
495.138	1266.5
495.355	1276.5
495.573	1246.5
495.79	1281.5
496.008	1274.5
496.225	1305.5
496.442	1287.5
496.66	1285.5
496.877	1279.5
497.094	1302.5
497.312	1310.5
497.529	1311.5
497.746	1331.5
497.963	1354.5
498.181	1380.5
498.398	1366.5
498.615	1384.5
498.832	1419.5
499.049	1481.5
499.267	1470.5
499.484	1478.5
499.701	1524.5
499.918	1545.5
500.135	1552.5
500.352	1609.5
500.569	1567.5
500.786	1598.5
501.003	1603.5
501.22	1563.5
501.437	1560.5
501.654	1527.5
501.871	1477.5
502.088	1471.5
502.305	1445.5
502.522	1405.5
502.739	1398.5
502.956	1371.5
503.172	1351.5
503.389	1326.5
503.606	1338.5
503.823	1313.5
504.04	1313.5
504.256	1294.5
504.473	1296.5
504.69	1264.5
504.907	1278.5
505.123	1254.5
505.34	1247.5
505.557	1206.5
505.773	1208.5
505.99	1205.5
506.207	1169.5
506.423	1153.5
506.64	1154.5
506.856	1136.5
507.073	1163.5
507.289	1158.5
507.506	1166.5
507.722	1147.5
507.939	1114.5
508.155	1107.5
508.372	1127.5
508.588	1096.5
508.805	1095.5
509.021	1096.5
509.238	1099.5
509.454	1067.5
509.67	1107.5
509.887	1071.5
510.103	1088.5
510.319	1073.5
510.536	1088.5
510.752	1080.5
510.968	1062.5
511.184	1065.5
511.401	1066.5
511.617	1057.5
511.833	1043.5
512.049	1041.5
512.265	1042.5
512.481	1053.5
512.698	1042.5
512.914	1065.5
513.13	1055.5
513.346	1010.5
513.562	1044.5
513.778	1059.5
513.994	1065.5
514.21	1024.5
514.426	1023.5
514.642	1043.5
514.858	1045.5
515.074	1028.5
515.29	1026.5
515.506	1055.5
515.721	1071.5
515.937	1042.5
516.153	1038.5
516.369	1085.5
516.585	1042.5
516.801	1070.5
517.016	1070.5
517.232	1064.5
517.448	1073.5
517.664	1082.5
517.879	1047.5
518.095	1090.5
518.311	1074.5
518.527	1046.5
518.742	1096.5
518.958	1041.5
519.173	1036.5
519.389	1058.5
519.605	1062.5
519.82	1036.5
520.036	1029.5
520.251	1039.5
520.467	1032.5
520.682	1068.5
520.898	1021.5
521.113	992.5
521.329	1026.5
521.544	1009.5
521.76	985.5
521.975	980.5
522.19	985.5
522.406	996.5
522.621	992.5
522.836	987.5
523.052	983.5
523.267	953.5
523.482	979.5
523.698	985.5
523.913	965.5
524.128	972.5
524.343	968.5
524.559	950.5
524.774	968.5
524.989	979.5
525.204	954.5
525.419	956.5
525.634	959.5
525.849	943.5
526.064	947.5
526.28	956.5
526.495	948.5
526.71	950.5
526.925	938.5
527.14	920.5
527.355	938.5
527.57	933.5
527.785	907.5
527.999	946.5
528.214	933.5
528.429	928.5
528.644	940.5
528.859	954.5
529.074	948.5
529.289	911.5
529.503	934.5
529.718	948.5
529.933	902.5
530.148	928.5
530.363	897.5
530.577	919.5
530.792	921.5
531.007	908.5
531.221	924.5
531.436	905.5
531.651	892.5
531.865	932.5
532.08	925.5
532.295	895.5
532.509	891.5
532.724	880.5
532.938	908.5
533.153	913.5
533.367	919.5
533.582	921.5
533.796	892.5
534.011	894.5
534.225	882.5
534.44	905.5
534.654	891.5
534.868	898.5
535.083	855.5
535.297	889.5
535.511	884.5
535.726	870.5
535.94	875.5
536.154	867.5
536.369	861.5
536.583	882.5
536.797	882.5
537.011	842.5
537.225	854.5
537.44	849.5
537.654	831.5
537.868	857.5
538.082	834.5
538.296	858.5
538.51	826.5
538.724	891.5
538.938	854.5
539.153	860.5
539.367	855.5
539.581	839.5
539.795	824.5
540.009	856.5
540.222	824.5
540.436	840.5
540.65	808.5
540.864	856.5
541.078	834.5
541.292	839.5
541.506	845.5
541.72	847.5
541.934	869.5
542.147	825.5
542.361	850.5
542.575	807.5
542.789	794.5
543.002	811.5
543.216	821.5
543.43	785.5
543.644	823.5
543.857	816.5
544.071	816.5
544.285	834.5
544.498	802.5
544.712	800.5
544.925	815.5
545.139	802.5
545.352	814.5
545.566	803.5
545.779	809.5
545.993	799.5
546.206	812.5
546.42	767.5
546.633	823.5
546.847	785.5
547.06	795.5
547.274	794.5
547.487	803.5
547.7	811.5
547.914	792.5
548.127	796.5
548.34	820.5
548.554	770.5
548.767	804.5
548.98	795.5
549.193	824.5
549.407	804.5
549.62	820.5
549.833	842.5
550.046	794.5
550.259	818.5
550.473	791.5
550.686	787.5
550.899	790.5
551.112	797.5
551.325	788.5
551.538	789.5
551.751	756.5
551.964	796.5
552.177	784.5
552.39	775.5
552.603	790.5
552.816	783.5
553.029	770.5
553.242	758.5
553.455	777.5
553.667	775.5
553.88	772.5
554.093	776.5
554.306	780.5
554.519	747.5
554.732	757.5
554.944	746.5
555.157	728.5
555.37	717.5
555.583	746.5
555.795	716.5
556.008	730.5
556.221	722.5
556.433	716.5
556.646	755.5
556.859	718.5
557.071	713.5
557.284	734.5
557.496	723.5
557.709	715.5
557.921	715.5
558.134	715.5
558.346	691.5
558.559	719.5
558.771	701.5
558.984	675.5
559.196	683.5
559.409	672.5
559.621	704.5
559.833	697.5
560.046	712.5
560.258	672.5
560.47	691.5
560.683	684.5
560.895	677.5
561.107	663.5
561.32	690.5
561.532	696.5
561.744	700.5
561.956	688.5
562.168	692.5
562.381	675.5
562.593	675.5
562.805	692.5
563.017	690.5
563.229	678.5
563.441	661.5
563.653	676.5
563.865	666.5
564.077	687.5
564.289	694.5
564.501	680.5
564.713	692.5
564.925	698.5
565.137	676.5
565.349	680.5
565.561	718.5
565.773	702.5
565.985	684.5
566.197	706.5
566.408	716.5
566.62	717.5
566.832	715.5
567.044	708.5
567.255	704.5
567.467	724.5
567.679	722.5
567.891	734.5
568.102	724.5
568.314	709.5
568.526	676.5
568.737	693.5
568.949	662.5
569.161	668.5
569.372	636.5
569.584	648.5
569.795	666.5
570.007	651.5
570.218	642.5
570.43	630.5
570.641	635.5
570.853	640.5
571.064	630.5
571.276	616.5
571.487	590.5
571.698	611.5
571.91	605.5
572.121	600.5
572.333	611.5
572.544	596.5
572.755	576.5
572.966	576.5
573.178	585.5
573.389	586.5
573.6	563.5
573.811	576.5
574.023	566.5
574.234	553.5
574.445	576.5
574.656	550.5
574.867	561.5
575.078	543.5
575.289	544.5
575.501	550.5
575.712	503.5
575.923	526.5
576.134	550.5
576.345	530.5
576.556	544.5
576.767	523.5
576.978	535.5
577.188	523.5
577.399	498.5
577.61	502.5
577.821	513.5
578.032	530.5
578.243	513.5
578.454	518.5
578.665	512.5
578.875	504.5
579.086	500.5
579.297	533.5
579.508	501.5
579.718	497.5
579.929	501.5
580.14	488.5
580.35	494.5
580.561	494.5
580.772	497.5
580.982	498.5
581.193	482.5
581.403	489.5
581.614	486.5
581.825	479.5
582.035	475.5
582.246	495.5
582.456	470.5
582.667	471.5
582.877	460.5
583.087	487.5
583.298	469.5
583.508	484.5
583.719	484.5
583.929	481.5
584.139	460.5
584.35	471.5
584.56	481.5
584.77	474.5
584.981	443.5
585.191	471.5
585.401	466.5
585.611	466.5
585.821	461.5
586.032	470.5
586.242	463.5
586.452	463.5
586.662	459.5
586.872	453.5
587.082	440.5
587.292	444.5
587.502	447.5
587.713	428.5
587.923	460.5
588.133	433.5
588.343	446.5
588.553	460.5
588.762	459.5
588.972	440.5
589.182	468.5
589.392	475.5
589.602	429.5
589.812	448.5
590.022	453.5
590.232	443.5
590.441	437.5
590.651	435.5
590.861	427.5
591.071	446.5
591.281	450.5
591.49	442.5
591.7	435.5
591.91	426.5
592.119	425.5
592.329	459.5
592.539	453.5
592.748	456.5
592.958	431.5
593.167	437.5
593.377	434.5
593.587	452.5
593.796	444.5
594.006	435.5
594.215	436.5
594.424	440.5
594.634	427.5
594.843	434.5
595.053	404.5
595.262	423.5
595.472	407.5
595.681	416.5
595.89	385.5
596.1	400.5
596.309	402.5
596.518	410.5
596.727	394.5
596.937	407.5
597.146	386.5
597.355	412.5
597.564	394.5
597.774	414.5
597.983	424.5
598.192	416.5
598.401	391.5
598.61	393.5
598.819	389.5
599.028	375.5
599.237	380.5
599.446	379.5
599.655	396.5
599.864	382.5
600.073	390.5
600.282	384.5
600.491	379.5
600.7	372.5
600.909	366.5
601.118	372.5
601.327	369.5
601.536	392.5
601.745	362.5
601.953	363.5
602.162	368.5
602.371	363.5
602.58	347.5
602.789	379.5
602.997	361.5
603.206	373.5
603.415	371.5
603.623	363.5
603.832	355.5
604.041	352.5
604.249	347.5
604.458	364.5
604.666	357.5
604.875	352.5
605.084	356.5
605.292	350.5
605.501	362.5
605.709	340.5
605.918	343.5
606.126	341.5
606.334	358.5
606.543	343.5
606.751	343.5
606.96	327.5
607.168	338.5
607.376	347.5
607.585	334.5
607.793	335.5
608.001	331.5
608.21	346.5
608.418	336.5
608.626	350.5
608.834	350.5
609.043	347.5
609.251	340.5
609.459	331.5
609.667	346.5
609.875	337.5
610.083	319.5
610.291	334.5
610.499	338.5
610.707	339.5
610.916	327.5
611.124	324.5
611.332	353.5
611.54	336.5
611.748	308.5
611.955	330.5
612.163	327.5
612.371	328.5
612.579	325.5
612.787	332.5
612.995	332.5
613.203	324.5
613.411	335.5
613.618	339.5
613.826	338.5
614.034	325.5
614.242	311.5
614.449	323.5
614.657	327.5
614.865	312.5
615.072	314.5
615.28	316.5
615.488	298.5
615.695	313.5
615.903	317.5
616.111	310.5
616.318	322.5
616.526	310.5
616.733	326.5
616.941	308.5
617.148	322.5
617.356	304.5
617.563	321.5
617.771	327.5
617.978	310.5
618.185	310.5
618.393	319.5
618.6	308.5
618.807	310.5
619.015	314.5
619.222	312.5
619.429	293.5
619.637	321.5
619.844	308.5
620.051	310.5
620.258	289.5
620.466	293.5
620.673	276.5
620.88	291.5
621.087	283.5
621.294	303.5
621.501	294.5
621.708	291.5
621.915	285.5
622.122	293.5
622.329	309.5
622.536	303.5
622.743	304.5
622.95	280.5
623.157	273.5
623.364	289.5
623.571	306.5
623.778	273.5
623.985	295.5
624.192	265.5
624.399	276.5
624.606	306.5
624.812	294.5
625.019	291.5
625.226	280.5
625.433	273.5
625.639	258.5
625.846	289.5
626.053	270.5
626.259	288.5
626.466	275.5
626.673	268.5
626.879	267.5
627.086	264.5
627.293	265.5
627.499	264.5
627.706	267.5
627.912	261.5
628.119	276.5
628.325	278.5
628.532	279.5
628.738	276.5
628.945	268.5
629.151	251.5
629.357	258.5
629.564	272.5
629.77	276.5
629.976	244.5
630.183	254.5
630.389	268.5
630.595	240.5
630.802	256.5
631.008	270.5
631.214	243.5
631.42	232.5
631.627	263.5
631.833	257.5
632.039	272.5
632.245	233.5
632.451	242.5
632.657	259.5
632.863	268.5
633.069	248.5
633.275	248.5
633.481	247.5
633.688	238.5
633.893	248.5
634.099	241.5
634.305	242.5
634.511	255.5
634.717	246.5
634.923	250.5
635.129	243.5
635.335	250.5
635.541	236.5
635.747	246.5
635.952	229.5
636.158	246.5
636.364	241.5
636.57	257.5
636.775	239.5
636.981	260.5
637.187	235.5
637.392	246.5
637.598	233.5
637.804	241.5
638.009	235.5
638.215	238.5
638.421	225.5
638.626	241.5
638.832	234.5
639.037	236.5
639.243	241.5
639.448	242.5
639.654	239.5
639.859	220.5
640.065	218.5
640.27	234.5
640.475	218.5
640.681	248.5
640.886	237.5
641.091	227.5
641.297	204.5
641.502	219.5
641.707	228.5
641.913	232.5
642.118	235.5
642.323	213.5
642.528	230.5
642.733	228.5
642.939	211.5
643.144	218.5
643.349	226.5
643.554	258.5
643.759	228.5
643.964	233.5
644.169	212.5
644.374	226.5
644.579	222.5
644.784	232.5
644.989	231.5
645.194	224.5
645.399	226.5
645.604	211.5
645.809	238.5
646.014	246.5
646.219	225.5
646.423	235.5
646.628	223.5
646.833	225.5
647.038	229.5
647.243	213.5
647.447	226.5
647.652	228.5
647.857	217.5
648.062	216.5
648.266	235.5
648.471	228.5
648.676	220.5
648.88	222.5
649.085	214.5
649.289	234.5
649.494	228.5
649.698	217.5
649.903	217.5
650.107	211.5
650.312	201.5
650.516	219.5
650.721	228.5
650.925	224.5
651.13	216.5
651.334	199.5
651.539	209.5
651.743	189.5
651.947	212.5
652.152	210.5
652.356	205.5
652.56	211.5
652.764	208.5
652.969	204.5
653.173	201.5
653.377	218.5
653.581	202.5
653.785	193.5
653.99	196.5
654.194	200.5
654.398	196.5
654.602	192.5
654.806	207.5
655.01	199.5
655.214	197.5
655.418	195.5
655.622	190.5
655.826	182.5
656.03	194.5
656.234	191.5
656.438	208.5
656.642	201.5
656.846	191.5
657.049	187.5
657.253	175.5
657.457	174.5
657.661	153.5
657.865	146.5
658.068	146.5
658.272	146.5
658.476	140.5
658.68	140.5
658.883	128.5
659.087	126.5
659.291	120.5
659.494	130.5
659.698	140.5
659.901	125.5
660.105	122.5
660.309	114.5
660.512	101.5
660.716	103.5
660.919	104.5
661.123	121.5
661.326	112.5
661.53	92.5
661.733	104.5
661.936	104.5
662.14	97.5
662.343	96.5
662.546	83.5
662.75	90.5
662.953	90.5
663.156	92.5
663.36	81.5
663.563	94.5
663.766	82.5
663.969	75.5
664.173	96.5
664.376	82.5
664.579	88.5
664.782	76.5
664.985	79.5
665.188	87.5
665.391	89.5
665.594	86.5
665.797	94.5
666	79.5
666.203	79.5
666.406	67.5
666.609	81.5
666.812	84.5
667.015	67.5
667.218	75.5
667.421	75.5
667.624	85.5
667.827	60.5
668.03	83.5
668.232	87.5
668.435	91.5
668.638	66.5
668.841	69.5
669.043	88.5
669.246	90.5
669.449	88.5
669.651	72.5
669.854	66.5
670.057	101.5
670.259	61.5
670.462	69.5
670.665	79.5
670.867	66.5
671.07	83.5
671.272	95.5
671.475	75.5
671.677	79.5
671.88	79.5
672.082	84.5
672.284	84.5
672.487	88.5
672.689	73.5
672.892	73.5
