Data from Fe(NO3)3@0.025M.TitratingCurve.Agarose3%dH2O.NegLispCup.LampEnergy10.LIBS07252019_HRD10591_16-54-59-335.txt Node
Date: Thu Jul 25 16:54:59 EDT 2019
User: cochatt
Spectrometer: HR+D1059
Trigger mode: 1
Integration Time (sec): 1.000000E-1
Scans to average: 1
Electric dark correction enabled: true
Nonlinearity correction enabled: false
Boxcar width: 0
XAxis mode: Wavelengths
Number of Pixels in Spectrum: 2048
>>>>>Begin Spectral Data<<<<<
223.165	-10.62
223.4	-10.62
223.635	-10.62
223.869	-20.62
224.104	-25.62
224.338	-11.62
224.573	-17.62
224.808	5.38
225.042	-0.62
225.277	-8.62
225.511	11.38
225.746	-4.62
225.98	-9.62
226.215	15.38
226.449	4.38
226.683	16.38
226.918	21.38
227.152	35.38
227.387	44.38
227.621	38.38
227.856	49.38
228.09	39.38
228.324	52.38
228.559	66.38
228.793	62.38
229.027	65.38
229.262	69.38
229.496	83.38
229.73	81.38
229.964	91.38
230.199	93.38
230.433	79.38
230.667	82.38
230.901	81.38
231.136	106.38
231.37	95.38
231.604	92.38
231.838	91.38
232.072	83.38
232.306	89.38
232.541	90.38
232.775	97.38
233.009	90.38
233.243	83.38
233.477	114.38
233.711	83.38
233.945	92.38
234.179	98.38
234.413	106.38
234.647	92.38
234.881	101.38
235.115	95.38
235.349	103.38
235.583	91.38
235.817	84.38
236.051	89.38
236.285	76.38
236.519	76.38
236.753	97.38
236.987	115.38
237.221	83.38
237.455	88.38
237.689	76.38
237.922	97.38
238.156	97.38
238.39	95.38
238.624	86.38
238.858	88.38
239.091	93.38
239.325	89.38
239.559	94.38
239.793	83.38
240.027	102.38
240.26	92.38
240.494	91.38
240.728	101.38
240.961	90.38
241.195	93.38
241.429	97.38
241.662	84.38
241.896	108.38
242.13	99.38
242.363	92.38
242.597	114.38
242.83	92.38
243.064	105.38
243.298	97.38
243.531	109.38
243.765	106.38
243.998	97.38
244.232	117.38
244.465	90.38
244.699	96.38
244.932	99.38
245.166	93.38
245.399	107.38
245.633	84.38
245.866	97.38
246.099	96.38
246.333	80.38
246.566	101.38
246.8	104.38
247.033	100.38
247.266	96.38
247.5	105.38
247.733	88.38
247.966	111.38
248.2	96.38
248.433	107.38
248.666	104.38
248.899	106.38
249.133	97.38
249.366	99.38
249.599	105.38
249.832	108.38
250.066	97.38
250.299	112.38
250.532	109.38
250.765	103.38
250.998	101.38
251.231	106.38
251.465	100.38
251.698	117.38
251.931	106.38
252.164	117.38
252.397	115.38
252.63	117.38
252.863	100.38
253.096	103.38
253.329	106.38
253.562	113.38
253.795	115.38
254.028	117.38
254.261	102.38
254.494	101.38
254.727	116.38
254.96	111.38
255.193	106.38
255.426	111.38
255.659	104.38
255.892	113.38
256.124	127.38
256.357	102.38
256.59	119.38
256.823	108.38
257.056	104.38
257.289	119.38
257.521	109.38
257.754	127.38
257.987	114.38
258.22	119.38
258.452	123.38
258.685	119.38
258.918	128.38
259.151	109.38
259.383	125.38
259.616	114.38
259.849	119.38
260.081	108.38
260.314	117.38
260.547	92.38
260.779	115.38
261.012	127.38
261.244	122.38
261.477	121.38
261.71	125.38
261.942	123.38
262.175	132.38
262.407	120.38
262.64	111.38
262.872	127.38
263.105	127.38
263.337	119.38
263.57	123.38
263.802	115.38
264.035	121.38
264.267	121.38
264.499	136.38
264.732	122.38
264.964	118.38
265.197	128.38
265.429	133.38
265.661	128.38
265.894	136.38
266.126	123.38
266.358	122.38
266.591	128.38
266.823	141.38
267.055	112.38
267.287	128.38
267.52	131.38
267.752	127.38
267.984	131.38
268.216	123.38
268.448	127.38
268.681	126.38
268.913	131.38
269.145	129.38
269.377	134.38
269.609	115.38
269.841	142.38
270.073	135.38
270.306	127.38
270.538	126.38
270.77	125.38
271.002	114.38
271.234	132.38
271.466	128.38
271.698	134.38
271.93	135.38
272.162	146.38
272.394	146.38
272.626	135.38
272.858	131.38
273.09	149.38
273.322	132.38
273.553	136.38
273.785	129.38
274.017	149.38
274.249	145.38
274.481	139.38
274.713	166.38
274.945	143.38
275.176	137.38
275.408	138.38
275.64	147.38
275.872	123.38
276.104	132.38
276.335	129.38
276.567	137.38
276.799	135.38
277.031	140.38
277.262	150.38
277.494	127.38
277.726	137.38
277.957	136.38
278.189	124.38
278.421	148.38
278.652	151.38
278.884	146.38
279.115	140.38
279.347	138.38
279.579	139.38
279.81	156.38
280.042	129.38
280.273	150.38
280.505	131.38
280.736	131.38
280.968	143.38
281.199	145.38
281.431	153.38
281.662	125.38
281.894	146.38
282.125	141.38
282.356	135.38
282.588	148.38
282.819	137.38
283.051	156.38
283.282	148.38
283.513	153.38
283.745	144.38
283.976	138.38
284.207	149.38
284.439	153.38
284.67	148.38
284.901	156.38
285.132	159.38
285.364	143.38
285.595	159.38
285.826	161.38
286.057	160.38
286.288	148.38
286.52	152.38
286.751	163.38
286.982	167.38
287.213	155.38
287.444	175.38
287.675	148.38
287.906	160.38
288.138	149.38
288.369	163.38
288.6	170.38
288.831	154.38
289.062	170.38
289.293	170.38
289.524	143.38
289.755	152.38
289.986	166.38
290.217	171.38
290.448	166.38
290.679	164.38
290.91	160.38
291.141	171.38
291.371	150.38
291.602	160.38
291.833	178.38
292.064	167.38
292.295	156.38
292.526	160.38
292.757	162.38
292.987	147.38
293.218	156.38
293.449	168.38
293.68	176.38
293.91	165.38
294.141	175.38
294.372	157.38
294.603	161.38
294.833	183.38
295.064	169.38
295.295	164.38
295.525	138.38
295.756	177.38
295.987	163.38
296.217	169.38
296.448	175.38
296.679	179.38
296.909	175.38
297.14	180.38
297.37	167.38
297.601	184.38
297.831	165.38
298.062	183.38
298.292	164.38
298.523	179.38
298.753	186.38
298.984	168.38
299.214	172.38
299.445	179.38
299.675	171.38
299.905	160.38
300.136	174.38
300.366	171.38
300.597	177.38
300.827	181.38
301.057	187.38
301.288	198.38
301.518	170.38
301.748	176.38
301.979	180.38
302.209	186.38
302.439	187.38
302.669	176.38
302.9	179.38
303.13	169.38
303.36	188.38
303.59	178.38
303.82	180.38
304.051	205.38
304.281	179.38
304.511	191.38
304.741	176.38
304.971	182.38
305.201	187.38
305.431	170.38
305.661	189.38
305.891	188.38
306.121	186.38
306.352	194.38
306.582	186.38
306.812	184.38
307.042	193.38
307.272	176.38
307.502	181.38
307.731	180.38
307.961	170.38
308.191	188.38
308.421	179.38
308.651	181.38
308.881	191.38
309.111	175.38
309.341	182.38
309.571	188.38
309.8	179.38
310.03	177.38
310.26	203.38
310.49	196.38
310.72	183.38
310.949	185.38
311.179	194.38
311.409	182.38
311.639	195.38
311.868	179.38
312.098	185.38
312.328	202.38
312.557	179.38
312.787	196.38
313.017	199.38
313.246	187.38
313.476	187.38
313.706	184.38
313.935	185.38
314.165	197.38
314.394	198.38
314.624	203.38
314.853	201.38
315.083	177.38
315.312	195.38
315.542	195.38
315.771	202.38
316.001	192.38
316.23	201.38
316.46	208.38
316.689	200.38
316.919	185.38
317.148	189.38
317.377	198.38
317.607	195.38
317.836	186.38
318.065	200.38
318.295	207.38
318.524	204.38
318.753	192.38
318.983	198.38
319.212	185.38
319.441	187.38
319.67	199.38
319.9	203.38
320.129	195.38
320.358	191.38
320.587	200.38
320.816	192.38
321.046	187.38
321.275	203.38
321.504	209.38
321.733	200.38
321.962	196.38
322.191	210.38
322.42	198.38
322.649	210.38
322.878	199.38
323.108	205.38
323.337	196.38
323.566	214.38
323.795	209.38
324.024	208.38
324.253	206.38
324.482	212.38
324.71	213.38
324.939	194.38
325.168	214.38
325.397	212.38
325.626	215.38
325.855	199.38
326.084	204.38
326.313	204.38
326.542	214.38
326.77	200.38
326.999	231.38
327.228	197.38
327.457	211.38
327.686	211.38
327.914	201.38
328.143	213.38
328.372	216.38
328.6	207.38
328.829	214.38
329.058	213.38
329.287	213.38
329.515	196.38
329.744	215.38
329.972	221.38
330.201	232.38
330.43	234.38
330.658	210.38
330.887	230.38
331.115	215.38
331.344	212.38
331.572	233.38
331.801	221.38
332.03	234.38
332.258	236.38
332.486	217.38
332.715	247.38
332.943	232.38
333.172	242.38
333.4	243.38
333.629	243.38
333.857	250.38
334.085	252.38
334.314	248.38
334.542	251.38
334.771	262.38
334.999	247.38
335.227	246.38
335.455	251.38
335.684	243.38
335.912	251.38
336.14	238.38
336.369	244.38
336.597	242.38
336.825	247.38
337.053	255.38
337.281	233.38
337.51	257.38
337.738	244.38
337.966	245.38
338.194	225.38
338.422	221.38
338.65	232.38
338.878	242.38
339.106	239.38
339.334	231.38
339.562	229.38
339.79	239.38
340.018	219.38
340.246	241.38
340.474	232.38
340.702	250.38
340.93	232.38
341.158	231.38
341.386	236.38
341.614	241.38
341.842	220.38
342.07	216.38
342.298	226.38
342.526	223.38
342.754	225.38
342.981	224.38
343.209	231.38
343.437	240.38
343.665	250.38
343.893	232.38
344.12	246.38
344.348	237.38
344.576	253.38
344.804	247.38
345.031	220.38
345.259	243.38
345.487	253.38
345.714	235.38
345.942	232.38
346.17	234.38
346.397	230.38
346.625	254.38
346.853	230.38
347.08	243.38
347.308	237.38
347.535	231.38
347.763	241.38
347.99	208.38
348.218	229.38
348.445	230.38
348.673	212.38
348.9	227.38
349.128	226.38
349.355	232.38
349.583	233.38
349.81	221.38
350.037	229.38
350.265	223.38
350.492	215.38
350.72	216.38
350.947	203.38
351.174	213.38
351.402	219.38
351.629	223.38
351.856	206.38
352.083	217.38
352.311	224.38
352.538	228.38
352.765	243.38
352.992	225.38
353.22	220.38
353.447	215.38
353.674	221.38
353.901	223.38
354.128	233.38
354.355	219.38
354.583	217.38
354.81	220.38
355.037	231.38
355.264	231.38
355.491	223.38
355.718	213.38
355.945	218.38
356.172	228.38
356.399	225.38
356.626	215.38
356.853	231.38
357.08	228.38
357.307	240.38
357.534	211.38
357.761	224.38
357.988	234.38
358.215	213.38
358.441	220.38
358.668	225.38
358.895	214.38
359.122	220.38
359.349	224.38
359.576	236.38
359.802	229.38
360.029	224.38
360.256	225.38
360.483	226.38
360.709	214.38
360.936	228.38
361.163	234.38
361.39	239.38
361.616	218.38
361.843	237.38
362.07	225.38
362.296	229.38
362.523	222.38
362.749	231.38
362.976	213.38
363.203	224.38
363.429	242.38
363.656	229.38
363.882	240.38
364.109	223.38
364.335	228.38
364.562	211.38
364.788	235.38
365.015	224.38
365.241	240.38
365.468	230.38
365.694	219.38
365.92	234.38
366.147	216.38
366.373	216.38
366.599	237.38
366.826	243.38
367.052	242.38
367.278	223.38
367.505	239.38
367.731	233.38
367.957	223.38
368.184	237.38
368.41	240.38
368.636	243.38
368.862	232.38
369.089	224.38
369.315	222.38
369.541	231.38
369.767	237.38
369.993	229.38
370.219	218.38
370.445	248.38
370.672	254.38
370.898	267.38
371.124	236.38
371.35	255.38
371.576	245.38
371.802	252.38
372.028	228.38
372.254	251.38
372.48	253.38
372.706	256.38
372.932	228.38
373.158	241.38
373.384	241.38
373.61	258.38
373.835	248.38
374.061	232.38
374.287	245.38
374.513	241.38
374.739	235.38
374.965	246.38
375.191	264.38
375.416	264.38
375.642	252.38
375.868	251.38
376.094	259.38
376.319	239.38
376.545	242.38
376.771	260.38
376.997	237.38
377.222	239.38
377.448	239.38
377.674	243.38
377.899	226.38
378.125	237.38
378.35	241.38
378.576	232.38
378.802	236.38
379.027	256.38
379.253	220.38
379.478	229.38
379.704	240.38
379.929	257.38
380.155	253.38
380.38	249.38
380.606	220.38
380.831	232.38
381.057	259.38
381.282	241.38
381.507	265.38
381.733	243.38
381.958	249.38
382.184	259.38
382.409	255.38
382.634	258.38
382.86	256.38
383.085	256.38
383.31	265.38
383.535	240.38
383.761	244.38
383.986	260.38
384.211	262.38
384.436	253.38
384.662	261.38
384.887	295.38
385.112	278.38
385.337	293.38
385.562	273.38
385.787	266.38
386.013	285.38
386.238	291.38
386.463	276.38
386.688	277.38
386.913	290.38
387.138	291.38
387.363	280.38
387.588	275.38
387.813	280.38
388.038	272.38
388.263	270.38
388.488	276.38
388.713	272.38
388.938	274.38
389.163	282.38
389.387	264.38
389.612	268.38
389.837	281.38
390.062	286.38
390.287	257.38
390.512	292.38
390.736	279.38
390.961	290.38
391.186	290.38
391.411	290.38
391.636	288.38
391.86	299.38
392.085	301.38
392.31	291.38
392.534	295.38
392.759	300.38
392.984	283.38
393.208	285.38
393.433	295.38
393.658	275.38
393.882	271.38
394.107	292.38
394.331	291.38
394.556	269.38
394.78	295.38
395.005	298.38
395.229	297.38
395.454	278.38
395.678	299.38
395.903	304.38
396.127	317.38
396.352	310.38
396.576	294.38
396.801	308.38
397.025	282.38
397.249	304.38
397.474	286.38
397.698	304.38
397.922	315.38
398.147	306.38
398.371	305.38
398.595	292.38
398.82	325.38
399.044	357.38
399.268	371.38
399.492	391.38
399.717	404.38
399.941	412.38
400.165	367.38
400.389	364.38
400.613	358.38
400.837	332.38
401.062	330.38
401.286	341.38
401.51	308.38
401.734	333.38
401.958	309.38
402.182	351.38
402.406	335.38
402.63	319.38
402.854	355.38
403.078	332.38
403.302	340.38
403.526	341.38
403.75	356.38
403.974	355.38
404.198	344.38
404.422	357.38
404.645	352.38
404.869	326.38
405.093	338.38
405.317	340.38
405.541	328.38
405.765	342.38
405.988	349.38
406.212	345.38
406.436	349.38
406.66	356.38
406.883	364.38
407.107	361.38
407.331	372.38
407.555	371.38
407.778	367.38
408.002	384.38
408.226	363.38
408.449	359.38
408.673	344.38
408.896	357.38
409.12	342.38
409.344	354.38
409.567	340.38
409.791	353.38
410.014	335.38
410.238	333.38
410.461	351.38
410.685	362.38
410.908	348.38
411.132	333.38
411.355	344.38
411.578	334.38
411.802	349.38
412.025	345.38
412.249	339.38
412.472	305.38
412.695	341.38
412.919	327.38
413.142	336.38
413.365	342.38
413.589	332.38
413.812	318.38
414.035	337.38
414.258	334.38
414.482	318.38
414.705	335.38
414.928	327.38
415.151	313.38
415.374	313.38
415.597	330.38
415.821	325.38
416.044	308.38
416.267	319.38
416.49	313.38
416.713	308.38
416.936	318.38
417.159	315.38
417.382	324.38
417.605	303.38
417.828	328.38
418.051	308.38
418.274	322.38
418.497	336.38
418.72	322.38
418.943	316.38
419.166	323.38
419.389	331.38
419.611	322.38
419.834	336.38
420.057	330.38
420.28	321.38
420.503	313.38
420.726	324.38
420.948	319.38
421.171	310.38
421.394	324.38
421.617	299.38
421.839	328.38
422.062	309.38
422.285	331.38
422.507	316.38
422.73	321.38
422.953	325.38
423.175	291.38
423.398	319.38
423.621	299.38
423.843	320.38
424.066	319.38
424.288	319.38
424.511	331.38
424.733	324.38
424.956	328.38
425.178	316.38
425.401	309.38
425.623	285.38
425.846	300.38
426.068	329.38
426.291	307.38
426.513	324.38
426.735	307.38
426.958	331.38
427.18	284.38
427.402	316.38
427.625	303.38
427.847	295.38
428.069	290.38
428.292	284.38
428.514	306.38
428.736	305.38
428.958	290.38
429.181	298.38
429.403	286.38
429.625	281.38
429.847	279.38
430.069	294.38
430.292	297.38
430.514	302.38
430.736	300.38
430.958	280.38
431.18	285.38
431.402	309.38
431.624	311.38
431.846	293.38
432.068	313.38
432.29	303.38
432.512	298.38
432.734	285.38
432.956	288.38
433.178	282.38
433.4	301.38
433.622	288.38
433.844	295.38
434.066	305.38
434.287	294.38
434.509	304.38
434.731	311.38
434.953	319.38
435.175	331.38
435.397	301.38
435.618	295.38
435.84	305.38
436.062	304.38
436.284	291.38
436.505	286.38
436.727	279.38
436.949	309.38
437.17	300.38
437.392	287.38
437.614	299.38
437.835	288.38
438.057	301.38
438.278	295.38
438.5	297.38
438.721	278.38
438.943	275.38
439.165	291.38
439.386	288.38
439.608	295.38
439.829	301.38
440.05	298.38
440.272	305.38
440.493	298.38
440.715	295.38
440.936	305.38
441.158	317.38
441.379	315.38
441.6	314.38
441.822	289.38
442.043	317.38
442.264	315.38
442.486	308.38
442.707	306.38
442.928	320.38
443.149	312.38
443.371	313.38
443.592	298.38
443.813	307.38
444.034	324.38
444.255	324.38
444.476	319.38
444.698	342.38
444.919	329.38
445.14	415.38
445.361	357.38
445.582	315.38
445.803	322.38
446.024	308.38
446.245	300.38
446.466	294.38
446.687	291.38
446.908	288.38
447.129	298.38
447.35	300.38
447.571	299.38
447.792	291.38
448.013	285.38
448.234	299.38
448.455	288.38
448.675	261.38
448.896	287.38
449.117	280.38
449.338	272.38
449.559	277.38
449.779	275.38
450	278.38
450.221	283.38
450.442	276.38
450.662	269.38
450.883	284.38
451.104	279.38
451.324	281.38
451.545	274.38
451.766	264.38
451.986	273.38
452.207	256.38
452.428	284.38
452.648	269.38
452.869	283.38
453.089	264.38
453.31	276.38
453.53	278.38
453.751	260.38
453.971	277.38
454.192	265.38
454.412	260.38
454.633	257.38
454.853	276.38
455.073	282.38
455.294	263.38
455.514	272.38
455.734	268.38
455.955	255.38
456.175	243.38
456.395	260.38
456.616	253.38
456.836	250.38
457.056	252.38
457.276	271.38
457.497	262.38
457.717	247.38
457.937	261.38
458.157	268.38
458.377	264.38
458.598	273.38
458.818	283.38
459.038	272.38
459.258	292.38
459.478	311.38
459.698	297.38
459.918	309.38
460.138	306.38
460.358	314.38
460.578	307.38
460.798	324.38
461.018	321.38
461.238	309.38
461.458	336.38
461.678	339.38
461.898	337.38
462.118	325.38
462.338	342.38
462.558	352.38
462.777	344.38
462.997	380.38
463.217	405.38
463.437	356.38
463.657	358.38
463.876	368.38
464.096	343.38
464.316	346.38
464.536	355.38
464.755	371.38
464.975	342.38
465.195	345.38
465.414	316.38
465.634	293.38
465.854	300.38
466.073	318.38
466.293	310.38
466.512	296.38
466.732	284.38
466.951	291.38
467.171	297.38
467.391	287.38
467.61	280.38
467.829	271.38
468.049	273.38
468.268	282.38
468.488	287.38
468.707	275.38
468.927	287.38
469.146	289.38
469.365	281.38
469.585	275.38
469.804	277.38
470.023	282.38
470.243	283.38
470.462	291.38
470.681	292.38
470.901	280.38
471.12	285.38
471.339	309.38
471.558	288.38
471.777	277.38
471.997	274.38
472.216	287.38
472.435	281.38
472.654	265.38
472.873	281.38
473.092	308.38
473.311	297.38
473.53	281.38
473.749	296.38
473.968	290.38
474.187	277.38
474.406	285.38
474.625	281.38
474.844	298.38
475.063	288.38
475.282	284.38
475.501	270.38
475.72	294.38
475.939	301.38
476.158	315.38
476.377	299.38
476.596	279.38
476.814	301.38
477.033	299.38
477.252	295.38
477.471	319.38
477.69	309.38
477.908	322.38
478.127	324.38
478.346	318.38
478.564	331.38
478.783	317.38
479.002	328.38
479.22	316.38
479.439	313.38
479.658	333.38
479.876	339.38
480.095	333.38
480.313	335.38
480.532	339.38
480.751	315.38
480.969	345.38
481.188	324.38
481.406	327.38
481.624	331.38
481.843	314.38
482.061	323.38
482.28	323.38
482.498	330.38
482.717	320.38
482.935	308.38
483.153	312.38
483.372	316.38
483.59	324.38
483.808	320.38
484.027	330.38
484.245	338.38
484.463	314.38
484.681	325.38
484.9	329.38
485.118	351.38
485.336	320.38
485.554	333.38
485.772	343.38
485.99	320.38
486.209	326.38
486.427	343.38
486.645	330.38
486.863	340.38
487.081	306.38
487.299	317.38
487.517	344.38
487.735	326.38
487.953	328.38
488.171	329.38
488.389	339.38
488.607	330.38
488.825	324.38
489.043	345.38
489.261	327.38
489.479	325.38
489.696	327.38
489.914	311.38
490.132	339.38
490.35	325.38
490.568	336.38
490.786	326.38
491.003	348.38
491.221	328.38
491.439	364.38
491.657	344.38
491.874	347.38
492.092	351.38
492.31	338.38
492.527	351.38
492.745	341.38
492.963	347.38
493.18	349.38
493.398	337.38
493.615	345.38
493.833	360.38
494.05	355.38
494.268	340.38
494.485	347.38
494.703	350.38
494.92	358.38
495.138	356.38
495.355	348.38
495.573	358.38
495.79	354.38
496.008	360.38
496.225	385.38
496.442	352.38
496.66	369.38
496.877	367.38
497.094	391.38
497.312	376.38
497.529	394.38
497.746	397.38
497.963	398.38
498.181	390.38
498.398	408.38
498.615	449.38
498.832	463.38
499.049	477.38
499.267	504.38
499.484	531.38
499.701	559.38
499.918	576.38
500.135	646.38
500.352	687.38
500.569	685.38
500.786	683.38
501.003	660.38
501.22	620.38
501.437	568.38
501.654	533.38
501.871	505.38
502.088	462.38
502.305	465.38
502.522	454.38
502.739	442.38
502.956	439.38
503.172	406.38
503.389	411.38
503.606	400.38
503.823	386.38
504.04	400.38
504.256	383.38
504.473	387.38
504.69	368.38
504.907	383.38
505.123	385.38
505.34	379.38
505.557	379.38
505.773	360.38
505.99	361.38
506.207	344.38
506.423	331.38
506.64	321.38
506.856	317.38
507.073	347.38
507.289	309.38
507.506	315.38
507.722	322.38
507.939	323.38
508.155	307.38
508.372	308.38
508.588	312.38
508.805	301.38
509.021	307.38
509.238	309.38
509.454	293.38
509.67	300.38
509.887	295.38
510.103	294.38
510.319	307.38
510.536	305.38
510.752	305.38
510.968	292.38
511.184	296.38
511.401	295.38
511.617	294.38
511.833	303.38
512.049	303.38
512.265	303.38
512.481	303.38
512.698	292.38
512.914	305.38
513.13	319.38
513.346	282.38
513.562	293.38
513.778	311.38
513.994	311.38
514.21	304.38
514.426	296.38
514.642	308.38
514.858	306.38
515.074	304.38
515.29	325.38
515.506	326.38
515.721	309.38
515.937	335.38
516.153	326.38
516.369	323.38
516.585	343.38
516.801	344.38
517.016	320.38
517.232	332.38
517.448	331.38
517.664	331.38
517.879	345.38
518.095	363.38
518.311	362.38
518.527	332.38
518.742	348.38
518.958	298.38
519.173	320.38
519.389	299.38
519.605	309.38
519.82	308.38
520.036	317.38
520.251	280.38
520.467	308.38
520.682	304.38
520.898	301.38
521.113	297.38
521.329	295.38
521.544	288.38
521.76	289.38
521.975	277.38
522.19	278.38
522.406	309.38
522.621	308.38
522.836	300.38
523.052	269.38
523.267	290.38
523.482	298.38
523.698	287.38
523.913	304.38
524.128	267.38
524.343	281.38
524.559	279.38
524.774	270.38
524.989	289.38
525.204	279.38
525.419	280.38
525.634	289.38
525.849	277.38
526.064	277.38
526.28	279.38
526.495	270.38
526.71	261.38
526.925	263.38
527.14	285.38
527.355	288.38
527.57	268.38
527.785	269.38
527.999	284.38
528.214	268.38
528.429	287.38
528.644	279.38
528.859	268.38
529.074	272.38
529.289	262.38
529.503	278.38
529.718	282.38
529.933	276.38
530.148	287.38
530.363	281.38
530.577	269.38
530.792	277.38
531.007	273.38
531.221	276.38
531.436	281.38
531.651	293.38
531.865	263.38
532.08	283.38
532.295	276.38
532.509	273.38
532.724	257.38
532.938	262.38
533.153	265.38
533.367	280.38
533.582	270.38
533.796	278.38
534.011	282.38
534.225	272.38
534.44	275.38
534.654	263.38
534.868	265.38
535.083	280.38
535.297	270.38
535.511	271.38
535.726	266.38
535.94	262.38
536.154	265.38
536.369	270.38
536.583	276.38
536.797	253.38
537.011	258.38
537.225	277.38
537.44	267.38
537.654	263.38
537.868	268.38
538.082	269.38
538.296	260.38
538.51	272.38
538.724	251.38
538.938	264.38
539.153	264.38
539.367	259.38
539.581	258.38
539.795	267.38
540.009	263.38
540.222	268.38
540.436	267.38
540.65	245.38
540.864	239.38
541.078	260.38
541.292	265.38
541.506	277.38
541.72	262.38
541.934	265.38
542.147	265.38
542.361	260.38
542.575	239.38
542.789	261.38
543.002	251.38
543.216	251.38
543.43	257.38
543.644	259.38
543.857	249.38
544.071	253.38
544.285	281.38
544.498	252.38
544.712	248.38
544.925	269.38
545.139	277.38
545.352	262.38
545.566	247.38
545.779	255.38
545.993	259.38
546.206	264.38
546.42	256.38
546.633	267.38
546.847	275.38
547.06	257.38
547.274	272.38
547.487	262.38
547.7	243.38
547.914	264.38
548.127	255.38
548.34	263.38
548.554	258.38
548.767	268.38
548.98	264.38
549.193	271.38
549.407	263.38
549.62	257.38
549.833	272.38
550.046	261.38
550.259	252.38
550.473	259.38
550.686	244.38
550.899	261.38
551.112	269.38
551.325	270.38
551.538	243.38
551.751	246.38
551.964	268.38
552.177	277.38
552.39	280.38
552.603	275.38
552.816	250.38
553.029	265.38
553.242	262.38
553.455	268.38
553.667	270.38
553.88	283.38
554.093	267.38
554.306	276.38
554.519	229.38
554.732	267.38
554.944	258.38
555.157	227.38
555.37	244.38
555.583	235.38
555.795	241.38
556.008	259.38
556.221	241.38
556.433	252.38
556.646	245.38
556.859	249.38
557.071	240.38
557.284	241.38
557.496	224.38
557.709	255.38
557.921	233.38
558.134	239.38
558.346	226.38
558.559	243.38
558.771	229.38
558.984	235.38
559.196	243.38
559.409	232.38
559.621	251.38
559.833	235.38
560.046	221.38
560.258	228.38
560.47	215.38
560.683	240.38
560.895	236.38
561.107	241.38
561.32	227.38
561.532	240.38
561.744	216.38
561.956	235.38
562.168	251.38
562.381	234.38
562.593	244.38
562.805	231.38
563.017	230.38
563.229	223.38
563.441	228.38
563.653	230.38
563.865	233.38
564.077	228.38
564.289	240.38
564.501	227.38
564.713	235.38
564.925	251.38
565.137	241.38
565.349	269.38
565.561	246.38
565.773	255.38
565.985	270.38
566.197	273.38
566.408	278.38
566.62	279.38
566.832	304.38
567.044	296.38
567.255	319.38
567.467	316.38
567.679	299.38
567.891	315.38
568.102	327.38
568.314	314.38
568.526	281.38
568.737	283.38
568.949	268.38
569.161	243.38
569.372	250.38
569.584	231.38
569.795	228.38
570.007	234.38
570.218	229.38
570.43	226.38
570.641	218.38
570.853	218.38
571.064	257.38
571.276	217.38
571.487	212.38
571.698	233.38
571.91	220.38
572.121	230.38
572.333	211.38
572.544	203.38
572.755	205.38
572.966	219.38
573.178	205.38
573.389	217.38
573.6	196.38
573.811	196.38
574.023	208.38
574.234	194.38
574.445	219.38
574.656	208.38
574.867	196.38
575.078	199.38
575.289	195.38
575.501	180.38
575.712	188.38
575.923	183.38
576.134	206.38
576.345	208.38
576.556	194.38
576.767	194.38
576.978	191.38
577.188	193.38
577.399	185.38
577.61	185.38
577.821	189.38
578.032	187.38
578.243	179.38
578.454	193.38
578.665	177.38
578.875	172.38
579.086	196.38
579.297	191.38
579.508	196.38
579.718	191.38
579.929	193.38
580.14	188.38
580.35	184.38
580.561	188.38
580.772	196.38
580.982	172.38
581.193	191.38
581.403	187.38
581.614	171.38
581.825	185.38
582.035	196.38
582.246	185.38
582.456	179.38
582.667	204.38
582.877	187.38
583.087	173.38
583.298	168.38
583.508	196.38
583.719	166.38
583.929	182.38
584.139	160.38
584.35	178.38
584.56	195.38
584.77	179.38
584.981	164.38
585.191	176.38
585.401	171.38
585.611	176.38
585.821	177.38
586.032	178.38
586.242	164.38
586.452	189.38
586.662	175.38
586.872	173.38
587.082	181.38
587.292	177.38
587.502	196.38
587.713	186.38
587.923	172.38
588.133	177.38
588.343	182.38
588.553	187.38
588.762	172.38
588.972	177.38
589.182	192.38
589.392	184.38
589.602	173.38
589.812	189.38
590.022	177.38
590.232	157.38
590.441	188.38
590.651	170.38
590.861	160.38
591.071	177.38
591.281	172.38
591.49	175.38
591.7	175.38
591.91	196.38
592.119	168.38
592.329	194.38
592.539	181.38
592.748	199.38
592.958	201.38
593.167	195.38
593.377	192.38
593.587	190.38
593.796	184.38
594.006	193.38
594.215	177.38
594.424	195.38
594.634	187.38
594.843	180.38
595.053	185.38
595.262	184.38
595.472	175.38
595.681	183.38
595.89	171.38
596.1	185.38
596.309	175.38
596.518	180.38
596.727	178.38
596.937	170.38
597.146	179.38
597.355	169.38
597.564	161.38
597.774	159.38
597.983	172.38
598.192	168.38
598.401	168.38
598.61	156.38
598.819	158.38
599.028	163.38
599.237	170.38
599.446	172.38
599.655	162.38
599.864	157.38
600.073	177.38
600.282	155.38
600.491	148.38
600.7	162.38
600.909	156.38
601.118	165.38
601.327	156.38
601.536	159.38
601.745	149.38
601.953	150.38
602.162	146.38
602.371	157.38
602.58	168.38
602.789	149.38
602.997	149.38
603.206	151.38
603.415	148.38
603.623	153.38
603.832	160.38
604.041	158.38
604.249	151.38
604.458	179.38
604.666	147.38
604.875	153.38
605.084	149.38
605.292	147.38
605.501	154.38
605.709	162.38
605.918	163.38
606.126	139.38
606.334	147.38
606.543	156.38
606.751	156.38
606.96	161.38
607.168	152.38
607.376	138.38
607.585	165.38
607.793	139.38
608.001	150.38
608.21	145.38
608.418	165.38
608.626	145.38
608.834	142.38
609.043	141.38
609.251	131.38
609.459	140.38
609.667	150.38
609.875	159.38
610.083	131.38
610.291	151.38
610.499	146.38
610.707	147.38
610.916	149.38
611.124	147.38
611.332	168.38
611.54	161.38
611.748	152.38
611.955	154.38
612.163	150.38
612.371	145.38
612.579	155.38
612.787	141.38
612.995	146.38
613.203	147.38
613.411	131.38
613.618	141.38
613.826	155.38
614.034	151.38
614.242	141.38
614.449	140.38
614.657	141.38
614.865	168.38
615.072	140.38
615.28	141.38
615.488	144.38
615.695	151.38
615.903	154.38
616.111	141.38
616.318	154.38
616.526	147.38
616.733	154.38
616.941	150.38
617.148	148.38
617.356	150.38
617.563	148.38
617.771	137.38
617.978	159.38
618.185	143.38
618.393	143.38
618.6	144.38
618.807	147.38
619.015	138.38
619.222	144.38
619.429	146.38
619.637	151.38
619.844	155.38
620.051	141.38
620.258	139.38
620.466	142.38
620.673	129.38
620.88	144.38
621.087	146.38
621.294	155.38
621.501	135.38
621.708	141.38
621.915	154.38
622.122	152.38
622.329	147.38
622.536	129.38
622.743	141.38
622.95	133.38
623.157	138.38
623.364	147.38
623.571	138.38
623.778	131.38
623.985	141.38
624.192	143.38
624.399	147.38
624.606	135.38
624.812	145.38
625.019	136.38
625.226	147.38
625.433	131.38
625.639	139.38
625.846	158.38
626.053	125.38
626.259	133.38
626.466	136.38
626.673	124.38
626.879	135.38
627.086	139.38
627.293	144.38
627.499	138.38
627.706	139.38
627.912	143.38
628.119	135.38
628.325	143.38
628.532	141.38
628.738	140.38
628.945	138.38
629.151	127.38
629.357	130.38
629.564	124.38
629.77	130.38
629.976	151.38
630.183	142.38
630.389	130.38
630.595	141.38
630.802	143.38
631.008	130.38
631.214	123.38
631.42	127.38
631.627	129.38
631.833	123.38
632.039	129.38
632.245	151.38
632.451	127.38
632.657	134.38
632.863	139.38
633.069	123.38
633.275	122.38
633.481	127.38
633.688	125.38
633.893	126.38
634.099	124.38
634.305	114.38
634.511	138.38
634.717	124.38
634.923	123.38
635.129	132.38
635.335	135.38
635.541	131.38
635.747	143.38
635.952	139.38
636.158	133.38
636.364	131.38
636.57	121.38
636.775	133.38
636.981	121.38
637.187	141.38
637.392	122.38
637.598	119.38
637.804	118.38
638.009	113.38
638.215	137.38
638.421	137.38
638.626	140.38
638.832	128.38
639.037	114.38
639.243	117.38
639.448	122.38
639.654	127.38
639.859	124.38
640.065	123.38
640.27	124.38
640.475	122.38
640.681	124.38
640.886	120.38
641.091	124.38
641.297	131.38
641.502	126.38
641.707	123.38
641.913	125.38
642.118	124.38
642.323	123.38
642.528	124.38
642.733	140.38
642.939	124.38
643.144	130.38
643.349	127.38
643.554	127.38
643.759	115.38
643.964	122.38
644.169	119.38
644.374	135.38
644.579	126.38
644.784	127.38
644.989	131.38
645.194	126.38
645.399	119.38
645.604	123.38
645.809	122.38
646.014	126.38
646.219	136.38
646.423	120.38
646.628	120.38
646.833	120.38
647.038	124.38
647.243	121.38
647.447	120.38
647.652	127.38
647.857	123.38
648.062	113.38
648.266	127.38
648.471	128.38
648.676	130.38
648.88	129.38
649.085	127.38
649.289	126.38
649.494	132.38
649.698	124.38
649.903	127.38
650.107	134.38
650.312	111.38
650.516	122.38
650.721	131.38
650.925	119.38
651.13	112.38
651.334	119.38
651.539	116.38
651.743	107.38
651.947	126.38
652.152	124.38
652.356	117.38
652.56	126.38
652.764	120.38
652.969	127.38
653.173	120.38
653.377	112.38
653.581	113.38
653.785	122.38
653.99	106.38
654.194	119.38
654.398	124.38
654.602	125.38
654.806	112.38
655.01	114.38
655.214	108.38
655.418	141.38
655.622	132.38
655.826	118.38
656.03	118.38
656.234	117.38
656.438	123.38
656.642	117.38
656.846	111.38
657.049	108.38
657.253	111.38
657.457	105.38
657.661	123.38
657.865	110.38
658.068	110.38
658.272	103.38
658.476	95.38
658.68	113.38
658.883	100.38
659.087	104.38
659.291	91.38
659.494	96.38
659.698	115.38
659.901	104.38
660.105	92.38
660.309	91.38
660.512	112.38
660.716	81.38
660.919	88.38
661.123	99.38
661.326	101.38
661.53	85.38
661.733	97.38
661.936	86.38
662.14	108.38
662.343	84.38
662.546	86.38
662.75	91.38
662.953	85.38
663.156	78.38
663.36	81.38
663.563	85.38
663.766	70.38
663.969	84.38
664.173	80.38
664.376	94.38
664.579	87.38
664.782	80.38
664.985	76.38
665.188	67.38
665.391	87.38
665.594	81.38
665.797	84.38
666	85.38
666.203	76.38
666.406	71.38
666.609	76.38
666.812	83.38
667.015	80.38
667.218	86.38
667.421	87.38
667.624	75.38
667.827	85.38
668.03	90.38
668.232	91.38
668.435	95.38
668.638	83.38
668.841	88.38
669.043	81.38
669.246	71.38
669.449	77.38
669.651	95.38
669.854	91.38
670.057	91.38
670.259	59.38
670.462	71.38
670.665	83.38
670.867	87.38
671.07	77.38
671.272	68.38
671.475	91.38
671.677	88.38
671.88	68.38
672.082	72.38
672.284	93.38
672.487	64.38
672.689	87.38
672.892	72.38
