Data from Fe(NO3)3@0.05M.TitratingCurve.Agarose3%dH2O.NegLispCup.LampEnergy10.LIBS07252019_HRD10591_16-48-32-334.txt Node
Date: Thu Jul 25 16:48:32 EDT 2019
User: cochatt
Spectrometer: HR+D1059
Trigger mode: 1
Integration Time (sec): 1.000000E-1
Scans to average: 1
Electric dark correction enabled: true
Nonlinearity correction enabled: false
Boxcar width: 0
XAxis mode: Wavelengths
Number of Pixels in Spectrum: 2048
>>>>>Begin Spectral Data<<<<<
223.165	-10.12
223.4	-10.12
223.635	-10.12
223.869	-22.12
224.104	-19.12
224.338	-18.12
224.573	-18.12
224.808	-0.12
225.042	-4.12
225.277	-12.12
225.511	-22.12
225.746	5.88
225.98	6.88
226.215	19.88
226.449	16.88
226.683	22.88
226.918	12.88
227.152	40.88
227.387	41.88
227.621	38.88
227.856	19.88
228.09	46.88
228.324	41.88
228.559	57.88
228.793	54.88
229.027	64.88
229.262	74.88
229.496	70.88
229.73	74.88
229.964	86.88
230.199	64.88
230.433	70.88
230.667	97.88
230.901	95.88
231.136	68.88
231.37	81.88
231.604	91.88
231.838	95.88
232.072	83.88
232.306	109.88
232.541	94.88
232.775	86.88
233.009	77.88
233.243	70.88
233.477	90.88
233.711	90.88
233.945	82.88
234.179	79.88
234.413	105.88
234.647	83.88
234.881	86.88
235.115	81.88
235.349	66.88
235.583	80.88
235.817	94.88
236.051	96.88
236.285	82.88
236.519	73.88
236.753	86.88
236.987	98.88
237.221	83.88
237.455	76.88
237.689	89.88
237.922	77.88
238.156	99.88
238.39	89.88
238.624	87.88
238.858	94.88
239.091	85.88
239.325	82.88
239.559	83.88
239.793	91.88
240.027	90.88
240.26	83.88
240.494	97.88
240.728	96.88
240.961	89.88
241.195	87.88
241.429	89.88
241.662	71.88
241.896	103.88
242.13	97.88
242.363	93.88
242.597	84.88
242.83	96.88
243.064	87.88
243.298	83.88
243.531	90.88
243.765	76.88
243.998	87.88
244.232	92.88
244.465	86.88
244.699	89.88
244.932	90.88
245.166	89.88
245.399	104.88
245.633	93.88
245.866	81.88
246.099	87.88
246.333	104.88
246.566	98.88
246.8	89.88
247.033	86.88
247.266	87.88
247.5	104.88
247.733	104.88
247.966	82.88
248.2	95.88
248.433	77.88
248.666	98.88
248.899	90.88
249.133	109.88
249.366	100.88
249.599	95.88
249.832	87.88
250.066	103.88
250.299	98.88
250.532	104.88
250.765	96.88
250.998	92.88
251.231	87.88
251.465	96.88
251.698	92.88
251.931	113.88
252.164	93.88
252.397	92.88
252.63	100.88
252.863	103.88
253.096	119.88
253.329	117.88
253.562	100.88
253.795	98.88
254.028	110.88
254.261	102.88
254.494	89.88
254.727	106.88
254.96	105.88
255.193	96.88
255.426	111.88
255.659	113.88
255.892	112.88
256.124	111.88
256.357	109.88
256.59	101.88
256.823	117.88
257.056	103.88
257.289	101.88
257.521	95.88
257.754	104.88
257.987	99.88
258.22	98.88
258.452	90.88
258.685	106.88
258.918	104.88
259.151	110.88
259.383	109.88
259.616	103.88
259.849	112.88
260.081	120.88
260.314	120.88
260.547	115.88
260.779	120.88
261.012	95.88
261.244	106.88
261.477	111.88
261.71	114.88
261.942	126.88
262.175	122.88
262.407	101.88
262.64	100.88
262.872	126.88
263.105	103.88
263.337	111.88
263.57	122.88
263.802	119.88
264.035	102.88
264.267	114.88
264.499	118.88
264.732	118.88
264.964	105.88
265.197	105.88
265.429	113.88
265.661	119.88
265.894	111.88
266.126	130.88
266.358	109.88
266.591	114.88
266.823	104.88
267.055	95.88
267.287	111.88
267.52	103.88
267.752	109.88
267.984	114.88
268.216	123.88
268.448	131.88
268.681	113.88
268.913	118.88
269.145	119.88
269.377	128.88
269.609	117.88
269.841	133.88
270.073	125.88
270.306	117.88
270.538	114.88
270.77	125.88
271.002	114.88
271.234	112.88
271.466	125.88
271.698	122.88
271.93	112.88
272.162	137.88
272.394	132.88
272.626	123.88
272.858	115.88
273.09	123.88
273.322	126.88
273.553	127.88
273.785	128.88
274.017	116.88
274.249	129.88
274.481	120.88
274.713	116.88
274.945	119.88
275.176	121.88
275.408	135.88
275.64	139.88
275.872	133.88
276.104	120.88
276.335	119.88
276.567	138.88
276.799	126.88
277.031	130.88
277.262	126.88
277.494	123.88
277.726	118.88
277.957	127.88
278.189	121.88
278.421	126.88
278.652	118.88
278.884	121.88
279.115	142.88
279.347	131.88
279.579	118.88
279.81	124.88
280.042	117.88
280.273	125.88
280.505	130.88
280.736	127.88
280.968	131.88
281.199	123.88
281.431	123.88
281.662	128.88
281.894	120.88
282.125	128.88
282.356	121.88
282.588	120.88
282.819	126.88
283.051	127.88
283.282	133.88
283.513	118.88
283.745	122.88
283.976	123.88
284.207	129.88
284.439	141.88
284.67	134.88
284.901	137.88
285.132	131.88
285.364	135.88
285.595	135.88
285.826	114.88
286.057	135.88
286.288	125.88
286.52	127.88
286.751	123.88
286.982	127.88
287.213	119.88
287.444	130.88
287.675	133.88
287.906	126.88
288.138	128.88
288.369	120.88
288.6	130.88
288.831	138.88
289.062	137.88
289.293	120.88
289.524	136.88
289.755	147.88
289.986	127.88
290.217	147.88
290.448	134.88
290.679	156.88
290.91	136.88
291.141	150.88
291.371	122.88
291.602	134.88
291.833	139.88
292.064	121.88
292.295	136.88
292.526	144.88
292.757	131.88
292.987	126.88
293.218	123.88
293.449	144.88
293.68	145.88
293.91	129.88
294.141	133.88
294.372	128.88
294.603	121.88
294.833	138.88
295.064	142.88
295.295	136.88
295.525	138.88
295.756	145.88
295.987	150.88
296.217	154.88
296.448	148.88
296.679	147.88
296.909	139.88
297.14	151.88
297.37	140.88
297.601	146.88
297.831	143.88
298.062	142.88
298.292	146.88
298.523	137.88
298.753	145.88
298.984	134.88
299.214	143.88
299.445	155.88
299.675	145.88
299.905	148.88
300.136	130.88
300.366	142.88
300.597	143.88
300.827	154.88
301.057	125.88
301.288	143.88
301.518	139.88
301.748	165.88
301.979	139.88
302.209	143.88
302.439	143.88
302.669	150.88
302.9	147.88
303.13	140.88
303.36	138.88
303.59	133.88
303.82	148.88
304.051	136.88
304.281	152.88
304.511	143.88
304.741	153.88
304.971	161.88
305.201	159.88
305.431	143.88
305.661	155.88
305.891	143.88
306.121	140.88
306.352	151.88
306.582	149.88
306.812	121.88
307.042	142.88
307.272	141.88
307.502	148.88
307.731	143.88
307.961	147.88
308.191	125.88
308.421	147.88
308.651	149.88
308.881	130.88
309.111	155.88
309.341	153.88
309.571	160.88
309.8	162.88
310.03	152.88
310.26	152.88
310.49	146.88
310.72	142.88
310.949	158.88
311.179	147.88
311.409	155.88
311.639	139.88
311.868	153.88
312.098	148.88
312.328	149.88
312.557	143.88
312.787	169.88
313.017	147.88
313.246	151.88
313.476	156.88
313.706	153.88
313.935	151.88
314.165	153.88
314.394	149.88
314.624	149.88
314.853	140.88
315.083	149.88
315.312	152.88
315.542	152.88
315.771	143.88
316.001	169.88
316.23	147.88
316.46	153.88
316.689	155.88
316.919	177.88
317.148	155.88
317.377	171.88
317.607	155.88
317.836	135.88
318.065	146.88
318.295	145.88
318.524	156.88
318.753	138.88
318.983	158.88
319.212	141.88
319.441	153.88
319.67	147.88
319.9	136.88
320.129	139.88
320.358	144.88
320.587	159.88
320.816	165.88
321.046	148.88
321.275	157.88
321.504	147.88
321.733	152.88
321.962	156.88
322.191	158.88
322.42	147.88
322.649	160.88
322.878	149.88
323.108	148.88
323.337	143.88
323.566	158.88
323.795	155.88
324.024	158.88
324.253	160.88
324.482	147.88
324.71	164.88
324.939	145.88
325.168	157.88
325.397	174.88
325.626	170.88
325.855	160.88
326.084	154.88
326.313	173.88
326.542	158.88
326.77	152.88
326.999	177.88
327.228	159.88
327.457	157.88
327.686	166.88
327.914	153.88
328.143	163.88
328.372	143.88
328.6	150.88
328.829	161.88
329.058	160.88
329.287	148.88
329.515	174.88
329.744	161.88
329.972	158.88
330.201	152.88
330.43	159.88
330.658	166.88
330.887	178.88
331.115	164.88
331.344	175.88
331.572	173.88
331.801	170.88
332.03	175.88
332.258	165.88
332.486	149.88
332.715	183.88
332.943	188.88
333.172	169.88
333.4	178.88
333.629	199.88
333.857	179.88
334.085	194.88
334.314	188.88
334.542	178.88
334.771	179.88
334.999	192.88
335.227	192.88
335.455	186.88
335.684	187.88
335.912	196.88
336.14	179.88
336.369	193.88
336.597	184.88
336.825	182.88
337.053	198.88
337.281	173.88
337.51	173.88
337.738	168.88
337.966	164.88
338.194	177.88
338.422	177.88
338.65	184.88
338.878	195.88
339.106	191.88
339.334	186.88
339.562	162.88
339.79	152.88
340.018	144.88
340.246	170.88
340.474	156.88
340.702	181.88
340.93	148.88
341.158	168.88
341.386	154.88
341.614	159.88
341.842	156.88
342.07	169.88
342.298	166.88
342.526	156.88
342.754	152.88
342.981	170.88
343.209	179.88
343.437	179.88
343.665	177.88
343.893	196.88
344.12	177.88
344.348	178.88
344.576	182.88
344.804	177.88
345.031	181.88
345.259	178.88
345.487	197.88
345.714	157.88
345.942	161.88
346.17	169.88
346.397	183.88
346.625	170.88
346.853	159.88
347.08	153.88
347.308	173.88
347.535	160.88
347.763	169.88
347.99	167.88
348.218	148.88
348.445	165.88
348.673	147.88
348.9	169.88
349.128	177.88
349.355	161.88
349.583	166.88
349.81	167.88
350.037	156.88
350.265	155.88
350.492	174.88
350.72	160.88
350.947	161.88
351.174	171.88
351.402	160.88
351.629	174.88
351.856	167.88
352.083	154.88
352.311	167.88
352.538	167.88
352.765	159.88
352.992	170.88
353.22	175.88
353.447	172.88
353.674	159.88
353.901	166.88
354.128	165.88
354.355	162.88
354.583	156.88
354.81	173.88
355.037	170.88
355.264	158.88
355.491	177.88
355.718	157.88
355.945	177.88
356.172	181.88
356.399	154.88
356.626	169.88
356.853	163.88
357.08	179.88
357.307	171.88
357.534	159.88
357.761	159.88
357.988	164.88
358.215	165.88
358.441	173.88
358.668	173.88
358.895	164.88
359.122	165.88
359.349	179.88
359.576	163.88
359.802	161.88
360.029	182.88
360.256	164.88
360.483	172.88
360.709	166.88
360.936	184.88
361.163	169.88
361.39	166.88
361.616	163.88
361.843	179.88
362.07	158.88
362.296	177.88
362.523	159.88
362.749	165.88
362.976	169.88
363.203	157.88
363.429	157.88
363.656	166.88
363.882	164.88
364.109	157.88
364.335	152.88
364.562	155.88
364.788	169.88
365.015	174.88
365.241	157.88
365.468	149.88
365.694	169.88
365.92	168.88
366.147	158.88
366.373	162.88
366.599	149.88
366.826	167.88
367.052	171.88
367.278	184.88
367.505	156.88
367.731	161.88
367.957	159.88
368.184	173.88
368.41	176.88
368.636	176.88
368.862	173.88
369.089	180.88
369.315	170.88
369.541	173.88
369.767	189.88
369.993	178.88
370.219	159.88
370.445	173.88
370.672	179.88
370.898	160.88
371.124	175.88
371.35	170.88
371.576	184.88
371.802	164.88
372.028	179.88
372.254	193.88
372.48	185.88
372.706	177.88
372.932	194.88
373.158	189.88
373.384	179.88
373.61	192.88
373.835	177.88
374.061	167.88
374.287	186.88
374.513	195.88
374.739	187.88
374.965	198.88
375.191	209.88
375.416	191.88
375.642	186.88
375.868	192.88
376.094	173.88
376.319	185.88
376.545	199.88
376.771	187.88
376.997	188.88
377.222	193.88
377.448	191.88
377.674	182.88
377.899	186.88
378.125	174.88
378.35	169.88
378.576	181.88
378.802	175.88
379.027	178.88
379.253	181.88
379.478	179.88
379.704	171.88
379.929	189.88
380.155	177.88
380.38	182.88
380.606	180.88
380.831	177.88
381.057	191.88
381.282	184.88
381.507	207.88
381.733	187.88
381.958	177.88
382.184	193.88
382.409	185.88
382.634	198.88
382.86	191.88
383.085	210.88
383.31	207.88
383.535	222.88
383.761	205.88
383.986	215.88
384.211	200.88
384.436	206.88
384.662	200.88
384.887	196.88
385.112	212.88
385.337	209.88
385.562	210.88
385.787	225.88
386.013	216.88
386.238	217.88
386.463	213.88
386.688	212.88
386.913	201.88
387.138	204.88
387.363	224.88
387.588	221.88
387.813	217.88
388.038	219.88
388.263	220.88
388.488	200.88
388.713	211.88
388.938	224.88
389.163	208.88
389.387	214.88
389.612	222.88
389.837	227.88
390.062	210.88
390.287	221.88
390.512	215.88
390.736	214.88
390.961	199.88
391.186	229.88
391.411	213.88
391.636	233.88
391.86	240.88
392.085	232.88
392.31	242.88
392.534	234.88
392.759	230.88
392.984	219.88
393.208	231.88
393.433	247.88
393.658	215.88
393.882	217.88
394.107	222.88
394.331	228.88
394.556	239.88
394.78	224.88
395.005	227.88
395.229	234.88
395.454	239.88
395.678	246.88
395.903	238.88
396.127	230.88
396.352	242.88
396.576	229.88
396.801	220.88
397.025	223.88
397.249	233.88
397.474	255.88
397.698	254.88
397.922	247.88
398.147	241.88
398.371	239.88
398.595	266.88
398.82	256.88
399.044	270.88
399.268	293.88
399.492	317.88
399.717	343.88
399.941	329.88
400.165	304.88
400.389	281.88
400.613	285.88
400.837	285.88
401.062	276.88
401.286	276.88
401.51	265.88
401.734	272.88
401.958	276.88
402.182	276.88
402.406	277.88
402.63	265.88
402.854	279.88
403.078	286.88
403.302	274.88
403.526	297.88
403.75	281.88
403.974	284.88
404.198	263.88
404.422	286.88
404.645	281.88
404.869	291.88
405.093	295.88
405.317	304.88
405.541	268.88
405.765	291.88
405.988	287.88
406.212	303.88
406.436	287.88
406.66	297.88
406.883	301.88
407.107	305.88
407.331	305.88
407.555	312.88
407.778	342.88
408.002	311.88
408.226	314.88
408.449	302.88
408.673	291.88
408.896	297.88
409.12	280.88
409.344	277.88
409.567	298.88
409.791	284.88
410.014	301.88
410.238	273.88
410.461	317.88
410.685	293.88
410.908	288.88
411.132	274.88
411.355	282.88
411.578	292.88
411.802	273.88
412.025	286.88
412.249	258.88
412.472	268.88
412.695	285.88
412.919	278.88
413.142	277.88
413.365	285.88
413.589	275.88
413.812	283.88
414.035	274.88
414.258	274.88
414.482	296.88
414.705	291.88
414.928	272.88
415.151	284.88
415.374	287.88
415.597	287.88
415.821	274.88
416.044	264.88
416.267	258.88
416.49	267.88
416.713	266.88
416.936	275.88
417.159	265.88
417.382	274.88
417.605	270.88
417.828	274.88
418.051	280.88
418.274	273.88
418.497	269.88
418.72	273.88
418.943	304.88
419.166	287.88
419.389	293.88
419.611	301.88
419.834	282.88
420.057	280.88
420.28	278.88
420.503	267.88
420.726	261.88
420.948	295.88
421.171	286.88
421.394	273.88
421.617	277.88
421.839	254.88
422.062	276.88
422.285	261.88
422.507	274.88
422.73	285.88
422.953	286.88
423.175	273.88
423.398	289.88
423.621	289.88
423.843	299.88
424.066	303.88
424.288	268.88
424.511	295.88
424.733	259.88
424.956	287.88
425.178	266.88
425.401	291.88
425.623	285.88
425.846	264.88
426.068	277.88
426.291	251.88
426.513	275.88
426.735	270.88
426.958	259.88
427.18	262.88
427.402	277.88
427.625	276.88
427.847	265.88
428.069	264.88
428.292	259.88
428.514	270.88
428.736	269.88
428.958	274.88
429.181	261.88
429.403	275.88
429.625	263.88
429.847	249.88
430.069	230.88
430.292	267.88
430.514	262.88
430.736	252.88
430.958	238.88
431.18	243.88
431.402	245.88
431.624	250.88
431.846	269.88
432.068	259.88
432.29	256.88
432.512	269.88
432.734	260.88
432.956	279.88
433.178	280.88
433.4	264.88
433.622	276.88
433.844	280.88
434.066	264.88
434.287	274.88
434.509	284.88
434.731	285.88
434.953	273.88
435.175	282.88
435.397	283.88
435.618	274.88
435.84	262.88
436.062	256.88
436.284	253.88
436.505	254.88
436.727	266.88
436.949	271.88
437.17	273.88
437.392	264.88
437.614	254.88
437.835	265.88
438.057	257.88
438.278	231.88
438.5	265.88
438.721	257.88
438.943	261.88
439.165	251.88
439.386	270.88
439.608	259.88
439.829	264.88
440.05	265.88
440.272	272.88
440.493	265.88
440.715	273.88
440.936	286.88
441.158	273.88
441.379	277.88
441.6	305.88
441.822	287.88
442.043	306.88
442.264	289.88
442.486	291.88
442.707	303.88
442.928	285.88
443.149	302.88
443.371	303.88
443.592	302.88
443.813	286.88
444.034	296.88
444.255	319.88
444.476	292.88
444.698	328.88
444.919	320.88
445.14	449.88
445.361	361.88
445.582	306.88
445.803	285.88
446.024	282.88
446.245	285.88
446.466	279.88
446.687	289.88
446.908	283.88
447.129	294.88
447.35	286.88
447.571	255.88
447.792	271.88
448.013	277.88
448.234	267.88
448.455	269.88
448.675	265.88
448.896	253.88
449.117	251.88
449.338	266.88
449.559	255.88
449.779	250.88
450	255.88
450.221	259.88
450.442	256.88
450.662	267.88
450.883	261.88
451.104	256.88
451.324	237.88
451.545	248.88
451.766	256.88
451.986	230.88
452.207	257.88
452.428	263.88
452.648	254.88
452.869	237.88
453.089	258.88
453.31	258.88
453.53	240.88
453.751	242.88
453.971	243.88
454.192	237.88
454.412	243.88
454.633	248.88
454.853	242.88
455.073	253.88
455.294	230.88
455.514	241.88
455.734	245.88
455.955	240.88
456.175	246.88
456.395	230.88
456.616	235.88
456.836	240.88
457.056	245.88
457.276	230.88
457.497	271.88
457.717	256.88
457.937	241.88
458.157	226.88
458.377	237.88
458.598	251.88
458.818	257.88
459.038	250.88
459.258	239.88
459.478	246.88
459.698	255.88
459.918	268.88
460.138	301.88
460.358	287.88
460.578	285.88
460.798	295.88
461.018	303.88
461.238	286.88
461.458	306.88
461.678	295.88
461.898	305.88
462.118	303.88
462.338	330.88
462.558	330.88
462.777	318.88
462.997	350.88
463.217	344.88
463.437	361.88
463.657	345.88
463.876	319.88
464.096	343.88
464.316	318.88
464.536	324.88
464.755	334.88
464.975	311.88
465.195	288.88
465.414	296.88
465.634	268.88
465.854	278.88
466.073	265.88
466.293	279.88
466.512	264.88
466.732	261.88
466.951	285.88
467.171	257.88
467.391	260.88
467.61	282.88
467.829	264.88
468.049	262.88
468.268	268.88
468.488	272.88
468.707	264.88
468.927	274.88
469.146	261.88
469.365	268.88
469.585	258.88
469.804	256.88
470.023	259.88
470.243	279.88
470.462	279.88
470.681	262.88
470.901	291.88
471.12	258.88
471.339	277.88
471.558	229.88
471.777	261.88
471.997	262.88
472.216	257.88
472.435	256.88
472.654	245.88
472.873	247.88
473.092	248.88
473.311	277.88
473.53	245.88
473.749	255.88
473.968	268.88
474.187	261.88
474.406	248.88
474.625	266.88
474.844	261.88
475.063	253.88
475.282	230.88
475.501	239.88
475.72	263.88
475.939	262.88
476.158	252.88
476.377	264.88
476.596	270.88
476.814	287.88
477.033	260.88
477.252	262.88
477.471	282.88
477.69	285.88
477.908	275.88
478.127	284.88
478.346	275.88
478.564	299.88
478.783	292.88
479.002	291.88
479.22	298.88
479.439	288.88
479.658	296.88
479.876	290.88
480.095	305.88
480.313	304.88
480.532	306.88
480.751	300.88
480.969	280.88
481.188	278.88
481.406	270.88
481.624	258.88
481.843	272.88
482.061	272.88
482.28	288.88
482.498	272.88
482.717	265.88
482.935	274.88
483.153	272.88
483.372	288.88
483.59	278.88
483.808	283.88
484.027	285.88
484.245	293.88
484.463	290.88
484.681	294.88
484.9	288.88
485.118	292.88
485.336	261.88
485.554	278.88
485.772	277.88
485.99	271.88
486.209	293.88
486.427	278.88
486.645	281.88
486.863	288.88
487.081	303.88
487.299	294.88
487.517	303.88
487.735	304.88
487.953	296.88
488.171	300.88
488.389	291.88
488.607	287.88
488.825	281.88
489.043	271.88
489.261	283.88
489.479	282.88
489.696	288.88
489.914	298.88
490.132	283.88
490.35	299.88
490.568	287.88
490.786	279.88
491.003	307.88
491.221	280.88
491.439	296.88
491.657	309.88
491.874	309.88
492.092	317.88
492.31	311.88
492.527	323.88
492.745	309.88
492.963	309.88
493.18	311.88
493.398	315.88
493.615	300.88
493.833	298.88
494.05	307.88
494.268	305.88
494.485	329.88
494.703	310.88
494.92	310.88
495.138	319.88
495.355	293.88
495.573	317.88
495.79	301.88
496.008	315.88
496.225	313.88
496.442	320.88
496.66	322.88
496.877	311.88
497.094	323.88
497.312	324.88
497.529	343.88
497.746	339.88
497.963	346.88
498.181	371.88
498.398	347.88
498.615	381.88
498.832	375.88
499.049	412.88
499.267	434.88
499.484	466.88
499.701	517.88
499.918	559.88
500.135	573.88
500.352	643.88
500.569	682.88
500.786	656.88
501.003	605.88
501.22	586.88
501.437	539.88
501.654	473.88
501.871	453.88
502.088	409.88
502.305	409.88
502.522	379.88
502.739	377.88
502.956	377.88
503.172	353.88
503.389	335.88
503.606	323.88
503.823	320.88
504.04	319.88
504.256	331.88
504.473	338.88
504.69	333.88
504.907	335.88
505.123	321.88
505.34	307.88
505.557	294.88
505.773	291.88
505.99	284.88
506.207	290.88
506.423	267.88
506.64	290.88
506.856	270.88
507.073	268.88
507.289	285.88
507.506	259.88
507.722	267.88
507.939	266.88
508.155	273.88
508.372	268.88
508.588	259.88
508.805	255.88
509.021	261.88
509.238	266.88
509.454	257.88
509.67	248.88
509.887	259.88
510.103	268.88
510.319	256.88
510.536	241.88
510.752	242.88
510.968	255.88
511.184	233.88
511.401	230.88
511.617	254.88
511.833	245.88
512.049	242.88
512.265	245.88
512.481	260.88
512.698	231.88
512.914	259.88
513.13	246.88
513.346	267.88
513.562	243.88
513.778	242.88
513.994	242.88
514.21	252.88
514.426	242.88
514.642	244.88
514.858	248.88
515.074	247.88
515.29	259.88
515.506	249.88
515.721	238.88
515.937	256.88
516.153	266.88
516.369	275.88
516.585	285.88
516.801	281.88
517.016	279.88
517.232	301.88
517.448	305.88
517.664	309.88
517.879	303.88
518.095	306.88
518.311	319.88
518.527	312.88
518.742	288.88
518.958	293.88
519.173	264.88
519.389	291.88
519.605	273.88
519.82	259.88
520.036	255.88
520.251	248.88
520.467	268.88
520.682	243.88
520.898	259.88
521.113	246.88
521.329	231.88
521.544	240.88
521.76	238.88
521.975	246.88
522.19	241.88
522.406	222.88
522.621	224.88
522.836	231.88
523.052	228.88
523.267	237.88
523.482	225.88
523.698	229.88
523.913	245.88
524.128	243.88
524.343	252.88
524.559	241.88
524.774	234.88
524.989	237.88
525.204	253.88
525.419	255.88
525.634	233.88
525.849	228.88
526.064	229.88
526.28	229.88
526.495	221.88
526.71	223.88
526.925	228.88
527.14	219.88
527.355	222.88
527.57	213.88
527.785	249.88
527.999	243.88
528.214	229.88
528.429	230.88
528.644	246.88
528.859	242.88
529.074	226.88
529.289	232.88
529.503	235.88
529.718	246.88
529.933	232.88
530.148	235.88
530.363	220.88
530.577	239.88
530.792	243.88
531.007	225.88
531.221	230.88
531.436	225.88
531.651	222.88
531.865	240.88
532.08	225.88
532.295	235.88
532.509	225.88
532.724	210.88
532.938	222.88
533.153	232.88
533.367	229.88
533.582	232.88
533.796	221.88
534.011	239.88
534.225	223.88
534.44	229.88
534.654	238.88
534.868	232.88
535.083	237.88
535.297	221.88
535.511	231.88
535.726	226.88
535.94	240.88
536.154	237.88
536.369	239.88
536.583	203.88
536.797	216.88
537.011	219.88
537.225	217.88
537.44	230.88
537.654	222.88
537.868	214.88
538.082	213.88
538.296	212.88
538.51	193.88
538.724	221.88
538.938	213.88
539.153	196.88
539.367	219.88
539.581	206.88
539.795	217.88
540.009	192.88
540.222	225.88
540.436	209.88
540.65	203.88
540.864	212.88
541.078	225.88
541.292	218.88
541.506	225.88
541.72	219.88
541.934	215.88
542.147	220.88
542.361	216.88
542.575	217.88
542.789	215.88
543.002	213.88
543.216	202.88
543.43	227.88
543.644	222.88
543.857	218.88
544.071	233.88
544.285	215.88
544.498	226.88
544.712	238.88
544.925	231.88
545.139	229.88
545.352	243.88
545.566	228.88
545.779	219.88
545.993	234.88
546.206	218.88
546.42	202.88
546.633	222.88
546.847	232.88
547.06	218.88
547.274	215.88
547.487	233.88
547.7	217.88
547.914	218.88
548.127	242.88
548.34	232.88
548.554	226.88
548.767	228.88
548.98	221.88
549.193	220.88
549.407	233.88
549.62	224.88
549.833	221.88
550.046	213.88
550.259	215.88
550.473	220.88
550.686	218.88
550.899	222.88
551.112	230.88
551.325	225.88
551.538	215.88
551.751	223.88
551.964	218.88
552.177	207.88
552.39	214.88
552.603	207.88
552.816	240.88
553.029	237.88
553.242	249.88
553.455	239.88
553.667	250.88
553.88	230.88
554.093	236.88
554.306	224.88
554.519	215.88
554.732	222.88
554.944	239.88
555.157	224.88
555.37	225.88
555.583	222.88
555.795	204.88
556.008	222.88
556.221	221.88
556.433	222.88
556.646	222.88
556.859	218.88
557.071	202.88
557.284	186.88
557.496	210.88
557.709	205.88
557.921	204.88
558.134	222.88
558.346	202.88
558.559	201.88
558.771	211.88
558.984	197.88
559.196	200.88
559.409	191.88
559.621	207.88
559.833	178.88
560.046	196.88
560.258	197.88
560.47	218.88
560.683	196.88
560.895	193.88
561.107	183.88
561.32	174.88
561.532	190.88
561.744	182.88
561.956	209.88
562.168	187.88
562.381	187.88
562.593	208.88
562.805	196.88
563.017	198.88
563.229	207.88
563.441	196.88
563.653	186.88
563.865	199.88
564.077	207.88
564.289	199.88
564.501	207.88
564.713	201.88
564.925	195.88
565.137	210.88
565.349	203.88
565.561	205.88
565.773	228.88
565.985	215.88
566.197	229.88
566.408	246.88
566.62	253.88
566.832	253.88
567.044	258.88
567.255	265.88
567.467	261.88
567.679	282.88
567.891	288.88
568.102	289.88
568.314	272.88
568.526	252.88
568.737	249.88
568.949	248.88
569.161	224.88
569.372	218.88
569.584	210.88
569.795	202.88
570.007	195.88
570.218	188.88
570.43	194.88
570.641	191.88
570.853	185.88
571.064	195.88
571.276	203.88
571.487	177.88
571.698	181.88
571.91	187.88
572.121	179.88
572.333	186.88
572.544	179.88
572.755	168.88
572.966	193.88
573.178	173.88
573.389	170.88
573.6	173.88
573.811	173.88
574.023	179.88
574.234	176.88
574.445	153.88
574.656	170.88
574.867	153.88
575.078	168.88
575.289	169.88
575.501	191.88
575.712	158.88
575.923	164.88
576.134	166.88
576.345	144.88
576.556	179.88
576.767	167.88
576.978	180.88
577.188	167.88
577.399	171.88
577.61	150.88
577.821	151.88
578.032	156.88
578.243	166.88
578.454	160.88
578.665	168.88
578.875	148.88
579.086	137.88
579.297	149.88
579.508	152.88
579.718	167.88
579.929	162.88
580.14	153.88
580.35	156.88
580.561	143.88
580.772	157.88
580.982	144.88
581.193	159.88
581.403	137.88
581.614	157.88
581.825	162.88
582.035	147.88
582.246	145.88
582.456	181.88
582.667	147.88
582.877	151.88
583.087	149.88
583.298	157.88
583.508	160.88
583.719	157.88
583.929	162.88
584.139	139.88
584.35	167.88
584.56	147.88
584.77	153.88
584.981	155.88
585.191	146.88
585.401	155.88
585.611	135.88
585.821	129.88
586.032	140.88
586.242	161.88
586.452	135.88
586.662	139.88
586.872	144.88
587.082	145.88
587.292	146.88
587.502	152.88
587.713	141.88
587.923	152.88
588.133	153.88
588.343	159.88
588.553	173.88
588.762	136.88
588.972	157.88
589.182	150.88
589.392	153.88
589.602	139.88
589.812	150.88
590.022	142.88
590.232	152.88
590.441	142.88
590.651	138.88
590.861	157.88
591.071	154.88
591.281	145.88
591.49	145.88
591.7	153.88
591.91	144.88
592.119	154.88
592.329	167.88
592.539	157.88
592.748	159.88
592.958	152.88
593.167	164.88
593.377	167.88
593.587	175.88
593.796	166.88
594.006	174.88
594.215	170.88
594.424	162.88
594.634	161.88
594.843	153.88
595.053	167.88
595.262	148.88
595.472	151.88
595.681	155.88
595.89	150.88
596.1	141.88
596.309	152.88
596.518	140.88
596.727	139.88
596.937	151.88
597.146	137.88
597.355	142.88
597.564	136.88
597.774	139.88
597.983	134.88
598.192	123.88
598.401	135.88
598.61	131.88
598.819	145.88
599.028	137.88
599.237	145.88
599.446	126.88
599.655	137.88
599.864	130.88
600.073	132.88
600.282	146.88
600.491	123.88
600.7	121.88
600.909	135.88
601.118	131.88
601.327	151.88
601.536	153.88
601.745	140.88
601.953	134.88
602.162	145.88
602.371	127.88
602.58	127.88
602.789	139.88
602.997	135.88
603.206	140.88
603.415	123.88
603.623	123.88
603.832	132.88
604.041	130.88
604.249	128.88
604.458	132.88
604.666	136.88
604.875	121.88
605.084	142.88
605.292	134.88
605.501	123.88
605.709	136.88
605.918	128.88
606.126	127.88
606.334	143.88
606.543	130.88
606.751	116.88
606.96	121.88
607.168	126.88
607.376	138.88
607.585	126.88
607.793	121.88
608.001	125.88
608.21	143.88
608.418	143.88
608.626	135.88
608.834	141.88
609.043	131.88
609.251	122.88
609.459	129.88
609.667	137.88
609.875	122.88
610.083	138.88
610.291	132.88
610.499	132.88
610.707	136.88
610.916	117.88
611.124	135.88
611.332	130.88
611.54	115.88
611.748	112.88
611.955	128.88
612.163	139.88
612.371	138.88
612.579	134.88
612.787	132.88
612.995	143.88
613.203	137.88
613.411	121.88
613.618	120.88
613.826	132.88
614.034	133.88
614.242	147.88
614.449	125.88
614.657	121.88
614.865	122.88
615.072	125.88
615.28	135.88
615.488	139.88
615.695	112.88
615.903	131.88
616.111	133.88
616.318	136.88
616.526	125.88
616.733	142.88
616.941	121.88
617.148	134.88
617.356	129.88
617.563	122.88
617.771	121.88
617.978	133.88
618.185	125.88
618.393	139.88
618.6	119.88
618.807	124.88
619.015	137.88
619.222	128.88
619.429	132.88
619.637	131.88
619.844	135.88
620.051	115.88
620.258	103.88
620.466	121.88
620.673	112.88
620.88	127.88
621.087	131.88
621.294	116.88
621.501	117.88
621.708	125.88
621.915	129.88
622.122	139.88
622.329	122.88
622.536	127.88
622.743	119.88
622.95	118.88
623.157	128.88
623.364	124.88
623.571	117.88
623.778	127.88
623.985	122.88
624.192	127.88
624.399	118.88
624.606	122.88
624.812	120.88
625.019	130.88
625.226	123.88
625.433	126.88
625.639	123.88
625.846	121.88
626.053	128.88
626.259	105.88
626.466	120.88
626.673	118.88
626.879	105.88
627.086	122.88
627.293	129.88
627.499	122.88
627.706	127.88
627.912	113.88
628.119	117.88
628.325	122.88
628.532	119.88
628.738	119.88
628.945	113.88
629.151	106.88
629.357	117.88
629.564	117.88
629.77	142.88
629.976	109.88
630.183	117.88
630.389	116.88
630.595	114.88
630.802	107.88
631.008	114.88
631.214	117.88
631.42	113.88
631.627	127.88
631.833	99.88
632.039	104.88
632.245	116.88
632.451	114.88
632.657	111.88
632.863	103.88
633.069	125.88
633.275	116.88
633.481	125.88
633.688	123.88
633.893	125.88
634.099	112.88
634.305	121.88
634.511	114.88
634.717	123.88
634.923	113.88
635.129	112.88
635.335	119.88
635.541	102.88
635.747	106.88
635.952	105.88
636.158	103.88
636.364	106.88
636.57	104.88
636.775	101.88
636.981	104.88
637.187	119.88
637.392	109.88
637.598	106.88
637.804	103.88
638.009	114.88
638.215	115.88
638.421	119.88
638.626	103.88
638.832	89.88
639.037	109.88
639.243	109.88
639.448	114.88
639.654	134.88
639.859	115.88
640.065	110.88
640.27	110.88
640.475	107.88
640.681	117.88
640.886	94.88
641.091	92.88
641.297	118.88
641.502	104.88
641.707	117.88
641.913	113.88
642.118	120.88
642.323	105.88
642.528	93.88
642.733	106.88
642.939	118.88
643.144	110.88
643.349	109.88
643.554	113.88
643.759	113.88
643.964	110.88
644.169	100.88
644.374	98.88
644.579	104.88
644.784	103.88
644.989	103.88
645.194	112.88
645.399	105.88
645.604	109.88
645.809	108.88
646.014	95.88
646.219	115.88
646.423	113.88
646.628	109.88
646.833	118.88
647.038	118.88
647.243	116.88
647.447	101.88
647.652	96.88
647.857	92.88
648.062	106.88
648.266	91.88
648.471	98.88
648.676	107.88
648.88	113.88
649.085	102.88
649.289	104.88
649.494	106.88
649.698	122.88
649.903	115.88
650.107	110.88
650.312	120.88
650.516	104.88
650.721	99.88
650.925	110.88
651.13	114.88
651.334	95.88
651.539	117.88
651.743	98.88
651.947	106.88
652.152	104.88
652.356	115.88
652.56	103.88
652.764	103.88
652.969	97.88
653.173	104.88
653.377	89.88
653.581	90.88
653.785	107.88
653.99	93.88
654.194	92.88
654.398	92.88
654.602	93.88
654.806	107.88
655.01	107.88
655.214	90.88
655.418	90.88
655.622	110.88
655.826	96.88
656.03	105.88
656.234	83.88
656.438	97.88
656.642	92.88
656.846	99.88
657.049	112.88
657.253	95.88
657.457	97.88
657.661	87.88
657.865	77.88
658.068	79.88
658.272	84.88
658.476	76.88
658.68	79.88
658.883	80.88
659.087	101.88
659.291	84.88
659.494	81.88
659.698	87.88
659.901	87.88
660.105	87.88
660.309	83.88
660.512	82.88
660.716	83.88
660.919	87.88
661.123	87.88
661.326	74.88
661.53	91.88
661.733	75.88
661.936	86.88
662.14	109.88
662.343	81.88
662.546	78.88
662.75	69.88
662.953	74.88
663.156	87.88
663.36	76.88
663.563	77.88
663.766	80.88
663.969	73.88
664.173	79.88
664.376	72.88
664.579	63.88
664.782	80.88
664.985	67.88
665.188	74.88
665.391	81.88
665.594	70.88
665.797	91.88
666	81.88
666.203	80.88
666.406	85.88
666.609	83.88
666.812	83.88
667.015	80.88
667.218	82.88
667.421	89.88
667.624	77.88
667.827	78.88
668.03	82.88
668.232	83.88
668.435	75.88
668.638	72.88
668.841	79.88
669.043	74.88
669.246	79.88
669.449	78.88
669.651	85.88
669.854	76.88
670.057	92.88
670.259	82.88
670.462	65.88
670.665	84.88
670.867	89.88
671.07	75.88
671.272	83.88
671.475	83.88
671.677	80.88
671.88	75.88
672.082	71.88
672.284	87.88
672.487	88.88
672.689	83.88
672.892	73.88
