Data from Fe(NO3)3@0.05M.TitratingCurve.Agarose3%dH2O.NegLispCup.LampEnergy10.LIBS07252019_HRD10591_16-47-56-335.txt Node
Date: Thu Jul 25 16:47:56 EDT 2019
User: cochatt
Spectrometer: HR+D1059
Trigger mode: 1
Integration Time (sec): 1.000000E-1
Scans to average: 1
Electric dark correction enabled: true
Nonlinearity correction enabled: false
Boxcar width: 0
XAxis mode: Wavelengths
Number of Pixels in Spectrum: 2048
>>>>>Begin Spectral Data<<<<<
223.165	-10.12
223.4	-10.12
223.635	-10.12
223.869	-20.12
224.104	-21.12
224.338	-6.12
224.573	-4.12
224.808	-11.12
225.042	-1.12
225.277	-6.12
225.511	-4.12
225.746	8.88
225.98	6.88
226.215	-0.12
226.449	16.88
226.683	11.88
226.918	24.88
227.152	14.88
227.387	29.88
227.621	19.88
227.856	39.88
228.09	36.88
228.324	51.88
228.559	55.88
228.793	53.88
229.027	75.88
229.262	48.88
229.496	68.88
229.73	81.88
229.964	75.88
230.199	75.88
230.433	67.88
230.667	91.88
230.901	89.88
231.136	86.88
231.37	68.88
231.604	78.88
231.838	89.88
232.072	74.88
232.306	86.88
232.541	89.88
232.775	82.88
233.009	76.88
233.243	92.88
233.477	93.88
233.711	76.88
233.945	85.88
234.179	89.88
234.413	94.88
234.647	91.88
234.881	91.88
235.115	81.88
235.349	96.88
235.583	63.88
235.817	83.88
236.051	79.88
236.285	82.88
236.519	73.88
236.753	80.88
236.987	85.88
237.221	83.88
237.455	70.88
237.689	87.88
237.922	81.88
238.156	82.88
238.39	84.88
238.624	93.88
238.858	98.88
239.091	89.88
239.325	88.88
239.559	99.88
239.793	91.88
240.027	95.88
240.26	91.88
240.494	89.88
240.728	98.88
240.961	102.88
241.195	92.88
241.429	87.88
241.662	111.88
241.896	81.88
242.13	72.88
242.363	90.88
242.597	88.88
242.83	82.88
243.064	89.88
243.298	101.88
243.531	77.88
243.765	101.88
243.998	93.88
244.232	97.88
244.465	89.88
244.699	74.88
244.932	90.88
245.166	110.88
245.399	83.88
245.633	87.88
245.866	99.88
246.099	99.88
246.333	104.88
246.566	110.88
246.8	87.88
247.033	95.88
247.266	83.88
247.5	94.88
247.733	99.88
247.966	87.88
248.2	97.88
248.433	95.88
248.666	86.88
248.899	102.88
249.133	101.88
249.366	109.88
249.599	82.88
249.832	90.88
250.066	88.88
250.299	84.88
250.532	88.88
250.765	106.88
250.998	90.88
251.231	85.88
251.465	94.88
251.698	98.88
251.931	104.88
252.164	100.88
252.397	96.88
252.63	103.88
252.863	100.88
253.096	103.88
253.329	103.88
253.562	97.88
253.795	111.88
254.028	105.88
254.261	107.88
254.494	105.88
254.727	108.88
254.96	90.88
255.193	85.88
255.426	114.88
255.659	92.88
255.892	94.88
256.124	94.88
256.357	103.88
256.59	102.88
256.823	95.88
257.056	111.88
257.289	108.88
257.521	111.88
257.754	120.88
257.987	100.88
258.22	85.88
258.452	88.88
258.685	106.88
258.918	96.88
259.151	102.88
259.383	109.88
259.616	113.88
259.849	119.88
260.081	118.88
260.314	136.88
260.547	126.88
260.779	103.88
261.012	115.88
261.244	104.88
261.477	129.88
261.71	110.88
261.942	120.88
262.175	104.88
262.407	92.88
262.64	109.88
262.872	106.88
263.105	123.88
263.337	132.88
263.57	109.88
263.802	102.88
264.035	89.88
264.267	121.88
264.499	94.88
264.732	88.88
264.964	113.88
265.197	108.88
265.429	115.88
265.661	87.88
265.894	103.88
266.126	105.88
266.358	100.88
266.591	102.88
266.823	94.88
267.055	106.88
267.287	114.88
267.52	104.88
267.752	109.88
267.984	107.88
268.216	104.88
268.448	105.88
268.681	106.88
268.913	109.88
269.145	97.88
269.377	114.88
269.609	119.88
269.841	123.88
270.073	97.88
270.306	125.88
270.538	107.88
270.77	93.88
271.002	116.88
271.234	113.88
271.466	123.88
271.698	114.88
271.93	104.88
272.162	115.88
272.394	119.88
272.626	119.88
272.858	125.88
273.09	111.88
273.322	122.88
273.553	103.88
273.785	116.88
274.017	125.88
274.249	138.88
274.481	145.88
274.713	139.88
274.945	157.88
275.176	151.88
275.408	152.88
275.64	140.88
275.872	142.88
276.104	135.88
276.335	121.88
276.567	118.88
276.799	120.88
277.031	119.88
277.262	113.88
277.494	113.88
277.726	114.88
277.957	112.88
278.189	129.88
278.421	119.88
278.652	115.88
278.884	112.88
279.115	135.88
279.347	121.88
279.579	129.88
279.81	120.88
280.042	116.88
280.273	126.88
280.505	109.88
280.736	114.88
280.968	110.88
281.199	123.88
281.431	122.88
281.662	126.88
281.894	122.88
282.125	122.88
282.356	121.88
282.588	119.88
282.819	110.88
283.051	112.88
283.282	104.88
283.513	123.88
283.745	125.88
283.976	111.88
284.207	131.88
284.439	111.88
284.67	133.88
284.901	129.88
285.132	127.88
285.364	122.88
285.595	121.88
285.826	131.88
286.057	127.88
286.288	124.88
286.52	121.88
286.751	132.88
286.982	127.88
287.213	117.88
287.444	126.88
287.675	106.88
287.906	116.88
288.138	115.88
288.369	129.88
288.6	124.88
288.831	122.88
289.062	128.88
289.293	121.88
289.524	113.88
289.755	125.88
289.986	137.88
290.217	115.88
290.448	140.88
290.679	135.88
290.91	129.88
291.141	117.88
291.371	131.88
291.602	125.88
291.833	123.88
292.064	127.88
292.295	133.88
292.526	121.88
292.757	127.88
292.987	125.88
293.218	124.88
293.449	135.88
293.68	126.88
293.91	128.88
294.141	139.88
294.372	132.88
294.603	129.88
294.833	124.88
295.064	139.88
295.295	127.88
295.525	133.88
295.756	120.88
295.987	120.88
296.217	152.88
296.448	142.88
296.679	119.88
296.909	137.88
297.14	130.88
297.37	136.88
297.601	123.88
297.831	133.88
298.062	137.88
298.292	142.88
298.523	137.88
298.753	135.88
298.984	133.88
299.214	137.88
299.445	143.88
299.675	139.88
299.905	126.88
300.136	139.88
300.366	139.88
300.597	131.88
300.827	137.88
301.057	127.88
301.288	133.88
301.518	101.88
301.748	133.88
301.979	138.88
302.209	134.88
302.439	146.88
302.669	154.88
302.9	128.88
303.13	128.88
303.36	138.88
303.59	131.88
303.82	141.88
304.051	133.88
304.281	137.88
304.511	149.88
304.741	129.88
304.971	131.88
305.201	136.88
305.431	138.88
305.661	149.88
305.891	148.88
306.121	146.88
306.352	147.88
306.582	141.88
306.812	126.88
307.042	143.88
307.272	143.88
307.502	127.88
307.731	133.88
307.961	139.88
308.191	136.88
308.421	136.88
308.651	145.88
308.881	136.88
309.111	145.88
309.341	151.88
309.571	160.88
309.8	143.88
310.03	142.88
310.26	135.88
310.49	150.88
310.72	139.88
310.949	128.88
311.179	146.88
311.409	137.88
311.639	139.88
311.868	125.88
312.098	130.88
312.328	148.88
312.557	145.88
312.787	146.88
313.017	154.88
313.246	143.88
313.476	134.88
313.706	151.88
313.935	148.88
314.165	147.88
314.394	138.88
314.624	157.88
314.853	149.88
315.083	138.88
315.312	148.88
315.542	129.88
315.771	145.88
316.001	147.88
316.23	149.88
316.46	162.88
316.689	162.88
316.919	153.88
317.148	145.88
317.377	153.88
317.607	135.88
317.836	132.88
318.065	135.88
318.295	142.88
318.524	141.88
318.753	138.88
318.983	143.88
319.212	154.88
319.441	135.88
319.67	143.88
319.9	132.88
320.129	143.88
320.358	149.88
320.587	157.88
320.816	151.88
321.046	143.88
321.275	166.88
321.504	151.88
321.733	142.88
321.962	133.88
322.191	154.88
322.42	158.88
322.649	155.88
322.878	155.88
323.108	155.88
323.337	163.88
323.566	164.88
323.795	149.88
324.024	157.88
324.253	136.88
324.482	158.88
324.71	157.88
324.939	141.88
325.168	157.88
325.397	154.88
325.626	154.88
325.855	161.88
326.084	152.88
326.313	151.88
326.542	145.88
326.77	149.88
326.999	166.88
327.228	165.88
327.457	153.88
327.686	160.88
327.914	140.88
328.143	150.88
328.372	166.88
328.6	152.88
328.829	161.88
329.058	151.88
329.287	145.88
329.515	166.88
329.744	176.88
329.972	160.88
330.201	154.88
330.43	139.88
330.658	146.88
330.887	153.88
331.115	169.88
331.344	153.88
331.572	167.88
331.801	155.88
332.03	153.88
332.258	139.88
332.486	162.88
332.715	163.88
332.943	161.88
333.172	150.88
333.4	158.88
333.629	173.88
333.857	169.88
334.085	168.88
334.314	175.88
334.542	184.88
334.771	167.88
334.999	174.88
335.227	161.88
335.455	173.88
335.684	186.88
335.912	183.88
336.14	176.88
336.369	171.88
336.597	159.88
336.825	175.88
337.053	170.88
337.281	169.88
337.51	160.88
337.738	169.88
337.966	165.88
338.194	185.88
338.422	153.88
338.65	151.88
338.878	151.88
339.106	171.88
339.334	161.88
339.562	156.88
339.79	155.88
340.018	153.88
340.246	159.88
340.474	164.88
340.702	159.88
340.93	148.88
341.158	169.88
341.386	150.88
341.614	183.88
341.842	161.88
342.07	150.88
342.298	169.88
342.526	162.88
342.754	180.88
342.981	173.88
343.209	170.88
343.437	166.88
343.665	190.88
343.893	167.88
344.12	186.88
344.348	195.88
344.576	163.88
344.804	160.88
345.031	177.88
345.259	163.88
345.487	152.88
345.714	168.88
345.942	149.88
346.17	179.88
346.397	148.88
346.625	149.88
346.853	173.88
347.08	166.88
347.308	158.88
347.535	168.88
347.763	166.88
347.99	166.88
348.218	167.88
348.445	165.88
348.673	159.88
348.9	163.88
349.128	170.88
349.355	162.88
349.583	151.88
349.81	168.88
350.037	160.88
350.265	171.88
350.492	162.88
350.72	171.88
350.947	160.88
351.174	160.88
351.402	154.88
351.629	168.88
351.856	163.88
352.083	164.88
352.311	178.88
352.538	153.88
352.765	167.88
352.992	159.88
353.22	164.88
353.447	165.88
353.674	172.88
353.901	168.88
354.128	178.88
354.355	165.88
354.583	146.88
354.81	172.88
355.037	174.88
355.264	172.88
355.491	154.88
355.718	175.88
355.945	162.88
356.172	169.88
356.399	175.88
356.626	165.88
356.853	163.88
357.08	193.88
357.307	178.88
357.534	189.88
357.761	177.88
357.988	178.88
358.215	184.88
358.441	183.88
358.668	164.88
358.895	173.88
359.122	167.88
359.349	183.88
359.576	157.88
359.802	167.88
360.029	171.88
360.256	167.88
360.483	167.88
360.709	154.88
360.936	175.88
361.163	186.88
361.39	171.88
361.616	173.88
361.843	182.88
362.07	176.88
362.296	160.88
362.523	145.88
362.749	170.88
362.976	173.88
363.203	173.88
363.429	180.88
363.656	162.88
363.882	186.88
364.109	173.88
364.335	166.88
364.562	167.88
364.788	175.88
365.015	163.88
365.241	179.88
365.468	177.88
365.694	171.88
365.92	178.88
366.147	168.88
366.373	167.88
366.599	162.88
366.826	186.88
367.052	166.88
367.278	175.88
367.505	181.88
367.731	181.88
367.957	174.88
368.184	192.88
368.41	177.88
368.636	170.88
368.862	177.88
369.089	185.88
369.315	193.88
369.541	185.88
369.767	194.88
369.993	181.88
370.219	181.88
370.445	170.88
370.672	189.88
370.898	174.88
371.124	169.88
371.35	178.88
371.576	176.88
371.802	184.88
372.028	197.88
372.254	208.88
372.48	189.88
372.706	200.88
372.932	203.88
373.158	181.88
373.384	201.88
373.61	203.88
373.835	221.88
374.061	185.88
374.287	194.88
374.513	199.88
374.739	197.88
374.965	200.88
375.191	206.88
375.416	206.88
375.642	199.88
375.868	200.88
376.094	198.88
376.319	194.88
376.545	203.88
376.771	213.88
376.997	187.88
377.222	179.88
377.448	184.88
377.674	194.88
377.899	197.88
378.125	203.88
378.35	192.88
378.576	185.88
378.802	199.88
379.027	201.88
379.253	198.88
379.478	187.88
379.704	200.88
379.929	208.88
380.155	193.88
380.38	193.88
380.606	208.88
380.831	207.88
381.057	194.88
381.282	197.88
381.507	226.88
381.733	209.88
381.958	223.88
382.184	204.88
382.409	221.88
382.634	213.88
382.86	229.88
383.085	221.88
383.31	223.88
383.535	216.88
383.761	234.88
383.986	231.88
384.211	234.88
384.436	220.88
384.662	232.88
384.887	220.88
385.112	232.88
385.337	239.88
385.562	249.88
385.787	239.88
386.013	227.88
386.238	226.88
386.463	231.88
386.688	233.88
386.913	223.88
387.138	204.88
387.363	219.88
387.588	251.88
387.813	232.88
388.038	231.88
388.263	217.88
388.488	231.88
388.713	231.88
388.938	242.88
389.163	225.88
389.387	249.88
389.612	228.88
389.837	247.88
390.062	225.88
390.287	247.88
390.512	245.88
390.736	235.88
390.961	252.88
391.186	243.88
391.411	249.88
391.636	247.88
391.86	252.88
392.085	251.88
392.31	259.88
392.534	249.88
392.759	247.88
392.984	250.88
393.208	240.88
393.433	234.88
393.658	251.88
393.882	243.88
394.107	257.88
394.331	257.88
394.556	240.88
394.78	237.88
395.005	264.88
395.229	237.88
395.454	265.88
395.678	253.88
395.903	245.88
396.127	242.88
396.352	232.88
396.576	283.88
396.801	259.88
397.025	271.88
397.249	265.88
397.474	255.88
397.698	257.88
397.922	256.88
398.147	271.88
398.371	271.88
398.595	270.88
398.82	264.88
399.044	279.88
399.268	292.88
399.492	320.88
399.717	333.88
399.941	327.88
400.165	307.88
400.389	306.88
400.613	306.88
400.837	273.88
401.062	283.88
401.286	297.88
401.51	290.88
401.734	281.88
401.958	284.88
402.182	273.88
402.406	277.88
402.63	273.88
402.854	295.88
403.078	284.88
403.302	288.88
403.526	310.88
403.75	281.88
403.974	287.88
404.198	291.88
404.422	294.88
404.645	288.88
404.869	297.88
405.093	281.88
405.317	281.88
405.541	283.88
405.765	299.88
405.988	293.88
406.212	294.88
406.436	314.88
406.66	307.88
406.883	309.88
407.107	320.88
407.331	330.88
407.555	329.88
407.778	318.88
408.002	327.88
408.226	319.88
408.449	316.88
408.673	318.88
408.896	303.88
409.12	319.88
409.344	329.88
409.567	312.88
409.791	306.88
410.014	316.88
410.238	312.88
410.461	323.88
410.685	291.88
410.908	304.88
411.132	316.88
411.355	310.88
411.578	306.88
411.802	306.88
412.025	307.88
412.249	319.88
412.472	314.88
412.695	305.88
412.919	305.88
413.142	293.88
413.365	315.88
413.589	299.88
413.812	291.88
414.035	301.88
414.258	296.88
414.482	289.88
414.705	303.88
414.928	299.88
415.151	297.88
415.374	302.88
415.597	296.88
415.821	303.88
416.044	293.88
416.267	285.88
416.49	286.88
416.713	296.88
416.936	289.88
417.159	292.88
417.382	306.88
417.605	297.88
417.828	279.88
418.051	277.88
418.274	297.88
418.497	295.88
418.72	294.88
418.943	307.88
419.166	305.88
419.389	289.88
419.611	299.88
419.834	312.88
420.057	312.88
420.28	303.88
420.503	307.88
420.726	310.88
420.948	291.88
421.171	290.88
421.394	310.88
421.617	290.88
421.839	301.88
422.062	294.88
422.285	296.88
422.507	306.88
422.73	307.88
422.953	316.88
423.175	302.88
423.398	301.88
423.621	283.88
423.843	315.88
424.066	311.88
424.288	314.88
424.511	306.88
424.733	298.88
424.956	310.88
425.178	302.88
425.401	314.88
425.623	301.88
425.846	302.88
426.068	301.88
426.291	309.88
426.513	285.88
426.735	277.88
426.958	291.88
427.18	288.88
427.402	308.88
427.625	285.88
427.847	301.88
428.069	302.88
428.292	291.88
428.514	303.88
428.736	289.88
428.958	311.88
429.181	313.88
429.403	293.88
429.625	303.88
429.847	305.88
430.069	297.88
430.292	311.88
430.514	295.88
430.736	313.88
430.958	292.88
431.18	309.88
431.402	312.88
431.624	289.88
431.846	286.88
432.068	279.88
432.29	299.88
432.512	298.88
432.734	302.88
432.956	318.88
433.178	326.88
433.4	315.88
433.622	312.88
433.844	304.88
434.066	319.88
434.287	314.88
434.509	308.88
434.731	318.88
434.953	319.88
435.175	330.88
435.397	321.88
435.618	320.88
435.84	302.88
436.062	314.88
436.284	330.88
436.505	327.88
436.727	312.88
436.949	309.88
437.17	313.88
437.392	319.88
437.614	306.88
437.835	296.88
438.057	282.88
438.278	279.88
438.5	298.88
438.721	315.88
438.943	290.88
439.165	303.88
439.386	313.88
439.608	319.88
439.829	301.88
440.05	320.88
440.272	311.88
440.493	321.88
440.715	345.88
440.936	325.88
441.158	330.88
441.379	341.88
441.6	321.88
441.822	346.88
442.043	350.88
442.264	325.88
442.486	306.88
442.707	337.88
442.928	333.88
443.149	324.88
443.371	339.88
443.592	349.88
443.813	331.88
444.034	336.88
444.255	352.88
444.476	346.88
444.698	350.88
444.919	347.88
445.14	461.88
445.361	413.88
445.582	349.88
445.803	323.88
446.024	332.88
446.245	341.88
446.466	341.88
446.687	321.88
446.908	321.88
447.129	310.88
447.35	322.88
447.571	317.88
447.792	312.88
448.013	291.88
448.234	314.88
448.455	307.88
448.675	303.88
448.896	310.88
449.117	307.88
449.338	304.88
449.559	303.88
449.779	283.88
450	297.88
450.221	296.88
450.442	309.88
450.662	310.88
450.883	303.88
451.104	295.88
451.324	301.88
451.545	313.88
451.766	298.88
451.986	294.88
452.207	298.88
452.428	314.88
452.648	299.88
452.869	288.88
453.089	273.88
453.31	293.88
453.53	285.88
453.751	295.88
453.971	278.88
454.192	282.88
454.412	271.88
454.633	277.88
454.853	282.88
455.073	295.88
455.294	269.88
455.514	279.88
455.734	272.88
455.955	269.88
456.175	263.88
456.395	280.88
456.616	289.88
456.836	293.88
457.056	311.88
457.276	268.88
457.497	281.88
457.717	280.88
457.937	305.88
458.157	290.88
458.377	281.88
458.598	295.88
458.818	302.88
459.038	304.88
459.258	310.88
459.478	302.88
459.698	307.88
459.918	305.88
460.138	324.88
460.358	339.88
460.578	337.88
460.798	338.88
461.018	347.88
461.238	339.88
461.458	338.88
461.678	334.88
461.898	352.88
462.118	339.88
462.338	347.88
462.558	374.88
462.777	368.88
462.997	370.88
463.217	390.88
463.437	401.88
463.657	375.88
463.876	365.88
464.096	382.88
464.316	363.88
464.536	354.88
464.755	370.88
464.975	342.88
465.195	341.88
465.414	326.88
465.634	333.88
465.854	329.88
466.073	352.88
466.293	344.88
466.512	332.88
466.732	332.88
466.951	327.88
467.171	334.88
467.391	316.88
467.61	318.88
467.829	316.88
468.049	312.88
468.268	321.88
468.488	322.88
468.707	315.88
468.927	333.88
469.146	326.88
469.365	338.88
469.585	320.88
469.804	336.88
470.023	338.88
470.243	323.88
470.462	330.88
470.681	310.88
470.901	335.88
471.12	329.88
471.339	317.88
471.558	308.88
471.777	327.88
471.997	329.88
472.216	337.88
472.435	327.88
472.654	319.88
472.873	304.88
473.092	327.88
473.311	322.88
473.53	320.88
473.749	322.88
473.968	319.88
474.187	336.88
474.406	320.88
474.625	341.88
474.844	319.88
475.063	330.88
475.282	335.88
475.501	313.88
475.72	328.88
475.939	331.88
476.158	355.88
476.377	354.88
476.596	350.88
476.814	338.88
477.033	342.88
477.252	338.88
477.471	350.88
477.69	347.88
477.908	368.88
478.127	373.88
478.346	379.88
478.564	365.88
478.783	375.88
479.002	384.88
479.22	395.88
479.439	381.88
479.658	392.88
479.876	366.88
480.095	381.88
480.313	405.88
480.532	394.88
480.751	386.88
480.969	373.88
481.188	376.88
481.406	393.88
481.624	387.88
481.843	377.88
482.061	368.88
482.28	391.88
482.498	393.88
482.717	404.88
482.935	401.88
483.153	411.88
483.372	410.88
483.59	400.88
483.808	410.88
484.027	421.88
484.245	413.88
484.463	384.88
484.681	409.88
484.9	383.88
485.118	389.88
485.336	401.88
485.554	397.88
485.772	407.88
485.99	391.88
486.209	411.88
486.427	392.88
486.645	408.88
486.863	416.88
487.081	401.88
487.299	397.88
487.517	401.88
487.735	403.88
487.953	425.88
488.171	448.88
488.389	407.88
488.607	412.88
488.825	418.88
489.043	393.88
489.261	399.88
489.479	412.88
489.696	393.88
489.914	385.88
490.132	429.88
490.35	387.88
490.568	403.88
490.786	423.88
491.003	412.88
491.221	432.88
491.439	419.88
491.657	400.88
491.874	413.88
492.092	431.88
492.31	433.88
492.527	412.88
492.745	425.88
492.963	419.88
493.18	446.88
493.398	421.88
493.615	417.88
493.833	402.88
494.05	424.88
494.268	433.88
494.485	415.88
494.703	409.88
494.92	425.88
495.138	402.88
495.355	423.88
495.573	415.88
495.79	431.88
496.008	425.88
496.225	420.88
496.442	409.88
496.66	424.88
496.877	431.88
497.094	419.88
497.312	429.88
497.529	428.88
497.746	446.88
497.963	419.88
498.181	456.88
498.398	455.88
498.615	486.88
498.832	481.88
499.049	485.88
499.267	500.88
499.484	537.88
499.701	561.88
499.918	569.88
500.135	591.88
500.352	606.88
500.569	619.88
500.786	658.88
501.003	610.88
501.22	597.88
501.437	569.88
501.654	534.88
501.871	505.88
502.088	495.88
502.305	485.88
502.522	459.88
502.739	462.88
502.956	454.88
503.172	426.88
503.389	431.88
503.606	423.88
503.823	402.88
504.04	423.88
504.256	400.88
504.473	405.88
504.69	393.88
504.907	398.88
505.123	393.88
505.34	393.88
505.557	371.88
505.773	387.88
505.99	384.88
506.207	358.88
506.423	347.88
506.64	377.88
506.856	369.88
507.073	357.88
507.289	357.88
507.506	360.88
507.722	350.88
507.939	358.88
508.155	346.88
508.372	318.88
508.588	316.88
508.805	335.88
509.021	337.88
509.238	341.88
509.454	328.88
509.67	330.88
509.887	336.88
510.103	304.88
510.319	315.88
510.536	320.88
510.752	325.88
510.968	330.88
511.184	328.88
511.401	307.88
511.617	321.88
511.833	313.88
512.049	331.88
512.265	326.88
512.481	324.88
512.698	300.88
512.914	335.88
513.13	313.88
513.346	317.88
513.562	324.88
513.778	307.88
513.994	305.88
514.21	317.88
514.426	336.88
514.642	335.88
514.858	321.88
515.074	327.88
515.29	318.88
515.506	335.88
515.721	324.88
515.937	332.88
516.153	329.88
516.369	337.88
516.585	344.88
516.801	350.88
517.016	343.88
517.232	355.88
517.448	361.88
517.664	372.88
517.879	372.88
518.095	333.88
518.311	350.88
518.527	360.88
518.742	330.88
518.958	354.88
519.173	347.88
519.389	323.88
519.605	344.88
519.82	331.88
520.036	363.88
520.251	335.88
520.467	331.88
520.682	323.88
520.898	313.88
521.113	312.88
521.329	324.88
521.544	306.88
521.76	315.88
521.975	317.88
522.19	320.88
522.406	301.88
522.621	311.88
522.836	312.88
523.052	296.88
523.267	305.88
523.482	292.88
523.698	318.88
523.913	314.88
524.128	317.88
524.343	317.88
524.559	313.88
524.774	306.88
524.989	302.88
525.204	301.88
525.419	309.88
525.634	303.88
525.849	315.88
526.064	312.88
526.28	295.88
526.495	301.88
526.71	306.88
526.925	295.88
527.14	295.88
527.355	302.88
527.57	287.88
527.785	289.88
527.999	301.88
528.214	291.88
528.429	306.88
528.644	295.88
528.859	313.88
529.074	297.88
529.289	309.88
529.503	302.88
529.718	310.88
529.933	296.88
530.148	303.88
530.363	303.88
530.577	298.88
530.792	305.88
531.007	284.88
531.221	289.88
531.436	300.88
531.651	286.88
531.865	272.88
532.08	289.88
532.295	289.88
532.509	284.88
532.724	288.88
532.938	288.88
533.153	301.88
533.367	298.88
533.582	295.88
533.796	316.88
534.011	291.88
534.225	290.88
534.44	300.88
534.654	292.88
534.868	278.88
535.083	273.88
535.297	278.88
535.511	283.88
535.726	294.88
535.94	307.88
536.154	290.88
536.369	291.88
536.583	286.88
536.797	273.88
537.011	289.88
537.225	271.88
537.44	294.88
537.654	282.88
537.868	276.88
538.082	290.88
538.296	288.88
538.51	281.88
538.724	307.88
538.938	282.88
539.153	275.88
539.367	290.88
539.581	279.88
539.795	274.88
540.009	301.88
540.222	278.88
540.436	291.88
540.65	266.88
540.864	268.88
541.078	298.88
541.292	293.88
541.506	292.88
541.72	305.88
541.934	293.88
542.147	294.88
542.361	292.88
542.575	279.88
542.789	288.88
543.002	264.88
543.216	271.88
543.43	279.88
543.644	265.88
543.857	277.88
544.071	294.88
544.285	272.88
544.498	281.88
544.712	282.88
544.925	279.88
545.139	315.88
545.352	301.88
545.566	301.88
545.779	293.88
545.993	285.88
546.206	292.88
546.42	296.88
546.633	278.88
546.847	279.88
547.06	279.88
547.274	298.88
547.487	293.88
547.7	283.88
547.914	287.88
548.127	298.88
548.34	272.88
548.554	257.88
548.767	293.88
548.98	274.88
549.193	288.88
549.407	291.88
549.62	302.88
549.833	304.88
550.046	297.88
550.259	282.88
550.473	268.88
550.686	278.88
550.899	290.88
551.112	277.88
551.325	292.88
551.538	274.88
551.751	275.88
551.964	271.88
552.177	266.88
552.39	260.88
552.603	266.88
552.816	285.88
553.029	272.88
553.242	272.88
553.455	288.88
553.667	277.88
553.88	285.88
554.093	272.88
554.306	279.88
554.519	270.88
554.732	258.88
554.944	289.88
555.157	274.88
555.37	261.88
555.583	254.88
555.795	273.88
556.008	276.88
556.221	241.88
556.433	274.88
556.646	247.88
556.859	259.88
557.071	268.88
557.284	257.88
557.496	254.88
557.709	253.88
557.921	247.88
558.134	274.88
558.346	254.88
558.559	252.88
558.771	262.88
558.984	272.88
559.196	263.88
559.409	236.88
559.621	262.88
559.833	257.88
560.046	247.88
560.258	246.88
560.47	248.88
560.683	246.88
560.895	254.88
561.107	242.88
561.32	243.88
561.532	236.88
561.744	246.88
561.956	255.88
562.168	257.88
562.381	253.88
562.593	251.88
562.805	253.88
563.017	253.88
563.229	251.88
563.441	243.88
563.653	258.88
563.865	257.88
564.077	245.88
564.289	261.88
564.501	250.88
564.713	253.88
564.925	267.88
565.137	244.88
565.349	259.88
565.561	253.88
565.773	271.88
565.985	289.88
566.197	265.88
566.408	286.88
566.62	282.88
566.832	294.88
567.044	287.88
567.255	294.88
567.467	289.88
567.679	305.88
567.891	318.88
568.102	301.88
568.314	295.88
568.526	287.88
568.737	273.88
568.949	264.88
569.161	260.88
569.372	245.88
569.584	253.88
569.795	236.88
570.007	243.88
570.218	226.88
570.43	227.88
570.641	228.88
570.853	234.88
571.064	229.88
571.276	229.88
571.487	240.88
571.698	232.88
571.91	237.88
572.121	225.88
572.333	203.88
572.544	211.88
572.755	208.88
572.966	214.88
573.178	220.88
573.389	215.88
573.6	221.88
573.811	195.88
574.023	196.88
574.234	198.88
574.445	221.88
574.656	195.88
574.867	194.88
575.078	216.88
575.289	196.88
575.501	209.88
575.712	201.88
575.923	191.88
576.134	204.88
576.345	205.88
576.556	212.88
576.767	208.88
576.978	204.88
577.188	218.88
577.399	200.88
577.61	197.88
577.821	190.88
578.032	186.88
578.243	199.88
578.454	195.88
578.665	196.88
578.875	193.88
579.086	199.88
579.297	192.88
579.508	190.88
579.718	176.88
579.929	177.88
580.14	197.88
580.35	180.88
580.561	204.88
580.772	198.88
580.982	207.88
581.193	196.88
581.403	210.88
581.614	183.88
581.825	193.88
582.035	195.88
582.246	194.88
582.456	188.88
582.667	183.88
582.877	182.88
583.087	169.88
583.298	182.88
583.508	184.88
583.719	185.88
583.929	185.88
584.139	182.88
584.35	202.88
584.56	194.88
584.77	175.88
584.981	183.88
585.191	171.88
585.401	174.88
585.611	167.88
585.821	175.88
586.032	166.88
586.242	192.88
586.452	194.88
586.662	167.88
586.872	169.88
587.082	183.88
587.292	182.88
587.502	181.88
587.713	170.88
587.923	162.88
588.133	164.88
588.343	191.88
588.553	183.88
588.762	180.88
588.972	189.88
589.182	194.88
589.392	187.88
589.602	169.88
589.812	208.88
590.022	191.88
590.232	184.88
590.441	193.88
590.651	189.88
590.861	179.88
591.071	164.88
591.281	186.88
591.49	177.88
591.7	182.88
591.91	193.88
592.119	195.88
592.329	185.88
592.539	189.88
592.748	193.88
592.958	186.88
593.167	170.88
593.377	179.88
593.587	207.88
593.796	191.88
594.006	181.88
594.215	183.88
594.424	185.88
594.634	190.88
594.843	169.88
595.053	183.88
595.262	180.88
595.472	180.88
595.681	176.88
595.89	183.88
596.1	182.88
596.309	195.88
596.518	185.88
596.727	179.88
596.937	167.88
597.146	170.88
597.355	160.88
597.564	162.88
597.774	167.88
597.983	163.88
598.192	161.88
598.401	161.88
598.61	176.88
598.819	146.88
599.028	169.88
599.237	176.88
599.446	169.88
599.655	161.88
599.864	166.88
600.073	165.88
600.282	173.88
600.491	175.88
600.7	156.88
600.909	175.88
601.118	154.88
601.327	163.88
601.536	169.88
601.745	161.88
601.953	163.88
602.162	157.88
602.371	150.88
602.58	168.88
602.789	153.88
602.997	149.88
603.206	177.88
603.415	169.88
603.623	160.88
603.832	168.88
604.041	151.88
604.249	162.88
604.458	151.88
604.666	143.88
604.875	149.88
605.084	157.88
605.292	159.88
605.501	165.88
605.709	162.88
605.918	171.88
606.126	159.88
606.334	165.88
606.543	153.88
606.751	170.88
606.96	153.88
607.168	170.88
607.376	169.88
607.585	157.88
607.793	158.88
608.001	152.88
608.21	151.88
608.418	157.88
608.626	143.88
608.834	153.88
609.043	152.88
609.251	168.88
609.459	158.88
609.667	145.88
609.875	168.88
610.083	161.88
610.291	162.88
610.499	156.88
610.707	167.88
610.916	161.88
611.124	150.88
611.332	155.88
611.54	162.88
611.748	164.88
611.955	149.88
612.163	149.88
612.371	150.88
612.579	142.88
612.787	163.88
612.995	158.88
613.203	163.88
613.411	149.88
613.618	156.88
613.826	154.88
614.034	153.88
614.242	154.88
614.449	145.88
614.657	144.88
614.865	162.88
615.072	147.88
615.28	145.88
615.488	149.88
615.695	155.88
615.903	159.88
616.111	145.88
616.318	167.88
616.526	145.88
616.733	153.88
616.941	153.88
617.148	164.88
617.356	145.88
617.563	145.88
617.771	152.88
617.978	142.88
618.185	135.88
618.393	148.88
618.6	158.88
618.807	159.88
619.015	148.88
619.222	146.88
619.429	136.88
619.637	141.88
619.844	139.88
620.051	154.88
620.258	157.88
620.466	138.88
620.673	157.88
620.88	139.88
621.087	139.88
621.294	134.88
621.501	145.88
621.708	151.88
621.915	159.88
622.122	143.88
622.329	153.88
622.536	151.88
622.743	157.88
622.95	127.88
623.157	140.88
623.364	146.88
623.571	143.88
623.778	135.88
623.985	147.88
624.192	146.88
624.399	149.88
624.606	147.88
624.812	139.88
625.019	151.88
625.226	136.88
625.433	146.88
625.639	145.88
625.846	139.88
626.053	137.88
626.259	129.88
626.466	147.88
626.673	134.88
626.879	130.88
627.086	143.88
627.293	137.88
627.499	155.88
627.706	140.88
627.912	131.88
628.119	136.88
628.325	131.88
628.532	129.88
628.738	137.88
628.945	134.88
629.151	141.88
629.357	153.88
629.564	131.88
629.77	150.88
629.976	149.88
630.183	142.88
630.389	135.88
630.595	142.88
630.802	153.88
631.008	144.88
631.214	141.88
631.42	133.88
631.627	137.88
631.833	137.88
632.039	145.88
632.245	133.88
632.451	132.88
632.657	125.88
632.863	131.88
633.069	144.88
633.275	127.88
633.481	122.88
633.688	142.88
633.893	134.88
634.099	125.88
634.305	129.88
634.511	126.88
634.717	133.88
634.923	125.88
635.129	138.88
635.335	122.88
635.541	137.88
635.747	131.88
635.952	129.88
636.158	131.88
636.364	130.88
636.57	132.88
636.775	119.88
636.981	121.88
637.187	141.88
637.392	125.88
637.598	151.88
637.804	129.88
638.009	129.88
638.215	135.88
638.421	118.88
638.626	131.88
638.832	124.88
639.037	123.88
639.243	145.88
639.448	121.88
639.654	142.88
639.859	126.88
640.065	132.88
640.27	138.88
640.475	125.88
640.681	136.88
640.886	109.88
641.091	120.88
641.297	142.88
641.502	143.88
641.707	134.88
641.913	112.88
642.118	133.88
642.323	125.88
642.528	124.88
642.733	127.88
642.939	133.88
643.144	118.88
643.349	123.88
643.554	126.88
643.759	131.88
643.964	125.88
644.169	121.88
644.374	120.88
644.579	123.88
644.784	126.88
644.989	127.88
645.194	126.88
645.399	129.88
645.604	125.88
645.809	128.88
646.014	128.88
646.219	135.88
646.423	122.88
646.628	132.88
646.833	147.88
647.038	141.88
647.243	133.88
647.447	137.88
647.652	133.88
647.857	140.88
648.062	149.88
648.266	129.88
648.471	122.88
648.676	140.88
648.88	148.88
649.085	151.88
649.289	143.88
649.494	133.88
649.698	130.88
649.903	152.88
650.107	140.88
650.312	130.88
650.516	143.88
650.721	129.88
650.925	129.88
651.13	122.88
651.334	130.88
651.539	136.88
651.743	129.88
651.947	142.88
652.152	137.88
652.356	141.88
652.56	138.88
652.764	136.88
652.969	131.88
653.173	135.88
653.377	123.88
653.581	136.88
653.785	127.88
653.99	141.88
654.194	155.88
654.398	141.88
654.602	145.88
654.806	152.88
655.01	143.88
655.214	143.88
655.418	146.88
655.622	139.88
655.826	158.88
656.03	155.88
656.234	169.88
656.438	158.88
656.642	167.88
656.846	139.88
657.049	156.88
657.253	142.88
657.457	140.88
657.661	126.88
657.865	143.88
658.068	124.88
658.272	114.88
658.476	122.88
658.68	114.88
658.883	109.88
659.087	98.88
659.291	101.88
659.494	110.88
659.698	103.88
659.901	100.88
660.105	101.88
660.309	99.88
660.512	98.88
660.716	105.88
660.919	89.88
661.123	77.88
661.326	95.88
661.53	87.88
661.733	91.88
661.936	89.88
662.14	83.88
662.343	75.88
662.546	82.88
662.75	89.88
662.953	91.88
663.156	87.88
663.36	75.88
663.563	77.88
663.766	83.88
663.969	84.88
664.173	80.88
664.376	75.88
664.579	81.88
664.782	76.88
664.985	81.88
665.188	69.88
665.391	102.88
665.594	83.88
665.797	92.88
666	74.88
666.203	84.88
666.406	77.88
666.609	79.88
666.812	70.88
667.015	85.88
667.218	83.88
667.421	74.88
667.624	65.88
667.827	79.88
668.03	72.88
668.232	61.88
668.435	76.88
668.638	83.88
668.841	89.88
669.043	81.88
669.246	75.88
669.449	90.88
669.651	86.88
669.854	80.88
670.057	71.88
670.259	81.88
670.462	77.88
670.665	72.88
670.867	92.88
671.07	89.88
671.272	84.88
671.475	78.88
671.677	75.88
671.88	71.88
672.082	71.88
672.284	77.88
672.487	76.88
672.689	72.88
672.892	80.88
