Data from Fe(NO3)3@0.05M.TitratingCurve.Agarose3%dH2O.NegLispCup.LampEnergy10.LIBS07252019_HRD10591_16-48-43-334.txt Node
Date: Thu Jul 25 16:48:43 EDT 2019
User: cochatt
Spectrometer: HR+D1059
Trigger mode: 1
Integration Time (sec): 1.000000E-1
Scans to average: 1
Electric dark correction enabled: true
Nonlinearity correction enabled: false
Boxcar width: 0
XAxis mode: Wavelengths
Number of Pixels in Spectrum: 2048
>>>>>Begin Spectral Data<<<<<
223.165	-30.62
223.4	-30.62
223.635	-30.62
223.869	-10.62
224.104	-16.62
224.338	-7.62
224.573	-22.62
224.808	-8.62
225.042	-6.62
225.277	9.38
225.511	-10.62
225.746	2.38
225.98	1.38
226.215	2.38
226.449	4.38
226.683	26.38
226.918	29.38
227.152	38.38
227.387	29.38
227.621	32.38
227.856	39.38
228.09	47.38
228.324	40.38
228.559	40.38
228.793	37.38
229.027	65.38
229.262	64.38
229.496	87.38
229.73	73.38
229.964	75.38
230.199	57.38
230.433	70.38
230.667	74.38
230.901	82.38
231.136	84.38
231.37	87.38
231.604	88.38
231.838	85.38
232.072	88.38
232.306	91.38
232.541	90.38
232.775	85.38
233.009	93.38
233.243	82.38
233.477	87.38
233.711	88.38
233.945	90.38
234.179	83.38
234.413	87.38
234.647	79.38
234.881	81.38
235.115	81.38
235.349	83.38
235.583	87.38
235.817	98.38
236.051	75.38
236.285	74.38
236.519	87.38
236.753	92.38
236.987	94.38
237.221	91.38
237.455	98.38
237.689	96.38
237.922	89.38
238.156	80.38
238.39	81.38
238.624	86.38
238.858	83.38
239.091	80.38
239.325	79.38
239.559	89.38
239.793	75.38
240.027	83.38
240.26	93.38
240.494	86.38
240.728	75.38
240.961	84.38
241.195	81.38
241.429	82.38
241.662	86.38
241.896	86.38
242.13	86.38
242.363	86.38
242.597	91.38
242.83	91.38
243.064	81.38
243.298	101.38
243.531	79.38
243.765	94.38
243.998	93.38
244.232	86.38
244.465	86.38
244.699	87.38
244.932	93.38
245.166	89.38
245.399	99.38
245.633	97.38
245.866	85.38
246.099	97.38
246.333	104.38
246.566	97.38
246.8	101.38
247.033	101.38
247.266	94.38
247.5	91.38
247.733	83.38
247.966	103.38
248.2	86.38
248.433	95.38
248.666	91.38
248.899	106.38
249.133	97.38
249.366	97.38
249.599	103.38
249.832	106.38
250.066	80.38
250.299	110.38
250.532	99.38
250.765	93.38
250.998	90.38
251.231	109.38
251.465	69.38
251.698	96.38
251.931	105.38
252.164	93.38
252.397	89.38
252.63	96.38
252.863	105.38
253.096	104.38
253.329	102.38
253.562	88.38
253.795	97.38
254.028	95.38
254.261	109.38
254.494	113.38
254.727	113.38
254.96	99.38
255.193	97.38
255.426	78.38
255.659	95.38
255.892	103.38
256.124	115.38
256.357	109.38
256.59	95.38
256.823	97.38
257.056	94.38
257.289	84.38
257.521	101.38
257.754	106.38
257.987	89.38
258.22	117.38
258.452	100.38
258.685	102.38
258.918	111.38
259.151	105.38
259.383	107.38
259.616	118.38
259.849	103.38
260.081	101.38
260.314	117.38
260.547	109.38
260.779	93.38
261.012	94.38
261.244	107.38
261.477	125.38
261.71	121.38
261.942	111.38
262.175	125.38
262.407	105.38
262.64	116.38
262.872	104.38
263.105	112.38
263.337	113.38
263.57	112.38
263.802	118.38
264.035	109.38
264.267	122.38
264.499	126.38
264.732	118.38
264.964	113.38
265.197	115.38
265.429	121.38
265.661	103.38
265.894	110.38
266.126	103.38
266.358	117.38
266.591	128.38
266.823	110.38
267.055	115.38
267.287	119.38
267.52	107.38
267.752	106.38
267.984	117.38
268.216	117.38
268.448	115.38
268.681	117.38
268.913	115.38
269.145	103.38
269.377	116.38
269.609	98.38
269.841	117.38
270.073	101.38
270.306	108.38
270.538	123.38
270.77	118.38
271.002	106.38
271.234	99.38
271.466	115.38
271.698	107.38
271.93	105.38
272.162	107.38
272.394	112.38
272.626	120.38
272.858	106.38
273.09	125.38
273.322	98.38
273.553	111.38
273.785	127.38
274.017	123.38
274.249	115.38
274.481	104.38
274.713	131.38
274.945	124.38
275.176	106.38
275.408	122.38
275.64	126.38
275.872	134.38
276.104	124.38
276.335	114.38
276.567	112.38
276.799	126.38
277.031	114.38
277.262	125.38
277.494	123.38
277.726	109.38
277.957	130.38
278.189	115.38
278.421	137.38
278.652	128.38
278.884	107.38
279.115	123.38
279.347	125.38
279.579	108.38
279.81	117.38
280.042	116.38
280.273	131.38
280.505	125.38
280.736	131.38
280.968	126.38
281.199	129.38
281.431	131.38
281.662	123.38
281.894	133.38
282.125	125.38
282.356	125.38
282.588	118.38
282.819	126.38
283.051	127.38
283.282	130.38
283.513	138.38
283.745	143.38
283.976	138.38
284.207	129.38
284.439	140.38
284.67	129.38
284.901	134.38
285.132	132.38
285.364	120.38
285.595	137.38
285.826	146.38
286.057	137.38
286.288	133.38
286.52	139.38
286.751	121.38
286.982	134.38
287.213	129.38
287.444	129.38
287.675	140.38
287.906	127.38
288.138	143.38
288.369	131.38
288.6	130.38
288.831	129.38
289.062	125.38
289.293	126.38
289.524	133.38
289.755	119.38
289.986	136.38
290.217	143.38
290.448	129.38
290.679	135.38
290.91	118.38
291.141	139.38
291.371	141.38
291.602	135.38
291.833	122.38
292.064	142.38
292.295	133.38
292.526	143.38
292.757	134.38
292.987	133.38
293.218	146.38
293.449	127.38
293.68	128.38
293.91	129.38
294.141	120.38
294.372	123.38
294.603	142.38
294.833	148.38
295.064	129.38
295.295	137.38
295.525	138.38
295.756	132.38
295.987	139.38
296.217	151.38
296.448	138.38
296.679	152.38
296.909	143.38
297.14	129.38
297.37	124.38
297.601	116.38
297.831	118.38
298.062	142.38
298.292	142.38
298.523	146.38
298.753	134.38
298.984	135.38
299.214	136.38
299.445	133.38
299.675	150.38
299.905	128.38
300.136	133.38
300.366	145.38
300.597	149.38
300.827	156.38
301.057	145.38
301.288	147.38
301.518	148.38
301.748	141.38
301.979	150.38
302.209	149.38
302.439	145.38
302.669	135.38
302.9	143.38
303.13	130.38
303.36	121.38
303.59	133.38
303.82	157.38
304.051	125.38
304.281	145.38
304.511	132.38
304.741	155.38
304.971	141.38
305.201	148.38
305.431	147.38
305.661	133.38
305.891	149.38
306.121	147.38
306.352	163.38
306.582	146.38
306.812	143.38
307.042	136.38
307.272	145.38
307.502	143.38
307.731	129.38
307.961	146.38
308.191	151.38
308.421	139.38
308.651	137.38
308.881	136.38
309.111	137.38
309.341	148.38
309.571	144.38
309.8	151.38
310.03	141.38
310.26	130.38
310.49	150.38
310.72	137.38
310.949	140.38
311.179	140.38
311.409	124.38
311.639	140.38
311.868	142.38
312.098	138.38
312.328	139.38
312.557	153.38
312.787	157.38
313.017	143.38
313.246	152.38
313.476	158.38
313.706	143.38
313.935	142.38
314.165	145.38
314.394	134.38
314.624	154.38
314.853	155.38
315.083	149.38
315.312	156.38
315.542	140.38
315.771	151.38
316.001	144.38
316.23	149.38
316.46	145.38
316.689	129.38
316.919	139.38
317.148	157.38
317.377	149.38
317.607	144.38
317.836	130.38
318.065	137.38
318.295	156.38
318.524	142.38
318.753	154.38
318.983	175.38
319.212	150.38
319.441	163.38
319.67	153.38
319.9	161.38
320.129	145.38
320.358	135.38
320.587	162.38
320.816	140.38
321.046	147.38
321.275	141.38
321.504	144.38
321.733	149.38
321.962	151.38
322.191	163.38
322.42	149.38
322.649	144.38
322.878	162.38
323.108	163.38
323.337	173.38
323.566	149.38
323.795	139.38
324.024	156.38
324.253	140.38
324.482	145.38
324.71	145.38
324.939	163.38
325.168	163.38
325.397	160.38
325.626	156.38
325.855	151.38
326.084	150.38
326.313	157.38
326.542	144.38
326.77	154.38
326.999	166.38
327.228	173.38
327.457	155.38
327.686	146.38
327.914	149.38
328.143	158.38
328.372	154.38
328.6	167.38
328.829	163.38
329.058	154.38
329.287	147.38
329.515	150.38
329.744	171.38
329.972	154.38
330.201	162.38
330.43	139.38
330.658	168.38
330.887	153.38
331.115	167.38
331.344	159.38
331.572	161.38
331.801	162.38
332.03	168.38
332.258	155.38
332.486	181.38
332.715	193.38
332.943	169.38
333.172	184.38
333.4	187.38
333.629	188.38
333.857	171.38
334.085	189.38
334.314	178.38
334.542	161.38
334.771	189.38
334.999	180.38
335.227	180.38
335.455	173.38
335.684	195.38
335.912	183.38
336.14	168.38
336.369	182.38
336.597	191.38
336.825	175.38
337.053	174.38
337.281	181.38
337.51	165.38
337.738	173.38
337.966	163.38
338.194	157.38
338.422	154.38
338.65	170.38
338.878	173.38
339.106	167.38
339.334	160.38
339.562	176.38
339.79	154.38
340.018	152.38
340.246	159.38
340.474	157.38
340.702	175.38
340.93	165.38
341.158	157.38
341.386	166.38
341.614	152.38
341.842	150.38
342.07	157.38
342.298	161.38
342.526	152.38
342.754	168.38
342.981	180.38
343.209	165.38
343.437	167.38
343.665	168.38
343.893	169.38
344.12	177.38
344.348	161.38
344.576	176.38
344.804	164.38
345.031	173.38
345.259	166.38
345.487	159.38
345.714	175.38
345.942	167.38
346.17	155.38
346.397	160.38
346.625	153.38
346.853	147.38
347.08	161.38
347.308	158.38
347.535	165.38
347.763	163.38
347.99	163.38
348.218	167.38
348.445	163.38
348.673	151.38
348.9	168.38
349.128	156.38
349.355	163.38
349.583	153.38
349.81	161.38
350.037	145.38
350.265	158.38
350.492	155.38
350.72	162.38
350.947	159.38
351.174	158.38
351.402	169.38
351.629	161.38
351.856	152.38
352.083	148.38
352.311	139.38
352.538	161.38
352.765	157.38
352.992	153.38
353.22	156.38
353.447	145.38
353.674	153.38
353.901	150.38
354.128	153.38
354.355	153.38
354.583	169.38
354.81	167.38
355.037	166.38
355.264	158.38
355.491	154.38
355.718	158.38
355.945	152.38
356.172	140.38
356.399	175.38
356.626	154.38
356.853	149.38
357.08	166.38
357.307	175.38
357.534	171.38
357.761	153.38
357.988	157.38
358.215	143.38
358.441	160.38
358.668	151.38
358.895	147.38
359.122	165.38
359.349	158.38
359.576	147.38
359.802	171.38
360.029	155.38
360.256	160.38
360.483	146.38
360.709	148.38
360.936	162.38
361.163	153.38
361.39	161.38
361.616	163.38
361.843	161.38
362.07	170.38
362.296	164.38
362.523	162.38
362.749	161.38
362.976	162.38
363.203	156.38
363.429	162.38
363.656	163.38
363.882	160.38
364.109	152.38
364.335	153.38
364.562	164.38
364.788	160.38
365.015	151.38
365.241	161.38
365.468	155.38
365.694	143.38
365.92	155.38
366.147	162.38
366.373	148.38
366.599	154.38
366.826	156.38
367.052	157.38
367.278	154.38
367.505	145.38
367.731	150.38
367.957	157.38
368.184	160.38
368.41	174.38
368.636	162.38
368.862	177.38
369.089	165.38
369.315	162.38
369.541	162.38
369.767	147.38
369.993	158.38
370.219	159.38
370.445	170.38
370.672	165.38
370.898	176.38
371.124	169.38
371.35	159.38
371.576	173.38
371.802	191.38
372.028	180.38
372.254	170.38
372.48	170.38
372.706	160.38
372.932	178.38
373.158	167.38
373.384	164.38
373.61	185.38
373.835	171.38
374.061	169.38
374.287	179.38
374.513	183.38
374.739	170.38
374.965	170.38
375.191	203.38
375.416	179.38
375.642	186.38
375.868	184.38
376.094	195.38
376.319	174.38
376.545	173.38
376.771	175.38
376.997	186.38
377.222	185.38
377.448	180.38
377.674	189.38
377.899	182.38
378.125	162.38
378.35	159.38
378.576	181.38
378.802	183.38
379.027	165.38
379.253	182.38
379.478	177.38
379.704	165.38
379.929	166.38
380.155	168.38
380.38	191.38
380.606	185.38
380.831	189.38
381.057	208.38
381.282	170.38
381.507	173.38
381.733	192.38
381.958	195.38
382.184	185.38
382.409	204.38
382.634	173.38
382.86	175.38
383.085	198.38
383.31	197.38
383.535	180.38
383.761	200.38
383.986	207.38
384.211	201.38
384.436	197.38
384.662	194.38
384.887	211.38
385.112	206.38
385.337	203.38
385.562	193.38
385.787	203.38
386.013	210.38
386.238	200.38
386.463	208.38
386.688	206.38
386.913	203.38
387.138	210.38
387.363	204.38
387.588	204.38
387.813	214.38
388.038	192.38
388.263	207.38
388.488	197.38
388.713	215.38
388.938	207.38
389.163	182.38
389.387	197.38
389.612	193.38
389.837	195.38
390.062	207.38
390.287	225.38
390.512	208.38
390.736	207.38
390.961	212.38
391.186	219.38
391.411	229.38
391.636	197.38
391.86	220.38
392.085	221.38
392.31	224.38
392.534	201.38
392.759	217.38
392.984	210.38
393.208	203.38
393.433	206.38
393.658	206.38
393.882	214.38
394.107	230.38
394.331	210.38
394.556	220.38
394.78	222.38
395.005	205.38
395.229	217.38
395.454	230.38
395.678	254.38
395.903	233.38
396.127	221.38
396.352	236.38
396.576	222.38
396.801	223.38
397.025	243.38
397.249	226.38
397.474	218.38
397.698	226.38
397.922	230.38
398.147	231.38
398.371	243.38
398.595	245.38
398.82	245.38
399.044	243.38
399.268	286.38
399.492	306.38
399.717	319.38
399.941	290.38
400.165	294.38
400.389	274.38
400.613	268.38
400.837	266.38
401.062	260.38
401.286	237.38
401.51	239.38
401.734	245.38
401.958	257.38
402.182	269.38
402.406	232.38
402.63	264.38
402.854	277.38
403.078	277.38
403.302	266.38
403.526	298.38
403.75	274.38
403.974	265.38
404.198	278.38
404.422	287.38
404.645	284.38
404.869	277.38
405.093	281.38
405.317	265.38
405.541	281.38
405.765	285.38
405.988	279.38
406.212	276.38
406.436	257.38
406.66	280.38
406.883	286.38
407.107	287.38
407.331	291.38
407.555	302.38
407.778	301.38
408.002	291.38
408.226	292.38
408.449	281.38
408.673	266.38
408.896	287.38
409.12	277.38
409.344	279.38
409.567	283.38
409.791	282.38
410.014	278.38
410.238	286.38
410.461	268.38
410.685	286.38
410.908	291.38
411.132	272.38
411.355	263.38
411.578	280.38
411.802	251.38
412.025	279.38
412.249	289.38
412.472	284.38
412.695	267.38
412.919	273.38
413.142	266.38
413.365	257.38
413.589	258.38
413.812	266.38
414.035	257.38
414.258	260.38
414.482	263.38
414.705	277.38
414.928	258.38
415.151	270.38
415.374	257.38
415.597	259.38
415.821	248.38
416.044	251.38
416.267	258.38
416.49	269.38
416.713	263.38
416.936	263.38
417.159	259.38
417.382	280.38
417.605	267.38
417.828	254.38
418.051	256.38
418.274	276.38
418.497	266.38
418.72	275.38
418.943	285.38
419.166	283.38
419.389	318.38
419.611	299.38
419.834	271.38
420.057	293.38
420.28	284.38
420.503	293.38
420.726	285.38
420.948	279.38
421.171	267.38
421.394	265.38
421.617	261.38
421.839	277.38
422.062	266.38
422.285	273.38
422.507	270.38
422.73	273.38
422.953	270.38
423.175	260.38
423.398	289.38
423.621	285.38
423.843	283.38
424.066	283.38
424.288	286.38
424.511	288.38
424.733	291.38
424.956	273.38
425.178	272.38
425.401	264.38
425.623	268.38
425.846	277.38
426.068	268.38
426.291	267.38
426.513	255.38
426.735	253.38
426.958	263.38
427.18	273.38
427.402	282.38
427.625	265.38
427.847	243.38
428.069	253.38
428.292	245.38
428.514	235.38
428.736	261.38
428.958	245.38
429.181	261.38
429.403	250.38
429.625	245.38
429.847	254.38
430.069	268.38
430.292	254.38
430.514	263.38
430.736	254.38
430.958	260.38
431.18	261.38
431.402	251.38
431.624	257.38
431.846	263.38
432.068	257.38
432.29	250.38
432.512	238.38
432.734	256.38
432.956	253.38
433.178	249.38
433.4	248.38
433.622	273.38
433.844	265.38
434.066	261.38
434.287	259.38
434.509	278.38
434.731	283.38
434.953	274.38
435.175	269.38
435.397	290.38
435.618	255.38
435.84	271.38
436.062	258.38
436.284	274.38
436.505	277.38
436.727	270.38
436.949	262.38
437.17	268.38
437.392	258.38
437.614	255.38
437.835	235.38
438.057	272.38
438.278	229.38
438.5	245.38
438.721	264.38
438.943	280.38
439.165	255.38
439.386	260.38
439.608	265.38
439.829	269.38
440.05	293.38
440.272	271.38
440.493	269.38
440.715	280.38
440.936	271.38
441.158	283.38
441.379	289.38
441.6	295.38
441.822	284.38
442.043	269.38
442.264	311.38
442.486	268.38
442.707	291.38
442.928	300.38
443.149	275.38
443.371	295.38
443.592	293.38
443.813	288.38
444.034	283.38
444.255	289.38
444.476	301.38
444.698	301.38
444.919	314.38
445.14	440.38
445.361	355.38
445.582	317.38
445.803	275.38
446.024	278.38
446.245	298.38
446.466	279.38
446.687	258.38
446.908	279.38
447.129	275.38
447.35	282.38
447.571	268.38
447.792	271.38
448.013	275.38
448.234	255.38
448.455	250.38
448.675	262.38
448.896	253.38
449.117	253.38
449.338	276.38
449.559	251.38
449.779	257.38
450	253.38
450.221	255.38
450.442	267.38
450.662	235.38
450.883	249.38
451.104	270.38
451.324	269.38
451.545	273.38
451.766	281.38
451.986	270.38
452.207	267.38
452.428	250.38
452.648	261.38
452.869	247.38
453.089	242.38
453.31	244.38
453.53	248.38
453.751	237.38
453.971	239.38
454.192	238.38
454.412	239.38
454.633	244.38
454.853	244.38
455.073	247.38
455.294	253.38
455.514	237.38
455.734	251.38
455.955	242.38
456.175	247.38
456.395	232.38
456.616	238.38
456.836	243.38
457.056	264.38
457.276	230.38
457.497	234.38
457.717	218.38
457.937	229.38
458.157	261.38
458.377	237.38
458.598	246.38
458.818	253.38
459.038	255.38
459.258	260.38
459.478	257.38
459.698	261.38
459.918	263.38
460.138	283.38
460.358	286.38
460.578	307.38
460.798	301.38
461.018	283.38
461.238	295.38
461.458	301.38
461.678	279.38
461.898	305.38
462.118	310.38
462.338	315.38
462.558	307.38
462.777	316.38
462.997	340.38
463.217	341.38
463.437	369.38
463.657	342.38
463.876	345.38
464.096	335.38
464.316	316.38
464.536	335.38
464.755	311.38
464.975	319.38
465.195	320.38
465.414	280.38
465.634	277.38
465.854	279.38
466.073	286.38
466.293	287.38
466.512	255.38
466.732	263.38
466.951	266.38
467.171	273.38
467.391	255.38
467.61	270.38
467.829	298.38
468.049	273.38
468.268	268.38
468.488	261.38
468.707	272.38
468.927	284.38
469.146	263.38
469.365	265.38
469.585	258.38
469.804	257.38
470.023	263.38
470.243	256.38
470.462	278.38
470.681	277.38
470.901	272.38
471.12	271.38
471.339	281.38
471.558	281.38
471.777	261.38
471.997	259.38
472.216	266.38
472.435	260.38
472.654	245.38
472.873	246.38
473.092	246.38
473.311	248.38
473.53	262.38
473.749	253.38
473.968	244.38
474.187	250.38
474.406	245.38
474.625	262.38
474.844	251.38
475.063	257.38
475.282	249.38
475.501	270.38
475.72	263.38
475.939	267.38
476.158	252.38
476.377	265.38
476.596	271.38
476.814	277.38
477.033	271.38
477.252	258.38
477.471	260.38
477.69	268.38
477.908	278.38
478.127	295.38
478.346	296.38
478.564	275.38
478.783	288.38
479.002	311.38
479.22	285.38
479.439	295.38
479.658	303.38
479.876	282.38
480.095	282.38
480.313	290.38
480.532	305.38
480.751	305.38
480.969	289.38
481.188	298.38
481.406	273.38
481.624	268.38
481.843	255.38
482.061	265.38
482.28	266.38
482.498	276.38
482.717	279.38
482.935	277.38
483.153	278.38
483.372	279.38
483.59	292.38
483.808	285.38
484.027	277.38
484.245	289.38
484.463	288.38
484.681	278.38
484.9	289.38
485.118	285.38
485.336	286.38
485.554	291.38
485.772	274.38
485.99	284.38
486.209	291.38
486.427	289.38
486.645	282.38
486.863	277.38
487.081	297.38
487.299	296.38
487.517	294.38
487.735	297.38
487.953	292.38
488.171	302.38
488.389	296.38
488.607	289.38
488.825	295.38
489.043	290.38
489.261	293.38
489.479	290.38
489.696	271.38
489.914	306.38
490.132	298.38
490.35	276.38
490.568	278.38
490.786	299.38
491.003	310.38
491.221	281.38
491.439	320.38
491.657	316.38
491.874	302.38
492.092	301.38
492.31	319.38
492.527	305.38
492.745	318.38
492.963	282.38
493.18	298.38
493.398	309.38
493.615	289.38
493.833	312.38
494.05	312.38
494.268	313.38
494.485	315.38
494.703	309.38
494.92	314.38
495.138	305.38
495.355	295.38
495.573	311.38
495.79	322.38
496.008	338.38
496.225	312.38
496.442	326.38
496.66	335.38
496.877	337.38
497.094	337.38
497.312	346.38
497.529	313.38
497.746	324.38
497.963	353.38
498.181	345.38
498.398	369.38
498.615	368.38
498.832	366.38
499.049	417.38
499.267	432.38
499.484	456.38
499.701	501.38
499.918	532.38
500.135	559.38
500.352	610.38
500.569	650.38
500.786	616.38
501.003	598.38
501.22	537.38
501.437	523.38
501.654	458.38
501.871	439.38
502.088	409.38
502.305	399.38
502.522	390.38
502.739	410.38
502.956	349.38
503.172	365.38
503.389	339.38
503.606	327.38
503.823	328.38
504.04	354.38
504.256	333.38
504.473	324.38
504.69	320.38
504.907	314.38
505.123	303.38
505.34	312.38
505.557	289.38
505.773	298.38
505.99	271.38
506.207	296.38
506.423	273.38
506.64	303.38
506.856	283.38
507.073	267.38
507.289	275.38
507.506	272.38
507.722	272.38
507.939	256.38
508.155	270.38
508.372	266.38
508.588	267.38
508.805	277.38
509.021	270.38
509.238	262.38
509.454	224.38
509.67	262.38
509.887	239.38
510.103	249.38
510.319	253.38
510.536	259.38
510.752	250.38
510.968	249.38
511.184	255.38
511.401	244.38
511.617	245.38
511.833	260.38
512.049	246.38
512.265	248.38
512.481	251.38
512.698	234.38
512.914	246.38
513.13	266.38
513.346	235.38
513.562	252.38
513.778	239.38
513.994	251.38
514.21	242.38
514.426	241.38
514.642	255.38
514.858	264.38
515.074	266.38
515.29	263.38
515.506	253.38
515.721	274.38
515.937	270.38
516.153	272.38
516.369	260.38
516.585	277.38
516.801	289.38
517.016	291.38
517.232	306.38
517.448	310.38
517.664	304.38
517.879	305.38
518.095	319.38
518.311	303.38
518.527	290.38
518.742	297.38
518.958	280.38
519.173	296.38
519.389	278.38
519.605	261.38
519.82	251.38
520.036	266.38
520.251	255.38
520.467	241.38
520.682	269.38
520.898	248.38
521.113	270.38
521.329	241.38
521.544	251.38
521.76	242.38
521.975	242.38
522.19	254.38
522.406	246.38
522.621	229.38
522.836	226.38
523.052	240.38
523.267	254.38
523.482	235.38
523.698	239.38
523.913	228.38
524.128	249.38
524.343	253.38
524.559	244.38
524.774	253.38
524.989	244.38
525.204	240.38
525.419	219.38
525.634	227.38
525.849	246.38
526.064	234.38
526.28	238.38
526.495	227.38
526.71	218.38
526.925	239.38
527.14	224.38
527.355	227.38
527.57	234.38
527.785	229.38
527.999	231.38
528.214	224.38
528.429	236.38
528.644	232.38
528.859	245.38
529.074	249.38
529.289	250.38
529.503	243.38
529.718	227.38
529.933	222.38
530.148	233.38
530.363	257.38
530.577	240.38
530.792	232.38
531.007	228.38
531.221	252.38
531.436	225.38
531.651	223.38
531.865	224.38
532.08	247.38
532.295	227.38
532.509	229.38
532.724	220.38
532.938	234.38
533.153	217.38
533.367	224.38
533.582	224.38
533.796	243.38
534.011	227.38
534.225	227.38
534.44	217.38
534.654	238.38
534.868	232.38
535.083	235.38
535.297	233.38
535.511	219.38
535.726	228.38
535.94	226.38
536.154	233.38
536.369	234.38
536.583	232.38
536.797	221.38
537.011	217.38
537.225	212.38
537.44	217.38
537.654	225.38
537.868	221.38
538.082	222.38
538.296	197.38
538.51	219.38
538.724	221.38
538.938	233.38
539.153	201.38
539.367	242.38
539.581	223.38
539.795	208.38
540.009	221.38
540.222	210.38
540.436	219.38
540.65	224.38
540.864	206.38
541.078	216.38
541.292	238.38
541.506	237.38
541.72	212.38
541.934	244.38
542.147	237.38
542.361	227.38
542.575	230.38
542.789	213.38
543.002	224.38
543.216	231.38
543.43	206.38
543.644	222.38
543.857	206.38
544.071	228.38
544.285	214.38
544.498	237.38
544.712	232.38
544.925	226.38
545.139	217.38
545.352	233.38
545.566	239.38
545.779	231.38
545.993	236.38
546.206	228.38
546.42	232.38
546.633	226.38
546.847	237.38
547.06	214.38
547.274	233.38
547.487	217.38
547.7	223.38
547.914	243.38
548.127	234.38
548.34	239.38
548.554	230.38
548.767	225.38
548.98	253.38
549.193	220.38
549.407	230.38
549.62	243.38
549.833	249.38
550.046	211.38
550.259	234.38
550.473	235.38
550.686	235.38
550.899	218.38
551.112	239.38
551.325	226.38
551.538	219.38
551.751	216.38
551.964	210.38
552.177	226.38
552.39	218.38
552.603	227.38
552.816	222.38
553.029	249.38
553.242	225.38
553.455	245.38
553.667	223.38
553.88	224.38
554.093	223.38
554.306	223.38
554.519	222.38
554.732	220.38
554.944	230.38
555.157	227.38
555.37	218.38
555.583	212.38
555.795	209.38
556.008	230.38
556.221	205.38
556.433	215.38
556.646	213.38
556.859	197.38
557.071	209.38
557.284	197.38
557.496	208.38
557.709	211.38
557.921	211.38
558.134	200.38
558.346	189.38
558.559	192.38
558.771	198.38
558.984	205.38
559.196	194.38
559.409	196.38
559.621	209.38
559.833	189.38
560.046	191.38
560.258	191.38
560.47	203.38
560.683	189.38
560.895	179.38
561.107	186.38
561.32	193.38
561.532	193.38
561.744	190.38
561.956	194.38
562.168	199.38
562.381	208.38
562.593	196.38
562.805	205.38
563.017	184.38
563.229	194.38
563.441	193.38
563.653	193.38
563.865	191.38
564.077	209.38
564.289	202.38
564.501	209.38
564.713	211.38
564.925	206.38
565.137	202.38
565.349	201.38
565.561	214.38
565.773	227.38
565.985	226.38
566.197	227.38
566.408	243.38
566.62	257.38
566.832	261.38
567.044	254.38
567.255	257.38
567.467	242.38
567.679	264.38
567.891	291.38
568.102	277.38
568.314	277.38
568.526	251.38
568.737	233.38
568.949	224.38
569.161	201.38
569.372	214.38
569.584	197.38
569.795	198.38
570.007	198.38
570.218	204.38
570.43	195.38
570.641	173.38
570.853	199.38
571.064	187.38
571.276	189.38
571.487	189.38
571.698	193.38
571.91	190.38
572.121	180.38
572.333	187.38
572.544	193.38
572.755	157.38
572.966	176.38
573.178	184.38
573.389	171.38
573.6	175.38
573.811	174.38
574.023	177.38
574.234	159.38
574.445	175.38
574.656	165.38
574.867	171.38
575.078	170.38
575.289	174.38
575.501	175.38
575.712	149.38
575.923	177.38
576.134	152.38
576.345	166.38
576.556	162.38
576.767	154.38
576.978	157.38
577.188	153.38
577.399	185.38
577.61	159.38
577.821	175.38
578.032	158.38
578.243	154.38
578.454	160.38
578.665	159.38
578.875	165.38
579.086	171.38
579.297	151.38
579.508	149.38
579.718	147.38
579.929	160.38
580.14	168.38
580.35	164.38
580.561	161.38
580.772	159.38
580.982	162.38
581.193	148.38
581.403	160.38
581.614	142.38
581.825	148.38
582.035	165.38
582.246	142.38
582.456	155.38
582.667	158.38
582.877	163.38
583.087	153.38
583.298	150.38
583.508	154.38
583.719	129.38
583.929	152.38
584.139	147.38
584.35	145.38
584.56	150.38
584.77	146.38
584.981	147.38
585.191	157.38
585.401	138.38
585.611	150.38
585.821	150.38
586.032	150.38
586.242	152.38
586.452	161.38
586.662	144.38
586.872	143.38
587.082	165.38
587.292	123.38
587.502	141.38
587.713	149.38
587.923	143.38
588.133	140.38
588.343	151.38
588.553	157.38
588.762	159.38
588.972	153.38
589.182	146.38
589.392	148.38
589.602	143.38
589.812	160.38
590.022	165.38
590.232	152.38
590.441	152.38
590.651	151.38
590.861	160.38
591.071	145.38
591.281	149.38
591.49	166.38
591.7	161.38
591.91	152.38
592.119	149.38
592.329	160.38
592.539	155.38
592.748	157.38
592.958	152.38
593.167	173.38
593.377	164.38
593.587	173.38
593.796	163.38
594.006	169.38
594.215	168.38
594.424	155.38
594.634	151.38
594.843	162.38
595.053	160.38
595.262	168.38
595.472	170.38
595.681	149.38
595.89	146.38
596.1	155.38
596.309	133.38
596.518	155.38
596.727	149.38
596.937	142.38
597.146	143.38
597.355	126.38
597.564	129.38
597.774	139.38
597.983	145.38
598.192	143.38
598.401	147.38
598.61	146.38
598.819	126.38
599.028	122.38
599.237	136.38
599.446	128.38
599.655	143.38
599.864	133.38
600.073	121.38
600.282	129.38
600.491	142.38
600.7	145.38
600.909	120.38
601.118	129.38
601.327	138.38
601.536	135.38
601.745	152.38
601.953	123.38
602.162	131.38
602.371	134.38
602.58	129.38
602.789	129.38
602.997	128.38
603.206	141.38
603.415	131.38
603.623	125.38
603.832	121.38
604.041	121.38
604.249	150.38
604.458	137.38
604.666	136.38
604.875	123.38
605.084	135.38
605.292	143.38
605.501	144.38
605.709	133.38
605.918	140.38
606.126	138.38
606.334	129.38
606.543	134.38
606.751	138.38
606.96	146.38
607.168	147.38
607.376	123.38
607.585	117.38
607.793	116.38
608.001	132.38
608.21	125.38
608.418	122.38
608.626	135.38
608.834	130.38
609.043	128.38
609.251	135.38
609.459	119.38
609.667	139.38
609.875	121.38
610.083	123.38
610.291	127.38
610.499	133.38
610.707	123.38
610.916	144.38
611.124	122.38
611.332	140.38
611.54	136.38
611.748	127.38
611.955	121.38
612.163	132.38
612.371	136.38
612.579	125.38
612.787	118.38
612.995	127.38
613.203	146.38
613.411	121.38
613.618	138.38
613.826	133.38
614.034	127.38
614.242	131.38
614.449	121.38
614.657	134.38
614.865	121.38
615.072	121.38
615.28	124.38
615.488	132.38
615.695	135.38
615.903	123.38
616.111	118.38
616.318	122.38
616.526	125.38
616.733	124.38
616.941	135.38
617.148	130.38
617.356	140.38
617.563	127.38
617.771	127.38
617.978	144.38
618.185	120.38
618.393	122.38
618.6	126.38
618.807	123.38
619.015	130.38
619.222	132.38
619.429	132.38
619.637	130.38
619.844	130.38
620.051	135.38
620.258	123.38
620.466	113.38
620.673	114.38
620.88	139.38
621.087	128.38
621.294	113.38
621.501	119.38
621.708	140.38
621.915	131.38
622.122	121.38
622.329	118.38
622.536	114.38
622.743	115.38
622.95	127.38
623.157	125.38
623.364	124.38
623.571	121.38
623.778	129.38
623.985	134.38
624.192	119.38
624.399	121.38
624.606	126.38
624.812	126.38
625.019	118.38
625.226	130.38
625.433	119.38
625.639	123.38
625.846	123.38
626.053	115.38
626.259	112.38
626.466	115.38
626.673	115.38
626.879	118.38
627.086	134.38
627.293	122.38
627.499	125.38
627.706	118.38
627.912	117.38
628.119	108.38
628.325	115.38
628.532	122.38
628.738	106.38
628.945	107.38
629.151	123.38
629.357	108.38
629.564	129.38
629.77	106.38
629.976	125.38
630.183	113.38
630.389	123.38
630.595	117.38
630.802	106.38
631.008	114.38
631.214	103.38
631.42	105.38
631.627	110.38
631.833	105.38
632.039	114.38
632.245	111.38
632.451	123.38
632.657	116.38
632.863	105.38
633.069	116.38
633.275	118.38
633.481	107.38
633.688	114.38
633.893	121.38
634.099	117.38
634.305	126.38
634.511	110.38
634.717	103.38
634.923	95.38
635.129	114.38
635.335	102.38
635.541	119.38
635.747	98.38
635.952	96.38
636.158	118.38
636.364	115.38
636.57	100.38
636.775	104.38
636.981	100.38
637.187	123.38
637.392	119.38
637.598	123.38
637.804	96.38
638.009	112.38
638.215	87.38
638.421	107.38
638.626	128.38
638.832	103.38
639.037	101.38
639.243	102.38
639.448	107.38
639.654	110.38
639.859	107.38
640.065	121.38
640.27	105.38
640.475	111.38
640.681	108.38
640.886	105.38
641.091	117.38
641.297	118.38
641.502	97.38
641.707	90.38
641.913	112.38
642.118	109.38
642.323	103.38
642.528	110.38
642.733	92.38
642.939	122.38
643.144	104.38
643.349	101.38
643.554	99.38
643.759	110.38
643.964	102.38
644.169	114.38
644.374	110.38
644.579	121.38
644.784	113.38
644.989	113.38
645.194	103.38
645.399	109.38
645.604	111.38
645.809	96.38
646.014	103.38
646.219	109.38
646.423	103.38
646.628	99.38
646.833	105.38
647.038	93.38
647.243	105.38
647.447	101.38
647.652	102.38
647.857	91.38
648.062	115.38
648.266	117.38
648.471	103.38
648.676	120.38
648.88	95.38
649.085	98.38
649.289	102.38
649.494	102.38
649.698	101.38
649.903	116.38
650.107	96.38
650.312	105.38
650.516	84.38
650.721	101.38
650.925	95.38
651.13	115.38
651.334	102.38
651.539	94.38
651.743	96.38
651.947	94.38
652.152	97.38
652.356	111.38
652.56	101.38
652.764	99.38
652.969	95.38
653.173	99.38
653.377	101.38
653.581	94.38
653.785	96.38
653.99	104.38
654.194	84.38
654.398	86.38
654.602	87.38
654.806	88.38
655.01	97.38
655.214	96.38
655.418	97.38
655.622	95.38
655.826	91.38
656.03	91.38
656.234	108.38
656.438	105.38
656.642	95.38
656.846	95.38
657.049	97.38
657.253	95.38
657.457	89.38
657.661	106.38
657.865	97.38
658.068	96.38
658.272	83.38
658.476	97.38
658.68	84.38
658.883	85.38
659.087	95.38
659.291	90.38
659.494	80.38
659.698	89.38
659.901	83.38
660.105	100.38
660.309	94.38
660.512	85.38
660.716	77.38
660.919	82.38
661.123	87.38
661.326	82.38
661.53	74.38
661.733	94.38
661.936	91.38
662.14	85.38
662.343	93.38
662.546	85.38
662.75	82.38
662.953	94.38
663.156	82.38
663.36	92.38
663.563	81.38
663.766	70.38
663.969	75.38
664.173	75.38
664.376	79.38
664.579	75.38
664.782	81.38
664.985	76.38
665.188	69.38
665.391	62.38
665.594	66.38
665.797	82.38
666	72.38
666.203	78.38
666.406	79.38
666.609	82.38
666.812	81.38
667.015	89.38
667.218	76.38
667.421	77.38
667.624	65.38
667.827	80.38
668.03	69.38
668.232	75.38
668.435	70.38
668.638	74.38
668.841	82.38
669.043	81.38
669.246	74.38
669.449	82.38
669.651	87.38
669.854	72.38
670.057	73.38
670.259	79.38
670.462	73.38
670.665	79.38
670.867	87.38
671.07	84.38
671.272	74.38
671.475	65.38
671.677	78.38
671.88	70.38
672.082	77.38
672.284	90.38
672.487	79.38
672.689	94.38
672.892	83.38
