Data from Fe(NO3)3@0.05M.TitratingCurve.Agarose3%dH2O.NegLispCup.LampEnergy10.LIBS07252019_HRD10591_16-45-43-333.txt Node
Date: Thu Jul 25 16:45:43 EDT 2019
User: cochatt
Spectrometer: HR+D1059
Trigger mode: 1
Integration Time (sec): 1.000000E-1
Scans to average: 1
Electric dark correction enabled: true
Nonlinearity correction enabled: false
Boxcar width: 0
XAxis mode: Wavelengths
Number of Pixels in Spectrum: 2048
>>>>>Begin Spectral Data<<<<<
223.165	-19.19
223.4	-19.19
223.635	-19.19
223.869	-3.19
224.104	-22.19
224.338	-28.19
224.573	-6.19
224.808	-5.19
225.042	-2.19
225.277	-10.19
225.511	-5.19
225.746	14.81
225.98	1.81
226.215	9.81
226.449	26.81
226.683	12.81
226.918	16.81
227.152	18.81
227.387	32.81
227.621	38.81
227.856	34.81
228.09	48.81
228.324	30.81
228.559	49.81
228.793	72.81
229.027	109.81
229.262	103.81
229.496	119.81
229.73	109.81
229.964	140.81
230.199	145.81
230.433	122.81
230.667	118.81
230.901	138.81
231.136	141.81
231.37	128.81
231.604	141.81
231.838	129.81
232.072	145.81
232.306	139.81
232.541	151.81
232.775	138.81
233.009	138.81
233.243	152.81
233.477	154.81
233.711	154.81
233.945	167.81
234.179	157.81
234.413	163.81
234.647	165.81
234.881	175.81
235.115	170.81
235.349	158.81
235.583	148.81
235.817	154.81
236.051	153.81
236.285	161.81
236.519	179.81
236.753	157.81
236.987	173.81
237.221	166.81
237.455	162.81
237.689	171.81
237.922	171.81
238.156	169.81
238.39	196.81
238.624	202.81
238.858	210.81
239.091	204.81
239.325	194.81
239.559	182.81
239.793	188.81
240.027	200.81
240.26	199.81
240.494	189.81
240.728	186.81
240.961	247.81
241.195	212.81
241.429	204.81
241.662	218.81
241.896	204.81
242.13	196.81
242.363	197.81
242.597	205.81
242.83	199.81
243.064	190.81
243.298	195.81
243.531	224.81
243.765	230.81
243.998	213.81
244.232	222.81
244.465	225.81
244.699	207.81
244.932	215.81
245.166	220.81
245.399	228.81
245.633	235.81
245.866	235.81
246.099	241.81
246.333	260.81
246.566	230.81
246.8	243.81
247.033	233.81
247.266	250.81
247.5	276.81
247.733	250.81
247.966	255.81
248.2	266.81
248.433	255.81
248.666	265.81
248.899	259.81
249.133	265.81
249.366	253.81
249.599	279.81
249.832	273.81
250.066	288.81
250.299	274.81
250.532	259.81
250.765	274.81
250.998	281.81
251.231	266.81
251.465	269.81
251.698	257.81
251.931	280.81
252.164	279.81
252.397	296.81
252.63	294.81
252.863	297.81
253.096	317.81
253.329	295.81
253.562	316.81
253.795	308.81
254.028	318.81
254.261	318.81
254.494	333.81
254.727	318.81
254.96	311.81
255.193	326.81
255.426	317.81
255.659	307.81
255.892	313.81
256.124	303.81
256.357	315.81
256.59	344.81
256.823	323.81
257.056	295.81
257.289	318.81
257.521	303.81
257.754	321.81
257.987	321.81
258.22	306.81
258.452	325.81
258.685	330.81
258.918	348.81
259.151	340.81
259.383	350.81
259.616	351.81
259.849	362.81
260.081	417.81
260.314	435.81
260.547	379.81
260.779	369.81
261.012	379.81
261.244	383.81
261.477	399.81
261.71	389.81
261.942	377.81
262.175	354.81
262.407	341.81
262.64	378.81
262.872	369.81
263.105	385.81
263.337	397.81
263.57	395.81
263.802	353.81
264.035	347.81
264.267	359.81
264.499	353.81
264.732	342.81
264.964	357.81
265.197	351.81
265.429	358.81
265.661	363.81
265.894	373.81
266.126	348.81
266.358	362.81
266.591	360.81
266.823	398.81
267.055	403.81
267.287	376.81
267.52	371.81
267.752	375.81
267.984	378.81
268.216	374.81
268.448	374.81
268.681	381.81
268.913	391.81
269.145	394.81
269.377	398.81
269.609	387.81
269.841	406.81
270.073	383.81
270.306	387.81
270.538	418.81
270.77	383.81
271.002	401.81
271.234	400.81
271.466	406.81
271.698	419.81
271.93	434.81
272.162	423.81
272.394	417.81
272.626	426.81
272.858	409.81
273.09	432.81
273.322	438.81
273.553	423.81
273.785	450.81
274.017	475.81
274.249	507.81
274.481	480.81
274.713	508.81
274.945	545.81
275.176	570.81
275.408	513.81
275.64	518.81
275.872	543.81
276.104	473.81
276.335	427.81
276.567	459.81
276.799	446.81
277.031	449.81
277.262	484.81
277.494	443.81
277.726	441.81
277.957	443.81
278.189	485.81
278.421	473.81
278.652	475.81
278.884	468.81
279.115	467.81
279.347	449.81
279.579	445.81
279.81	461.81
280.042	448.81
280.273	459.81
280.505	456.81
280.736	464.81
280.968	457.81
281.199	484.81
281.431	460.81
281.662	495.81
281.894	483.81
282.125	478.81
282.356	481.81
282.588	490.81
282.819	489.81
283.051	482.81
283.282	493.81
283.513	463.81
283.745	483.81
283.976	481.81
284.207	495.81
284.439	482.81
284.67	503.81
284.901	499.81
285.132	493.81
285.364	512.81
285.595	515.81
285.826	474.81
286.057	513.81
286.288	493.81
286.52	501.81
286.751	528.81
286.982	498.81
287.213	524.81
287.444	522.81
287.675	516.81
287.906	496.81
288.138	515.81
288.369	513.81
288.6	512.81
288.831	525.81
289.062	518.81
289.293	503.81
289.524	535.81
289.755	508.81
289.986	523.81
290.217	518.81
290.448	539.81
290.679	539.81
290.91	539.81
291.141	529.81
291.371	500.81
291.602	526.81
291.833	524.81
292.064	512.81
292.295	536.81
292.526	544.81
292.757	529.81
292.987	533.81
293.218	534.81
293.449	536.81
293.68	520.81
293.91	527.81
294.141	519.81
294.372	532.81
294.603	549.81
294.833	573.81
295.064	551.81
295.295	550.81
295.525	530.81
295.756	549.81
295.987	553.81
296.217	550.81
296.448	543.81
296.679	553.81
296.909	562.81
297.14	573.81
297.37	562.81
297.601	599.81
297.831	578.81
298.062	538.81
298.292	559.81
298.523	561.81
298.753	568.81
298.984	558.81
299.214	567.81
299.445	591.81
299.675	572.81
299.905	572.81
300.136	568.81
300.366	566.81
300.597	567.81
300.827	584.81
301.057	585.81
301.288	576.81
301.518	586.81
301.748	602.81
301.979	609.81
302.209	618.81
302.439	627.81
302.669	601.81
302.9	601.81
303.13	591.81
303.36	620.81
303.59	593.81
303.82	589.81
304.051	623.81
304.281	618.81
304.511	608.81
304.741	607.81
304.971	614.81
305.201	598.81
305.431	633.81
305.661	622.81
305.891	618.81
306.121	625.81
306.352	610.81
306.582	610.81
306.812	598.81
307.042	634.81
307.272	612.81
307.502	605.81
307.731	603.81
307.961	611.81
308.191	599.81
308.421	587.81
308.651	621.81
308.881	592.81
309.111	603.81
309.341	595.81
309.571	584.81
309.8	625.81
310.03	607.81
310.26	629.81
310.49	623.81
310.72	617.81
310.949	618.81
311.179	615.81
311.409	630.81
311.639	608.81
311.868	625.81
312.098	620.81
312.328	632.81
312.557	633.81
312.787	651.81
313.017	611.81
313.246	627.81
313.476	633.81
313.706	652.81
313.935	667.81
314.165	635.81
314.394	650.81
314.624	646.81
314.853	635.81
315.083	674.81
315.312	662.81
315.542	690.81
315.771	639.81
316.001	670.81
316.23	649.81
316.46	632.81
316.689	649.81
316.919	666.81
317.148	677.81
317.377	675.81
317.607	655.81
317.836	651.81
318.065	664.81
318.295	679.81
318.524	662.81
318.753	651.81
318.983	670.81
319.212	653.81
319.441	671.81
319.67	671.81
319.9	678.81
320.129	673.81
320.358	666.81
320.587	654.81
320.816	675.81
321.046	704.81
321.275	671.81
321.504	655.81
321.733	669.81
321.962	669.81
322.191	679.81
322.42	683.81
322.649	714.81
322.878	697.81
323.108	675.81
323.337	691.81
323.566	698.81
323.795	672.81
324.024	686.81
324.253	701.81
324.482	660.81
324.71	691.81
324.939	687.81
325.168	683.81
325.397	680.81
325.626	730.81
325.855	701.81
326.084	696.81
326.313	725.81
326.542	731.81
326.77	733.81
326.999	737.81
327.228	709.81
327.457	721.81
327.686	708.81
327.914	720.81
328.143	727.81
328.372	722.81
328.6	726.81
328.829	712.81
329.058	723.81
329.287	721.81
329.515	735.81
329.744	727.81
329.972	738.81
330.201	729.81
330.43	743.81
330.658	721.81
330.887	752.81
331.115	744.81
331.344	769.81
331.572	773.81
331.801	768.81
332.03	764.81
332.258	775.81
332.486	771.81
332.715	782.81
332.943	790.81
333.172	814.81
333.4	801.81
333.629	805.81
333.857	844.81
334.085	825.81
334.314	864.81
334.542	866.81
334.771	832.81
334.999	889.81
335.227	839.81
335.455	863.81
335.684	867.81
335.912	887.81
336.14	889.81
336.369	861.81
336.597	847.81
336.825	854.81
337.053	850.81
337.281	861.81
337.51	853.81
337.738	807.81
337.966	849.81
338.194	821.81
338.422	811.81
338.65	804.81
338.878	805.81
339.106	786.81
339.334	763.81
339.562	789.81
339.79	807.81
340.018	817.81
340.246	777.81
340.474	768.81
340.702	793.81
340.93	804.81
341.158	761.81
341.386	768.81
341.614	792.81
341.842	767.81
342.07	789.81
342.298	767.81
342.526	773.81
342.754	784.81
342.981	782.81
343.209	769.81
343.437	805.81
343.665	802.81
343.893	831.81
344.12	868.81
344.348	819.81
344.576	822.81
344.804	836.81
345.031	805.81
345.259	793.81
345.487	793.81
345.714	784.81
345.942	776.81
346.17	785.81
346.397	760.81
346.625	740.81
346.853	758.81
347.08	732.81
347.308	738.81
347.535	756.81
347.763	770.81
347.99	739.81
348.218	727.81
348.445	733.81
348.673	746.81
348.9	751.81
349.128	745.81
349.355	737.81
349.583	735.81
349.81	749.81
350.037	725.81
350.265	731.81
350.492	729.81
350.72	730.81
350.947	737.81
351.174	708.81
351.402	729.81
351.629	718.81
351.856	697.81
352.083	717.81
352.311	713.81
352.538	719.81
352.765	718.81
352.992	712.81
353.22	712.81
353.447	727.81
353.674	739.81
353.901	745.81
354.128	734.81
354.355	743.81
354.583	732.81
354.81	738.81
355.037	727.81
355.264	729.81
355.491	741.81
355.718	756.81
355.945	731.81
356.172	722.81
356.399	750.81
356.626	730.81
356.853	773.81
357.08	753.81
357.307	756.81
357.534	729.81
357.761	771.81
357.988	771.81
358.215	749.81
358.441	793.81
358.668	784.81
358.895	761.81
359.122	754.81
359.349	741.81
359.576	725.81
359.802	725.81
360.029	755.81
360.256	715.81
360.483	753.81
360.709	732.81
360.936	755.81
361.163	746.81
361.39	749.81
361.616	750.81
361.843	759.81
362.07	774.81
362.296	781.81
362.523	734.81
362.749	761.81
362.976	744.81
363.203	765.81
363.429	799.81
363.656	759.81
363.882	735.81
364.109	756.81
364.335	759.81
364.562	761.81
364.788	759.81
365.015	784.81
365.241	779.81
365.468	722.81
365.694	727.81
365.92	758.81
366.147	757.81
366.373	758.81
366.599	749.81
366.826	787.81
367.052	752.81
367.278	756.81
367.505	743.81
367.731	773.81
367.957	785.81
368.184	805.81
368.41	773.81
368.636	781.81
368.862	775.81
369.089	777.81
369.315	789.81
369.541	781.81
369.767	790.81
369.993	787.81
370.219	783.81
370.445	809.81
370.672	845.81
370.898	787.81
371.124	813.81
371.35	825.81
371.576	800.81
371.802	815.81
372.028	842.81
372.254	855.81
372.48	873.81
372.706	818.81
372.932	833.81
373.158	817.81
373.384	848.81
373.61	888.81
373.835	877.81
374.061	852.81
374.287	856.81
374.513	850.81
374.739	912.81
374.965	899.81
375.191	905.81
375.416	885.81
375.642	874.81
375.868	860.81
376.094	871.81
376.319	872.81
376.545	852.81
376.771	859.81
376.997	828.81
377.222	832.81
377.448	828.81
377.674	803.81
377.899	803.81
378.125	821.81
378.35	805.81
378.576	825.81
378.802	818.81
379.027	853.81
379.253	837.81
379.478	813.81
379.704	835.81
379.929	821.81
380.155	848.81
380.38	856.81
380.606	852.81
380.831	856.81
381.057	867.81
381.282	846.81
381.507	864.81
381.733	856.81
381.958	865.81
382.184	885.81
382.409	907.81
382.634	923.81
382.86	922.81
383.085	899.81
383.31	895.81
383.535	908.81
383.761	917.81
383.986	895.81
384.211	939.81
384.436	921.81
384.662	907.81
384.887	926.81
385.112	933.81
385.337	941.81
385.562	946.81
385.787	966.81
386.013	979.81
386.238	977.81
386.463	1002.81
386.688	974.81
386.913	972.81
387.138	953.81
387.363	968.81
387.588	966.81
387.813	959.81
388.038	979.81
388.263	1007.81
388.488	974.81
388.713	1012.81
388.938	1012.81
389.163	999.81
389.387	978.81
389.612	963.81
389.837	978.81
390.062	999.81
390.287	996.81
390.512	1010.81
390.736	1009.81
390.961	1009.81
391.186	1034.81
391.411	1025.81
391.636	1055.81
391.86	1069.81
392.085	1075.81
392.31	1039.81
392.534	1053.81
392.759	1065.81
392.984	1038.81
393.208	1043.81
393.433	1071.81
393.658	1074.81
393.882	1044.81
394.107	1005.81
394.331	1032.81
394.556	1032.81
394.78	1065.81
395.005	1041.81
395.229	1080.81
395.454	1093.81
395.678	1061.81
395.903	1083.81
396.127	1081.81
396.352	1081.81
396.576	1056.81
396.801	1079.81
397.025	1112.81
397.249	1119.81
397.474	1138.81
397.698	1118.81
397.922	1110.81
398.147	1149.81
398.371	1149.81
398.595	1164.81
398.82	1213.81
399.044	1229.81
399.268	1290.81
399.492	1365.81
399.717	1380.81
399.941	1417.81
400.165	1394.81
400.389	1369.81
400.613	1325.81
400.837	1314.81
401.062	1269.81
401.286	1240.81
401.51	1240.81
401.734	1203.81
401.958	1234.81
402.182	1230.81
402.406	1192.81
402.63	1190.81
402.854	1196.81
403.078	1224.81
403.302	1205.81
403.526	1234.81
403.75	1246.81
403.974	1265.81
404.198	1209.81
404.422	1227.81
404.645	1245.81
404.869	1256.81
405.093	1283.81
405.317	1285.81
405.541	1266.81
405.765	1242.81
405.988	1270.81
406.212	1317.81
406.436	1288.81
406.66	1314.81
406.883	1307.81
407.107	1360.81
407.331	1400.81
407.555	1431.81
407.778	1446.81
408.002	1419.81
408.226	1430.81
408.449	1395.81
408.673	1409.81
408.896	1344.81
409.12	1330.81
409.344	1365.81
409.567	1314.81
409.791	1353.81
410.014	1339.81
410.238	1341.81
410.461	1335.81
410.685	1313.81
410.908	1328.81
411.132	1289.81
411.355	1289.81
411.578	1287.81
411.802	1265.81
412.025	1270.81
412.249	1288.81
412.472	1289.81
412.695	1265.81
412.919	1244.81
413.142	1261.81
413.365	1242.81
413.589	1271.81
413.812	1272.81
414.035	1235.81
414.258	1249.81
414.482	1265.81
414.705	1233.81
414.928	1216.81
415.151	1239.81
415.374	1231.81
415.597	1215.81
415.821	1221.81
416.044	1215.81
416.267	1217.81
416.49	1185.81
416.713	1163.81
416.936	1213.81
417.159	1195.81
417.382	1169.81
417.605	1149.81
417.828	1167.81
418.051	1173.81
418.274	1188.81
418.497	1177.81
418.72	1198.81
418.943	1177.81
419.166	1249.81
419.389	1333.81
419.611	1298.81
419.834	1286.81
420.057	1246.81
420.28	1200.81
420.503	1189.81
420.726	1180.81
420.948	1169.81
421.171	1171.81
421.394	1164.81
421.617	1177.81
421.839	1192.81
422.062	1174.81
422.285	1155.81
422.507	1149.81
422.73	1165.81
422.953	1185.81
423.175	1190.81
423.398	1175.81
423.621	1156.81
423.843	1161.81
424.066	1180.81
424.288	1184.81
424.511	1168.81
424.733	1193.81
424.956	1173.81
425.178	1179.81
425.401	1164.81
425.623	1197.81
425.846	1165.81
426.068	1169.81
426.291	1166.81
426.513	1110.81
426.735	1133.81
426.958	1170.81
427.18	1127.81
427.402	1159.81
427.625	1139.81
427.847	1142.81
428.069	1145.81
428.292	1147.81
428.514	1123.81
428.736	1125.81
428.958	1135.81
429.181	1096.81
429.403	1098.81
429.625	1130.81
429.847	1100.81
430.069	1117.81
430.292	1125.81
430.514	1125.81
430.736	1152.81
430.958	1145.81
431.18	1143.81
431.402	1144.81
431.624	1128.81
431.846	1122.81
432.068	1137.81
432.29	1147.81
432.512	1136.81
432.734	1182.81
432.956	1141.81
433.178	1147.81
433.4	1101.81
433.622	1138.81
433.844	1160.81
434.066	1146.81
434.287	1124.81
434.509	1175.81
434.731	1175.81
434.953	1169.81
435.175	1199.81
435.397	1213.81
435.618	1173.81
435.84	1178.81
436.062	1153.81
436.284	1133.81
436.505	1134.81
436.727	1125.81
436.949	1173.81
437.17	1139.81
437.392	1117.81
437.614	1104.81
437.835	1081.81
438.057	1084.81
438.278	1112.81
438.5	1125.81
438.721	1115.81
438.943	1126.81
439.165	1107.81
439.386	1098.81
439.608	1167.81
439.829	1145.81
440.05	1120.81
440.272	1137.81
440.493	1147.81
440.715	1149.81
440.936	1155.81
441.158	1137.81
441.379	1198.81
441.6	1198.81
441.822	1199.81
442.043	1174.81
442.264	1162.81
442.486	1151.81
442.707	1179.81
442.928	1197.81
443.149	1190.81
443.371	1165.81
443.592	1187.81
443.813	1211.81
444.034	1201.81
444.255	1224.81
444.476	1209.81
444.698	1233.81
444.919	1262.81
445.14	1330.81
445.361	1264.81
445.582	1218.81
445.803	1195.81
446.024	1193.81
446.245	1146.81
446.466	1169.81
446.687	1119.81
446.908	1129.81
447.129	1155.81
447.35	1143.81
447.571	1117.81
447.792	1078.81
448.013	1122.81
448.234	1070.81
448.455	1055.81
448.675	1064.81
448.896	1069.81
449.117	1052.81
449.338	1077.81
449.559	1036.81
449.779	1041.81
450	1042.81
450.221	1062.81
450.442	1047.81
450.662	1051.81
450.883	1051.81
451.104	1099.81
451.324	1053.81
451.545	1031.81
451.766	1042.81
451.986	1039.81
452.207	1050.81
452.428	1034.81
452.648	1022.81
452.869	996.81
453.089	1009.81
453.31	991.81
453.53	1026.81
453.751	1000.81
453.971	1010.81
454.192	1008.81
454.412	1000.81
454.633	995.81
454.853	993.81
455.073	998.81
455.294	993.81
455.514	995.81
455.734	1015.81
455.955	1006.81
456.175	975.81
456.395	994.81
456.616	999.81
456.836	998.81
457.056	998.81
457.276	995.81
457.497	1026.81
457.717	1002.81
457.937	1001.81
458.157	998.81
458.377	1019.81
458.598	1041.81
458.818	1050.81
459.038	1079.81
459.258	1070.81
459.478	1094.81
459.698	1132.81
459.918	1153.81
460.138	1170.81
460.358	1182.81
460.578	1199.81
460.798	1228.81
461.018	1262.81
461.238	1201.81
461.458	1254.81
461.678	1240.81
461.898	1278.81
462.118	1278.81
462.338	1301.81
462.558	1283.81
462.777	1347.81
462.997	1381.81
463.217	1421.81
463.437	1415.81
463.657	1399.81
463.876	1380.81
464.096	1384.81
464.316	1365.81
464.536	1338.81
464.755	1333.81
464.975	1329.81
465.195	1294.81
465.414	1262.81
465.634	1205.81
465.854	1183.81
466.073	1167.81
466.293	1173.81
466.512	1116.81
466.732	1147.81
466.951	1133.81
467.171	1131.81
467.391	1112.81
467.61	1062.81
467.829	1101.81
468.049	1113.81
468.268	1086.81
468.488	1071.81
468.707	1063.81
468.927	1115.81
469.146	1103.81
469.365	1100.81
469.585	1077.81
469.804	1096.81
470.023	1139.81
470.243	1095.81
470.462	1087.81
470.681	1114.81
470.901	1110.81
471.12	1128.81
471.339	1099.81
471.558	1101.81
471.777	1105.81
471.997	1085.81
472.216	1099.81
472.435	1107.81
472.654	1071.81
472.873	1053.81
473.092	1083.81
473.311	1066.81
473.53	1102.81
473.749	1071.81
473.968	1091.81
474.187	1086.81
474.406	1093.81
474.625	1089.81
474.844	1097.81
475.063	1094.81
475.282	1085.81
475.501	1088.81
475.72	1085.81
475.939	1118.81
476.158	1097.81
476.377	1150.81
476.596	1159.81
476.814	1219.81
477.033	1138.81
477.252	1185.81
477.471	1152.81
477.69	1191.81
477.908	1211.81
478.127	1209.81
478.346	1226.81
478.564	1251.81
478.783	1255.81
479.002	1281.81
479.22	1286.81
479.439	1316.81
479.658	1279.81
479.876	1305.81
480.095	1289.81
480.313	1306.81
480.532	1290.81
480.751	1315.81
480.969	1312.81
481.188	1312.81
481.406	1316.81
481.624	1294.81
481.843	1215.81
482.061	1279.81
482.28	1253.81
482.498	1286.81
482.717	1277.81
482.935	1272.81
483.153	1270.81
483.372	1288.81
483.59	1289.81
483.808	1266.81
484.027	1270.81
484.245	1275.81
484.463	1293.81
484.681	1281.81
484.9	1306.81
485.118	1283.81
485.336	1272.81
485.554	1273.81
485.772	1290.81
485.99	1279.81
486.209	1274.81
486.427	1301.81
486.645	1258.81
486.863	1300.81
487.081	1299.81
487.299	1266.81
487.517	1285.81
487.735	1295.81
487.953	1329.81
488.171	1300.81
488.389	1312.81
488.607	1275.81
488.825	1295.81
489.043	1299.81
489.261	1283.81
489.479	1298.81
489.696	1301.81
489.914	1297.81
490.132	1313.81
490.35	1330.81
490.568	1309.81
490.786	1337.81
491.003	1291.81
491.221	1303.81
491.439	1315.81
491.657	1316.81
491.874	1354.81
492.092	1345.81
492.31	1374.81
492.527	1352.81
492.745	1343.81
492.963	1354.81
493.18	1335.81
493.398	1374.81
493.615	1347.81
493.833	1355.81
494.05	1376.81
494.268	1383.81
494.485	1330.81
494.703	1354.81
494.92	1405.81
495.138	1369.81
495.355	1373.81
495.573	1380.81
495.79	1389.81
496.008	1451.81
496.225	1459.81
496.442	1433.81
496.66	1445.81
496.877	1502.81
497.094	1483.81
497.312	1517.81
497.529	1536.81
497.746	1544.81
497.963	1596.81
498.181	1633.81
498.398	1677.81
498.615	1724.81
498.832	1825.81
499.049	1830.81
499.267	1926.81
499.484	2022.81
499.701	2122.81
499.918	2196.81
500.135	2321.81
500.352	2442.81
500.569	2433.81
500.786	2373.81
501.003	2367.81
501.22	2306.81
501.437	2223.81
501.654	2147.81
501.871	2019.81
502.088	1906.81
502.305	1853.81
502.522	1760.81
502.739	1754.81
502.956	1645.81
503.172	1657.81
503.389	1603.81
503.606	1540.81
503.823	1533.81
504.04	1542.81
504.256	1478.81
504.473	1456.81
504.69	1456.81
504.907	1424.81
505.123	1369.81
505.34	1391.81
505.557	1352.81
505.773	1343.81
505.99	1304.81
506.207	1265.81
506.423	1255.81
506.64	1226.81
506.856	1247.81
507.073	1212.81
507.289	1233.81
507.506	1227.81
507.722	1201.81
507.939	1204.81
508.155	1174.81
508.372	1154.81
508.588	1155.81
508.805	1155.81
509.021	1106.81
509.238	1121.81
509.454	1129.81
509.67	1090.81
509.887	1115.81
510.103	1118.81
510.319	1091.81
510.536	1069.81
510.752	1085.81
510.968	1099.81
511.184	1096.81
511.401	1092.81
511.617	1112.81
511.833	1073.81
512.049	1075.81
512.265	1085.81
512.481	1081.81
512.698	1104.81
512.914	1118.81
513.13	1092.81
513.346	1083.81
513.562	1050.81
513.778	1098.81
513.994	1073.81
514.21	1069.81
514.426	1067.81
514.642	1105.81
514.858	1091.81
515.074	1109.81
515.29	1112.81
515.506	1121.81
515.721	1112.81
515.937	1123.81
516.153	1158.81
516.369	1142.81
516.585	1173.81
516.801	1184.81
517.016	1226.81
517.232	1239.81
517.448	1264.81
517.664	1216.81
517.879	1243.81
518.095	1234.81
518.311	1233.81
518.527	1219.81
518.742	1208.81
518.958	1194.81
519.173	1168.81
519.389	1163.81
519.605	1141.81
519.82	1104.81
520.036	1137.81
520.251	1143.81
520.467	1103.81
520.682	1089.81
520.898	1057.81
521.113	1074.81
521.329	1025.81
521.544	1076.81
521.76	1071.81
521.975	1056.81
522.19	1033.81
522.406	1024.81
522.621	1061.81
522.836	1030.81
523.052	1013.81
523.267	988.81
523.482	1006.81
523.698	993.81
523.913	981.81
524.128	998.81
524.343	993.81
524.559	969.81
524.774	970.81
524.989	954.81
525.204	997.81
525.419	998.81
525.634	963.81
525.849	997.81
526.064	968.81
526.28	964.81
526.495	1000.81
526.71	968.81
526.925	955.81
527.14	935.81
527.355	956.81
527.57	945.81
527.785	927.81
527.999	951.81
528.214	964.81
528.429	952.81
528.644	966.81
528.859	945.81
529.074	955.81
529.289	974.81
529.503	944.81
529.718	957.81
529.933	921.81
530.148	945.81
530.363	945.81
530.577	938.81
530.792	921.81
531.007	944.81
531.221	939.81
531.436	968.81
531.651	936.81
531.865	919.81
532.08	910.81
532.295	916.81
532.509	896.81
532.724	906.81
532.938	918.81
533.153	917.81
533.367	931.81
533.582	927.81
533.796	918.81
534.011	910.81
534.225	897.81
534.44	879.81
534.654	903.81
534.868	891.81
535.083	897.81
535.297	926.81
535.511	916.81
535.726	897.81
535.94	887.81
536.154	912.81
536.369	879.81
536.583	878.81
536.797	860.81
537.011	881.81
537.225	865.81
537.44	893.81
537.654	876.81
537.868	854.81
538.082	864.81
538.296	856.81
538.51	892.81
538.724	874.81
538.938	872.81
539.153	855.81
539.367	865.81
539.581	845.81
539.795	871.81
540.009	817.81
540.222	843.81
540.436	848.81
540.65	848.81
540.864	857.81
541.078	859.81
541.292	814.81
541.506	869.81
541.72	854.81
541.934	873.81
542.147	857.81
542.361	830.81
542.575	854.81
542.789	838.81
543.002	838.81
543.216	880.81
543.43	826.81
543.644	849.81
543.857	840.81
544.071	828.81
544.285	829.81
544.498	835.81
544.712	845.81
544.925	861.81
545.139	844.81
545.352	822.81
545.566	825.81
545.779	832.81
545.993	824.81
546.206	851.81
546.42	854.81
546.633	818.81
546.847	860.81
547.06	859.81
547.274	853.81
547.487	872.81
547.7	883.81
547.914	863.81
548.127	871.81
548.34	869.81
548.554	830.81
548.767	846.81
548.98	872.81
549.193	858.81
549.407	853.81
549.62	871.81
549.833	841.81
550.046	885.81
550.259	847.81
550.473	835.81
550.686	851.81
550.899	834.81
551.112	856.81
551.325	832.81
551.538	854.81
551.751	837.81
551.964	823.81
552.177	828.81
552.39	850.81
552.603	851.81
552.816	834.81
553.029	865.81
553.242	840.81
553.455	891.81
553.667	869.81
553.88	846.81
554.093	831.81
554.306	826.81
554.519	817.81
554.732	835.81
554.944	802.81
555.157	807.81
555.37	788.81
555.583	786.81
555.795	783.81
556.008	779.81
556.221	767.81
556.433	772.81
556.646	749.81
556.859	738.81
557.071	759.81
557.284	750.81
557.496	720.81
557.709	738.81
557.921	743.81
558.134	730.81
558.346	732.81
558.559	718.81
558.771	739.81
558.984	747.81
559.196	735.81
559.409	693.81
559.621	739.81
559.833	707.81
560.046	700.81
560.258	715.81
560.47	731.81
560.683	720.81
560.895	709.81
561.107	729.81
561.32	704.81
561.532	704.81
561.744	728.81
561.956	702.81
562.168	714.81
562.381	718.81
562.593	721.81
562.805	720.81
563.017	712.81
563.229	708.81
563.441	713.81
563.653	726.81
563.865	729.81
564.077	701.81
564.289	736.81
564.501	746.81
564.713	762.81
564.925	767.81
565.137	745.81
565.349	773.81
565.561	797.81
565.773	803.81
565.985	834.81
566.197	846.81
566.408	855.81
566.62	879.81
566.832	897.81
567.044	945.81
567.255	914.81
567.467	925.81
567.679	937.81
567.891	961.81
568.102	954.81
568.314	886.81
568.526	877.81
568.737	851.81
568.949	833.81
569.161	813.81
569.372	782.81
569.584	774.81
569.795	742.81
570.007	746.81
570.218	733.81
570.43	698.81
570.641	701.81
570.853	694.81
571.064	687.81
571.276	670.81
571.487	678.81
571.698	639.81
571.91	644.81
572.121	632.81
572.333	628.81
572.544	625.81
572.755	617.81
572.966	629.81
573.178	633.81
573.389	594.81
573.6	596.81
573.811	562.81
574.023	579.81
574.234	568.81
574.445	576.81
574.656	575.81
574.867	579.81
575.078	585.81
575.289	588.81
575.501	554.81
575.712	528.81
575.923	565.81
576.134	548.81
576.345	574.81
576.556	584.81
576.767	541.81
576.978	561.81
577.188	549.81
577.399	544.81
577.61	528.81
577.821	523.81
578.032	553.81
578.243	514.81
578.454	521.81
578.665	533.81
578.875	510.81
579.086	524.81
579.297	532.81
579.508	524.81
579.718	492.81
579.929	512.81
580.14	496.81
580.35	498.81
580.561	510.81
580.772	500.81
580.982	512.81
581.193	509.81
581.403	508.81
581.614	486.81
581.825	487.81
582.035	479.81
582.246	486.81
582.456	499.81
582.667	481.81
582.877	490.81
583.087	475.81
583.298	499.81
583.508	475.81
583.719	473.81
583.929	487.81
584.139	469.81
584.35	475.81
584.56	484.81
584.77	465.81
584.981	488.81
585.191	468.81
585.401	454.81
585.611	467.81
585.821	478.81
586.032	450.81
586.242	465.81
586.452	450.81
586.662	466.81
586.872	459.81
587.082	440.81
587.292	462.81
587.502	475.81
587.713	459.81
587.923	470.81
588.133	454.81
588.343	457.81
588.553	500.81
588.762	465.81
588.972	494.81
589.182	500.81
589.392	489.81
589.602	475.81
589.812	484.81
590.022	477.81
590.232	442.81
590.441	457.81
590.651	466.81
590.861	463.81
591.071	461.81
591.281	463.81
591.49	484.81
591.7	466.81
591.91	489.81
592.119	442.81
592.329	480.81
592.539	469.81
592.748	485.81
592.958	483.81
593.167	488.81
593.377	502.81
593.587	496.81
593.796	507.81
594.006	487.81
594.215	481.81
594.424	495.81
594.634	501.81
594.843	480.81
595.053	474.81
595.262	458.81
595.472	457.81
595.681	472.81
595.89	457.81
596.1	438.81
596.309	461.81
596.518	446.81
596.727	429.81
596.937	441.81
597.146	443.81
597.355	413.81
597.564	423.81
597.774	425.81
597.983	421.81
598.192	416.81
598.401	401.81
598.61	417.81
598.819	392.81
599.028	409.81
599.237	401.81
599.446	383.81
599.655	381.81
599.864	377.81
600.073	367.81
600.282	409.81
600.491	379.81
600.7	396.81
600.909	381.81
601.118	389.81
601.327	378.81
601.536	374.81
601.745	371.81
601.953	373.81
602.162	384.81
602.371	373.81
602.58	354.81
602.789	376.81
602.997	377.81
603.206	362.81
603.415	352.81
603.623	374.81
603.832	359.81
604.041	358.81
604.249	375.81
604.458	349.81
604.666	381.81
604.875	373.81
605.084	367.81
605.292	361.81
605.501	345.81
605.709	363.81
605.918	337.81
606.126	365.81
606.334	356.81
606.543	341.81
606.751	345.81
606.96	375.81
607.168	357.81
607.376	352.81
607.585	340.81
607.793	357.81
608.001	349.81
608.21	358.81
608.418	337.81
608.626	343.81
608.834	331.81
609.043	358.81
609.251	366.81
609.459	344.81
609.667	353.81
609.875	346.81
610.083	359.81
610.291	336.81
610.499	357.81
610.707	333.81
610.916	350.81
611.124	350.81
611.332	338.81
611.54	344.81
611.748	329.81
611.955	343.81
612.163	343.81
612.371	345.81
612.579	320.81
612.787	350.81
612.995	332.81
613.203	327.81
613.411	342.81
613.618	337.81
613.826	336.81
614.034	337.81
614.242	345.81
614.449	322.81
614.657	345.81
614.865	333.81
615.072	326.81
615.28	335.81
615.488	333.81
615.695	326.81
615.903	327.81
616.111	328.81
616.318	346.81
616.526	307.81
616.733	349.81
616.941	307.81
617.148	313.81
617.356	323.81
617.563	335.81
617.771	322.81
617.978	317.81
618.185	327.81
618.393	327.81
618.6	315.81
618.807	320.81
619.015	333.81
619.222	313.81
619.429	307.81
619.637	345.81
619.844	306.81
620.051	330.81
620.258	309.81
620.466	313.81
620.673	292.81
620.88	299.81
621.087	298.81
621.294	291.81
621.501	301.81
621.708	303.81
621.915	298.81
622.122	309.81
622.329	305.81
622.536	304.81
622.743	314.81
622.95	319.81
623.157	285.81
623.364	287.81
623.571	283.81
623.778	306.81
623.985	285.81
624.192	311.81
624.399	289.81
624.606	304.81
624.812	313.81
625.019	305.81
625.226	293.81
625.433	292.81
625.639	291.81
625.846	303.81
626.053	270.81
626.259	275.81
626.466	279.81
626.673	288.81
626.879	294.81
627.086	270.81
627.293	286.81
627.499	271.81
627.706	283.81
627.912	273.81
628.119	281.81
628.325	280.81
628.532	282.81
628.738	255.81
628.945	249.81
629.151	276.81
629.357	267.81
629.564	265.81
629.77	275.81
629.976	259.81
630.183	274.81
630.389	280.81
630.595	278.81
630.802	258.81
631.008	255.81
631.214	262.81
631.42	289.81
631.627	242.81
631.833	245.81
632.039	252.81
632.245	256.81
632.451	249.81
632.657	267.81
632.863	257.81
633.069	253.81
633.275	262.81
633.481	254.81
633.688	264.81
633.893	245.81
634.099	270.81
634.305	250.81
634.511	248.81
634.717	245.81
634.923	245.81
635.129	231.81
635.335	235.81
635.541	229.81
635.747	262.81
635.952	241.81
636.158	225.81
636.364	233.81
636.57	237.81
636.775	225.81
636.981	248.81
637.187	239.81
637.392	245.81
637.598	240.81
637.804	232.81
638.009	230.81
638.215	232.81
638.421	229.81
638.626	239.81
638.832	237.81
639.037	223.81
639.243	239.81
639.448	229.81
639.654	254.81
639.859	239.81
640.065	228.81
640.27	239.81
640.475	225.81
640.681	239.81
640.886	239.81
641.091	233.81
641.297	232.81
641.502	255.81
641.707	220.81
641.913	239.81
642.118	228.81
642.323	237.81
642.528	239.81
642.733	218.81
642.939	233.81
643.144	216.81
643.349	224.81
643.554	240.81
643.759	234.81
643.964	210.81
644.169	216.81
644.374	226.81
644.579	239.81
644.784	220.81
644.989	229.81
645.194	233.81
645.399	236.81
645.604	206.81
645.809	232.81
646.014	227.81
646.219	241.81
646.423	228.81
646.628	239.81
646.833	232.81
647.038	224.81
647.243	228.81
647.447	248.81
647.652	226.81
647.857	219.81
648.062	258.81
648.266	229.81
648.471	241.81
648.676	221.81
648.88	253.81
649.085	230.81
649.289	210.81
649.494	225.81
649.698	220.81
649.903	226.81
650.107	235.81
650.312	235.81
650.516	215.81
650.721	229.81
650.925	238.81
651.13	214.81
651.334	207.81
651.539	202.81
651.743	225.81
651.947	227.81
652.152	202.81
652.356	213.81
652.56	214.81
652.764	212.81
652.969	199.81
653.173	201.81
653.377	195.81
653.581	202.81
653.785	200.81
653.99	213.81
654.194	201.81
654.398	200.81
654.602	185.81
654.806	201.81
655.01	204.81
655.214	203.81
655.418	206.81
655.622	195.81
655.826	199.81
656.03	200.81
656.234	212.81
656.438	199.81
656.642	195.81
656.846	198.81
657.049	196.81
657.253	168.81
657.457	174.81
657.661	165.81
657.865	159.81
658.068	154.81
658.272	147.81
658.476	149.81
658.68	124.81
658.883	127.81
659.087	134.81
659.291	129.81
659.494	106.81
659.698	104.81
659.901	117.81
660.105	118.81
660.309	109.81
660.512	99.81
660.716	106.81
660.919	89.81
661.123	122.81
661.326	101.81
661.53	88.81
661.733	103.81
661.936	90.81
662.14	102.81
662.343	93.81
662.546	104.81
662.75	86.81
662.953	78.81
663.156	80.81
663.36	82.81
663.563	72.81
663.766	79.81
663.969	78.81
664.173	80.81
664.376	86.81
664.579	83.81
664.782	75.81
664.985	79.81
665.188	95.81
665.391	76.81
665.594	59.81
665.797	73.81
666	91.81
666.203	69.81
666.406	88.81
666.609	80.81
666.812	78.81
667.015	81.81
667.218	86.81
667.421	90.81
667.624	77.81
667.827	78.81
668.03	64.81
668.232	68.81
668.435	65.81
668.638	83.81
668.841	75.81
669.043	79.81
669.246	73.81
669.449	73.81
669.651	77.81
669.854	81.81
670.057	79.81
670.259	69.81
670.462	78.81
670.665	80.81
670.867	88.81
671.07	81.81
671.272	75.81
671.475	82.81
671.677	75.81
671.88	79.81
672.082	65.81
672.284	73.81
672.487	83.81
672.689	68.81
672.892	95.81
