Data from Fe(NO3)3@0.0125M.TitratingCurve.Agarose3%dH2O.NegLispCup.LampEnergy10.LIBS07252019_HRD10591_17-00-16-336.txt Node
Date: Thu Jul 25 17:00:16 EDT 2019
User: cochatt
Spectrometer: HR+D1059
Trigger mode: 1
Integration Time (sec): 1.000000E-1
Scans to average: 1
Electric dark correction enabled: true
Nonlinearity correction enabled: false
Boxcar width: 0
XAxis mode: Wavelengths
Number of Pixels in Spectrum: 2048
>>>>>Begin Spectral Data<<<<<
223.165	-12.75
223.4	-12.75
223.635	-12.75
223.869	-8.75
224.104	-32.75
224.338	-22.75
224.573	-0.75
224.808	-4.75
225.042	-5.75
225.277	-3.75
225.511	-8.75
225.746	-8.75
225.98	-4.75
226.215	8.25
226.449	2.25
226.683	15.25
226.918	40.25
227.152	48.25
227.387	28.25
227.621	47.25
227.856	44.25
228.09	51.25
228.324	40.25
228.559	51.25
228.793	63.25
229.027	75.25
229.262	74.25
229.496	85.25
229.73	92.25
229.964	107.25
230.199	114.25
230.433	103.25
230.667	96.25
230.901	100.25
231.136	100.25
231.37	104.25
231.604	103.25
231.838	122.25
232.072	112.25
232.306	93.25
232.541	107.25
232.775	121.25
233.009	111.25
233.243	106.25
233.477	112.25
233.711	122.25
233.945	122.25
234.179	127.25
234.413	111.25
234.647	110.25
234.881	126.25
235.115	103.25
235.349	127.25
235.583	119.25
235.817	120.25
236.051	109.25
236.285	120.25
236.519	129.25
236.753	119.25
236.987	114.25
237.221	114.25
237.455	126.25
237.689	122.25
237.922	124.25
238.156	122.25
238.39	132.25
238.624	153.25
238.858	129.25
239.091	136.25
239.325	132.25
239.559	114.25
239.793	131.25
240.027	139.25
240.26	140.25
240.494	131.25
240.728	123.25
240.961	126.25
241.195	147.25
241.429	137.25
241.662	131.25
241.896	141.25
242.13	136.25
242.363	132.25
242.597	145.25
242.83	136.25
243.064	127.25
243.298	153.25
243.531	141.25
243.765	141.25
243.998	137.25
244.232	148.25
244.465	141.25
244.699	133.25
244.932	144.25
245.166	145.25
245.399	146.25
245.633	161.25
245.866	161.25
246.099	135.25
246.333	149.25
246.566	167.25
246.8	142.25
247.033	142.25
247.266	148.25
247.5	141.25
247.733	130.25
247.966	157.25
248.2	163.25
248.433	173.25
248.666	146.25
248.899	161.25
249.133	159.25
249.366	160.25
249.599	161.25
249.832	165.25
250.066	161.25
250.299	160.25
250.532	160.25
250.765	164.25
250.998	165.25
251.231	157.25
251.465	158.25
251.698	149.25
251.931	179.25
252.164	170.25
252.397	172.25
252.63	182.25
252.863	184.25
253.096	183.25
253.329	167.25
253.562	183.25
253.795	175.25
254.028	177.25
254.261	195.25
254.494	187.25
254.727	180.25
254.96	183.25
255.193	191.25
255.426	165.25
255.659	191.25
255.892	189.25
256.124	168.25
256.357	167.25
256.59	195.25
256.823	196.25
257.056	172.25
257.289	198.25
257.521	191.25
257.754	205.25
257.987	193.25
258.22	179.25
258.452	203.25
258.685	211.25
258.918	208.25
259.151	195.25
259.383	193.25
259.616	207.25
259.849	211.25
260.081	233.25
260.314	240.25
260.547	223.25
260.779	206.25
261.012	219.25
261.244	212.25
261.477	235.25
261.71	223.25
261.942	218.25
262.175	218.25
262.407	216.25
262.64	213.25
262.872	216.25
263.105	224.25
263.337	233.25
263.57	224.25
263.802	209.25
264.035	206.25
264.267	209.25
264.499	213.25
264.732	206.25
264.964	204.25
265.197	220.25
265.429	208.25
265.661	220.25
265.894	196.25
266.126	195.25
266.358	215.25
266.591	218.25
266.823	213.25
267.055	210.25
267.287	207.25
267.52	226.25
267.752	216.25
267.984	215.25
268.216	213.25
268.448	221.25
268.681	229.25
268.913	250.25
269.145	241.25
269.377	231.25
269.609	236.25
269.841	241.25
270.073	224.25
270.306	228.25
270.538	228.25
270.77	240.25
271.002	231.25
271.234	239.25
271.466	241.25
271.698	235.25
271.93	252.25
272.162	231.25
272.394	259.25
272.626	259.25
272.858	246.25
273.09	257.25
273.322	246.25
273.553	236.25
273.785	280.25
274.017	279.25
274.249	288.25
274.481	297.25
274.713	310.25
274.945	312.25
275.176	311.25
275.408	283.25
275.64	285.25
275.872	270.25
276.104	291.25
276.335	273.25
276.567	243.25
276.799	278.25
277.031	268.25
277.262	261.25
277.494	264.25
277.726	273.25
277.957	263.25
278.189	271.25
278.421	270.25
278.652	282.25
278.884	273.25
279.115	271.25
279.347	275.25
279.579	275.25
279.81	283.25
280.042	246.25
280.273	281.25
280.505	253.25
280.736	262.25
280.968	276.25
281.199	277.25
281.431	270.25
281.662	271.25
281.894	296.25
282.125	292.25
282.356	312.25
282.588	288.25
282.819	275.25
283.051	287.25
283.282	284.25
283.513	287.25
283.745	307.25
283.976	300.25
284.207	293.25
284.439	287.25
284.67	299.25
284.901	289.25
285.132	303.25
285.364	310.25
285.595	277.25
285.826	304.25
286.057	299.25
286.288	301.25
286.52	292.25
286.751	294.25
286.982	324.25
287.213	308.25
287.444	312.25
287.675	308.25
287.906	300.25
288.138	327.25
288.369	320.25
288.6	332.25
288.831	307.25
289.062	297.25
289.293	286.25
289.524	321.25
289.755	320.25
289.986	323.25
290.217	308.25
290.448	306.25
290.679	325.25
290.91	330.25
291.141	322.25
291.371	315.25
291.602	336.25
291.833	326.25
292.064	319.25
292.295	307.25
292.526	318.25
292.757	335.25
292.987	325.25
293.218	305.25
293.449	313.25
293.68	317.25
293.91	326.25
294.141	315.25
294.372	313.25
294.603	334.25
294.833	327.25
295.064	347.25
295.295	325.25
295.525	315.25
295.756	322.25
295.987	319.25
296.217	344.25
296.448	337.25
296.679	315.25
296.909	343.25
297.14	350.25
297.37	348.25
297.601	345.25
297.831	325.25
298.062	356.25
298.292	323.25
298.523	343.25
298.753	342.25
298.984	338.25
299.214	343.25
299.445	362.25
299.675	352.25
299.905	363.25
300.136	356.25
300.366	347.25
300.597	345.25
300.827	356.25
301.057	357.25
301.288	342.25
301.518	345.25
301.748	349.25
301.979	363.25
302.209	378.25
302.439	373.25
302.669	373.25
302.9	372.25
303.13	358.25
303.36	375.25
303.59	356.25
303.82	373.25
304.051	367.25
304.281	369.25
304.511	364.25
304.741	359.25
304.971	368.25
305.201	368.25
305.431	373.25
305.661	372.25
305.891	378.25
306.121	359.25
306.352	365.25
306.582	368.25
306.812	369.25
307.042	379.25
307.272	353.25
307.502	363.25
307.731	381.25
307.961	352.25
308.191	374.25
308.421	369.25
308.651	379.25
308.881	355.25
309.111	383.25
309.341	364.25
309.571	391.25
309.8	383.25
310.03	384.25
310.26	377.25
310.49	379.25
310.72	394.25
310.949	391.25
311.179	400.25
311.409	391.25
311.639	383.25
311.868	396.25
312.098	401.25
312.328	391.25
312.557	377.25
312.787	380.25
313.017	370.25
313.246	391.25
313.476	380.25
313.706	397.25
313.935	406.25
314.165	421.25
314.394	391.25
314.624	431.25
314.853	399.25
315.083	401.25
315.312	400.25
315.542	402.25
315.771	403.25
316.001	409.25
316.23	395.25
316.46	403.25
316.689	406.25
316.919	407.25
317.148	421.25
317.377	424.25
317.607	410.25
317.836	408.25
318.065	417.25
318.295	427.25
318.524	414.25
318.753	397.25
318.983	402.25
319.212	392.25
319.441	414.25
319.67	419.25
319.9	414.25
320.129	420.25
320.358	409.25
320.587	432.25
320.816	443.25
321.046	438.25
321.275	424.25
321.504	408.25
321.733	437.25
321.962	411.25
322.191	425.25
322.42	412.25
322.649	428.25
322.878	411.25
323.108	422.25
323.337	431.25
323.566	438.25
323.795	428.25
324.024	440.25
324.253	440.25
324.482	443.25
324.71	431.25
324.939	469.25
325.168	431.25
325.397	420.25
325.626	431.25
325.855	443.25
326.084	456.25
326.313	442.25
326.542	458.25
326.77	464.25
326.999	442.25
327.228	465.25
327.457	437.25
327.686	439.25
327.914	469.25
328.143	454.25
328.372	447.25
328.6	429.25
328.829	437.25
329.058	449.25
329.287	477.25
329.515	454.25
329.744	452.25
329.972	465.25
330.201	458.25
330.43	466.25
330.658	457.25
330.887	469.25
331.115	479.25
331.344	457.25
331.572	453.25
331.801	465.25
332.03	473.25
332.258	473.25
332.486	470.25
332.715	487.25
332.943	479.25
333.172	488.25
333.4	492.25
333.629	503.25
333.857	515.25
334.085	531.25
334.314	487.25
334.542	510.25
334.771	520.25
334.999	512.25
335.227	508.25
335.455	507.25
335.684	495.25
335.912	511.25
336.14	516.25
336.369	499.25
336.597	511.25
336.825	531.25
337.053	485.25
337.281	501.25
337.51	494.25
337.738	487.25
337.966	478.25
338.194	490.25
338.422	487.25
338.65	490.25
338.878	476.25
339.106	469.25
339.334	496.25
339.562	492.25
339.79	497.25
340.018	473.25
340.246	501.25
340.474	492.25
340.702	501.25
340.93	498.25
341.158	482.25
341.386	481.25
341.614	495.25
341.842	513.25
342.07	483.25
342.298	471.25
342.526	487.25
342.754	484.25
342.981	499.25
343.209	482.25
343.437	499.25
343.665	478.25
343.893	490.25
344.12	526.25
344.348	498.25
344.576	512.25
344.804	497.25
345.031	500.25
345.259	498.25
345.487	500.25
345.714	491.25
345.942	488.25
346.17	502.25
346.397	509.25
346.625	497.25
346.853	485.25
347.08	481.25
347.308	467.25
347.535	482.25
347.763	481.25
347.99	469.25
348.218	490.25
348.445	474.25
348.673	476.25
348.9	456.25
349.128	458.25
349.355	464.25
349.583	477.25
349.81	456.25
350.037	480.25
350.265	471.25
350.492	473.25
350.72	456.25
350.947	457.25
351.174	497.25
351.402	473.25
351.629	487.25
351.856	466.25
352.083	465.25
352.311	492.25
352.538	480.25
352.765	476.25
352.992	465.25
353.22	467.25
353.447	474.25
353.674	459.25
353.901	481.25
354.128	487.25
354.355	482.25
354.583	462.25
354.81	478.25
355.037	475.25
355.264	475.25
355.491	480.25
355.718	491.25
355.945	485.25
356.172	471.25
356.399	465.25
356.626	498.25
356.853	487.25
357.08	475.25
357.307	492.25
357.534	474.25
357.761	477.25
357.988	493.25
358.215	512.25
358.441	488.25
358.668	495.25
358.895	482.25
359.122	466.25
359.349	488.25
359.576	487.25
359.802	458.25
360.029	469.25
360.256	482.25
360.483	486.25
360.709	482.25
360.936	483.25
361.163	476.25
361.39	494.25
361.616	500.25
361.843	470.25
362.07	484.25
362.296	506.25
362.523	468.25
362.749	482.25
362.976	489.25
363.203	496.25
363.429	472.25
363.656	496.25
363.882	492.25
364.109	476.25
364.335	477.25
364.562	495.25
364.788	509.25
365.015	506.25
365.241	514.25
365.468	495.25
365.694	496.25
365.92	500.25
366.147	483.25
366.373	476.25
366.599	493.25
366.826	505.25
367.052	485.25
367.278	499.25
367.505	499.25
367.731	490.25
367.957	519.25
368.184	515.25
368.41	507.25
368.636	521.25
368.862	488.25
369.089	505.25
369.315	541.25
369.541	536.25
369.767	505.25
369.993	495.25
370.219	496.25
370.445	529.25
370.672	519.25
370.898	521.25
371.124	512.25
371.35	515.25
371.576	499.25
371.802	519.25
372.028	536.25
372.254	537.25
372.48	536.25
372.706	520.25
372.932	542.25
373.158	520.25
373.384	542.25
373.61	532.25
373.835	572.25
374.061	541.25
374.287	547.25
374.513	528.25
374.739	548.25
374.965	569.25
375.191	547.25
375.416	544.25
375.642	519.25
375.868	551.25
376.094	530.25
376.319	522.25
376.545	530.25
376.771	529.25
376.997	512.25
377.222	515.25
377.448	514.25
377.674	512.25
377.899	525.25
378.125	543.25
378.35	535.25
378.576	519.25
378.802	506.25
379.027	506.25
379.253	512.25
379.478	520.25
379.704	525.25
379.929	553.25
380.155	543.25
380.38	527.25
380.606	537.25
380.831	514.25
381.057	514.25
381.282	531.25
381.507	523.25
381.733	545.25
381.958	531.25
382.184	540.25
382.409	547.25
382.634	563.25
382.86	569.25
383.085	546.25
383.31	561.25
383.535	599.25
383.761	559.25
383.986	552.25
384.211	580.25
384.436	589.25
384.662	578.25
384.887	572.25
385.112	574.25
385.337	580.25
385.562	553.25
385.787	584.25
386.013	587.25
386.238	602.25
386.463	605.25
386.688	590.25
386.913	567.25
387.138	581.25
387.363	574.25
387.588	578.25
387.813	605.25
388.038	607.25
388.263	585.25
388.488	581.25
388.713	596.25
388.938	608.25
389.163	588.25
389.387	597.25
389.612	606.25
389.837	601.25
390.062	583.25
390.287	599.25
390.512	594.25
390.736	599.25
390.961	598.25
391.186	598.25
391.411	578.25
391.636	626.25
391.86	593.25
392.085	614.25
392.31	601.25
392.534	616.25
392.759	621.25
392.984	631.25
393.208	644.25
393.433	665.25
393.658	672.25
393.882	628.25
394.107	586.25
394.331	627.25
394.556	618.25
394.78	618.25
395.005	606.25
395.229	624.25
395.454	636.25
395.678	623.25
395.903	618.25
396.127	635.25
396.352	633.25
396.576	637.25
396.801	653.25
397.025	665.25
397.249	664.25
397.474	672.25
397.698	657.25
397.922	650.25
398.147	640.25
398.371	652.25
398.595	662.25
398.82	651.25
399.044	692.25
399.268	695.25
399.492	716.25
399.717	711.25
399.941	747.25
400.165	726.25
400.389	739.25
400.613	709.25
400.837	698.25
401.062	691.25
401.286	677.25
401.51	709.25
401.734	662.25
401.958	665.25
402.182	690.25
402.406	655.25
402.63	672.25
402.854	657.25
403.078	649.25
403.302	676.25
403.526	699.25
403.75	675.25
403.974	684.25
404.198	670.25
404.422	665.25
404.645	672.25
404.869	690.25
405.093	688.25
405.317	693.25
405.541	715.25
405.765	706.25
405.988	691.25
406.212	713.25
406.436	727.25
406.66	752.25
406.883	723.25
407.107	739.25
407.331	748.25
407.555	748.25
407.778	752.25
408.002	757.25
408.226	753.25
408.449	769.25
408.673	721.25
408.896	755.25
409.12	734.25
409.344	755.25
409.567	714.25
409.791	727.25
410.014	740.25
410.238	727.25
410.461	750.25
410.685	736.25
410.908	692.25
411.132	710.25
411.355	707.25
411.578	716.25
411.802	686.25
412.025	707.25
412.249	710.25
412.472	713.25
412.695	700.25
412.919	714.25
413.142	685.25
413.365	697.25
413.589	691.25
413.812	672.25
414.035	680.25
414.258	717.25
414.482	702.25
414.705	696.25
414.928	687.25
415.151	700.25
415.374	671.25
415.597	662.25
415.821	666.25
416.044	655.25
416.267	667.25
416.49	664.25
416.713	666.25
416.936	677.25
417.159	664.25
417.382	656.25
417.605	648.25
417.828	652.25
418.051	652.25
418.274	647.25
418.497	660.25
418.72	678.25
418.943	666.25
419.166	682.25
419.389	741.25
419.611	711.25
419.834	685.25
420.057	673.25
420.28	658.25
420.503	643.25
420.726	635.25
420.948	641.25
421.171	645.25
421.394	636.25
421.617	630.25
421.839	628.25
422.062	668.25
422.285	639.25
422.507	654.25
422.73	656.25
422.953	639.25
423.175	651.25
423.398	660.25
423.621	657.25
423.843	654.25
424.066	660.25
424.288	654.25
424.511	650.25
424.733	637.25
424.956	640.25
425.178	643.25
425.401	654.25
425.623	644.25
425.846	630.25
426.068	642.25
426.291	635.25
426.513	627.25
426.735	635.25
426.958	647.25
427.18	623.25
427.402	627.25
427.625	629.25
427.847	621.25
428.069	637.25
428.292	612.25
428.514	602.25
428.736	615.25
428.958	615.25
429.181	614.25
429.403	605.25
429.625	613.25
429.847	639.25
430.069	625.25
430.292	637.25
430.514	630.25
430.736	620.25
430.958	645.25
431.18	648.25
431.402	625.25
431.624	636.25
431.846	639.25
432.068	635.25
432.29	620.25
432.512	634.25
432.734	659.25
432.956	617.25
433.178	652.25
433.4	632.25
433.622	645.25
433.844	639.25
434.066	654.25
434.287	659.25
434.509	603.25
434.731	639.25
434.953	640.25
435.175	637.25
435.397	639.25
435.618	643.25
435.84	668.25
436.062	639.25
436.284	653.25
436.505	621.25
436.727	632.25
436.949	625.25
437.17	635.25
437.392	632.25
437.614	611.25
437.835	601.25
438.057	623.25
438.278	603.25
438.5	617.25
438.721	607.25
438.943	633.25
439.165	617.25
439.386	613.25
439.608	614.25
439.829	626.25
440.05	625.25
440.272	612.25
440.493	635.25
440.715	635.25
440.936	644.25
441.158	619.25
441.379	629.25
441.6	663.25
441.822	652.25
442.043	631.25
442.264	627.25
442.486	638.25
442.707	642.25
442.928	668.25
443.149	629.25
443.371	639.25
443.592	665.25
443.813	648.25
444.034	638.25
444.255	640.25
444.476	660.25
444.698	667.25
444.919	673.25
445.14	729.25
445.361	708.25
445.582	639.25
445.803	653.25
446.024	626.25
446.245	625.25
446.466	628.25
446.687	608.25
446.908	621.25
447.129	632.25
447.35	626.25
447.571	612.25
447.792	580.25
448.013	609.25
448.234	612.25
448.455	580.25
448.675	599.25
448.896	603.25
449.117	574.25
449.338	598.25
449.559	596.25
449.779	577.25
450	590.25
450.221	587.25
450.442	568.25
450.662	591.25
450.883	597.25
451.104	572.25
451.324	589.25
451.545	577.25
451.766	597.25
451.986	602.25
452.207	577.25
452.428	594.25
452.648	612.25
452.869	603.25
453.089	568.25
453.31	575.25
453.53	578.25
453.751	573.25
453.971	567.25
454.192	575.25
454.412	554.25
454.633	545.25
454.853	571.25
455.073	551.25
455.294	563.25
455.514	579.25
455.734	572.25
455.955	567.25
456.175	587.25
456.395	556.25
456.616	577.25
456.836	573.25
457.056	571.25
457.276	561.25
457.497	575.25
457.717	570.25
457.937	571.25
458.157	592.25
458.377	596.25
458.598	582.25
458.818	581.25
459.038	579.25
459.258	601.25
459.478	615.25
459.698	625.25
459.918	607.25
460.138	634.25
460.358	636.25
460.578	658.25
460.798	675.25
461.018	669.25
461.238	665.25
461.458	680.25
461.678	666.25
461.898	668.25
462.118	671.25
462.338	678.25
462.558	707.25
462.777	699.25
462.997	723.25
463.217	738.25
463.437	720.25
463.657	692.25
463.876	702.25
464.096	698.25
464.316	713.25
464.536	700.25
464.755	687.25
464.975	687.25
465.195	688.25
465.414	676.25
465.634	632.25
465.854	642.25
466.073	639.25
466.293	637.25
466.512	624.25
466.732	624.25
466.951	626.25
467.171	625.25
467.391	618.25
467.61	649.25
467.829	621.25
468.049	597.25
468.268	612.25
468.488	613.25
468.707	597.25
468.927	620.25
469.146	608.25
469.365	626.25
469.585	618.25
469.804	648.25
470.023	625.25
470.243	630.25
470.462	617.25
470.681	604.25
470.901	615.25
471.12	642.25
471.339	597.25
471.558	667.25
471.777	634.25
471.997	632.25
472.216	645.25
472.435	633.25
472.654	623.25
472.873	637.25
473.092	638.25
473.311	629.25
473.53	616.25
473.749	629.25
473.968	658.25
474.187	648.25
474.406	647.25
474.625	633.25
474.844	655.25
475.063	657.25
475.282	651.25
475.501	650.25
475.72	659.25
475.939	665.25
476.158	669.25
476.377	672.25
476.596	669.25
476.814	708.25
477.033	676.25
477.252	672.25
477.471	714.25
477.69	693.25
477.908	711.25
478.127	677.25
478.346	713.25
478.564	721.25
478.783	719.25
479.002	735.25
479.22	739.25
479.439	767.25
479.658	741.25
479.876	756.25
480.095	736.25
480.313	753.25
480.532	751.25
480.751	744.25
480.969	753.25
481.188	759.25
481.406	760.25
481.624	773.25
481.843	742.25
482.061	770.25
482.28	765.25
482.498	757.25
482.717	780.25
482.935	758.25
483.153	764.25
483.372	769.25
483.59	760.25
483.808	754.25
484.027	776.25
484.245	763.25
484.463	799.25
484.681	782.25
484.9	783.25
485.118	811.25
485.336	775.25
485.554	787.25
485.772	811.25
485.99	789.25
486.209	780.25
486.427	798.25
486.645	799.25
486.863	805.25
487.081	794.25
487.299	797.25
487.517	762.25
487.735	803.25
487.953	809.25
488.171	802.25
488.389	797.25
488.607	799.25
488.825	795.25
489.043	791.25
489.261	781.25
489.479	827.25
489.696	785.25
489.914	761.25
490.132	793.25
490.35	795.25
490.568	776.25
490.786	790.25
491.003	778.25
491.221	772.25
491.439	801.25
491.657	808.25
491.874	822.25
492.092	801.25
492.31	810.25
492.527	833.25
492.745	828.25
492.963	795.25
493.18	820.25
493.398	807.25
493.615	815.25
493.833	823.25
494.05	833.25
494.268	828.25
494.485	824.25
494.703	821.25
494.92	821.25
495.138	838.25
495.355	850.25
495.573	856.25
495.79	841.25
496.008	856.25
496.225	836.25
496.442	860.25
496.66	843.25
496.877	854.25
497.094	879.25
497.312	866.25
497.529	888.25
497.746	905.25
497.963	900.25
498.181	922.25
498.398	930.25
498.615	995.25
498.832	977.25
499.049	1004.25
499.267	1035.25
499.484	1056.25
499.701	1066.25
499.918	1121.25
500.135	1135.25
500.352	1152.25
500.569	1185.25
500.786	1179.25
501.003	1155.25
501.22	1179.25
501.437	1088.25
501.654	1051.25
501.871	1069.25
502.088	1042.25
502.305	982.25
502.522	1002.25
502.739	948.25
502.956	924.25
503.172	909.25
503.389	909.25
503.606	904.25
503.823	899.25
504.04	894.25
504.256	834.25
504.473	887.25
504.69	866.25
504.907	842.25
505.123	842.25
505.34	837.25
505.557	796.25
505.773	789.25
505.99	788.25
506.207	776.25
506.423	759.25
506.64	755.25
506.856	755.25
507.073	743.25
507.289	767.25
507.506	724.25
507.722	755.25
507.939	723.25
508.155	735.25
508.372	739.25
508.588	715.25
508.805	742.25
509.021	726.25
509.238	716.25
509.454	712.25
509.67	714.25
509.887	716.25
510.103	700.25
510.319	707.25
510.536	697.25
510.752	671.25
510.968	685.25
511.184	700.25
511.401	687.25
511.617	697.25
511.833	687.25
512.049	689.25
512.265	691.25
512.481	691.25
512.698	664.25
512.914	687.25
513.13	704.25
513.346	660.25
513.562	693.25
513.778	679.25
513.994	683.25
514.21	677.25
514.426	692.25
514.642	689.25
514.858	692.25
515.074	696.25
515.29	680.25
515.506	701.25
515.721	717.25
515.937	701.25
516.153	699.25
516.369	711.25
516.585	704.25
516.801	723.25
517.016	727.25
517.232	720.25
517.448	707.25
517.664	733.25
517.879	712.25
518.095	734.25
518.311	764.25
518.527	715.25
518.742	721.25
518.958	691.25
519.173	714.25
519.389	703.25
519.605	700.25
519.82	692.25
520.036	738.25
520.251	727.25
520.467	689.25
520.682	672.25
520.898	693.25
521.113	689.25
521.329	647.25
521.544	663.25
521.76	666.25
521.975	662.25
522.19	661.25
522.406	661.25
522.621	650.25
522.836	670.25
523.052	646.25
523.267	640.25
523.482	643.25
523.698	649.25
523.913	642.25
524.128	627.25
524.343	656.25
524.559	663.25
524.774	652.25
524.989	638.25
525.204	632.25
525.419	618.25
525.634	619.25
525.849	630.25
526.064	635.25
526.28	644.25
526.495	634.25
526.71	627.25
526.925	633.25
527.14	632.25
527.355	617.25
527.57	628.25
527.785	643.25
527.999	626.25
528.214	620.25
528.429	609.25
528.644	603.25
528.859	639.25
529.074	636.25
529.289	616.25
529.503	623.25
529.718	606.25
529.933	604.25
530.148	607.25
530.363	618.25
530.577	596.25
530.792	613.25
531.007	601.25
531.221	602.25
531.436	581.25
531.651	612.25
531.865	595.25
532.08	596.25
532.295	612.25
532.509	602.25
532.724	620.25
532.938	580.25
533.153	621.25
533.367	604.25
533.582	619.25
533.796	597.25
534.011	616.25
534.225	611.25
534.44	616.25
534.654	595.25
534.868	583.25
535.083	597.25
535.297	604.25
535.511	583.25
535.726	583.25
535.94	618.25
536.154	586.25
536.369	572.25
536.583	587.25
536.797	599.25
537.011	595.25
537.225	575.25
537.44	588.25
537.654	585.25
537.868	586.25
538.082	559.25
538.296	574.25
538.51	583.25
538.724	561.25
538.938	575.25
539.153	539.25
539.367	575.25
539.581	593.25
539.795	560.25
540.009	563.25
540.222	563.25
540.436	569.25
540.65	546.25
540.864	597.25
541.078	571.25
541.292	569.25
541.506	588.25
541.72	568.25
541.934	566.25
542.147	572.25
542.361	584.25
542.575	570.25
542.789	543.25
543.002	585.25
543.216	570.25
543.43	556.25
543.644	555.25
543.857	578.25
544.071	567.25
544.285	577.25
544.498	560.25
544.712	583.25
544.925	579.25
545.139	590.25
545.352	549.25
545.566	567.25
545.779	552.25
545.993	562.25
546.206	566.25
546.42	562.25
546.633	570.25
546.847	555.25
547.06	555.25
547.274	561.25
547.487	568.25
547.7	553.25
547.914	573.25
548.127	579.25
548.34	596.25
548.554	577.25
548.767	569.25
548.98	575.25
549.193	559.25
549.407	580.25
549.62	556.25
549.833	551.25
550.046	568.25
550.259	581.25
550.473	555.25
550.686	559.25
550.899	553.25
551.112	566.25
551.325	572.25
551.538	559.25
551.751	556.25
551.964	539.25
552.177	561.25
552.39	538.25
552.603	552.25
552.816	572.25
553.029	563.25
553.242	575.25
553.455	560.25
553.667	553.25
553.88	560.25
554.093	537.25
554.306	535.25
554.519	546.25
554.732	534.25
554.944	528.25
555.157	522.25
555.37	524.25
555.583	513.25
555.795	516.25
556.008	538.25
556.221	523.25
556.433	533.25
556.646	514.25
556.859	502.25
557.071	516.25
557.284	505.25
557.496	485.25
557.709	524.25
557.921	520.25
558.134	513.25
558.346	479.25
558.559	513.25
558.771	473.25
558.984	508.25
559.196	512.25
559.409	513.25
559.621	486.25
559.833	490.25
560.046	478.25
560.258	474.25
560.47	489.25
560.683	477.25
560.895	473.25
561.107	525.25
561.32	489.25
561.532	499.25
561.744	497.25
561.956	504.25
562.168	492.25
562.381	524.25
562.593	489.25
562.805	481.25
563.017	479.25
563.229	485.25
563.441	475.25
563.653	515.25
563.865	500.25
564.077	472.25
564.289	493.25
564.501	514.25
564.713	487.25
564.925	505.25
565.137	513.25
565.349	537.25
565.561	502.25
565.773	516.25
565.985	521.25
566.197	521.25
566.408	547.25
566.62	540.25
566.832	556.25
567.044	588.25
567.255	538.25
567.467	545.25
567.679	563.25
567.891	553.25
568.102	553.25
568.314	530.25
568.526	525.25
568.737	556.25
568.949	515.25
569.161	489.25
569.372	485.25
569.584	484.25
569.795	469.25
570.007	480.25
570.218	461.25
570.43	452.25
570.641	465.25
570.853	444.25
571.064	454.25
571.276	448.25
571.487	433.25
571.698	458.25
571.91	444.25
572.121	425.25
572.333	431.25
572.544	415.25
572.755	410.25
572.966	411.25
573.178	430.25
573.389	420.25
573.6	399.25
573.811	391.25
574.023	404.25
574.234	396.25
574.445	403.25
574.656	402.25
574.867	388.25
575.078	393.25
575.289	399.25
575.501	394.25
575.712	404.25
575.923	396.25
576.134	395.25
576.345	387.25
576.556	401.25
576.767	391.25
576.978	403.25
577.188	390.25
577.399	387.25
577.61	373.25
577.821	376.25
578.032	381.25
578.243	378.25
578.454	356.25
578.665	360.25
578.875	371.25
579.086	377.25
579.297	367.25
579.508	383.25
579.718	364.25
579.929	356.25
580.14	354.25
580.35	359.25
580.561	359.25
580.772	361.25
580.982	358.25
581.193	348.25
581.403	354.25
581.614	376.25
581.825	369.25
582.035	348.25
582.246	356.25
582.456	375.25
582.667	357.25
582.877	347.25
583.087	345.25
583.298	343.25
583.508	345.25
583.719	343.25
583.929	360.25
584.139	369.25
584.35	343.25
584.56	349.25
584.77	338.25
584.981	347.25
585.191	331.25
585.401	355.25
585.611	333.25
585.821	338.25
586.032	330.25
586.242	340.25
586.452	347.25
586.662	339.25
586.872	352.25
587.082	326.25
587.292	337.25
587.502	321.25
587.713	344.25
587.923	330.25
588.133	355.25
588.343	338.25
588.553	342.25
588.762	332.25
588.972	359.25
589.182	439.25
589.392	405.25
589.602	358.25
589.812	431.25
590.022	376.25
590.232	329.25
590.441	327.25
590.651	332.25
590.861	331.25
591.071	322.25
591.281	315.25
591.49	336.25
591.7	334.25
591.91	321.25
592.119	333.25
592.329	328.25
592.539	332.25
592.748	327.25
592.958	340.25
593.167	321.25
593.377	340.25
593.587	381.25
593.796	339.25
594.006	348.25
594.215	357.25
594.424	349.25
594.634	306.25
594.843	337.25
595.053	325.25
595.262	335.25
595.472	326.25
595.681	324.25
595.89	317.25
596.1	329.25
596.309	318.25
596.518	300.25
596.727	296.25
596.937	323.25
597.146	319.25
597.355	296.25
597.564	311.25
597.774	322.25
597.983	307.25
598.192	288.25
598.401	289.25
598.61	284.25
598.819	315.25
599.028	319.25
599.237	296.25
599.446	323.25
599.655	305.25
599.864	289.25
600.073	299.25
600.282	294.25
600.491	280.25
600.7	289.25
600.909	283.25
601.118	297.25
601.327	277.25
601.536	289.25
601.745	292.25
601.953	285.25
602.162	279.25
602.371	276.25
602.58	275.25
602.789	279.25
602.997	272.25
603.206	284.25
603.415	276.25
603.623	275.25
603.832	281.25
604.041	284.25
604.249	257.25
604.458	277.25
604.666	287.25
604.875	277.25
605.084	276.25
605.292	265.25
605.501	284.25
605.709	280.25
605.918	266.25
606.126	277.25
606.334	268.25
606.543	273.25
606.751	275.25
606.96	284.25
607.168	283.25
607.376	261.25
607.585	265.25
607.793	275.25
608.001	267.25
608.21	276.25
608.418	265.25
608.626	263.25
608.834	275.25
609.043	275.25
609.251	267.25
609.459	260.25
609.667	259.25
609.875	266.25
610.083	263.25
610.291	257.25
610.499	244.25
610.707	277.25
610.916	272.25
611.124	267.25
611.332	250.25
611.54	255.25
611.748	260.25
611.955	263.25
612.163	261.25
612.371	255.25
612.579	266.25
612.787	279.25
612.995	260.25
613.203	265.25
613.411	258.25
613.618	257.25
613.826	240.25
614.034	253.25
614.242	259.25
614.449	257.25
614.657	263.25
614.865	253.25
615.072	254.25
615.28	247.25
615.488	243.25
615.695	256.25
615.903	258.25
616.111	243.25
616.318	262.25
616.526	246.25
616.733	249.25
616.941	267.25
617.148	242.25
617.356	240.25
617.563	232.25
617.771	229.25
617.978	269.25
618.185	239.25
618.393	249.25
618.6	237.25
618.807	263.25
619.015	235.25
619.222	249.25
619.429	241.25
619.637	255.25
619.844	243.25
620.051	233.25
620.258	241.25
620.466	245.25
620.673	234.25
620.88	231.25
621.087	229.25
621.294	242.25
621.501	240.25
621.708	235.25
621.915	234.25
622.122	227.25
622.329	208.25
622.536	247.25
622.743	231.25
622.95	237.25
623.157	227.25
623.364	237.25
623.571	233.25
623.778	223.25
623.985	231.25
624.192	241.25
624.399	231.25
624.606	243.25
624.812	230.25
625.019	224.25
625.226	216.25
625.433	241.25
625.639	229.25
625.846	221.25
626.053	229.25
626.259	225.25
626.466	229.25
626.673	231.25
626.879	229.25
627.086	225.25
627.293	232.25
627.499	220.25
627.706	218.25
627.912	228.25
628.119	217.25
628.325	215.25
628.532	227.25
628.738	217.25
628.945	208.25
629.151	210.25
629.357	212.25
629.564	217.25
629.77	223.25
629.976	230.25
630.183	204.25
630.389	209.25
630.595	200.25
630.802	213.25
631.008	224.25
631.214	211.25
631.42	221.25
631.627	221.25
631.833	214.25
632.039	226.25
632.245	209.25
632.451	199.25
632.657	201.25
632.863	202.25
633.069	210.25
633.275	205.25
633.481	208.25
633.688	201.25
633.893	207.25
634.099	207.25
634.305	209.25
634.511	218.25
634.717	202.25
634.923	210.25
635.129	206.25
635.335	201.25
635.541	203.25
635.747	213.25
635.952	193.25
636.158	192.25
636.364	203.25
636.57	203.25
636.775	203.25
636.981	184.25
637.187	196.25
637.392	212.25
637.598	201.25
637.804	219.25
638.009	200.25
638.215	208.25
638.421	201.25
638.626	191.25
638.832	205.25
639.037	183.25
639.243	190.25
639.448	200.25
639.654	188.25
639.859	224.25
640.065	191.25
640.27	201.25
640.475	182.25
640.681	195.25
640.886	205.25
641.091	188.25
641.297	205.25
641.502	209.25
641.707	188.25
641.913	173.25
642.118	188.25
642.323	177.25
642.528	195.25
642.733	176.25
642.939	190.25
643.144	182.25
643.349	186.25
643.554	202.25
643.759	179.25
643.964	199.25
644.169	196.25
644.374	188.25
644.579	205.25
644.784	198.25
644.989	197.25
645.194	186.25
645.399	202.25
645.604	207.25
645.809	197.25
646.014	199.25
646.219	212.25
646.423	181.25
646.628	210.25
646.833	192.25
647.038	184.25
647.243	179.25
647.447	192.25
647.652	192.25
647.857	186.25
648.062	196.25
648.266	194.25
648.471	201.25
648.676	200.25
648.88	213.25
649.085	184.25
649.289	203.25
649.494	209.25
649.698	186.25
649.903	187.25
650.107	186.25
650.312	215.25
650.516	215.25
650.721	191.25
650.925	192.25
651.13	181.25
651.334	215.25
651.539	196.25
651.743	195.25
651.947	200.25
652.152	191.25
652.356	190.25
652.56	184.25
652.764	164.25
652.969	187.25
653.173	183.25
653.377	183.25
653.581	189.25
653.785	175.25
653.99	170.25
654.194	193.25
654.398	185.25
654.602	192.25
654.806	183.25
655.01	183.25
655.214	182.25
655.418	186.25
655.622	182.25
655.826	189.25
656.03	193.25
656.234	195.25
656.438	195.25
656.642	191.25
656.846	192.25
657.049	168.25
657.253	177.25
657.457	181.25
657.661	181.25
657.865	160.25
658.068	138.25
658.272	133.25
658.476	121.25
658.68	141.25
658.883	131.25
659.087	121.25
659.291	124.25
659.494	122.25
659.698	108.25
659.901	121.25
660.105	121.25
660.309	106.25
660.512	97.25
660.716	100.25
660.919	99.25
661.123	108.25
661.326	109.25
661.53	100.25
661.733	96.25
661.936	92.25
662.14	85.25
662.343	97.25
662.546	81.25
662.75	95.25
662.953	81.25
663.156	85.25
663.36	77.25
663.563	100.25
663.766	84.25
663.969	92.25
664.173	81.25
664.376	82.25
664.579	75.25
664.782	94.25
664.985	88.25
665.188	87.25
665.391	66.25
665.594	74.25
665.797	77.25
666	71.25
666.203	76.25
666.406	75.25
666.609	80.25
666.812	81.25
667.015	77.25
667.218	94.25
667.421	87.25
667.624	71.25
667.827	73.25
668.03	91.25
668.232	90.25
668.435	93.25
668.638	88.25
668.841	82.25
669.043	81.25
669.246	72.25
669.449	84.25
669.651	79.25
669.854	94.25
670.057	77.25
670.259	87.25
670.462	100.25
670.665	95.25
670.867	90.25
671.07	80.25
671.272	83.25
671.475	81.25
671.677	92.25
671.88	73.25
672.082	83.25
672.284	75.25
672.487	81.25
672.689	67.25
672.892	72.25
