Data from Fe(NO3)3@0.025M.TitratingCurve.Agarose3%dH2O.NegLispCup.LampEnergy10.LIBS07252019_HRD10591_16-53-38-335.txt Node
Date: Thu Jul 25 16:53:38 EDT 2019
User: cochatt
Spectrometer: HR+D1059
Trigger mode: 1
Integration Time (sec): 1.000000E-1
Scans to average: 1
Electric dark correction enabled: true
Nonlinearity correction enabled: false
Boxcar width: 0
XAxis mode: Wavelengths
Number of Pixels in Spectrum: 2048
>>>>>Begin Spectral Data<<<<<
223.165	-16.94
223.4	-16.94
223.635	-16.94
223.869	-12.94
224.104	-23.94
224.338	-6.94
224.573	-6.94
224.808	-7.94
225.042	-9.94
225.277	-5.94
225.511	-2.94
225.746	-6.94
225.98	13.06
226.215	-2.94
226.449	14.06
226.683	14.06
226.918	32.06
227.152	31.06
227.387	33.06
227.621	42.06
227.856	27.06
228.09	40.06
228.324	45.06
228.559	57.06
228.793	69.06
229.027	97.06
229.262	99.06
229.496	105.06
229.73	120.06
229.964	91.06
230.199	101.06
230.433	100.06
230.667	115.06
230.901	123.06
231.136	107.06
231.37	124.06
231.604	121.06
231.838	122.06
232.072	122.06
232.306	119.06
232.541	135.06
232.775	131.06
233.009	122.06
233.243	133.06
233.477	127.06
233.711	135.06
233.945	139.06
234.179	141.06
234.413	151.06
234.647	146.06
234.881	157.06
235.115	143.06
235.349	151.06
235.583	136.06
235.817	155.06
236.051	141.06
236.285	129.06
236.519	151.06
236.753	147.06
236.987	154.06
237.221	143.06
237.455	151.06
237.689	158.06
237.922	146.06
238.156	152.06
238.39	145.06
238.624	179.06
238.858	172.06
239.091	175.06
239.325	150.06
239.559	162.06
239.793	147.06
240.027	153.06
240.26	178.06
240.494	165.06
240.728	190.06
240.961	177.06
241.195	167.06
241.429	169.06
241.662	173.06
241.896	162.06
242.13	161.06
242.363	174.06
242.597	163.06
242.83	177.06
243.064	181.06
243.298	186.06
243.531	161.06
243.765	181.06
243.998	188.06
244.232	183.06
244.465	192.06
244.699	184.06
244.932	182.06
245.166	173.06
245.399	181.06
245.633	203.06
245.866	190.06
246.099	189.06
246.333	186.06
246.566	191.06
246.8	196.06
247.033	187.06
247.266	190.06
247.5	205.06
247.733	194.06
247.966	218.06
248.2	201.06
248.433	212.06
248.666	215.06
248.899	188.06
249.133	214.06
249.366	228.06
249.599	215.06
249.832	223.06
250.066	216.06
250.299	210.06
250.532	227.06
250.765	226.06
250.998	215.06
251.231	214.06
251.465	235.06
251.698	213.06
251.931	225.06
252.164	238.06
252.397	236.06
252.63	232.06
252.863	246.06
253.096	257.06
253.329	229.06
253.562	252.06
253.795	246.06
254.028	274.06
254.261	276.06
254.494	259.06
254.727	249.06
254.96	253.06
255.193	264.06
255.426	250.06
255.659	267.06
255.892	252.06
256.124	241.06
256.357	259.06
256.59	282.06
256.823	273.06
257.056	238.06
257.289	266.06
257.521	255.06
257.754	250.06
257.987	258.06
258.22	257.06
258.452	241.06
258.685	274.06
258.918	270.06
259.151	267.06
259.383	273.06
259.616	285.06
259.849	281.06
260.081	308.06
260.314	334.06
260.547	308.06
260.779	298.06
261.012	293.06
261.244	315.06
261.477	311.06
261.71	308.06
261.942	298.06
262.175	294.06
262.407	285.06
262.64	294.06
262.872	297.06
263.105	319.06
263.337	316.06
263.57	334.06
263.802	285.06
264.035	269.06
264.267	307.06
264.499	297.06
264.732	292.06
264.964	289.06
265.197	300.06
265.429	294.06
265.661	282.06
265.894	289.06
266.126	293.06
266.358	298.06
266.591	304.06
266.823	317.06
267.055	310.06
267.287	307.06
267.52	300.06
267.752	313.06
267.984	301.06
268.216	334.06
268.448	315.06
268.681	327.06
268.913	321.06
269.145	315.06
269.377	315.06
269.609	342.06
269.841	336.06
270.073	329.06
270.306	340.06
270.538	325.06
270.77	341.06
271.002	325.06
271.234	348.06
271.466	328.06
271.698	338.06
271.93	342.06
272.162	342.06
272.394	355.06
272.626	348.06
272.858	350.06
273.09	336.06
273.322	364.06
273.553	359.06
273.785	378.06
274.017	377.06
274.249	406.06
274.481	407.06
274.713	412.06
274.945	434.06
275.176	412.06
275.408	438.06
275.64	398.06
275.872	424.06
276.104	386.06
276.335	379.06
276.567	386.06
276.799	392.06
277.031	383.06
277.262	351.06
277.494	374.06
277.726	358.06
277.957	368.06
278.189	397.06
278.421	394.06
278.652	401.06
278.884	379.06
279.115	366.06
279.347	391.06
279.579	367.06
279.81	387.06
280.042	397.06
280.273	393.06
280.505	392.06
280.736	394.06
280.968	388.06
281.199	387.06
281.431	390.06
281.662	397.06
281.894	390.06
282.125	393.06
282.356	398.06
282.588	402.06
282.819	407.06
283.051	397.06
283.282	407.06
283.513	412.06
283.745	423.06
283.976	416.06
284.207	421.06
284.439	413.06
284.67	407.06
284.901	430.06
285.132	422.06
285.364	434.06
285.595	426.06
285.826	413.06
286.057	425.06
286.288	427.06
286.52	429.06
286.751	418.06
286.982	410.06
287.213	409.06
287.444	437.06
287.675	443.06
287.906	447.06
288.138	424.06
288.369	427.06
288.6	441.06
288.831	467.06
289.062	458.06
289.293	427.06
289.524	435.06
289.755	442.06
289.986	448.06
290.217	439.06
290.448	448.06
290.679	468.06
290.91	440.06
291.141	445.06
291.371	469.06
291.602	437.06
291.833	444.06
292.064	439.06
292.295	435.06
292.526	449.06
292.757	423.06
292.987	437.06
293.218	446.06
293.449	454.06
293.68	464.06
293.91	462.06
294.141	466.06
294.372	459.06
294.603	465.06
294.833	454.06
295.064	486.06
295.295	454.06
295.525	469.06
295.756	458.06
295.987	479.06
296.217	486.06
296.448	478.06
296.679	475.06
296.909	464.06
297.14	495.06
297.37	478.06
297.601	488.06
297.831	465.06
298.062	455.06
298.292	477.06
298.523	500.06
298.753	496.06
298.984	492.06
299.214	488.06
299.445	498.06
299.675	484.06
299.905	487.06
300.136	492.06
300.366	494.06
300.597	495.06
300.827	494.06
301.057	497.06
301.288	505.06
301.518	482.06
301.748	511.06
301.979	502.06
302.209	534.06
302.439	516.06
302.669	507.06
302.9	509.06
303.13	507.06
303.36	506.06
303.59	519.06
303.82	501.06
304.051	516.06
304.281	529.06
304.511	537.06
304.741	518.06
304.971	531.06
305.201	522.06
305.431	515.06
305.661	547.06
305.891	521.06
306.121	520.06
306.352	531.06
306.582	525.06
306.812	526.06
307.042	507.06
307.272	539.06
307.502	522.06
307.731	551.06
307.961	542.06
308.191	521.06
308.421	535.06
308.651	528.06
308.881	519.06
309.111	503.06
309.341	520.06
309.571	527.06
309.8	537.06
310.03	550.06
310.26	543.06
310.49	546.06
310.72	530.06
310.949	535.06
311.179	528.06
311.409	553.06
311.639	548.06
311.868	572.06
312.098	552.06
312.328	567.06
312.557	565.06
312.787	552.06
313.017	565.06
313.246	576.06
313.476	562.06
313.706	561.06
313.935	562.06
314.165	574.06
314.394	553.06
314.624	549.06
314.853	548.06
315.083	555.06
315.312	577.06
315.542	574.06
315.771	575.06
316.001	591.06
316.23	601.06
316.46	547.06
316.689	596.06
316.919	593.06
317.148	599.06
317.377	609.06
317.607	566.06
317.836	585.06
318.065	595.06
318.295	600.06
318.524	581.06
318.753	598.06
318.983	597.06
319.212	578.06
319.441	575.06
319.67	619.06
319.9	588.06
320.129	601.06
320.358	626.06
320.587	609.06
320.816	609.06
321.046	614.06
321.275	605.06
321.504	606.06
321.733	605.06
321.962	581.06
322.191	608.06
322.42	637.06
322.649	606.06
322.878	629.06
323.108	601.06
323.337	630.06
323.566	621.06
323.795	614.06
324.024	626.06
324.253	611.06
324.482	614.06
324.71	618.06
324.939	634.06
325.168	622.06
325.397	625.06
325.626	622.06
325.855	634.06
326.084	630.06
326.313	639.06
326.542	626.06
326.77	654.06
326.999	656.06
327.228	637.06
327.457	643.06
327.686	633.06
327.914	654.06
328.143	647.06
328.372	641.06
328.6	619.06
328.829	637.06
329.058	626.06
329.287	655.06
329.515	641.06
329.744	641.06
329.972	644.06
330.201	661.06
330.43	672.06
330.658	659.06
330.887	686.06
331.115	652.06
331.344	663.06
331.572	656.06
331.801	663.06
332.03	686.06
332.258	656.06
332.486	680.06
332.715	651.06
332.943	691.06
333.172	678.06
333.4	682.06
333.629	699.06
333.857	709.06
334.085	705.06
334.314	714.06
334.542	672.06
334.771	711.06
334.999	753.06
335.227	730.06
335.455	729.06
335.684	707.06
335.912	756.06
336.14	733.06
336.369	739.06
336.597	740.06
336.825	734.06
337.053	733.06
337.281	722.06
337.51	716.06
337.738	696.06
337.966	705.06
338.194	714.06
338.422	693.06
338.65	722.06
338.878	699.06
339.106	696.06
339.334	684.06
339.562	720.06
339.79	700.06
340.018	685.06
340.246	694.06
340.474	702.06
340.702	720.06
340.93	721.06
341.158	719.06
341.386	686.06
341.614	710.06
341.842	679.06
342.07	706.06
342.298	671.06
342.526	694.06
342.754	695.06
342.981	679.06
343.209	683.06
343.437	713.06
343.665	726.06
343.893	729.06
344.12	705.06
344.348	723.06
344.576	707.06
344.804	725.06
345.031	708.06
345.259	699.06
345.487	705.06
345.714	669.06
345.942	682.06
346.17	680.06
346.397	718.06
346.625	712.06
346.853	699.06
347.08	705.06
347.308	682.06
347.535	689.06
347.763	693.06
347.99	687.06
348.218	677.06
348.445	672.06
348.673	682.06
348.9	673.06
349.128	699.06
349.355	668.06
349.583	682.06
349.81	680.06
350.037	686.06
350.265	680.06
350.492	680.06
350.72	671.06
350.947	670.06
351.174	660.06
351.402	673.06
351.629	658.06
351.856	653.06
352.083	669.06
352.311	668.06
352.538	662.06
352.765	671.06
352.992	681.06
353.22	689.06
353.447	665.06
353.674	679.06
353.901	662.06
354.128	675.06
354.355	660.06
354.583	646.06
354.81	692.06
355.037	675.06
355.264	639.06
355.491	686.06
355.718	673.06
355.945	664.06
356.172	676.06
356.399	673.06
356.626	678.06
356.853	680.06
357.08	655.06
357.307	690.06
357.534	706.06
357.761	687.06
357.988	708.06
358.215	708.06
358.441	703.06
358.668	677.06
358.895	660.06
359.122	651.06
359.349	686.06
359.576	668.06
359.802	679.06
360.029	670.06
360.256	662.06
360.483	694.06
360.709	676.06
360.936	701.06
361.163	685.06
361.39	670.06
361.616	690.06
361.843	714.06
362.07	698.06
362.296	682.06
362.523	676.06
362.749	684.06
362.976	668.06
363.203	666.06
363.429	706.06
363.656	675.06
363.882	716.06
364.109	665.06
364.335	693.06
364.562	694.06
364.788	710.06
365.015	713.06
365.241	705.06
365.468	720.06
365.694	704.06
365.92	683.06
366.147	698.06
366.373	692.06
366.599	681.06
366.826	700.06
367.052	711.06
367.278	691.06
367.505	702.06
367.731	695.06
367.957	701.06
368.184	694.06
368.41	709.06
368.636	718.06
368.862	701.06
369.089	710.06
369.315	723.06
369.541	704.06
369.767	753.06
369.993	721.06
370.219	701.06
370.445	717.06
370.672	735.06
370.898	733.06
371.124	721.06
371.35	759.06
371.576	732.06
371.802	747.06
372.028	743.06
372.254	747.06
372.48	743.06
372.706	727.06
372.932	727.06
373.158	757.06
373.384	771.06
373.61	742.06
373.835	761.06
374.061	734.06
374.287	744.06
374.513	754.06
374.739	799.06
374.965	797.06
375.191	770.06
375.416	759.06
375.642	753.06
375.868	744.06
376.094	753.06
376.319	733.06
376.545	738.06
376.771	743.06
376.997	758.06
377.222	722.06
377.448	712.06
377.674	718.06
377.899	740.06
378.125	723.06
378.35	734.06
378.576	735.06
378.802	702.06
379.027	734.06
379.253	724.06
379.478	705.06
379.704	727.06
379.929	722.06
380.155	726.06
380.38	704.06
380.606	718.06
380.831	726.06
381.057	755.06
381.282	738.06
381.507	744.06
381.733	766.06
381.958	779.06
382.184	742.06
382.409	762.06
382.634	780.06
382.86	765.06
383.085	788.06
383.31	756.06
383.535	785.06
383.761	773.06
383.986	767.06
384.211	784.06
384.436	785.06
384.662	790.06
384.887	774.06
385.112	775.06
385.337	795.06
385.562	785.06
385.787	809.06
386.013	826.06
386.238	817.06
386.463	808.06
386.688	809.06
386.913	824.06
387.138	825.06
387.363	830.06
387.588	823.06
387.813	826.06
388.038	827.06
388.263	822.06
388.488	850.06
388.713	836.06
388.938	818.06
389.163	830.06
389.387	822.06
389.612	834.06
389.837	802.06
390.062	807.06
390.287	783.06
390.512	821.06
390.736	823.06
390.961	838.06
391.186	842.06
391.411	856.06
391.636	852.06
391.86	841.06
392.085	837.06
392.31	860.06
392.534	868.06
392.759	869.06
392.984	850.06
393.208	886.06
393.433	860.06
393.658	863.06
393.882	854.06
394.107	863.06
394.331	852.06
394.556	858.06
394.78	860.06
395.005	835.06
395.229	839.06
395.454	878.06
395.678	877.06
395.903	861.06
396.127	885.06
396.352	868.06
396.576	892.06
396.801	866.06
397.025	905.06
397.249	895.06
397.474	883.06
397.698	891.06
397.922	905.06
398.147	907.06
398.371	933.06
398.595	903.06
398.82	922.06
399.044	945.06
399.268	969.06
399.492	946.06
399.717	1000.06
399.941	1006.06
400.165	1004.06
400.389	994.06
400.613	997.06
400.837	982.06
401.062	975.06
401.286	956.06
401.51	939.06
401.734	957.06
401.958	950.06
402.182	952.06
402.406	936.06
402.63	938.06
402.854	957.06
403.078	927.06
403.302	948.06
403.526	933.06
403.75	922.06
403.974	933.06
404.198	922.06
404.422	942.06
404.645	936.06
404.869	935.06
405.093	975.06
405.317	954.06
405.541	966.06
405.765	956.06
405.988	975.06
406.212	961.06
406.436	963.06
406.66	1017.06
406.883	975.06
407.107	997.06
407.331	993.06
407.555	1026.06
407.778	1013.06
408.002	1029.06
408.226	1031.06
408.449	1034.06
408.673	1028.06
408.896	1003.06
409.12	1002.06
409.344	992.06
409.567	995.06
409.791	1004.06
410.014	985.06
410.238	961.06
410.461	995.06
410.685	991.06
410.908	977.06
411.132	979.06
411.355	941.06
411.578	958.06
411.802	981.06
412.025	961.06
412.249	931.06
412.472	929.06
412.695	973.06
412.919	967.06
413.142	927.06
413.365	956.06
413.589	940.06
413.812	948.06
414.035	946.06
414.258	941.06
414.482	963.06
414.705	939.06
414.928	938.06
415.151	943.06
415.374	904.06
415.597	936.06
415.821	924.06
416.044	890.06
416.267	879.06
416.49	879.06
416.713	915.06
416.936	918.06
417.159	907.06
417.382	883.06
417.605	868.06
417.828	883.06
418.051	878.06
418.274	896.06
418.497	886.06
418.72	910.06
418.943	861.06
419.166	914.06
419.389	945.06
419.611	940.06
419.834	915.06
420.057	935.06
420.28	873.06
420.503	871.06
420.726	858.06
420.948	838.06
421.171	883.06
421.394	864.06
421.617	864.06
421.839	850.06
422.062	861.06
422.285	867.06
422.507	909.06
422.73	872.06
422.953	870.06
423.175	872.06
423.398	890.06
423.621	870.06
423.843	866.06
424.066	868.06
424.288	858.06
424.511	871.06
424.733	857.06
424.956	853.06
425.178	882.06
425.401	864.06
425.623	877.06
425.846	869.06
426.068	867.06
426.291	856.06
426.513	858.06
426.735	854.06
426.958	850.06
427.18	856.06
427.402	859.06
427.625	866.06
427.847	873.06
428.069	844.06
428.292	873.06
428.514	851.06
428.736	847.06
428.958	866.06
429.181	857.06
429.403	850.06
429.625	859.06
429.847	829.06
430.069	831.06
430.292	837.06
430.514	845.06
430.736	873.06
430.958	891.06
431.18	867.06
431.402	854.06
431.624	849.06
431.846	832.06
432.068	851.06
432.29	854.06
432.512	861.06
432.734	873.06
432.956	865.06
433.178	853.06
433.4	838.06
433.622	858.06
433.844	867.06
434.066	854.06
434.287	865.06
434.509	890.06
434.731	862.06
434.953	825.06
435.175	864.06
435.397	854.06
435.618	857.06
435.84	835.06
436.062	853.06
436.284	857.06
436.505	865.06
436.727	855.06
436.949	853.06
437.17	845.06
437.392	839.06
437.614	827.06
437.835	821.06
438.057	825.06
438.278	813.06
438.5	837.06
438.721	843.06
438.943	819.06
439.165	805.06
439.386	827.06
439.608	821.06
439.829	843.06
440.05	819.06
440.272	830.06
440.493	833.06
440.715	835.06
440.936	833.06
441.158	827.06
441.379	833.06
441.6	869.06
441.822	841.06
442.043	845.06
442.264	847.06
442.486	850.06
442.707	858.06
442.928	865.06
443.149	845.06
443.371	846.06
443.592	838.06
443.813	855.06
444.034	838.06
444.255	845.06
444.476	835.06
444.698	875.06
444.919	862.06
445.14	952.06
445.361	882.06
445.582	859.06
445.803	853.06
446.024	829.06
446.245	852.06
446.466	827.06
446.687	812.06
446.908	836.06
447.129	797.06
447.35	813.06
447.571	830.06
447.792	791.06
448.013	774.06
448.234	744.06
448.455	769.06
448.675	789.06
448.896	789.06
449.117	775.06
449.338	786.06
449.559	772.06
449.779	772.06
450	761.06
450.221	750.06
450.442	755.06
450.662	779.06
450.883	768.06
451.104	763.06
451.324	779.06
451.545	761.06
451.766	774.06
451.986	787.06
452.207	765.06
452.428	753.06
452.648	771.06
452.869	753.06
453.089	770.06
453.31	769.06
453.53	740.06
453.751	760.06
453.971	738.06
454.192	747.06
454.412	717.06
454.633	757.06
454.853	739.06
455.073	756.06
455.294	757.06
455.514	730.06
455.734	737.06
455.955	756.06
456.175	741.06
456.395	766.06
456.616	740.06
456.836	722.06
457.056	743.06
457.276	720.06
457.497	740.06
457.717	748.06
457.937	777.06
458.157	762.06
458.377	776.06
458.598	776.06
458.818	792.06
459.038	807.06
459.258	787.06
459.478	807.06
459.698	818.06
459.918	840.06
460.138	842.06
460.358	846.06
460.578	819.06
460.798	853.06
461.018	860.06
461.238	851.06
461.458	848.06
461.678	874.06
461.898	862.06
462.118	873.06
462.338	864.06
462.558	909.06
462.777	868.06
462.997	902.06
463.217	924.06
463.437	920.06
463.657	967.06
463.876	909.06
464.096	936.06
464.316	910.06
464.536	908.06
464.755	909.06
464.975	875.06
465.195	870.06
465.414	861.06
465.634	872.06
465.854	832.06
466.073	835.06
466.293	862.06
466.512	823.06
466.732	818.06
466.951	828.06
467.171	839.06
467.391	809.06
467.61	793.06
467.829	810.06
468.049	821.06
468.268	779.06
468.488	807.06
468.707	811.06
468.927	833.06
469.146	800.06
469.365	825.06
469.585	806.06
469.804	819.06
470.023	800.06
470.243	813.06
470.462	838.06
470.681	848.06
470.901	804.06
471.12	829.06
471.339	844.06
471.558	817.06
471.777	825.06
471.997	825.06
472.216	835.06
472.435	829.06
472.654	819.06
472.873	823.06
473.092	833.06
473.311	834.06
473.53	831.06
473.749	822.06
473.968	849.06
474.187	863.06
474.406	823.06
474.625	824.06
474.844	849.06
475.063	844.06
475.282	847.06
475.501	861.06
475.72	875.06
475.939	860.06
476.158	855.06
476.377	909.06
476.596	893.06
476.814	919.06
477.033	866.06
477.252	895.06
477.471	893.06
477.69	930.06
477.908	934.06
478.127	915.06
478.346	926.06
478.564	931.06
478.783	949.06
479.002	986.06
479.22	946.06
479.439	998.06
479.658	983.06
479.876	957.06
480.095	979.06
480.313	983.06
480.532	1000.06
480.751	972.06
480.969	973.06
481.188	994.06
481.406	983.06
481.624	970.06
481.843	972.06
482.061	997.06
482.28	959.06
482.498	978.06
482.717	1005.06
482.935	1038.06
483.153	1004.06
483.372	999.06
483.59	1003.06
483.808	997.06
484.027	1003.06
484.245	1028.06
484.463	1018.06
484.681	1037.06
484.9	1012.06
485.118	1005.06
485.336	1020.06
485.554	1022.06
485.772	1047.06
485.99	995.06
486.209	1011.06
486.427	1037.06
486.645	1038.06
486.863	1037.06
487.081	1021.06
487.299	1020.06
487.517	1037.06
487.735	1007.06
487.953	1047.06
488.171	1047.06
488.389	1016.06
488.607	1021.06
488.825	1035.06
489.043	1025.06
489.261	1037.06
489.479	1034.06
489.696	1057.06
489.914	1023.06
490.132	1046.06
490.35	1028.06
490.568	1064.06
490.786	1046.06
491.003	1015.06
491.221	1023.06
491.439	1033.06
491.657	1043.06
491.874	1029.06
492.092	1032.06
492.31	1055.06
492.527	1061.06
492.745	1046.06
492.963	1038.06
493.18	1057.06
493.398	1060.06
493.615	1088.06
493.833	1046.06
494.05	1071.06
494.268	1093.06
494.485	1059.06
494.703	1049.06
494.92	1048.06
495.138	1078.06
495.355	1089.06
495.573	1110.06
495.79	1073.06
496.008	1093.06
496.225	1131.06
496.442	1101.06
496.66	1127.06
496.877	1121.06
497.094	1131.06
497.312	1135.06
497.529	1156.06
497.746	1141.06
497.963	1184.06
498.181	1185.06
498.398	1236.06
498.615	1262.06
498.832	1281.06
499.049	1309.06
499.267	1320.06
499.484	1343.06
499.701	1356.06
499.918	1404.06
500.135	1461.06
500.352	1450.06
500.569	1481.06
500.786	1463.06
501.003	1458.06
501.22	1430.06
501.437	1399.06
501.654	1353.06
501.871	1322.06
502.088	1323.06
502.305	1286.06
502.522	1260.06
502.739	1251.06
502.956	1205.06
503.172	1167.06
503.389	1155.06
503.606	1156.06
503.823	1116.06
504.04	1165.06
504.256	1124.06
504.473	1123.06
504.69	1095.06
504.907	1078.06
505.123	1053.06
505.34	1073.06
505.557	1067.06
505.773	1006.06
505.99	1021.06
506.207	1018.06
506.423	1006.06
506.64	1011.06
506.856	975.06
507.073	984.06
507.289	973.06
507.506	966.06
507.722	971.06
507.939	963.06
508.155	954.06
508.372	970.06
508.588	960.06
508.805	925.06
509.021	955.06
509.238	927.06
509.454	935.06
509.67	913.06
509.887	900.06
510.103	895.06
510.319	896.06
510.536	910.06
510.752	900.06
510.968	897.06
511.184	886.06
511.401	885.06
511.617	870.06
511.833	897.06
512.049	851.06
512.265	874.06
512.481	887.06
512.698	893.06
512.914	896.06
513.13	887.06
513.346	885.06
513.562	903.06
513.778	892.06
513.994	893.06
514.21	890.06
514.426	905.06
514.642	889.06
514.858	871.06
515.074	897.06
515.29	915.06
515.506	913.06
515.721	885.06
515.937	894.06
516.153	891.06
516.369	891.06
516.585	900.06
516.801	923.06
517.016	930.06
517.232	930.06
517.448	928.06
517.664	908.06
517.879	921.06
518.095	937.06
518.311	945.06
518.527	915.06
518.742	917.06
518.958	863.06
519.173	918.06
519.389	917.06
519.605	902.06
519.82	906.06
520.036	919.06
520.251	908.06
520.467	881.06
520.682	857.06
520.898	851.06
521.113	852.06
521.329	839.06
521.544	873.06
521.76	863.06
521.975	851.06
522.19	857.06
522.406	838.06
522.621	873.06
522.836	835.06
523.052	818.06
523.267	853.06
523.482	828.06
523.698	843.06
523.913	821.06
524.128	823.06
524.343	825.06
524.559	794.06
524.774	823.06
524.989	796.06
525.204	814.06
525.419	809.06
525.634	787.06
525.849	810.06
526.064	821.06
526.28	826.06
526.495	813.06
526.71	821.06
526.925	794.06
527.14	812.06
527.355	793.06
527.57	789.06
527.785	778.06
527.999	786.06
528.214	806.06
528.429	795.06
528.644	798.06
528.859	815.06
529.074	790.06
529.289	792.06
529.503	807.06
529.718	795.06
529.933	781.06
530.148	782.06
530.363	784.06
530.577	746.06
530.792	791.06
531.007	773.06
531.221	781.06
531.436	777.06
531.651	746.06
531.865	747.06
532.08	764.06
532.295	782.06
532.509	754.06
532.724	753.06
532.938	764.06
533.153	747.06
533.367	748.06
533.582	779.06
533.796	741.06
534.011	772.06
534.225	762.06
534.44	742.06
534.654	720.06
534.868	770.06
535.083	767.06
535.297	772.06
535.511	771.06
535.726	744.06
535.94	770.06
536.154	761.06
536.369	765.06
536.583	738.06
536.797	744.06
537.011	719.06
537.225	736.06
537.44	730.06
537.654	708.06
537.868	732.06
538.082	738.06
538.296	727.06
538.51	734.06
538.724	734.06
538.938	731.06
539.153	719.06
539.367	718.06
539.581	718.06
539.795	707.06
540.009	714.06
540.222	724.06
540.436	729.06
540.65	734.06
540.864	694.06
541.078	719.06
541.292	733.06
541.506	706.06
541.72	707.06
541.934	697.06
542.147	705.06
542.361	703.06
542.575	685.06
542.789	715.06
543.002	683.06
543.216	709.06
543.43	699.06
543.644	695.06
543.857	685.06
544.071	706.06
544.285	710.06
544.498	697.06
544.712	697.06
544.925	689.06
545.139	691.06
545.352	698.06
545.566	680.06
545.779	704.06
545.993	706.06
546.206	688.06
546.42	713.06
546.633	704.06
546.847	692.06
547.06	723.06
547.274	694.06
547.487	709.06
547.7	698.06
547.914	693.06
548.127	699.06
548.34	682.06
548.554	685.06
548.767	684.06
548.98	693.06
549.193	685.06
549.407	703.06
549.62	719.06
549.833	708.06
550.046	706.06
550.259	702.06
550.473	690.06
550.686	682.06
550.899	681.06
551.112	687.06
551.325	686.06
551.538	693.06
551.751	674.06
551.964	692.06
552.177	697.06
552.39	677.06
552.603	683.06
552.816	705.06
553.029	688.06
553.242	685.06
553.455	686.06
553.667	684.06
553.88	691.06
554.093	693.06
554.306	687.06
554.519	678.06
554.732	662.06
554.944	655.06
555.157	643.06
555.37	639.06
555.583	647.06
555.795	620.06
556.008	611.06
556.221	630.06
556.433	621.06
556.646	643.06
556.859	638.06
557.071	626.06
557.284	617.06
557.496	645.06
557.709	612.06
557.921	612.06
558.134	596.06
558.346	610.06
558.559	613.06
558.771	626.06
558.984	614.06
559.196	624.06
559.409	595.06
559.621	595.06
559.833	606.06
560.046	613.06
560.258	600.06
560.47	593.06
560.683	609.06
560.895	604.06
561.107	586.06
561.32	590.06
561.532	580.06
561.744	618.06
561.956	605.06
562.168	612.06
562.381	591.06
562.593	591.06
562.805	619.06
563.017	620.06
563.229	621.06
563.441	590.06
563.653	604.06
563.865	589.06
564.077	615.06
564.289	613.06
564.501	597.06
564.713	613.06
564.925	627.06
565.137	614.06
565.349	608.06
565.561	639.06
565.773	635.06
565.985	654.06
566.197	618.06
566.408	661.06
566.62	664.06
566.832	673.06
567.044	671.06
567.255	661.06
567.467	665.06
567.679	663.06
567.891	689.06
568.102	663.06
568.314	671.06
568.526	634.06
568.737	625.06
568.949	636.06
569.161	601.06
569.372	608.06
569.584	586.06
569.795	601.06
570.007	598.06
570.218	566.06
570.43	569.06
570.641	573.06
570.853	561.06
571.064	561.06
571.276	548.06
571.487	555.06
571.698	528.06
571.91	548.06
572.121	555.06
572.333	518.06
572.544	517.06
572.755	500.06
572.966	511.06
573.178	492.06
573.389	509.06
573.6	505.06
573.811	499.06
574.023	501.06
574.234	483.06
574.445	506.06
574.656	490.06
574.867	501.06
575.078	469.06
575.289	474.06
575.501	464.06
575.712	474.06
575.923	467.06
576.134	479.06
576.345	473.06
576.556	463.06
576.767	463.06
576.978	468.06
577.188	477.06
577.399	455.06
577.61	460.06
577.821	458.06
578.032	457.06
578.243	453.06
578.454	461.06
578.665	452.06
578.875	461.06
579.086	458.06
579.297	457.06
579.508	426.06
579.718	425.06
579.929	445.06
580.14	432.06
580.35	443.06
580.561	458.06
580.772	439.06
580.982	449.06
581.193	419.06
581.403	418.06
581.614	422.06
581.825	428.06
582.035	425.06
582.246	439.06
582.456	405.06
582.667	411.06
582.877	415.06
583.087	436.06
583.298	422.06
583.508	414.06
583.719	421.06
583.929	435.06
584.139	421.06
584.35	403.06
584.56	403.06
584.77	426.06
584.981	419.06
585.191	407.06
585.401	411.06
585.611	410.06
585.821	423.06
586.032	431.06
586.242	415.06
586.452	425.06
586.662	402.06
586.872	406.06
587.082	390.06
587.292	405.06
587.502	397.06
587.713	393.06
587.923	409.06
588.133	395.06
588.343	407.06
588.553	407.06
588.762	396.06
588.972	394.06
589.182	468.06
589.392	451.06
589.602	395.06
589.812	440.06
590.022	430.06
590.232	366.06
590.441	385.06
590.651	407.06
590.861	407.06
591.071	407.06
591.281	394.06
591.49	393.06
591.7	405.06
591.91	417.06
592.119	400.06
592.329	404.06
592.539	399.06
592.748	405.06
592.958	387.06
593.167	399.06
593.377	393.06
593.587	390.06
593.796	380.06
594.006	395.06
594.215	403.06
594.424	398.06
594.634	400.06
594.843	403.06
595.053	405.06
595.262	390.06
595.472	378.06
595.681	399.06
595.89	410.06
596.1	386.06
596.309	373.06
596.518	361.06
596.727	378.06
596.937	351.06
597.146	375.06
597.355	366.06
597.564	351.06
597.774	362.06
597.983	362.06
598.192	363.06
598.401	343.06
598.61	361.06
598.819	361.06
599.028	350.06
599.237	362.06
599.446	365.06
599.655	354.06
599.864	363.06
600.073	344.06
600.282	330.06
600.491	356.06
600.7	345.06
600.909	358.06
601.118	335.06
601.327	345.06
601.536	341.06
601.745	332.06
601.953	325.06
602.162	338.06
602.371	325.06
602.58	337.06
602.789	340.06
602.997	342.06
603.206	345.06
603.415	325.06
603.623	334.06
603.832	315.06
604.041	336.06
604.249	321.06
604.458	316.06
604.666	328.06
604.875	312.06
605.084	318.06
605.292	308.06
605.501	308.06
605.709	310.06
605.918	328.06
606.126	322.06
606.334	329.06
606.543	334.06
606.751	313.06
606.96	324.06
607.168	309.06
607.376	290.06
607.585	294.06
607.793	307.06
608.001	330.06
608.21	313.06
608.418	314.06
608.626	325.06
608.834	300.06
609.043	316.06
609.251	290.06
609.459	317.06
609.667	325.06
609.875	311.06
610.083	288.06
610.291	300.06
610.499	314.06
610.707	291.06
610.916	287.06
611.124	302.06
611.332	300.06
611.54	295.06
611.748	300.06
611.955	296.06
612.163	311.06
612.371	321.06
612.579	298.06
612.787	309.06
612.995	289.06
613.203	311.06
613.411	286.06
613.618	296.06
613.826	280.06
614.034	294.06
614.242	278.06
614.449	290.06
614.657	307.06
614.865	303.06
615.072	280.06
615.28	288.06
615.488	306.06
615.695	294.06
615.903	298.06
616.111	302.06
616.318	300.06
616.526	293.06
616.733	285.06
616.941	281.06
617.148	295.06
617.356	265.06
617.563	295.06
617.771	300.06
617.978	276.06
618.185	285.06
618.393	290.06
618.6	303.06
618.807	284.06
619.015	295.06
619.222	289.06
619.429	282.06
619.637	265.06
619.844	282.06
620.051	283.06
620.258	286.06
620.466	266.06
620.673	261.06
620.88	260.06
621.087	266.06
621.294	262.06
621.501	275.06
621.708	266.06
621.915	263.06
622.122	269.06
622.329	264.06
622.536	285.06
622.743	267.06
622.95	272.06
623.157	275.06
623.364	271.06
623.571	274.06
623.778	271.06
623.985	275.06
624.192	265.06
624.399	265.06
624.606	286.06
624.812	274.06
625.019	251.06
625.226	253.06
625.433	261.06
625.639	265.06
625.846	257.06
626.053	264.06
626.259	249.06
626.466	259.06
626.673	253.06
626.879	257.06
627.086	249.06
627.293	263.06
627.499	259.06
627.706	241.06
627.912	262.06
628.119	261.06
628.325	239.06
628.532	269.06
628.738	237.06
628.945	236.06
629.151	247.06
629.357	241.06
629.564	235.06
629.77	237.06
629.976	249.06
630.183	237.06
630.389	251.06
630.595	237.06
630.802	237.06
631.008	245.06
631.214	225.06
631.42	243.06
631.627	253.06
631.833	232.06
632.039	238.06
632.245	236.06
632.451	238.06
632.657	232.06
632.863	221.06
633.069	225.06
633.275	244.06
633.481	243.06
633.688	202.06
633.893	235.06
634.099	227.06
634.305	227.06
634.511	219.06
634.717	238.06
634.923	214.06
635.129	220.06
635.335	229.06
635.541	235.06
635.747	225.06
635.952	237.06
636.158	221.06
636.364	235.06
636.57	231.06
636.775	215.06
636.981	226.06
637.187	202.06
637.392	219.06
637.598	208.06
637.804	217.06
638.009	201.06
638.215	225.06
638.421	219.06
638.626	225.06
638.832	211.06
639.037	220.06
639.243	218.06
639.448	226.06
639.654	226.06
639.859	222.06
640.065	224.06
640.27	220.06
640.475	220.06
640.681	216.06
640.886	243.06
641.091	218.06
641.297	218.06
641.502	224.06
641.707	213.06
641.913	203.06
642.118	206.06
642.323	195.06
642.528	206.06
642.733	228.06
642.939	215.06
643.144	196.06
643.349	209.06
643.554	237.06
643.759	217.06
643.964	216.06
644.169	202.06
644.374	220.06
644.579	222.06
644.784	206.06
644.989	219.06
645.194	214.06
645.399	201.06
645.604	189.06
645.809	201.06
646.014	225.06
646.219	220.06
646.423	203.06
646.628	196.06
646.833	211.06
647.038	228.06
647.243	214.06
647.447	210.06
647.652	219.06
647.857	228.06
648.062	225.06
648.266	211.06
648.471	214.06
648.676	210.06
648.88	209.06
649.085	226.06
649.289	211.06
649.494	204.06
649.698	234.06
649.903	214.06
650.107	209.06
650.312	215.06
650.516	206.06
650.721	217.06
650.925	216.06
651.13	206.06
651.334	187.06
651.539	202.06
651.743	210.06
651.947	211.06
652.152	195.06
652.356	218.06
652.56	199.06
652.764	191.06
652.969	206.06
653.173	202.06
653.377	194.06
653.581	187.06
653.785	196.06
653.99	193.06
654.194	194.06
654.398	193.06
654.602	175.06
654.806	186.06
655.01	183.06
655.214	186.06
655.418	185.06
655.622	187.06
655.826	195.06
656.03	200.06
656.234	199.06
656.438	195.06
656.642	202.06
656.846	191.06
657.049	194.06
657.253	167.06
657.457	168.06
657.661	151.06
657.865	152.06
658.068	154.06
658.272	153.06
658.476	137.06
658.68	137.06
658.883	133.06
659.087	138.06
659.291	124.06
659.494	118.06
659.698	116.06
659.901	107.06
660.105	107.06
660.309	125.06
660.512	123.06
660.716	118.06
660.919	96.06
661.123	110.06
661.326	93.06
661.53	90.06
661.733	95.06
661.936	92.06
662.14	82.06
662.343	83.06
662.546	93.06
662.75	85.06
662.953	89.06
663.156	79.06
663.36	73.06
663.563	84.06
663.766	83.06
663.969	83.06
664.173	81.06
664.376	97.06
664.579	66.06
664.782	80.06
664.985	80.06
665.188	85.06
665.391	78.06
665.594	94.06
665.797	87.06
666	80.06
666.203	83.06
666.406	83.06
666.609	85.06
666.812	85.06
667.015	92.06
667.218	79.06
667.421	90.06
667.624	82.06
667.827	79.06
668.03	79.06
668.232	80.06
668.435	86.06
668.638	84.06
668.841	75.06
669.043	80.06
669.246	93.06
669.449	92.06
669.651	77.06
669.854	92.06
670.057	75.06
670.259	80.06
670.462	75.06
670.665	95.06
670.867	87.06
671.07	80.06
671.272	92.06
671.475	84.06
671.677	79.06
671.88	73.06
672.082	80.06
672.284	83.06
672.487	86.06
672.689	76.06
672.892	68.06
