Data from Fe(NO3)3@0.05M.TitratingCurve.Agarose3%dH2O.NegLispCup.LampEnergy10.LIBS07252019_HRD10591_16-46-24-334.txt Node
Date: Thu Jul 25 16:46:24 EDT 2019
User: cochatt
Spectrometer: HR+D1059
Trigger mode: 1
Integration Time (sec): 1.000000E-1
Scans to average: 1
Electric dark correction enabled: true
Nonlinearity correction enabled: false
Boxcar width: 0
XAxis mode: Wavelengths
Number of Pixels in Spectrum: 2048
>>>>>Begin Spectral Data<<<<<
223.165	-17.56
223.4	-17.56
223.635	-17.56
223.869	-13.56
224.104	-7.56
224.338	-30.56
224.573	-27.56
224.808	-16.56
225.042	-9.56
225.277	0.44
225.511	-1.56
225.746	6.44
225.98	5.44
226.215	22.44
226.449	9.44
226.683	23.44
226.918	22.44
227.152	34.44
227.387	34.44
227.621	49.44
227.856	49.44
228.09	49.44
228.324	40.44
228.559	51.44
228.793	68.44
229.027	110.44
229.262	122.44
229.496	127.44
229.73	130.44
229.964	150.44
230.199	124.44
230.433	146.44
230.667	155.44
230.901	139.44
231.136	145.44
231.37	165.44
231.604	149.44
231.838	140.44
232.072	145.44
232.306	158.44
232.541	150.44
232.775	152.44
233.009	158.44
233.243	171.44
233.477	174.44
233.711	185.44
233.945	172.44
234.179	170.44
234.413	178.44
234.647	194.44
234.881	197.44
235.115	176.44
235.349	180.44
235.583	196.44
235.817	184.44
236.051	190.44
236.285	183.44
236.519	176.44
236.753	175.44
236.987	191.44
237.221	193.44
237.455	180.44
237.689	187.44
237.922	196.44
238.156	184.44
238.39	207.44
238.624	219.44
238.858	216.44
239.091	211.44
239.325	220.44
239.559	201.44
239.793	221.44
240.027	243.44
240.26	243.44
240.494	210.44
240.728	213.44
240.961	227.44
241.195	227.44
241.429	247.44
241.662	252.44
241.896	213.44
242.13	238.44
242.363	230.44
242.597	244.44
242.83	241.44
243.064	235.44
243.298	232.44
243.531	241.44
243.765	260.44
243.998	252.44
244.232	246.44
244.465	244.44
244.699	253.44
244.932	252.44
245.166	245.44
245.399	234.44
245.633	264.44
245.866	278.44
246.099	271.44
246.333	271.44
246.566	265.44
246.8	266.44
247.033	262.44
247.266	268.44
247.5	260.44
247.733	278.44
247.966	273.44
248.2	271.44
248.433	283.44
248.666	286.44
248.899	302.44
249.133	291.44
249.366	310.44
249.599	315.44
249.832	312.44
250.066	321.44
250.299	300.44
250.532	320.44
250.765	314.44
250.998	317.44
251.231	327.44
251.465	312.44
251.698	300.44
251.931	327.44
252.164	322.44
252.397	325.44
252.63	343.44
252.863	331.44
253.096	327.44
253.329	350.44
253.562	320.44
253.795	350.44
254.028	390.44
254.261	390.44
254.494	352.44
254.727	360.44
254.96	351.44
255.193	349.44
255.426	352.44
255.659	352.44
255.892	347.44
256.124	349.44
256.357	361.44
256.59	372.44
256.823	384.44
257.056	361.44
257.289	358.44
257.521	368.44
257.754	370.44
257.987	390.44
258.22	373.44
258.452	364.44
258.685	384.44
258.918	396.44
259.151	396.44
259.383	375.44
259.616	396.44
259.849	400.44
260.081	477.44
260.314	503.44
260.547	428.44
260.779	411.44
261.012	434.44
261.244	444.44
261.477	435.44
261.71	420.44
261.942	439.44
262.175	420.44
262.407	409.44
262.64	410.44
262.872	433.44
263.105	451.44
263.337	460.44
263.57	453.44
263.802	415.44
264.035	407.44
264.267	398.44
264.499	392.44
264.732	417.44
264.964	412.44
265.197	421.44
265.429	406.44
265.661	396.44
265.894	408.44
266.126	410.44
266.358	404.44
266.591	429.44
266.823	444.44
267.055	439.44
267.287	433.44
267.52	427.44
267.752	417.44
267.984	431.44
268.216	420.44
268.448	444.44
268.681	459.44
268.913	451.44
269.145	442.44
269.377	459.44
269.609	435.44
269.841	457.44
270.073	441.44
270.306	446.44
270.538	436.44
270.77	460.44
271.002	473.44
271.234	460.44
271.466	494.44
271.698	478.44
271.93	484.44
272.162	469.44
272.394	480.44
272.626	477.44
272.858	497.44
273.09	481.44
273.322	483.44
273.553	473.44
273.785	524.44
274.017	544.44
274.249	588.44
274.481	588.44
274.713	586.44
274.945	624.44
275.176	626.44
275.408	607.44
275.64	588.44
275.872	579.44
276.104	534.44
276.335	526.44
276.567	514.44
276.799	511.44
277.031	550.44
277.262	551.44
277.494	519.44
277.726	503.44
277.957	498.44
278.189	518.44
278.421	499.44
278.652	543.44
278.884	512.44
279.115	546.44
279.347	530.44
279.579	522.44
279.81	523.44
280.042	534.44
280.273	534.44
280.505	554.44
280.736	562.44
280.968	559.44
281.199	528.44
281.431	543.44
281.662	551.44
281.894	542.44
282.125	534.44
282.356	561.44
282.588	536.44
282.819	569.44
283.051	552.44
283.282	550.44
283.513	575.44
283.745	573.44
283.976	558.44
284.207	574.44
284.439	576.44
284.67	588.44
284.901	561.44
285.132	584.44
285.364	578.44
285.595	577.44
285.826	563.44
286.057	582.44
286.288	585.44
286.52	586.44
286.751	594.44
286.982	582.44
287.213	583.44
287.444	594.44
287.675	574.44
287.906	581.44
288.138	609.44
288.369	585.44
288.6	586.44
288.831	598.44
289.062	587.44
289.293	593.44
289.524	566.44
289.755	614.44
289.986	590.44
290.217	603.44
290.448	602.44
290.679	630.44
290.91	617.44
291.141	620.44
291.371	623.44
291.602	619.44
291.833	608.44
292.064	603.44
292.295	620.44
292.526	599.44
292.757	612.44
292.987	616.44
293.218	612.44
293.449	612.44
293.68	604.44
293.91	599.44
294.141	615.44
294.372	618.44
294.603	624.44
294.833	610.44
295.064	644.44
295.295	614.44
295.525	626.44
295.756	627.44
295.987	622.44
296.217	641.44
296.448	627.44
296.679	648.44
296.909	615.44
297.14	637.44
297.37	653.44
297.601	636.44
297.831	638.44
298.062	658.44
298.292	622.44
298.523	660.44
298.753	669.44
298.984	634.44
299.214	672.44
299.445	668.44
299.675	661.44
299.905	674.44
300.136	660.44
300.366	662.44
300.597	676.44
300.827	662.44
301.057	679.44
301.288	667.44
301.518	674.44
301.748	667.44
301.979	681.44
302.209	691.44
302.439	702.44
302.669	673.44
302.9	677.44
303.13	659.44
303.36	681.44
303.59	696.44
303.82	678.44
304.051	686.44
304.281	704.44
304.511	673.44
304.741	698.44
304.971	718.44
305.201	693.44
305.431	675.44
305.661	695.44
305.891	698.44
306.121	673.44
306.352	677.44
306.582	690.44
306.812	660.44
307.042	695.44
307.272	708.44
307.502	689.44
307.731	686.44
307.961	692.44
308.191	704.44
308.421	675.44
308.651	692.44
308.881	690.44
309.111	694.44
309.341	697.44
309.571	691.44
309.8	705.44
310.03	692.44
310.26	694.44
310.49	705.44
310.72	688.44
310.949	689.44
311.179	699.44
311.409	728.44
311.639	728.44
311.868	717.44
312.098	720.44
312.328	737.44
312.557	735.44
312.787	747.44
313.017	737.44
313.246	725.44
313.476	737.44
313.706	745.44
313.935	745.44
314.165	752.44
314.394	774.44
314.624	743.44
314.853	755.44
315.083	758.44
315.312	777.44
315.542	768.44
315.771	742.44
316.001	743.44
316.23	775.44
316.46	754.44
316.689	783.44
316.919	776.44
317.148	734.44
317.377	763.44
317.607	767.44
317.836	755.44
318.065	781.44
318.295	786.44
318.524	783.44
318.753	759.44
318.983	772.44
319.212	750.44
319.441	768.44
319.67	767.44
319.9	776.44
320.129	758.44
320.358	770.44
320.587	782.44
320.816	750.44
321.046	764.44
321.275	766.44
321.504	785.44
321.733	782.44
321.962	785.44
322.191	790.44
322.42	770.44
322.649	774.44
322.878	776.44
323.108	799.44
323.337	780.44
323.566	816.44
323.795	825.44
324.024	817.44
324.253	808.44
324.482	801.44
324.71	809.44
324.939	824.44
325.168	809.44
325.397	816.44
325.626	810.44
325.855	820.44
326.084	829.44
326.313	847.44
326.542	816.44
326.77	838.44
326.999	831.44
327.228	820.44
327.457	838.44
327.686	817.44
327.914	837.44
328.143	846.44
328.372	857.44
328.6	851.44
328.829	820.44
329.058	842.44
329.287	824.44
329.515	831.44
329.744	844.44
329.972	832.44
330.201	805.44
330.43	854.44
330.658	854.44
330.887	875.44
331.115	873.44
331.344	852.44
331.572	846.44
331.801	884.44
332.03	894.44
332.258	902.44
332.486	880.44
332.715	890.44
332.943	901.44
333.172	896.44
333.4	938.44
333.629	933.44
333.857	939.44
334.085	962.44
334.314	956.44
334.542	983.44
334.771	978.44
334.999	968.44
335.227	960.44
335.455	965.44
335.684	990.44
335.912	979.44
336.14	974.44
336.369	935.44
336.597	973.44
336.825	931.44
337.053	969.44
337.281	945.44
337.51	930.44
337.738	946.44
337.966	944.44
338.194	945.44
338.422	908.44
338.65	894.44
338.878	923.44
339.106	886.44
339.334	916.44
339.562	909.44
339.79	898.44
340.018	889.44
340.246	892.44
340.474	906.44
340.702	906.44
340.93	892.44
341.158	892.44
341.386	890.44
341.614	880.44
341.842	887.44
342.07	885.44
342.298	883.44
342.526	894.44
342.754	883.44
342.981	909.44
343.209	891.44
343.437	926.44
343.665	947.44
343.893	936.44
344.12	967.44
344.348	963.44
344.576	935.44
344.804	942.44
345.031	927.44
345.259	913.44
345.487	910.44
345.714	886.44
345.942	870.44
346.17	912.44
346.397	880.44
346.625	858.44
346.853	846.44
347.08	852.44
347.308	873.44
347.535	856.44
347.763	844.44
347.99	880.44
348.218	887.44
348.445	872.44
348.673	861.44
348.9	855.44
349.128	850.44
349.355	853.44
349.583	858.44
349.81	847.44
350.037	850.44
350.265	834.44
350.492	851.44
350.72	865.44
350.947	843.44
351.174	856.44
351.402	838.44
351.629	842.44
351.856	837.44
352.083	866.44
352.311	841.44
352.538	805.44
352.765	835.44
352.992	810.44
353.22	860.44
353.447	812.44
353.674	834.44
353.901	830.44
354.128	851.44
354.355	827.44
354.583	856.44
354.81	868.44
355.037	844.44
355.264	831.44
355.491	839.44
355.718	859.44
355.945	881.44
356.172	867.44
356.399	853.44
356.626	865.44
356.853	856.44
357.08	866.44
357.307	861.44
357.534	836.44
357.761	862.44
357.988	863.44
358.215	903.44
358.441	867.44
358.668	860.44
358.895	862.44
359.122	851.44
359.349	836.44
359.576	836.44
359.802	837.44
360.029	838.44
360.256	853.44
360.483	884.44
360.709	866.44
360.936	860.44
361.163	895.44
361.39	848.44
361.616	896.44
361.843	871.44
362.07	865.44
362.296	848.44
362.523	868.44
362.749	880.44
362.976	882.44
363.203	868.44
363.429	882.44
363.656	848.44
363.882	846.44
364.109	865.44
364.335	895.44
364.562	862.44
364.788	878.44
365.015	894.44
365.241	873.44
365.468	882.44
365.694	898.44
365.92	897.44
366.147	892.44
366.373	872.44
366.599	863.44
366.826	896.44
367.052	880.44
367.278	908.44
367.505	892.44
367.731	878.44
367.957	904.44
368.184	907.44
368.41	892.44
368.636	922.44
368.862	900.44
369.089	921.44
369.315	914.44
369.541	928.44
369.767	915.44
369.993	912.44
370.219	896.44
370.445	917.44
370.672	943.44
370.898	923.44
371.124	946.44
371.35	919.44
371.576	950.44
371.802	934.44
372.028	947.44
372.254	979.44
372.48	943.44
372.706	948.44
372.932	980.44
373.158	959.44
373.384	976.44
373.61	966.44
373.835	988.44
374.061	963.44
374.287	944.44
374.513	987.44
374.739	1033.44
374.965	1003.44
375.191	1015.44
375.416	976.44
375.642	966.44
375.868	983.44
376.094	978.44
376.319	998.44
376.545	947.44
376.771	978.44
376.997	961.44
377.222	957.44
377.448	954.44
377.674	939.44
377.899	947.44
378.125	959.44
378.35	944.44
378.576	947.44
378.802	944.44
379.027	930.44
379.253	943.44
379.478	961.44
379.704	951.44
379.929	954.44
380.155	939.44
380.38	950.44
380.606	987.44
380.831	941.44
381.057	948.44
381.282	977.44
381.507	961.44
381.733	1011.44
381.958	994.44
382.184	996.44
382.409	965.44
382.634	996.44
382.86	1010.44
383.085	1018.44
383.31	1030.44
383.535	1041.44
383.761	1044.44
383.986	1012.44
384.211	1057.44
384.436	1024.44
384.662	1046.44
384.887	1099.44
385.112	1068.44
385.337	1047.44
385.562	1055.44
385.787	1082.44
386.013	1092.44
386.238	1090.44
386.463	1081.44
386.688	1090.44
386.913	1065.44
387.138	1122.44
387.363	1101.44
387.588	1096.44
387.813	1106.44
388.038	1112.44
388.263	1146.44
388.488	1124.44
388.713	1127.44
388.938	1142.44
389.163	1127.44
389.387	1093.44
389.612	1107.44
389.837	1099.44
390.062	1111.44
390.287	1131.44
390.512	1116.44
390.736	1144.44
390.961	1142.44
391.186	1153.44
391.411	1145.44
391.636	1168.44
391.86	1182.44
392.085	1192.44
392.31	1185.44
392.534	1187.44
392.759	1207.44
392.984	1178.44
393.208	1188.44
393.433	1171.44
393.658	1188.44
393.882	1169.44
394.107	1160.44
394.331	1167.44
394.556	1167.44
394.78	1164.44
395.005	1177.44
395.229	1180.44
395.454	1191.44
395.678	1204.44
395.903	1209.44
396.127	1209.44
396.352	1183.44
396.576	1198.44
396.801	1231.44
397.025	1242.44
397.249	1198.44
397.474	1273.44
397.698	1239.44
397.922	1272.44
398.147	1243.44
398.371	1258.44
398.595	1307.44
398.82	1306.44
399.044	1359.44
399.268	1419.44
399.492	1456.44
399.717	1560.44
399.941	1556.44
400.165	1548.44
400.389	1494.44
400.613	1450.44
400.837	1394.44
401.062	1395.44
401.286	1366.44
401.51	1326.44
401.734	1319.44
401.958	1353.44
402.182	1335.44
402.406	1306.44
402.63	1342.44
402.854	1357.44
403.078	1313.44
403.302	1348.44
403.526	1350.44
403.75	1363.44
403.974	1360.44
404.198	1375.44
404.422	1355.44
404.645	1393.44
404.869	1407.44
405.093	1356.44
405.317	1365.44
405.541	1364.44
405.765	1402.44
405.988	1402.44
406.212	1417.44
406.436	1412.44
406.66	1442.44
406.883	1444.44
407.107	1500.44
407.331	1490.44
407.555	1541.44
407.778	1544.44
408.002	1528.44
408.226	1483.44
408.449	1538.44
408.673	1510.44
408.896	1490.44
409.12	1465.44
409.344	1487.44
409.567	1438.44
409.791	1458.44
410.014	1438.44
410.238	1446.44
410.461	1422.44
410.685	1416.44
410.908	1402.44
411.132	1416.44
411.355	1378.44
411.578	1377.44
411.802	1420.44
412.025	1352.44
412.249	1416.44
412.472	1430.44
412.695	1423.44
412.919	1354.44
413.142	1378.44
413.365	1370.44
413.589	1350.44
413.812	1371.44
414.035	1363.44
414.258	1347.44
414.482	1329.44
414.705	1393.44
414.928	1364.44
415.151	1373.44
415.374	1310.44
415.597	1308.44
415.821	1303.44
416.044	1316.44
416.267	1329.44
416.49	1297.44
416.713	1280.44
416.936	1290.44
417.159	1286.44
417.382	1279.44
417.605	1266.44
417.828	1311.44
418.051	1309.44
418.274	1279.44
418.497	1270.44
418.72	1304.44
418.943	1288.44
419.166	1361.44
419.389	1458.44
419.611	1414.44
419.834	1393.44
420.057	1346.44
420.28	1320.44
420.503	1321.44
420.726	1264.44
420.948	1251.44
421.171	1270.44
421.394	1287.44
421.617	1300.44
421.839	1325.44
422.062	1324.44
422.285	1257.44
422.507	1284.44
422.73	1284.44
422.953	1286.44
423.175	1293.44
423.398	1298.44
423.621	1278.44
423.843	1308.44
424.066	1314.44
424.288	1273.44
424.511	1274.44
424.733	1261.44
424.956	1298.44
425.178	1311.44
425.401	1319.44
425.623	1270.44
425.846	1254.44
426.068	1268.44
426.291	1257.44
426.513	1270.44
426.735	1271.44
426.958	1286.44
427.18	1232.44
427.402	1251.44
427.625	1238.44
427.847	1236.44
428.069	1204.44
428.292	1258.44
428.514	1245.44
428.736	1232.44
428.958	1242.44
429.181	1236.44
429.403	1212.44
429.625	1210.44
429.847	1207.44
430.069	1206.44
430.292	1220.44
430.514	1211.44
430.736	1220.44
430.958	1244.44
431.18	1224.44
431.402	1198.44
431.624	1206.44
431.846	1248.44
432.068	1229.44
432.29	1265.44
432.512	1260.44
432.734	1232.44
432.956	1259.44
433.178	1270.44
433.4	1241.44
433.622	1204.44
433.844	1275.44
434.066	1262.44
434.287	1255.44
434.509	1264.44
434.731	1267.44
434.953	1250.44
435.175	1267.44
435.397	1315.44
435.618	1290.44
435.84	1260.44
436.062	1250.44
436.284	1217.44
436.505	1223.44
436.727	1240.44
436.949	1232.44
437.17	1209.44
437.392	1220.44
437.614	1251.44
437.835	1187.44
438.057	1219.44
438.278	1194.44
438.5	1200.44
438.721	1210.44
438.943	1208.44
439.165	1193.44
439.386	1228.44
439.608	1215.44
439.829	1217.44
440.05	1218.44
440.272	1208.44
440.493	1231.44
440.715	1235.44
440.936	1248.44
441.158	1233.44
441.379	1257.44
441.6	1273.44
441.822	1282.44
442.043	1294.44
442.264	1258.44
442.486	1245.44
442.707	1282.44
442.928	1291.44
443.149	1293.44
443.371	1278.44
443.592	1246.44
443.813	1291.44
444.034	1284.44
444.255	1285.44
444.476	1322.44
444.698	1355.44
444.919	1334.44
445.14	1462.44
445.361	1377.44
445.582	1304.44
445.803	1254.44
446.024	1222.44
446.245	1264.44
446.466	1248.44
446.687	1176.44
446.908	1236.44
447.129	1193.44
447.35	1198.44
447.571	1208.44
447.792	1143.44
448.013	1168.44
448.234	1162.44
448.455	1164.44
448.675	1163.44
448.896	1147.44
449.117	1107.44
449.338	1151.44
449.559	1142.44
449.779	1123.44
450	1112.44
450.221	1143.44
450.442	1141.44
450.662	1116.44
450.883	1136.44
451.104	1103.44
451.324	1130.44
451.545	1135.44
451.766	1119.44
451.986	1115.44
452.207	1107.44
452.428	1093.44
452.648	1106.44
452.869	1068.44
453.089	1098.44
453.31	1101.44
453.53	1090.44
453.751	1086.44
453.971	1071.44
454.192	1074.44
454.412	1072.44
454.633	1062.44
454.853	1088.44
455.073	1076.44
455.294	1072.44
455.514	1078.44
455.734	1088.44
455.955	1055.44
456.175	1070.44
456.395	1091.44
456.616	1084.44
456.836	1089.44
457.056	1060.44
457.276	1042.44
457.497	1114.44
457.717	1065.44
457.937	1092.44
458.157	1093.44
458.377	1107.44
458.598	1161.44
458.818	1152.44
459.038	1172.44
459.258	1120.44
459.478	1192.44
459.698	1183.44
459.918	1267.44
460.138	1244.44
460.358	1286.44
460.578	1315.44
460.798	1284.44
461.018	1284.44
461.238	1332.44
461.458	1306.44
461.678	1291.44
461.898	1354.44
462.118	1343.44
462.338	1382.44
462.558	1369.44
462.777	1419.44
462.997	1446.44
463.217	1481.44
463.437	1501.44
463.657	1472.44
463.876	1454.44
464.096	1460.44
464.316	1389.44
464.536	1394.44
464.755	1409.44
464.975	1391.44
465.195	1352.44
465.414	1320.44
465.634	1292.44
465.854	1274.44
466.073	1262.44
466.293	1272.44
466.512	1235.44
466.732	1240.44
466.951	1223.44
467.171	1191.44
467.391	1195.44
467.61	1215.44
467.829	1198.44
468.049	1220.44
468.268	1154.44
468.488	1146.44
468.707	1156.44
468.927	1206.44
469.146	1194.44
469.365	1191.44
469.585	1163.44
469.804	1218.44
470.023	1256.44
470.243	1187.44
470.462	1182.44
470.681	1190.44
470.901	1212.44
471.12	1221.44
471.339	1177.44
471.558	1199.44
471.777	1187.44
471.997	1198.44
472.216	1176.44
472.435	1187.44
472.654	1198.44
472.873	1182.44
473.092	1180.44
473.311	1151.44
473.53	1170.44
473.749	1195.44
473.968	1168.44
474.187	1178.44
474.406	1174.44
474.625	1202.44
474.844	1204.44
475.063	1198.44
475.282	1187.44
475.501	1198.44
475.72	1204.44
475.939	1194.44
476.158	1244.44
476.377	1253.44
476.596	1297.44
476.814	1332.44
477.033	1260.44
477.252	1240.44
477.471	1264.44
477.69	1264.44
477.908	1334.44
478.127	1372.44
478.346	1307.44
478.564	1338.44
478.783	1403.44
479.002	1383.44
479.22	1419.44
479.439	1444.44
479.658	1415.44
479.876	1432.44
480.095	1408.44
480.313	1415.44
480.532	1468.44
480.751	1465.44
480.969	1442.44
481.188	1442.44
481.406	1458.44
481.624	1448.44
481.843	1414.44
482.061	1404.44
482.28	1403.44
482.498	1393.44
482.717	1426.44
482.935	1427.44
483.153	1426.44
483.372	1402.44
483.59	1454.44
483.808	1429.44
484.027	1394.44
484.245	1394.44
484.463	1432.44
484.681	1442.44
484.9	1472.44
485.118	1457.44
485.336	1434.44
485.554	1432.44
485.772	1431.44
485.99	1395.44
486.209	1443.44
486.427	1448.44
486.645	1461.44
486.863	1439.44
487.081	1424.44
487.299	1467.44
487.517	1452.44
487.735	1476.44
487.953	1453.44
488.171	1477.44
488.389	1449.44
488.607	1467.44
488.825	1434.44
489.043	1457.44
489.261	1466.44
489.479	1441.44
489.696	1445.44
489.914	1464.44
490.132	1486.44
490.35	1456.44
490.568	1464.44
490.786	1474.44
491.003	1456.44
491.221	1499.44
491.439	1490.44
491.657	1446.44
491.874	1479.44
492.092	1489.44
492.31	1506.44
492.527	1538.44
492.745	1501.44
492.963	1534.44
493.18	1506.44
493.398	1486.44
493.615	1508.44
493.833	1507.44
494.05	1471.44
494.268	1544.44
494.485	1510.44
494.703	1511.44
494.92	1539.44
495.138	1514.44
495.355	1514.44
495.573	1540.44
495.79	1542.44
496.008	1559.44
496.225	1580.44
496.442	1609.44
496.66	1619.44
496.877	1571.44
497.094	1615.44
497.312	1607.44
497.529	1682.44
497.746	1704.44
497.963	1716.44
498.181	1749.44
498.398	1825.44
498.615	1863.44
498.832	1912.44
499.049	1984.44
499.267	2064.44
499.484	2150.44
499.701	2307.44
499.918	2324.44
500.135	2476.44
500.352	2580.44
500.569	2626.44
500.786	2606.44
501.003	2534.44
501.22	2470.44
501.437	2307.44
501.654	2202.44
501.871	2132.44
502.088	2072.44
502.305	1928.44
502.522	1914.44
502.739	1871.44
502.956	1802.44
503.172	1734.44
503.389	1710.44
503.606	1658.44
503.823	1653.44
504.04	1663.44
504.256	1627.44
504.473	1630.44
504.69	1602.44
504.907	1584.44
505.123	1544.44
505.34	1530.44
505.557	1504.44
505.773	1443.44
505.99	1480.44
506.207	1399.44
506.423	1392.44
506.64	1353.44
506.856	1366.44
507.073	1369.44
507.289	1355.44
507.506	1335.44
507.722	1346.44
507.939	1318.44
508.155	1294.44
508.372	1273.44
508.588	1280.44
508.805	1266.44
509.021	1270.44
509.238	1255.44
509.454	1238.44
509.67	1235.44
509.887	1260.44
510.103	1223.44
510.319	1247.44
510.536	1220.44
510.752	1174.44
510.968	1211.44
511.184	1187.44
511.401	1218.44
511.617	1198.44
511.833	1176.44
512.049	1180.44
512.265	1198.44
512.481	1194.44
512.698	1186.44
512.914	1249.44
513.13	1176.44
513.346	1193.44
513.562	1218.44
513.778	1186.44
513.994	1202.44
514.21	1219.44
514.426	1184.44
514.642	1182.44
514.858	1187.44
515.074	1190.44
515.29	1224.44
515.506	1215.44
515.721	1228.44
515.937	1250.44
516.153	1245.44
516.369	1257.44
516.585	1243.44
516.801	1296.44
517.016	1327.44
517.232	1306.44
517.448	1392.44
517.664	1326.44
517.879	1324.44
518.095	1332.44
518.311	1364.44
518.527	1319.44
518.742	1285.44
518.958	1249.44
519.173	1255.44
519.389	1214.44
519.605	1226.44
519.82	1250.44
520.036	1262.44
520.251	1253.44
520.467	1228.44
520.682	1176.44
520.898	1143.44
521.113	1168.44
521.329	1185.44
521.544	1155.44
521.76	1135.44
521.975	1136.44
522.19	1124.44
522.406	1115.44
522.621	1158.44
522.836	1122.44
523.052	1120.44
523.267	1120.44
523.482	1122.44
523.698	1109.44
523.913	1096.44
524.128	1083.44
524.343	1113.44
524.559	1062.44
524.774	1091.44
524.989	1056.44
525.204	1094.44
525.419	1089.44
525.634	1043.44
525.849	1084.44
526.064	1047.44
526.28	1062.44
526.495	1098.44
526.71	1067.44
526.925	1072.44
527.14	1057.44
527.355	1064.44
527.57	1041.44
527.785	1028.44
527.999	1027.44
528.214	1040.44
528.429	1047.44
528.644	1049.44
528.859	1009.44
529.074	1053.44
529.289	1033.44
529.503	1016.44
529.718	1031.44
529.933	1027.44
530.148	1011.44
530.363	1025.44
530.577	1014.44
530.792	989.44
531.007	1015.44
531.221	1034.44
531.436	1022.44
531.651	1030.44
531.865	1009.44
532.08	1001.44
532.295	1027.44
532.509	1015.44
532.724	1000.44
532.938	1019.44
533.153	1036.44
533.367	999.44
533.582	999.44
533.796	1013.44
534.011	1000.44
534.225	1011.44
534.44	987.44
534.654	1003.44
534.868	990.44
535.083	979.44
535.297	985.44
535.511	971.44
535.726	976.44
535.94	943.44
536.154	953.44
536.369	962.44
536.583	944.44
536.797	955.44
537.011	960.44
537.225	968.44
537.44	937.44
537.654	944.44
537.868	946.44
538.082	907.44
538.296	929.44
538.51	938.44
538.724	977.44
538.938	930.44
539.153	895.44
539.367	935.44
539.581	916.44
539.795	930.44
540.009	916.44
540.222	914.44
540.436	926.44
540.65	932.44
540.864	929.44
541.078	925.44
541.292	921.44
541.506	933.44
541.72	943.44
541.934	930.44
542.147	910.44
542.361	901.44
542.575	920.44
542.789	926.44
543.002	894.44
543.216	906.44
543.43	932.44
543.644	917.44
543.857	928.44
544.071	903.44
544.285	904.44
544.498	914.44
544.712	914.44
544.925	938.44
545.139	912.44
545.352	929.44
545.566	907.44
545.779	938.44
545.993	926.44
546.206	944.44
546.42	895.44
546.633	914.44
546.847	947.44
547.06	922.44
547.274	937.44
547.487	937.44
547.7	932.44
547.914	900.44
548.127	923.44
548.34	928.44
548.554	931.44
548.767	900.44
548.98	905.44
549.193	920.44
549.407	900.44
549.62	938.44
549.833	928.44
550.046	916.44
550.259	947.44
550.473	896.44
550.686	905.44
550.899	897.44
551.112	930.44
551.325	906.44
551.538	935.44
551.751	900.44
551.964	926.44
552.177	909.44
552.39	889.44
552.603	897.44
552.816	919.44
553.029	935.44
553.242	913.44
553.455	918.44
553.667	926.44
553.88	936.44
554.093	923.44
554.306	891.44
554.519	889.44
554.732	842.44
554.944	851.44
555.157	836.44
555.37	858.44
555.583	847.44
555.795	851.44
556.008	825.44
556.221	821.44
556.433	796.44
556.646	796.44
556.859	819.44
557.071	808.44
557.284	795.44
557.496	816.44
557.709	804.44
557.921	795.44
558.134	772.44
558.346	782.44
558.559	766.44
558.771	772.44
558.984	796.44
559.196	772.44
559.409	788.44
559.621	788.44
559.833	778.44
560.046	767.44
560.258	766.44
560.47	777.44
560.683	758.44
560.895	768.44
561.107	755.44
561.32	773.44
561.532	753.44
561.744	754.44
561.956	791.44
562.168	779.44
562.381	751.44
562.593	784.44
562.805	791.44
563.017	780.44
563.229	775.44
563.441	752.44
563.653	782.44
563.865	783.44
564.077	767.44
564.289	768.44
564.501	806.44
564.713	834.44
564.925	802.44
565.137	807.44
565.349	793.44
565.561	830.44
565.773	837.44
565.985	868.44
566.197	891.44
566.408	905.44
566.62	947.44
566.832	955.44
567.044	977.44
567.255	953.44
567.467	947.44
567.679	1007.44
567.891	1013.44
568.102	994.44
568.314	964.44
568.526	922.44
568.737	895.44
568.949	851.44
569.161	864.44
569.372	832.44
569.584	806.44
569.795	800.44
570.007	776.44
570.218	746.44
570.43	761.44
570.641	753.44
570.853	745.44
571.064	746.44
571.276	730.44
571.487	732.44
571.698	710.44
571.91	686.44
572.121	704.44
572.333	672.44
572.544	674.44
572.755	652.44
572.966	651.44
573.178	651.44
573.389	653.44
573.6	638.44
573.811	624.44
574.023	633.44
574.234	650.44
574.445	616.44
574.656	604.44
574.867	618.44
575.078	603.44
575.289	606.44
575.501	612.44
575.712	584.44
575.923	578.44
576.134	584.44
576.345	585.44
576.556	574.44
576.767	597.44
576.978	582.44
577.188	563.44
577.399	578.44
577.61	581.44
577.821	576.44
578.032	553.44
578.243	562.44
578.454	572.44
578.665	561.44
578.875	578.44
579.086	551.44
579.297	542.44
579.508	552.44
579.718	548.44
579.929	544.44
580.14	555.44
580.35	539.44
580.561	547.44
580.772	539.44
580.982	546.44
581.193	532.44
581.403	532.44
581.614	551.44
581.825	515.44
582.035	517.44
582.246	523.44
582.456	518.44
582.667	521.44
582.877	525.44
583.087	522.44
583.298	507.44
583.508	528.44
583.719	517.44
583.929	534.44
584.139	522.44
584.35	499.44
584.56	514.44
584.77	517.44
584.981	499.44
585.191	524.44
585.401	498.44
585.611	501.44
585.821	515.44
586.032	496.44
586.242	494.44
586.452	498.44
586.662	496.44
586.872	516.44
587.082	515.44
587.292	506.44
587.502	511.44
587.713	515.44
587.923	487.44
588.133	496.44
588.343	506.44
588.553	497.44
588.762	483.44
588.972	484.44
589.182	517.44
589.392	510.44
589.602	497.44
589.812	514.44
590.022	503.44
590.232	488.44
590.441	496.44
590.651	494.44
590.861	502.44
591.071	495.44
591.281	493.44
591.49	509.44
591.7	519.44
591.91	494.44
592.119	500.44
592.329	522.44
592.539	514.44
592.748	516.44
592.958	513.44
593.167	504.44
593.377	528.44
593.587	523.44
593.796	511.44
594.006	523.44
594.215	514.44
594.424	536.44
594.634	533.44
594.843	494.44
595.053	492.44
595.262	479.44
595.472	482.44
595.681	453.44
595.89	480.44
596.1	457.44
596.309	466.44
596.518	486.44
596.727	471.44
596.937	460.44
597.146	452.44
597.355	446.44
597.564	446.44
597.774	437.44
597.983	431.44
598.192	418.44
598.401	438.44
598.61	419.44
598.819	430.44
599.028	419.44
599.237	430.44
599.446	419.44
599.655	411.44
599.864	410.44
600.073	426.44
600.282	413.44
600.491	429.44
600.7	378.44
600.909	405.44
601.118	403.44
601.327	396.44
601.536	392.44
601.745	403.44
601.953	404.44
602.162	419.44
602.371	406.44
602.58	399.44
602.789	411.44
602.997	418.44
603.206	393.44
603.415	394.44
603.623	394.44
603.832	394.44
604.041	404.44
604.249	380.44
604.458	390.44
604.666	398.44
604.875	387.44
605.084	382.44
605.292	382.44
605.501	370.44
605.709	379.44
605.918	380.44
606.126	366.44
606.334	383.44
606.543	377.44
606.751	378.44
606.96	368.44
607.168	393.44
607.376	364.44
607.585	359.44
607.793	379.44
608.001	383.44
608.21	366.44
608.418	369.44
608.626	360.44
608.834	369.44
609.043	384.44
609.251	390.44
609.459	361.44
609.667	352.44
609.875	371.44
610.083	355.44
610.291	358.44
610.499	360.44
610.707	356.44
610.916	367.44
611.124	360.44
611.332	353.44
611.54	368.44
611.748	378.44
611.955	350.44
612.163	361.44
612.371	360.44
612.579	341.44
612.787	361.44
612.995	364.44
613.203	347.44
613.411	372.44
613.618	345.44
613.826	370.44
614.034	372.44
614.242	353.44
614.449	341.44
614.657	344.44
614.865	359.44
615.072	347.44
615.28	352.44
615.488	353.44
615.695	351.44
615.903	320.44
616.111	355.44
616.318	326.44
616.526	363.44
616.733	345.44
616.941	350.44
617.148	369.44
617.356	354.44
617.563	334.44
617.771	343.44
617.978	350.44
618.185	351.44
618.393	340.44
618.6	347.44
618.807	342.44
619.015	350.44
619.222	340.44
619.429	328.44
619.637	356.44
619.844	349.44
620.051	340.44
620.258	312.44
620.466	316.44
620.673	330.44
620.88	329.44
621.087	318.44
621.294	311.44
621.501	334.44
621.708	322.44
621.915	327.44
622.122	334.44
622.329	329.44
622.536	332.44
622.743	318.44
622.95	312.44
623.157	323.44
623.364	316.44
623.571	330.44
623.778	318.44
623.985	306.44
624.192	331.44
624.399	320.44
624.606	324.44
624.812	302.44
625.019	304.44
625.226	318.44
625.433	304.44
625.639	317.44
625.846	292.44
626.053	295.44
626.259	294.44
626.466	290.44
626.673	292.44
626.879	280.44
627.086	297.44
627.293	300.44
627.499	288.44
627.706	307.44
627.912	290.44
628.119	278.44
628.325	307.44
628.532	283.44
628.738	290.44
628.945	306.44
629.151	279.44
629.357	276.44
629.564	288.44
629.77	280.44
629.976	271.44
630.183	284.44
630.389	286.44
630.595	278.44
630.802	292.44
631.008	302.44
631.214	274.44
631.42	293.44
631.627	278.44
631.833	273.44
632.039	278.44
632.245	279.44
632.451	261.44
632.657	280.44
632.863	274.44
633.069	261.44
633.275	262.44
633.481	253.44
633.688	258.44
633.893	271.44
634.099	262.44
634.305	270.44
634.511	250.44
634.717	259.44
634.923	263.44
635.129	266.44
635.335	260.44
635.541	248.44
635.747	255.44
635.952	266.44
636.158	233.44
636.364	276.44
636.57	267.44
636.775	269.44
636.981	260.44
637.187	270.44
637.392	252.44
637.598	248.44
637.804	252.44
638.009	266.44
638.215	276.44
638.421	254.44
638.626	253.44
638.832	248.44
639.037	260.44
639.243	262.44
639.448	252.44
639.654	266.44
639.859	254.44
640.065	257.44
640.27	271.44
640.475	262.44
640.681	262.44
640.886	267.44
641.091	258.44
641.297	261.44
641.502	262.44
641.707	259.44
641.913	262.44
642.118	258.44
642.323	247.44
642.528	263.44
642.733	248.44
642.939	229.44
643.144	249.44
643.349	275.44
643.554	270.44
643.759	243.44
643.964	248.44
644.169	246.44
644.374	246.44
644.579	253.44
644.784	270.44
644.989	254.44
645.194	252.44
645.399	248.44
645.604	226.44
645.809	234.44
646.014	247.44
646.219	238.44
646.423	245.44
646.628	251.44
646.833	267.44
647.038	250.44
647.243	247.44
647.447	272.44
647.652	268.44
647.857	264.44
648.062	256.44
648.266	262.44
648.471	262.44
648.676	259.44
648.88	260.44
649.085	272.44
649.289	280.44
649.494	255.44
649.698	277.44
649.903	256.44
650.107	261.44
650.312	260.44
650.516	258.44
650.721	262.44
650.925	250.44
651.13	251.44
651.334	252.44
651.539	268.44
651.743	247.44
651.947	230.44
652.152	227.44
652.356	253.44
652.56	244.44
652.764	248.44
652.969	238.44
653.173	240.44
653.377	232.44
653.581	241.44
653.785	229.44
653.99	246.44
654.194	244.44
654.398	244.44
654.602	264.44
654.806	230.44
655.01	231.44
655.214	250.44
655.418	237.44
655.622	242.44
655.826	221.44
656.03	251.44
656.234	234.44
656.438	233.44
656.642	240.44
656.846	223.44
657.049	228.44
657.253	203.44
657.457	193.44
657.661	209.44
657.865	194.44
658.068	176.44
658.272	187.44
658.476	163.44
658.68	156.44
658.883	158.44
659.087	141.44
659.291	145.44
659.494	131.44
659.698	131.44
659.901	128.44
660.105	121.44
660.309	118.44
660.512	122.44
660.716	120.44
660.919	113.44
661.123	93.44
661.326	100.44
661.53	109.44
661.733	93.44
661.936	98.44
662.14	91.44
662.343	98.44
662.546	85.44
662.75	92.44
662.953	89.44
663.156	80.44
663.36	93.44
663.563	82.44
663.766	81.44
663.969	77.44
664.173	84.44
664.376	75.44
664.579	75.44
664.782	83.44
664.985	103.44
665.188	83.44
665.391	73.44
665.594	95.44
665.797	71.44
666	81.44
666.203	84.44
666.406	89.44
666.609	97.44
666.812	82.44
667.015	82.44
667.218	74.44
667.421	80.44
667.624	95.44
667.827	81.44
668.03	79.44
668.232	80.44
668.435	78.44
668.638	91.44
668.841	83.44
669.043	85.44
669.246	76.44
669.449	71.44
669.651	91.44
669.854	64.44
670.057	82.44
670.259	82.44
670.462	68.44
670.665	67.44
670.867	80.44
671.07	77.44
671.272	83.44
671.475	96.44
671.677	83.44
671.88	80.44
672.082	77.44
672.284	74.44
672.487	70.44
672.689	74.44
672.892	78.44
