Data from Fe(NO3)3@0.0125M.TitratingCurve.Agarose3%dH2O.NegLispCup.LampEnergy10.LIBS07252019_HRD10591_17-00-11-337.txt Node
Date: Thu Jul 25 17:00:11 EDT 2019
User: cochatt
Spectrometer: HR+D1059
Trigger mode: 1
Integration Time (sec): 1.000000E-1
Scans to average: 1
Electric dark correction enabled: true
Nonlinearity correction enabled: false
Boxcar width: 0
XAxis mode: Wavelengths
Number of Pixels in Spectrum: 2048
>>>>>Begin Spectral Data<<<<<
223.165	-11.62
223.4	-11.62
223.635	-11.62
223.869	-9.62
224.104	-14.62
224.338	-13.62
224.573	-19.62
224.808	-12.62
225.042	-14.62
225.277	-0.62
225.511	-7.62
225.746	6.38
225.98	6.38
226.215	7.38
226.449	9.38
226.683	7.38
226.918	34.38
227.152	33.38
227.387	21.38
227.621	33.38
227.856	40.38
228.09	47.38
228.324	54.38
228.559	32.38
228.793	60.38
229.027	67.38
229.262	68.38
229.496	81.38
229.73	69.38
229.964	79.38
230.199	79.38
230.433	87.38
230.667	86.38
230.901	99.38
231.136	82.38
231.37	87.38
231.604	83.38
231.838	103.38
232.072	95.38
232.306	95.38
232.541	104.38
232.775	92.38
233.009	100.38
233.243	105.38
233.477	106.38
233.711	89.38
233.945	101.38
234.179	95.38
234.413	102.38
234.647	106.38
234.881	109.38
235.115	110.38
235.349	88.38
235.583	100.38
235.817	86.38
236.051	97.38
236.285	95.38
236.519	84.38
236.753	93.38
236.987	109.38
237.221	115.38
237.455	100.38
237.689	100.38
237.922	106.38
238.156	112.38
238.39	106.38
238.624	128.38
238.858	120.38
239.091	85.38
239.325	108.38
239.559	112.38
239.793	111.38
240.027	115.38
240.26	106.38
240.494	108.38
240.728	116.38
240.961	120.38
241.195	108.38
241.429	109.38
241.662	122.38
241.896	118.38
242.13	116.38
242.363	105.38
242.597	110.38
242.83	111.38
243.064	97.38
243.298	106.38
243.531	96.38
243.765	103.38
243.998	112.38
244.232	116.38
244.465	117.38
244.699	109.38
244.932	119.38
245.166	110.38
245.399	110.38
245.633	122.38
245.866	120.38
246.099	109.38
246.333	122.38
246.566	126.38
246.8	127.38
247.033	117.38
247.266	111.38
247.5	100.38
247.733	121.38
247.966	129.38
248.2	126.38
248.433	110.38
248.666	126.38
248.899	119.38
249.133	119.38
249.366	139.38
249.599	141.38
249.832	137.38
250.066	135.38
250.299	125.38
250.532	126.38
250.765	137.38
250.998	128.38
251.231	135.38
251.465	131.38
251.698	130.38
251.931	131.38
252.164	142.38
252.397	137.38
252.63	134.38
252.863	137.38
253.096	152.38
253.329	129.38
253.562	142.38
253.795	131.38
254.028	149.38
254.261	153.38
254.494	155.38
254.727	146.38
254.96	144.38
255.193	148.38
255.426	134.38
255.659	147.38
255.892	145.38
256.124	142.38
256.357	149.38
256.59	137.38
256.823	152.38
257.056	151.38
257.289	150.38
257.521	156.38
257.754	153.38
257.987	150.38
258.22	150.38
258.452	142.38
258.685	155.38
258.918	157.38
259.151	143.38
259.383	140.38
259.616	146.38
259.849	174.38
260.081	166.38
260.314	190.38
260.547	157.38
260.779	180.38
261.012	163.38
261.244	176.38
261.477	180.38
261.71	162.38
261.942	148.38
262.175	169.38
262.407	166.38
262.64	165.38
262.872	176.38
263.105	157.38
263.337	164.38
263.57	167.38
263.802	152.38
264.035	142.38
264.267	164.38
264.499	151.38
264.732	159.38
264.964	160.38
265.197	155.38
265.429	168.38
265.661	169.38
265.894	167.38
266.126	169.38
266.358	164.38
266.591	168.38
266.823	178.38
267.055	166.38
267.287	167.38
267.52	183.38
267.752	169.38
267.984	176.38
268.216	171.38
268.448	182.38
268.681	184.38
268.913	174.38
269.145	166.38
269.377	175.38
269.609	180.38
269.841	162.38
270.073	166.38
270.306	177.38
270.538	181.38
270.77	175.38
271.002	190.38
271.234	172.38
271.466	177.38
271.698	183.38
271.93	185.38
272.162	179.38
272.394	199.38
272.626	190.38
272.858	194.38
273.09	198.38
273.322	179.38
273.553	187.38
273.785	213.38
274.017	203.38
274.249	217.38
274.481	224.38
274.713	198.38
274.945	223.38
275.176	217.38
275.408	218.38
275.64	208.38
275.872	229.38
276.104	213.38
276.335	209.38
276.567	208.38
276.799	198.38
277.031	206.38
277.262	208.38
277.494	215.38
277.726	213.38
277.957	197.38
278.189	216.38
278.421	208.38
278.652	194.38
278.884	222.38
279.115	216.38
279.347	213.38
279.579	201.38
279.81	219.38
280.042	209.38
280.273	226.38
280.505	207.38
280.736	212.38
280.968	212.38
281.199	213.38
281.431	214.38
281.662	202.38
281.894	197.38
282.125	207.38
282.356	222.38
282.588	229.38
282.819	209.38
283.051	223.38
283.282	236.38
283.513	219.38
283.745	233.38
283.976	233.38
284.207	230.38
284.439	229.38
284.67	226.38
284.901	230.38
285.132	231.38
285.364	234.38
285.595	229.38
285.826	238.38
286.057	246.38
286.288	240.38
286.52	237.38
286.751	226.38
286.982	240.38
287.213	236.38
287.444	250.38
287.675	248.38
287.906	232.38
288.138	223.38
288.369	230.38
288.6	228.38
288.831	241.38
289.062	252.38
289.293	226.38
289.524	242.38
289.755	238.38
289.986	256.38
290.217	253.38
290.448	236.38
290.679	241.38
290.91	231.38
291.141	248.38
291.371	240.38
291.602	250.38
291.833	260.38
292.064	256.38
292.295	229.38
292.526	231.38
292.757	252.38
292.987	231.38
293.218	246.38
293.449	252.38
293.68	250.38
293.91	249.38
294.141	249.38
294.372	249.38
294.603	256.38
294.833	263.38
295.064	252.38
295.295	235.38
295.525	273.38
295.756	271.38
295.987	259.38
296.217	267.38
296.448	254.38
296.679	252.38
296.909	260.38
297.14	252.38
297.37	256.38
297.601	262.38
297.831	264.38
298.062	268.38
298.292	258.38
298.523	275.38
298.753	281.38
298.984	257.38
299.214	257.38
299.445	236.38
299.675	291.38
299.905	262.38
300.136	270.38
300.366	272.38
300.597	271.38
300.827	280.38
301.057	268.38
301.288	279.38
301.518	280.38
301.748	294.38
301.979	294.38
302.209	276.38
302.439	280.38
302.669	260.38
302.9	278.38
303.13	289.38
303.36	280.38
303.59	284.38
303.82	279.38
304.051	287.38
304.281	295.38
304.511	279.38
304.741	294.38
304.971	270.38
305.201	276.38
305.431	290.38
305.661	287.38
305.891	300.38
306.121	280.38
306.352	289.38
306.582	287.38
306.812	296.38
307.042	298.38
307.272	273.38
307.502	320.38
307.731	295.38
307.961	291.38
308.191	286.38
308.421	282.38
308.651	296.38
308.881	287.38
309.111	291.38
309.341	312.38
309.571	284.38
309.8	296.38
310.03	312.38
310.26	300.38
310.49	307.38
310.72	304.38
310.949	306.38
311.179	288.38
311.409	308.38
311.639	294.38
311.868	306.38
312.098	310.38
312.328	338.38
312.557	314.38
312.787	312.38
313.017	321.38
313.246	312.38
313.476	312.38
313.706	315.38
313.935	324.38
314.165	327.38
314.394	323.38
314.624	307.38
314.853	309.38
315.083	306.38
315.312	323.38
315.542	323.38
315.771	317.38
316.001	310.38
316.23	328.38
316.46	321.38
316.689	327.38
316.919	304.38
317.148	314.38
317.377	321.38
317.607	342.38
317.836	319.38
318.065	344.38
318.295	336.38
318.524	339.38
318.753	347.38
318.983	322.38
319.212	321.38
319.441	335.38
319.67	329.38
319.9	320.38
320.129	341.38
320.358	333.38
320.587	330.38
320.816	337.38
321.046	318.38
321.275	343.38
321.504	332.38
321.733	322.38
321.962	342.38
322.191	345.38
322.42	333.38
322.649	339.38
322.878	336.38
323.108	307.38
323.337	323.38
323.566	340.38
323.795	333.38
324.024	360.38
324.253	372.38
324.482	353.38
324.71	343.38
324.939	340.38
325.168	362.38
325.397	349.38
325.626	341.38
325.855	346.38
326.084	327.38
326.313	360.38
326.542	341.38
326.77	334.38
326.999	364.38
327.228	341.38
327.457	352.38
327.686	344.38
327.914	353.38
328.143	359.38
328.372	361.38
328.6	348.38
328.829	346.38
329.058	354.38
329.287	373.38
329.515	362.38
329.744	354.38
329.972	358.38
330.201	361.38
330.43	369.38
330.658	367.38
330.887	373.38
331.115	379.38
331.344	373.38
331.572	405.38
331.801	363.38
332.03	373.38
332.258	374.38
332.486	398.38
332.715	382.38
332.943	391.38
333.172	392.38
333.4	380.38
333.629	390.38
333.857	392.38
334.085	375.38
334.314	390.38
334.542	394.38
334.771	413.38
334.999	397.38
335.227	397.38
335.455	391.38
335.684	409.38
335.912	409.38
336.14	418.38
336.369	424.38
336.597	410.38
336.825	379.38
337.053	407.38
337.281	408.38
337.51	385.38
337.738	400.38
337.966	407.38
338.194	402.38
338.422	404.38
338.65	408.38
338.878	399.38
339.106	384.38
339.334	380.38
339.562	391.38
339.79	407.38
340.018	415.38
340.246	406.38
340.474	393.38
340.702	390.38
340.93	391.38
341.158	382.38
341.386	404.38
341.614	394.38
341.842	401.38
342.07	404.38
342.298	397.38
342.526	403.38
342.754	405.38
342.981	404.38
343.209	390.38
343.437	399.38
343.665	392.38
343.893	388.38
344.12	424.38
344.348	418.38
344.576	402.38
344.804	400.38
345.031	403.38
345.259	386.38
345.487	400.38
345.714	394.38
345.942	400.38
346.17	382.38
346.397	382.38
346.625	397.38
346.853	376.38
347.08	403.38
347.308	393.38
347.535	376.38
347.763	403.38
347.99	399.38
348.218	416.38
348.445	400.38
348.673	375.38
348.9	374.38
349.128	371.38
349.355	392.38
349.583	382.38
349.81	387.38
350.037	380.38
350.265	378.38
350.492	388.38
350.72	381.38
350.947	380.38
351.174	394.38
351.402	380.38
351.629	384.38
351.856	393.38
352.083	394.38
352.311	373.38
352.538	380.38
352.765	388.38
352.992	394.38
353.22	386.38
353.447	394.38
353.674	397.38
353.901	397.38
354.128	402.38
354.355	408.38
354.583	399.38
354.81	380.38
355.037	392.38
355.264	385.38
355.491	386.38
355.718	402.38
355.945	404.38
356.172	364.38
356.399	395.38
356.626	393.38
356.853	387.38
357.08	379.38
357.307	401.38
357.534	376.38
357.761	385.38
357.988	400.38
358.215	410.38
358.441	412.38
358.668	394.38
358.895	390.38
359.122	402.38
359.349	388.38
359.576	394.38
359.802	390.38
360.029	387.38
360.256	392.38
360.483	389.38
360.709	409.38
360.936	417.38
361.163	409.38
361.39	406.38
361.616	384.38
361.843	393.38
362.07	414.38
362.296	400.38
362.523	404.38
362.749	409.38
362.976	410.38
363.203	405.38
363.429	408.38
363.656	399.38
363.882	399.38
364.109	390.38
364.335	408.38
364.562	398.38
364.788	400.38
365.015	398.38
365.241	383.38
365.468	399.38
365.694	378.38
365.92	398.38
366.147	405.38
366.373	411.38
366.599	405.38
366.826	421.38
367.052	400.38
367.278	418.38
367.505	384.38
367.731	399.38
367.957	391.38
368.184	422.38
368.41	437.38
368.636	420.38
368.862	424.38
369.089	410.38
369.315	407.38
369.541	420.38
369.767	426.38
369.993	421.38
370.219	414.38
370.445	425.38
370.672	421.38
370.898	419.38
371.124	418.38
371.35	423.38
371.576	413.38
371.802	412.38
372.028	420.38
372.254	452.38
372.48	425.38
372.706	439.38
372.932	433.38
373.158	438.38
373.384	452.38
373.61	446.38
373.835	428.38
374.061	436.38
374.287	432.38
374.513	447.38
374.739	455.38
374.965	459.38
375.191	457.38
375.416	456.38
375.642	424.38
375.868	439.38
376.094	445.38
376.319	440.38
376.545	438.38
376.771	441.38
376.997	421.38
377.222	428.38
377.448	437.38
377.674	444.38
377.899	423.38
378.125	424.38
378.35	437.38
378.576	423.38
378.802	447.38
379.027	395.38
379.253	451.38
379.478	416.38
379.704	423.38
379.929	430.38
380.155	430.38
380.38	427.38
380.606	453.38
380.831	416.38
381.057	452.38
381.282	440.38
381.507	451.38
381.733	453.38
381.958	446.38
382.184	450.38
382.409	462.38
382.634	459.38
382.86	458.38
383.085	457.38
383.31	462.38
383.535	458.38
383.761	441.38
383.986	483.38
384.211	460.38
384.436	468.38
384.662	458.38
384.887	474.38
385.112	462.38
385.337	486.38
385.562	465.38
385.787	459.38
386.013	510.38
386.238	486.38
386.463	479.38
386.688	471.38
386.913	467.38
387.138	470.38
387.363	483.38
387.588	470.38
387.813	459.38
388.038	495.38
388.263	503.38
388.488	509.38
388.713	485.38
388.938	501.38
389.163	489.38
389.387	498.38
389.612	469.38
389.837	499.38
390.062	488.38
390.287	474.38
390.512	483.38
390.736	501.38
390.961	506.38
391.186	490.38
391.411	515.38
391.636	511.38
391.86	521.38
392.085	508.38
392.31	514.38
392.534	528.38
392.759	516.38
392.984	517.38
393.208	533.38
393.433	542.38
393.658	565.38
393.882	544.38
394.107	522.38
394.331	513.38
394.556	487.38
394.78	520.38
395.005	504.38
395.229	504.38
395.454	526.38
395.678	534.38
395.903	525.38
396.127	509.38
396.352	524.38
396.576	517.38
396.801	544.38
397.025	569.38
397.249	561.38
397.474	555.38
397.698	540.38
397.922	565.38
398.147	539.38
398.371	548.38
398.595	550.38
398.82	565.38
399.044	565.38
399.268	582.38
399.492	610.38
399.717	622.38
399.941	613.38
400.165	632.38
400.389	608.38
400.613	592.38
400.837	586.38
401.062	583.38
401.286	583.38
401.51	588.38
401.734	579.38
401.958	573.38
402.182	575.38
402.406	539.38
402.63	541.38
402.854	548.38
403.078	564.38
403.302	590.38
403.526	564.38
403.75	571.38
403.974	589.38
404.198	585.38
404.422	591.38
404.645	590.38
404.869	586.38
405.093	567.38
405.317	552.38
405.541	577.38
405.765	575.38
405.988	579.38
406.212	595.38
406.436	605.38
406.66	626.38
406.883	607.38
407.107	622.38
407.331	648.38
407.555	625.38
407.778	636.38
408.002	626.38
408.226	617.38
408.449	603.38
408.673	620.38
408.896	623.38
409.12	610.38
409.344	605.38
409.567	594.38
409.791	618.38
410.014	604.38
410.238	605.38
410.461	608.38
410.685	585.38
410.908	593.38
411.132	581.38
411.355	586.38
411.578	581.38
411.802	593.38
412.025	567.38
412.249	584.38
412.472	571.38
412.695	584.38
412.919	551.38
413.142	579.38
413.365	579.38
413.589	597.38
413.812	589.38
414.035	576.38
414.258	588.38
414.482	556.38
414.705	583.38
414.928	580.38
415.151	565.38
415.374	561.38
415.597	585.38
415.821	556.38
416.044	565.38
416.267	560.38
416.49	559.38
416.713	553.38
416.936	567.38
417.159	548.38
417.382	555.38
417.605	543.38
417.828	550.38
418.051	566.38
418.274	545.38
418.497	551.38
418.72	562.38
418.943	553.38
419.166	564.38
419.389	588.38
419.611	609.38
419.834	563.38
420.057	515.38
420.28	546.38
420.503	548.38
420.726	562.38
420.948	544.38
421.171	540.38
421.394	532.38
421.617	548.38
421.839	535.38
422.062	568.38
422.285	522.38
422.507	566.38
422.73	543.38
422.953	556.38
423.175	546.38
423.398	560.38
423.621	538.38
423.843	539.38
424.066	530.38
424.288	529.38
424.511	567.38
424.733	576.38
424.956	548.38
425.178	538.38
425.401	551.38
425.623	541.38
425.846	544.38
426.068	529.38
426.291	544.38
426.513	537.38
426.735	531.38
426.958	538.38
427.18	540.38
427.402	537.38
427.625	545.38
427.847	537.38
428.069	534.38
428.292	534.38
428.514	537.38
428.736	553.38
428.958	521.38
429.181	532.38
429.403	523.38
429.625	535.38
429.847	540.38
430.069	548.38
430.292	550.38
430.514	528.38
430.736	528.38
430.958	521.38
431.18	533.38
431.402	550.38
431.624	528.38
431.846	534.38
432.068	534.38
432.29	538.38
432.512	520.38
432.734	542.38
432.956	557.38
433.178	524.38
433.4	546.38
433.622	561.38
433.844	552.38
434.066	543.38
434.287	562.38
434.509	530.38
434.731	551.38
434.953	581.38
435.175	536.38
435.397	573.38
435.618	566.38
435.84	537.38
436.062	523.38
436.284	534.38
436.505	507.38
436.727	536.38
436.949	521.38
437.17	528.38
437.392	532.38
437.614	524.38
437.835	517.38
438.057	536.38
438.278	518.38
438.5	517.38
438.721	530.38
438.943	545.38
439.165	538.38
439.386	538.38
439.608	529.38
439.829	517.38
440.05	517.38
440.272	517.38
440.493	538.38
440.715	541.38
440.936	532.38
441.158	525.38
441.379	531.38
441.6	532.38
441.822	522.38
442.043	552.38
442.264	537.38
442.486	522.38
442.707	541.38
442.928	538.38
443.149	552.38
443.371	537.38
443.592	549.38
443.813	550.38
444.034	541.38
444.255	553.38
444.476	545.38
444.698	556.38
444.919	561.38
445.14	626.38
445.361	594.38
445.582	544.38
445.803	518.38
446.024	552.38
446.245	536.38
446.466	525.38
446.687	524.38
446.908	549.38
447.129	524.38
447.35	528.38
447.571	547.38
447.792	512.38
448.013	526.38
448.234	501.38
448.455	497.38
448.675	516.38
448.896	517.38
449.117	498.38
449.338	488.38
449.559	503.38
449.779	504.38
450	498.38
450.221	513.38
450.442	512.38
450.662	506.38
450.883	481.38
451.104	499.38
451.324	484.38
451.545	487.38
451.766	490.38
451.986	488.38
452.207	512.38
452.428	493.38
452.648	498.38
452.869	495.38
453.089	470.38
453.31	509.38
453.53	508.38
453.751	485.38
453.971	501.38
454.192	507.38
454.412	497.38
454.633	484.38
454.853	487.38
455.073	484.38
455.294	488.38
455.514	484.38
455.734	485.38
455.955	486.38
456.175	493.38
456.395	466.38
456.616	484.38
456.836	492.38
457.056	485.38
457.276	496.38
457.497	504.38
457.717	501.38
457.937	487.38
458.157	524.38
458.377	501.38
458.598	526.38
458.818	540.38
459.038	533.38
459.258	520.38
459.478	527.38
459.698	536.38
459.918	546.38
460.138	544.38
460.358	532.38
460.578	530.38
460.798	564.38
461.018	556.38
461.238	565.38
461.458	569.38
461.678	564.38
461.898	591.38
462.118	574.38
462.338	579.38
462.558	590.38
462.777	592.38
462.997	627.38
463.217	616.38
463.437	622.38
463.657	617.38
463.876	594.38
464.096	610.38
464.316	598.38
464.536	593.38
464.755	606.38
464.975	560.38
465.195	600.38
465.414	591.38
465.634	575.38
465.854	571.38
466.073	571.38
466.293	553.38
466.512	562.38
466.732	540.38
466.951	540.38
467.171	530.38
467.391	537.38
467.61	534.38
467.829	548.38
468.049	537.38
468.268	533.38
468.488	557.38
468.707	534.38
468.927	549.38
469.146	557.38
469.365	549.38
469.585	543.38
469.804	560.38
470.023	522.38
470.243	551.38
470.462	550.38
470.681	514.38
470.901	544.38
471.12	558.38
471.339	549.38
471.558	547.38
471.777	536.38
471.997	535.38
472.216	560.38
472.435	548.38
472.654	563.38
472.873	545.38
473.092	551.38
473.311	567.38
473.53	547.38
473.749	543.38
473.968	564.38
474.187	544.38
474.406	553.38
474.625	552.38
474.844	543.38
475.063	531.38
475.282	533.38
475.501	559.38
475.72	579.38
475.939	547.38
476.158	568.38
476.377	571.38
476.596	586.38
476.814	576.38
477.033	590.38
477.252	576.38
477.471	612.38
477.69	602.38
477.908	608.38
478.127	613.38
478.346	628.38
478.564	609.38
478.783	620.38
479.002	648.38
479.22	627.38
479.439	642.38
479.658	632.38
479.876	645.38
480.095	653.38
480.313	605.38
480.532	626.38
480.751	650.38
480.969	650.38
481.188	649.38
481.406	644.38
481.624	638.38
481.843	627.38
482.061	643.38
482.28	658.38
482.498	655.38
482.717	634.38
482.935	628.38
483.153	650.38
483.372	666.38
483.59	643.38
483.808	617.38
484.027	640.38
484.245	664.38
484.463	656.38
484.681	673.38
484.9	682.38
485.118	656.38
485.336	654.38
485.554	679.38
485.772	651.38
485.99	654.38
486.209	656.38
486.427	672.38
486.645	662.38
486.863	642.38
487.081	665.38
487.299	665.38
487.517	671.38
487.735	660.38
487.953	691.38
488.171	686.38
488.389	687.38
488.607	674.38
488.825	664.38
489.043	673.38
489.261	673.38
489.479	654.38
489.696	676.38
489.914	678.38
490.132	681.38
490.35	671.38
490.568	696.38
490.786	674.38
491.003	654.38
491.221	714.38
491.439	676.38
491.657	688.38
491.874	690.38
492.092	683.38
492.31	692.38
492.527	713.38
492.745	697.38
492.963	687.38
493.18	705.38
493.398	703.38
493.615	710.38
493.833	701.38
494.05	696.38
494.268	728.38
494.485	704.38
494.703	698.38
494.92	725.38
495.138	708.38
495.355	736.38
495.573	713.38
495.79	714.38
496.008	729.38
496.225	729.38
496.442	733.38
496.66	734.38
496.877	766.38
497.094	776.38
497.312	776.38
497.529	775.38
497.746	776.38
497.963	803.38
498.181	804.38
498.398	829.38
498.615	823.38
498.832	838.38
499.049	841.38
499.267	889.38
499.484	912.38
499.701	936.38
499.918	927.38
500.135	980.38
500.352	987.38
500.569	981.38
500.786	983.38
501.003	977.38
501.22	951.38
501.437	908.38
501.654	910.38
501.871	916.38
502.088	888.38
502.305	873.38
502.522	847.38
502.739	818.38
502.956	800.38
503.172	804.38
503.389	787.38
503.606	755.38
503.823	758.38
504.04	757.38
504.256	750.38
504.473	753.38
504.69	736.38
504.907	730.38
505.123	704.38
505.34	713.38
505.557	702.38
505.773	710.38
505.99	687.38
506.207	712.38
506.423	667.38
506.64	667.38
506.856	671.38
507.073	678.38
507.289	640.38
507.506	650.38
507.722	681.38
507.939	634.38
508.155	642.38
508.372	659.38
508.588	632.38
508.805	641.38
509.021	653.38
509.238	636.38
509.454	606.38
509.67	622.38
509.887	624.38
510.103	615.38
510.319	614.38
510.536	607.38
510.752	616.38
510.968	612.38
511.184	605.38
511.401	609.38
511.617	632.38
511.833	600.38
512.049	585.38
512.265	606.38
512.481	616.38
512.698	588.38
512.914	629.38
513.13	609.38
513.346	608.38
513.562	613.38
513.778	609.38
513.994	602.38
514.21	605.38
514.426	615.38
514.642	599.38
514.858	601.38
515.074	611.38
515.29	610.38
515.506	631.38
515.721	632.38
515.937	626.38
516.153	631.38
516.369	616.38
516.585	636.38
516.801	622.38
517.016	664.38
517.232	643.38
517.448	628.38
517.664	625.38
517.879	645.38
518.095	653.38
518.311	626.38
518.527	628.38
518.742	624.38
518.958	628.38
519.173	624.38
519.389	634.38
519.605	612.38
519.82	599.38
520.036	649.38
520.251	609.38
520.467	610.38
520.682	613.38
520.898	586.38
521.113	606.38
521.329	564.38
521.544	597.38
521.76	593.38
521.975	587.38
522.19	593.38
522.406	585.38
522.621	593.38
522.836	574.38
523.052	570.38
523.267	585.38
523.482	579.38
523.698	556.38
523.913	548.38
524.128	556.38
524.343	570.38
524.559	567.38
524.774	570.38
524.989	577.38
525.204	571.38
525.419	565.38
525.634	562.38
525.849	560.38
526.064	564.38
526.28	559.38
526.495	551.38
526.71	553.38
526.925	549.38
527.14	531.38
527.355	572.38
527.57	544.38
527.785	553.38
527.999	550.38
528.214	549.38
528.429	548.38
528.644	545.38
528.859	552.38
529.074	566.38
529.289	566.38
529.503	577.38
529.718	551.38
529.933	578.38
530.148	560.38
530.363	560.38
530.577	548.38
530.792	530.38
531.007	553.38
531.221	557.38
531.436	523.38
531.651	523.38
531.865	533.38
532.08	553.38
532.295	545.38
532.509	545.38
532.724	540.38
532.938	543.38
533.153	542.38
533.367	538.38
533.582	526.38
533.796	536.38
534.011	529.38
534.225	542.38
534.44	523.38
534.654	529.38
534.868	537.38
535.083	504.38
535.297	546.38
535.511	524.38
535.726	517.38
535.94	502.38
536.154	530.38
536.369	543.38
536.583	511.38
536.797	505.38
537.011	521.38
537.225	489.38
537.44	512.38
537.654	522.38
537.868	509.38
538.082	517.38
538.296	512.38
538.51	526.38
538.724	505.38
538.938	487.38
539.153	501.38
539.367	508.38
539.581	513.38
539.795	508.38
540.009	518.38
540.222	505.38
540.436	511.38
540.65	495.38
540.864	522.38
541.078	504.38
541.292	524.38
541.506	532.38
541.72	528.38
541.934	509.38
542.147	532.38
542.361	514.38
542.575	526.38
542.789	513.38
543.002	502.38
543.216	517.38
543.43	517.38
543.644	495.38
543.857	488.38
544.071	512.38
544.285	504.38
544.498	497.38
544.712	514.38
544.925	510.38
545.139	501.38
545.352	508.38
545.566	495.38
545.779	507.38
545.993	525.38
546.206	524.38
546.42	517.38
546.633	501.38
546.847	515.38
547.06	517.38
547.274	513.38
547.487	501.38
547.7	496.38
547.914	503.38
548.127	487.38
548.34	489.38
548.554	521.38
548.767	514.38
548.98	506.38
549.193	506.38
549.407	512.38
549.62	509.38
549.833	510.38
550.046	483.38
550.259	521.38
550.473	490.38
550.686	512.38
550.899	504.38
551.112	502.38
551.325	504.38
551.538	498.38
551.751	479.38
551.964	504.38
552.177	486.38
552.39	483.38
552.603	519.38
552.816	493.38
553.029	496.38
553.242	502.38
553.455	514.38
553.667	528.38
553.88	501.38
554.093	487.38
554.306	500.38
554.519	493.38
554.732	489.38
554.944	488.38
555.157	481.38
555.37	478.38
555.583	450.38
555.795	472.38
556.008	446.38
556.221	446.38
556.433	441.38
556.646	478.38
556.859	447.38
557.071	441.38
557.284	471.38
557.496	462.38
557.709	453.38
557.921	441.38
558.134	449.38
558.346	436.38
558.559	437.38
558.771	470.38
558.984	457.38
559.196	428.38
559.409	449.38
559.621	461.38
559.833	437.38
560.046	446.38
560.258	446.38
560.47	445.38
560.683	453.38
560.895	436.38
561.107	449.38
561.32	432.38
561.532	442.38
561.744	437.38
561.956	426.38
562.168	436.38
562.381	431.38
562.593	444.38
562.805	450.38
563.017	442.38
563.229	434.38
563.441	442.38
563.653	456.38
563.865	437.38
564.077	446.38
564.289	444.38
564.501	442.38
564.713	466.38
564.925	468.38
565.137	468.38
565.349	468.38
565.561	460.38
565.773	493.38
565.985	493.38
566.197	482.38
566.408	477.38
566.62	494.38
566.832	508.38
567.044	490.38
567.255	476.38
567.467	468.38
567.679	488.38
567.891	496.38
568.102	485.38
568.314	489.38
568.526	476.38
568.737	461.38
568.949	463.38
569.161	453.38
569.372	432.38
569.584	438.38
569.795	439.38
570.007	417.38
570.218	424.38
570.43	420.38
570.641	417.38
570.853	389.38
571.064	402.38
571.276	405.38
571.487	397.38
571.698	406.38
571.91	408.38
572.121	394.38
572.333	386.38
572.544	377.38
572.755	397.38
572.966	387.38
573.178	386.38
573.389	376.38
573.6	366.38
573.811	364.38
574.023	381.38
574.234	378.38
574.445	350.38
574.656	364.38
574.867	360.38
575.078	347.38
575.289	374.38
575.501	348.38
575.712	368.38
575.923	366.38
576.134	357.38
576.345	357.38
576.556	359.38
576.767	350.38
576.978	356.38
577.188	329.38
577.399	357.38
577.61	343.38
577.821	350.38
578.032	340.38
578.243	321.38
578.454	317.38
578.665	349.38
578.875	339.38
579.086	332.38
579.297	341.38
579.508	339.38
579.718	348.38
579.929	339.38
580.14	337.38
580.35	345.38
580.561	339.38
580.772	324.38
580.982	326.38
581.193	313.38
581.403	330.38
581.614	304.38
581.825	324.38
582.035	314.38
582.246	323.38
582.456	329.38
582.667	323.38
582.877	309.38
583.087	313.38
583.298	313.38
583.508	305.38
583.719	323.38
583.929	316.38
584.139	309.38
584.35	296.38
584.56	302.38
584.77	314.38
584.981	308.38
585.191	313.38
585.401	310.38
585.611	326.38
585.821	323.38
586.032	310.38
586.242	292.38
586.452	312.38
586.662	287.38
586.872	317.38
587.082	322.38
587.292	310.38
587.502	304.38
587.713	288.38
587.923	314.38
588.133	297.38
588.343	297.38
588.553	307.38
588.762	307.38
588.972	310.38
589.182	383.38
589.392	374.38
589.602	324.38
589.812	360.38
590.022	318.38
590.232	316.38
590.441	290.38
590.651	302.38
590.861	286.38
591.071	305.38
591.281	297.38
591.49	297.38
591.7	300.38
591.91	292.38
592.119	296.38
592.329	284.38
592.539	306.38
592.748	317.38
592.958	307.38
593.167	309.38
593.377	295.38
593.587	311.38
593.796	300.38
594.006	304.38
594.215	303.38
594.424	295.38
594.634	305.38
594.843	289.38
595.053	320.38
595.262	300.38
595.472	291.38
595.681	301.38
595.89	298.38
596.1	288.38
596.309	270.38
596.518	292.38
596.727	284.38
596.937	273.38
597.146	293.38
597.355	286.38
597.564	263.38
597.774	274.38
597.983	269.38
598.192	266.38
598.401	250.38
598.61	262.38
598.819	260.38
599.028	273.38
599.237	256.38
599.446	269.38
599.655	252.38
599.864	261.38
600.073	262.38
600.282	279.38
600.491	258.38
600.7	255.38
600.909	253.38
601.118	276.38
601.327	258.38
601.536	256.38
601.745	255.38
601.953	264.38
602.162	270.38
602.371	250.38
602.58	237.38
602.789	262.38
602.997	256.38
603.206	239.38
603.415	258.38
603.623	254.38
603.832	261.38
604.041	249.38
604.249	273.38
604.458	240.38
604.666	254.38
604.875	249.38
605.084	233.38
605.292	262.38
605.501	257.38
605.709	243.38
605.918	241.38
606.126	267.38
606.334	245.38
606.543	259.38
606.751	262.38
606.96	243.38
607.168	238.38
607.376	248.38
607.585	250.38
607.793	253.38
608.001	237.38
608.21	267.38
608.418	220.38
608.626	230.38
608.834	252.38
609.043	261.38
609.251	247.38
609.459	243.38
609.667	250.38
609.875	242.38
610.083	238.38
610.291	236.38
610.499	257.38
610.707	215.38
610.916	236.38
611.124	256.38
611.332	262.38
611.54	252.38
611.748	226.38
611.955	225.38
612.163	218.38
612.371	249.38
612.579	246.38
612.787	238.38
612.995	232.38
613.203	250.38
613.411	228.38
613.618	234.38
613.826	230.38
614.034	241.38
614.242	238.38
614.449	218.38
614.657	231.38
614.865	232.38
615.072	238.38
615.28	235.38
615.488	226.38
615.695	228.38
615.903	219.38
616.111	225.38
616.318	247.38
616.526	249.38
616.733	238.38
616.941	226.38
617.148	231.38
617.356	244.38
617.563	219.38
617.771	238.38
617.978	229.38
618.185	220.38
618.393	223.38
618.6	231.38
618.807	223.38
619.015	204.38
619.222	213.38
619.429	203.38
619.637	215.38
619.844	217.38
620.051	236.38
620.258	236.38
620.466	221.38
620.673	215.38
620.88	225.38
621.087	209.38
621.294	211.38
621.501	207.38
621.708	231.38
621.915	217.38
622.122	207.38
622.329	213.38
622.536	216.38
622.743	205.38
622.95	225.38
623.157	224.38
623.364	223.38
623.571	228.38
623.778	214.38
623.985	226.38
624.192	205.38
624.399	210.38
624.606	209.38
624.812	217.38
625.019	222.38
625.226	216.38
625.433	211.38
625.639	208.38
625.846	214.38
626.053	206.38
626.259	229.38
626.466	216.38
626.673	208.38
626.879	206.38
627.086	220.38
627.293	202.38
627.499	192.38
627.706	203.38
627.912	215.38
628.119	201.38
628.325	198.38
628.532	202.38
628.738	208.38
628.945	188.38
629.151	207.38
629.357	203.38
629.564	180.38
629.77	183.38
629.976	197.38
630.183	182.38
630.389	190.38
630.595	196.38
630.802	205.38
631.008	201.38
631.214	206.38
631.42	199.38
631.627	211.38
631.833	179.38
632.039	190.38
632.245	200.38
632.451	192.38
632.657	180.38
632.863	198.38
633.069	188.38
633.275	186.38
633.481	186.38
633.688	188.38
633.893	186.38
634.099	200.38
634.305	176.38
634.511	187.38
634.717	190.38
634.923	199.38
635.129	202.38
635.335	176.38
635.541	188.38
635.747	196.38
635.952	190.38
636.158	180.38
636.364	192.38
636.57	208.38
636.775	179.38
636.981	165.38
637.187	185.38
637.392	201.38
637.598	184.38
637.804	180.38
638.009	191.38
638.215	183.38
638.421	169.38
638.626	184.38
638.832	168.38
639.037	177.38
639.243	172.38
639.448	171.38
639.654	179.38
639.859	180.38
640.065	166.38
640.27	187.38
640.475	172.38
640.681	181.38
640.886	187.38
641.091	166.38
641.297	182.38
641.502	179.38
641.707	186.38
641.913	177.38
642.118	176.38
642.323	168.38
642.528	184.38
642.733	191.38
642.939	182.38
643.144	176.38
643.349	190.38
643.554	183.38
643.759	180.38
643.964	180.38
644.169	176.38
644.374	166.38
644.579	172.38
644.784	188.38
644.989	167.38
645.194	192.38
645.399	182.38
645.604	180.38
645.809	178.38
646.014	179.38
646.219	185.38
646.423	156.38
646.628	165.38
646.833	181.38
647.038	188.38
647.243	186.38
647.447	166.38
647.652	168.38
647.857	175.38
648.062	188.38
648.266	175.38
648.471	172.38
648.676	174.38
648.88	171.38
649.085	177.38
649.289	186.38
649.494	166.38
649.698	193.38
649.903	185.38
650.107	168.38
650.312	185.38
650.516	173.38
650.721	171.38
650.925	176.38
651.13	165.38
651.334	183.38
651.539	162.38
651.743	170.38
651.947	184.38
652.152	167.38
652.356	172.38
652.56	166.38
652.764	166.38
652.969	152.38
653.173	157.38
653.377	157.38
653.581	166.38
653.785	173.38
653.99	172.38
654.194	169.38
654.398	150.38
654.602	160.38
654.806	164.38
655.01	153.38
655.214	167.38
655.418	150.38
655.622	159.38
655.826	172.38
656.03	156.38
656.234	172.38
656.438	159.38
656.642	174.38
656.846	145.38
657.049	157.38
657.253	159.38
657.457	148.38
657.661	138.38
657.865	126.38
658.068	111.38
658.272	132.38
658.476	128.38
658.68	127.38
658.883	104.38
659.087	112.38
659.291	116.38
659.494	128.38
659.698	108.38
659.901	108.38
660.105	109.38
660.309	107.38
660.512	89.38
660.716	102.38
660.919	106.38
661.123	78.38
661.326	102.38
661.53	96.38
661.733	97.38
661.936	93.38
662.14	88.38
662.343	86.38
662.546	79.38
662.75	78.38
662.953	97.38
663.156	88.38
663.36	93.38
663.563	90.38
663.766	80.38
663.969	90.38
664.173	86.38
664.376	76.38
664.579	80.38
664.782	77.38
664.985	79.38
665.188	78.38
665.391	99.38
665.594	99.38
665.797	80.38
666	79.38
666.203	83.38
666.406	84.38
666.609	80.38
666.812	90.38
667.015	83.38
667.218	100.38
667.421	82.38
667.624	89.38
667.827	82.38
668.03	75.38
668.232	73.38
668.435	69.38
668.638	84.38
668.841	91.38
669.043	74.38
669.246	85.38
669.449	80.38
669.651	86.38
669.854	86.38
670.057	75.38
670.259	80.38
670.462	86.38
670.665	91.38
670.867	98.38
671.07	84.38
671.272	79.38
671.475	85.38
671.677	77.38
671.88	83.38
672.082	65.38
672.284	80.38
672.487	85.38
672.689	73.38
672.892	72.38
