Data from Fe(NO3)3@0.05M.TitratingCurve.Agarose3%dH2O.NegLispCup.LampEnergy10.LIBS07252019_HRD10591_16-46-28-334.txt Node
Date: Thu Jul 25 16:46:28 EDT 2019
User: cochatt
Spectrometer: HR+D1059
Trigger mode: 1
Integration Time (sec): 1.000000E-1
Scans to average: 1
Electric dark correction enabled: true
Nonlinearity correction enabled: false
Boxcar width: 0
XAxis mode: Wavelengths
Number of Pixels in Spectrum: 2048
>>>>>Begin Spectral Data<<<<<
223.165	-16.06
223.4	-16.06
223.635	-16.06
223.869	-21.06
224.104	-11.06
224.338	-16.06
224.573	-14.06
224.808	2.94
225.042	-16.06
225.277	-18.06
225.511	3.94
225.746	-2.06
225.98	0.94
226.215	17.94
226.449	20.94
226.683	19.94
226.918	19.94
227.152	27.94
227.387	34.94
227.621	33.94
227.856	49.94
228.09	55.94
228.324	54.94
228.559	68.94
228.793	88.94
229.027	133.94
229.262	147.94
229.496	137.94
229.73	141.94
229.964	148.94
230.199	156.94
230.433	157.94
230.667	158.94
230.901	177.94
231.136	172.94
231.37	167.94
231.604	167.94
231.838	169.94
232.072	164.94
232.306	183.94
232.541	181.94
232.775	199.94
233.009	177.94
233.243	176.94
233.477	197.94
233.711	188.94
233.945	205.94
234.179	211.94
234.413	196.94
234.647	210.94
234.881	228.94
235.115	213.94
235.349	213.94
235.583	206.94
235.817	203.94
236.051	207.94
236.285	207.94
236.519	212.94
236.753	204.94
236.987	208.94
237.221	218.94
237.455	229.94
237.689	222.94
237.922	251.94
238.156	247.94
238.39	260.94
238.624	265.94
238.858	258.94
239.091	255.94
239.325	254.94
239.559	261.94
239.793	247.94
240.027	279.94
240.26	257.94
240.494	272.94
240.728	265.94
240.961	290.94
241.195	283.94
241.429	294.94
241.662	280.94
241.896	286.94
242.13	267.94
242.363	252.94
242.597	249.94
242.83	280.94
243.064	272.94
243.298	293.94
243.531	291.94
243.765	293.94
243.998	313.94
244.232	303.94
244.465	287.94
244.699	299.94
244.932	319.94
245.166	313.94
245.399	323.94
245.633	312.94
245.866	309.94
246.099	295.94
246.333	305.94
246.566	317.94
246.8	313.94
247.033	315.94
247.266	303.94
247.5	333.94
247.733	345.94
247.966	326.94
248.2	334.94
248.433	346.94
248.666	339.94
248.899	344.94
249.133	364.94
249.366	375.94
249.599	370.94
249.832	387.94
250.066	365.94
250.299	374.94
250.532	345.94
250.765	351.94
250.998	368.94
251.231	371.94
251.465	372.94
251.698	371.94
251.931	373.94
252.164	367.94
252.397	389.94
252.63	408.94
252.863	415.94
253.096	401.94
253.329	415.94
253.562	421.94
253.795	437.94
254.028	433.94
254.261	439.94
254.494	422.94
254.727	424.94
254.96	434.94
255.193	428.94
255.426	416.94
255.659	413.94
255.892	418.94
256.124	417.94
256.357	425.94
256.59	449.94
256.823	453.94
257.056	443.94
257.289	429.94
257.521	411.94
257.754	440.94
257.987	448.94
258.22	429.94
258.452	420.94
258.685	448.94
258.918	472.94
259.151	468.94
259.383	456.94
259.616	472.94
259.849	492.94
260.081	542.94
260.314	577.94
260.547	511.94
260.779	488.94
261.012	502.94
261.244	508.94
261.477	519.94
261.71	518.94
261.942	485.94
262.175	492.94
262.407	503.94
262.64	499.94
262.872	546.94
263.105	535.94
263.337	529.94
263.57	536.94
263.802	516.94
264.035	471.94
264.267	475.94
264.499	486.94
264.732	512.94
264.964	491.94
265.197	498.94
265.429	512.94
265.661	507.94
265.894	490.94
266.126	530.94
266.358	533.94
266.591	520.94
266.823	533.94
267.055	530.94
267.287	519.94
267.52	520.94
267.752	509.94
267.984	533.94
268.216	547.94
268.448	530.94
268.681	536.94
268.913	560.94
269.145	555.94
269.377	554.94
269.609	549.94
269.841	523.94
270.073	541.94
270.306	560.94
270.538	549.94
270.77	545.94
271.002	551.94
271.234	575.94
271.466	571.94
271.698	572.94
271.93	572.94
272.162	579.94
272.394	596.94
272.626	609.94
272.858	581.94
273.09	594.94
273.322	610.94
273.553	609.94
273.785	633.94
274.017	669.94
274.249	687.94
274.481	687.94
274.713	724.94
274.945	787.94
275.176	789.94
275.408	737.94
275.64	721.94
275.872	718.94
276.104	667.94
276.335	640.94
276.567	621.94
276.799	635.94
277.031	658.94
277.262	654.94
277.494	657.94
277.726	632.94
277.957	645.94
278.189	628.94
278.421	642.94
278.652	652.94
278.884	639.94
279.115	651.94
279.347	650.94
279.579	664.94
279.81	655.94
280.042	653.94
280.273	655.94
280.505	669.94
280.736	650.94
280.968	661.94
281.199	674.94
281.431	675.94
281.662	693.94
281.894	661.94
282.125	669.94
282.356	702.94
282.588	687.94
282.819	694.94
283.051	676.94
283.282	689.94
283.513	715.94
283.745	713.94
283.976	703.94
284.207	697.94
284.439	726.94
284.67	714.94
284.901	716.94
285.132	721.94
285.364	705.94
285.595	716.94
285.826	708.94
286.057	704.94
286.288	730.94
286.52	690.94
286.751	722.94
286.982	738.94
287.213	713.94
287.444	743.94
287.675	723.94
287.906	728.94
288.138	754.94
288.369	710.94
288.6	749.94
288.831	756.94
289.062	714.94
289.293	744.94
289.524	756.94
289.755	727.94
289.986	747.94
290.217	760.94
290.448	729.94
290.679	771.94
290.91	738.94
291.141	754.94
291.371	741.94
291.602	775.94
291.833	764.94
292.064	751.94
292.295	784.94
292.526	759.94
292.757	747.94
292.987	740.94
293.218	759.94
293.449	745.94
293.68	789.94
293.91	786.94
294.141	756.94
294.372	783.94
294.603	793.94
294.833	760.94
295.064	800.94
295.295	763.94
295.525	771.94
295.756	775.94
295.987	760.94
296.217	783.94
296.448	795.94
296.679	797.94
296.909	797.94
297.14	805.94
297.37	810.94
297.601	823.94
297.831	782.94
298.062	800.94
298.292	806.94
298.523	824.94
298.753	819.94
298.984	789.94
299.214	809.94
299.445	801.94
299.675	830.94
299.905	805.94
300.136	832.94
300.366	824.94
300.597	842.94
300.827	818.94
301.057	821.94
301.288	844.94
301.518	825.94
301.748	850.94
301.979	850.94
302.209	869.94
302.439	914.94
302.669	865.94
302.9	859.94
303.13	862.94
303.36	867.94
303.59	875.94
303.82	862.94
304.051	883.94
304.281	876.94
304.511	852.94
304.741	868.94
304.971	853.94
305.201	859.94
305.431	858.94
305.661	881.94
305.891	865.94
306.121	887.94
306.352	845.94
306.582	851.94
306.812	864.94
307.042	887.94
307.272	861.94
307.502	874.94
307.731	833.94
307.961	854.94
308.191	845.94
308.421	867.94
308.651	870.94
308.881	866.94
309.111	880.94
309.341	861.94
309.571	891.94
309.8	919.94
310.03	879.94
310.26	904.94
310.49	883.94
310.72	889.94
310.949	884.94
311.179	923.94
311.409	897.94
311.639	913.94
311.868	895.94
312.098	890.94
312.328	916.94
312.557	943.94
312.787	906.94
313.017	927.94
313.246	924.94
313.476	930.94
313.706	943.94
313.935	911.94
314.165	935.94
314.394	916.94
314.624	949.94
314.853	921.94
315.083	964.94
315.312	973.94
315.542	952.94
315.771	943.94
316.001	949.94
316.23	964.94
316.46	944.94
316.689	932.94
316.919	957.94
317.148	973.94
317.377	973.94
317.607	953.94
317.836	963.94
318.065	975.94
318.295	948.94
318.524	1009.94
318.753	978.94
318.983	957.94
319.212	990.94
319.441	979.94
319.67	973.94
319.9	964.94
320.129	975.94
320.358	967.94
320.587	966.94
320.816	976.94
321.046	988.94
321.275	1015.94
321.504	983.94
321.733	971.94
321.962	1011.94
322.191	964.94
322.42	992.94
322.649	978.94
322.878	995.94
323.108	987.94
323.337	989.94
323.566	985.94
323.795	1025.94
324.024	996.94
324.253	1004.94
324.482	1008.94
324.71	999.94
324.939	1021.94
325.168	1018.94
325.397	1007.94
325.626	1005.94
325.855	1008.94
326.084	1043.94
326.313	1057.94
326.542	1051.94
326.77	1041.94
326.999	1063.94
327.228	1032.94
327.457	1060.94
327.686	1062.94
327.914	1007.94
328.143	1055.94
328.372	1066.94
328.6	1044.94
328.829	1068.94
329.058	1056.94
329.287	1048.94
329.515	1048.94
329.744	1076.94
329.972	1095.94
330.201	1075.94
330.43	1079.94
330.658	1076.94
330.887	1104.94
331.115	1103.94
331.344	1095.94
331.572	1058.94
331.801	1099.94
332.03	1129.94
332.258	1137.94
332.486	1121.94
332.715	1128.94
332.943	1156.94
333.172	1128.94
333.4	1169.94
333.629	1167.94
333.857	1213.94
334.085	1205.94
334.314	1212.94
334.542	1180.94
334.771	1228.94
334.999	1204.94
335.227	1224.94
335.455	1218.94
335.684	1227.94
335.912	1224.94
336.14	1209.94
336.369	1183.94
336.597	1189.94
336.825	1192.94
337.053	1177.94
337.281	1178.94
337.51	1214.94
337.738	1180.94
337.966	1180.94
338.194	1178.94
338.422	1162.94
338.65	1113.94
338.878	1157.94
339.106	1139.94
339.334	1159.94
339.562	1145.94
339.79	1131.94
340.018	1149.94
340.246	1133.94
340.474	1135.94
340.702	1129.94
340.93	1144.94
341.158	1148.94
341.386	1143.94
341.614	1169.94
341.842	1131.94
342.07	1099.94
342.298	1138.94
342.526	1137.94
342.754	1122.94
342.981	1122.94
343.209	1108.94
343.437	1146.94
343.665	1187.94
343.893	1183.94
344.12	1230.94
344.348	1212.94
344.576	1211.94
344.804	1189.94
345.031	1175.94
345.259	1156.94
345.487	1149.94
345.714	1150.94
345.942	1151.94
346.17	1115.94
346.397	1101.94
346.625	1100.94
346.853	1096.94
347.08	1094.94
347.308	1049.94
347.535	1120.94
347.763	1098.94
347.99	1066.94
348.218	1065.94
348.445	1079.94
348.673	1080.94
348.9	1095.94
349.128	1090.94
349.355	1060.94
349.583	1053.94
349.81	1089.94
350.037	1079.94
350.265	1076.94
350.492	1050.94
350.72	1074.94
350.947	1059.94
351.174	1073.94
351.402	1071.94
351.629	1076.94
351.856	1060.94
352.083	1067.94
352.311	1033.94
352.538	1081.94
352.765	1096.94
352.992	1047.94
353.22	1043.94
353.447	1026.94
353.674	1061.94
353.901	1045.94
354.128	1077.94
354.355	1058.94
354.583	1077.94
354.81	1050.94
355.037	1087.94
355.264	1068.94
355.491	1075.94
355.718	1063.94
355.945	1066.94
356.172	1047.94
356.399	1075.94
356.626	1097.94
356.853	1108.94
357.08	1113.94
357.307	1117.94
357.534	1069.94
357.761	1071.94
357.988	1093.94
358.215	1104.94
358.441	1093.94
358.668	1077.94
358.895	1090.94
359.122	1051.94
359.349	1067.94
359.576	1061.94
359.802	1079.94
360.029	1063.94
360.256	1089.94
360.483	1080.94
360.709	1100.94
360.936	1101.94
361.163	1081.94
361.39	1102.94
361.616	1077.94
361.843	1089.94
362.07	1093.94
362.296	1110.94
362.523	1073.94
362.749	1070.94
362.976	1091.94
363.203	1106.94
363.429	1077.94
363.656	1096.94
363.882	1062.94
364.109	1053.94
364.335	1089.94
364.562	1099.94
364.788	1087.94
365.015	1101.94
365.241	1099.94
365.468	1087.94
365.694	1119.94
365.92	1100.94
366.147	1072.94
366.373	1110.94
366.599	1063.94
366.826	1120.94
367.052	1086.94
367.278	1119.94
367.505	1128.94
367.731	1145.94
367.957	1149.94
368.184	1116.94
368.41	1126.94
368.636	1146.94
368.862	1151.94
369.089	1128.94
369.315	1125.94
369.541	1135.94
369.767	1119.94
369.993	1135.94
370.219	1145.94
370.445	1179.94
370.672	1170.94
370.898	1149.94
371.124	1148.94
371.35	1177.94
371.576	1176.94
371.802	1190.94
372.028	1197.94
372.254	1219.94
372.48	1205.94
372.706	1205.94
372.932	1181.94
373.158	1215.94
373.384	1192.94
373.61	1243.94
373.835	1229.94
374.061	1197.94
374.287	1209.94
374.513	1213.94
374.739	1240.94
374.965	1262.94
375.191	1260.94
375.416	1269.94
375.642	1217.94
375.868	1231.94
376.094	1249.94
376.319	1192.94
376.545	1201.94
376.771	1185.94
376.997	1194.94
377.222	1165.94
377.448	1192.94
377.674	1209.94
377.899	1157.94
378.125	1173.94
378.35	1176.94
378.576	1210.94
378.802	1189.94
379.027	1187.94
379.253	1191.94
379.478	1195.94
379.704	1223.94
379.929	1194.94
380.155	1199.94
380.38	1215.94
380.606	1185.94
380.831	1179.94
381.057	1190.94
381.282	1219.94
381.507	1194.94
381.733	1236.94
381.958	1229.94
382.184	1304.94
382.409	1282.94
382.634	1254.94
382.86	1295.94
383.085	1278.94
383.31	1268.94
383.535	1295.94
383.761	1293.94
383.986	1299.94
384.211	1321.94
384.436	1304.94
384.662	1298.94
384.887	1317.94
385.112	1331.94
385.337	1344.94
385.562	1346.94
385.787	1355.94
386.013	1377.94
386.238	1379.94
386.463	1386.94
386.688	1359.94
386.913	1341.94
387.138	1362.94
387.363	1394.94
387.588	1384.94
387.813	1429.94
388.038	1373.94
388.263	1399.94
388.488	1399.94
388.713	1405.94
388.938	1429.94
389.163	1393.94
389.387	1396.94
389.612	1392.94
389.837	1415.94
390.062	1443.94
390.287	1413.94
390.512	1415.94
390.736	1433.94
390.961	1444.94
391.186	1440.94
391.411	1419.94
391.636	1479.94
391.86	1500.94
392.085	1503.94
392.31	1479.94
392.534	1481.94
392.759	1495.94
392.984	1457.94
393.208	1448.94
393.433	1460.94
393.658	1447.94
393.882	1479.94
394.107	1484.94
394.331	1464.94
394.556	1447.94
394.78	1495.94
395.005	1480.94
395.229	1512.94
395.454	1494.94
395.678	1533.94
395.903	1559.94
396.127	1512.94
396.352	1508.94
396.576	1515.94
396.801	1502.94
397.025	1504.94
397.249	1532.94
397.474	1564.94
397.698	1541.94
397.922	1573.94
398.147	1606.94
398.371	1607.94
398.595	1640.94
398.82	1692.94
399.044	1743.94
399.268	1742.94
399.492	1833.94
399.717	1914.94
399.941	1967.94
400.165	1914.94
400.389	1881.94
400.613	1820.94
400.837	1753.94
401.062	1696.94
401.286	1697.94
401.51	1703.94
401.734	1702.94
401.958	1721.94
402.182	1674.94
402.406	1672.94
402.63	1665.94
402.854	1673.94
403.078	1656.94
403.302	1667.94
403.526	1720.94
403.75	1694.94
403.974	1717.94
404.198	1691.94
404.422	1727.94
404.645	1732.94
404.869	1721.94
405.093	1747.94
405.317	1725.94
405.541	1789.94
405.765	1737.94
405.988	1755.94
406.212	1795.94
406.436	1759.94
406.66	1832.94
406.883	1779.94
407.107	1832.94
407.331	1861.94
407.555	1942.94
407.778	1915.94
408.002	1912.94
408.226	1887.94
408.449	1895.94
408.673	1861.94
408.896	1835.94
409.12	1826.94
409.344	1812.94
409.567	1795.94
409.791	1797.94
410.014	1819.94
410.238	1750.94
410.461	1748.94
410.685	1712.94
410.908	1745.94
411.132	1771.94
411.355	1703.94
411.578	1734.94
411.802	1703.94
412.025	1719.94
412.249	1719.94
412.472	1691.94
412.695	1670.94
412.919	1698.94
413.142	1674.94
413.365	1695.94
413.589	1682.94
413.812	1708.94
414.035	1697.94
414.258	1692.94
414.482	1683.94
414.705	1724.94
414.928	1679.94
415.151	1704.94
415.374	1667.94
415.597	1668.94
415.821	1618.94
416.044	1628.94
416.267	1616.94
416.49	1661.94
416.713	1644.94
416.936	1647.94
417.159	1616.94
417.382	1605.94
417.605	1575.94
417.828	1608.94
418.051	1634.94
418.274	1622.94
418.497	1632.94
418.72	1624.94
418.943	1586.94
419.166	1693.94
419.389	1817.94
419.611	1782.94
419.834	1660.94
420.057	1663.94
420.28	1594.94
420.503	1556.94
420.726	1591.94
420.948	1563.94
421.171	1568.94
421.394	1573.94
421.617	1585.94
421.839	1592.94
422.062	1606.94
422.285	1560.94
422.507	1584.94
422.73	1576.94
422.953	1568.94
423.175	1571.94
423.398	1623.94
423.621	1623.94
423.843	1581.94
424.066	1609.94
424.288	1601.94
424.511	1622.94
424.733	1609.94
424.956	1571.94
425.178	1568.94
425.401	1606.94
425.623	1594.94
425.846	1575.94
426.068	1595.94
426.291	1568.94
426.513	1571.94
426.735	1555.94
426.958	1585.94
427.18	1544.94
427.402	1563.94
427.625	1570.94
427.847	1536.94
428.069	1536.94
428.292	1542.94
428.514	1509.94
428.736	1547.94
428.958	1545.94
429.181	1521.94
429.403	1511.94
429.625	1536.94
429.847	1501.94
430.069	1531.94
430.292	1526.94
430.514	1495.94
430.736	1497.94
430.958	1530.94
431.18	1500.94
431.402	1521.94
431.624	1506.94
431.846	1527.94
432.068	1526.94
432.29	1521.94
432.512	1498.94
432.734	1565.94
432.956	1537.94
433.178	1543.94
433.4	1547.94
433.622	1557.94
433.844	1574.94
434.066	1551.94
434.287	1587.94
434.509	1567.94
434.731	1576.94
434.953	1608.94
435.175	1570.94
435.397	1629.94
435.618	1540.94
435.84	1607.94
436.062	1535.94
436.284	1520.94
436.505	1517.94
436.727	1533.94
436.949	1521.94
437.17	1519.94
437.392	1479.94
437.614	1503.94
437.835	1469.94
438.057	1488.94
438.278	1469.94
438.5	1472.94
438.721	1496.94
438.943	1515.94
439.165	1503.94
439.386	1476.94
439.608	1509.94
439.829	1500.94
440.05	1476.94
440.272	1479.94
440.493	1523.94
440.715	1539.94
440.936	1550.94
441.158	1525.94
441.379	1533.94
441.6	1573.94
441.822	1584.94
442.043	1575.94
442.264	1577.94
442.486	1540.94
442.707	1551.94
442.928	1548.94
443.149	1560.94
443.371	1559.94
443.592	1580.94
443.813	1605.94
444.034	1571.94
444.255	1564.94
444.476	1615.94
444.698	1600.94
444.919	1648.94
445.14	1764.94
445.361	1664.94
445.582	1596.94
445.803	1526.94
446.024	1547.94
446.245	1514.94
446.466	1508.94
446.687	1468.94
446.908	1525.94
447.129	1480.94
447.35	1430.94
447.571	1456.94
447.792	1399.94
448.013	1424.94
448.234	1401.94
448.455	1411.94
448.675	1403.94
448.896	1393.94
449.117	1371.94
449.338	1398.94
449.559	1365.94
449.779	1403.94
450	1368.94
450.221	1355.94
450.442	1401.94
450.662	1388.94
450.883	1349.94
451.104	1394.94
451.324	1367.94
451.545	1390.94
451.766	1389.94
451.986	1356.94
452.207	1356.94
452.428	1361.94
452.648	1339.94
452.869	1329.94
453.089	1293.94
453.31	1377.94
453.53	1303.94
453.751	1308.94
453.971	1330.94
454.192	1319.94
454.412	1296.94
454.633	1319.94
454.853	1329.94
455.073	1311.94
455.294	1327.94
455.514	1340.94
455.734	1325.94
455.955	1286.94
456.175	1320.94
456.395	1320.94
456.616	1339.94
456.836	1331.94
457.056	1321.94
457.276	1327.94
457.497	1351.94
457.717	1346.94
457.937	1364.94
458.157	1373.94
458.377	1379.94
458.598	1377.94
458.818	1429.94
459.038	1409.94
459.258	1452.94
459.478	1492.94
459.698	1500.94
459.918	1511.94
460.138	1552.94
460.358	1562.94
460.578	1568.94
460.798	1618.94
461.018	1623.94
461.238	1605.94
461.458	1597.94
461.678	1641.94
461.898	1675.94
462.118	1676.94
462.338	1698.94
462.558	1692.94
462.777	1709.94
462.997	1799.94
463.217	1797.94
463.437	1867.94
463.657	1777.94
463.876	1780.94
464.096	1813.94
464.316	1759.94
464.536	1740.94
464.755	1778.94
464.975	1685.94
465.195	1661.94
465.414	1618.94
465.634	1593.94
465.854	1544.94
466.073	1568.94
466.293	1513.94
466.512	1521.94
466.732	1501.94
466.951	1499.94
467.171	1513.94
467.391	1469.94
467.61	1469.94
467.829	1469.94
468.049	1430.94
468.268	1457.94
468.488	1451.94
468.707	1423.94
468.927	1474.94
469.146	1484.94
469.365	1475.94
469.585	1450.94
469.804	1466.94
470.023	1478.94
470.243	1485.94
470.462	1461.94
470.681	1445.94
470.901	1500.94
471.12	1495.94
471.339	1468.94
471.558	1442.94
471.777	1472.94
471.997	1452.94
472.216	1445.94
472.435	1502.94
472.654	1473.94
472.873	1464.94
473.092	1457.94
473.311	1472.94
473.53	1453.94
473.749	1455.94
473.968	1471.94
474.187	1471.94
474.406	1435.94
474.625	1500.94
474.844	1473.94
475.063	1511.94
475.282	1502.94
475.501	1495.94
475.72	1512.94
475.939	1543.94
476.158	1544.94
476.377	1555.94
476.596	1609.94
476.814	1629.94
477.033	1576.94
477.252	1592.94
477.471	1579.94
477.69	1629.94
477.908	1630.94
478.127	1689.94
478.346	1669.94
478.564	1716.94
478.783	1683.94
479.002	1735.94
479.22	1779.94
479.439	1801.94
479.658	1773.94
479.876	1758.94
480.095	1804.94
480.313	1828.94
480.532	1807.94
480.751	1788.94
480.969	1831.94
481.188	1811.94
481.406	1824.94
481.624	1784.94
481.843	1788.94
482.061	1763.94
482.28	1784.94
482.498	1850.94
482.717	1749.94
482.935	1784.94
483.153	1810.94
483.372	1756.94
483.59	1804.94
483.808	1771.94
484.027	1763.94
484.245	1749.94
484.463	1820.94
484.681	1801.94
484.9	1825.94
485.118	1862.94
485.336	1805.94
485.554	1801.94
485.772	1824.94
485.99	1779.94
486.209	1830.94
486.427	1815.94
486.645	1811.94
486.863	1836.94
487.081	1843.94
487.299	1861.94
487.517	1856.94
487.735	1875.94
487.953	1859.94
488.171	1865.94
488.389	1826.94
488.607	1800.94
488.825	1860.94
489.043	1789.94
489.261	1799.94
489.479	1834.94
489.696	1810.94
489.914	1804.94
490.132	1834.94
490.35	1868.94
490.568	1789.94
490.786	1807.94
491.003	1839.94
491.221	1837.94
491.439	1876.94
491.657	1847.94
491.874	1852.94
492.092	1851.94
492.31	1888.94
492.527	1913.94
492.745	1870.94
492.963	1882.94
493.18	1882.94
493.398	1853.94
493.615	1875.94
493.833	1875.94
494.05	1878.94
494.268	1876.94
494.485	1841.94
494.703	1873.94
494.92	1889.94
495.138	1899.94
495.355	1926.94
495.573	1933.94
495.79	1898.94
496.008	1976.94
496.225	1975.94
496.442	1963.94
496.66	1986.94
496.877	2056.94
497.094	2055.94
497.312	2039.94
497.529	2056.94
497.746	2078.94
497.963	2191.94
498.181	2219.94
498.398	2256.94
498.615	2335.94
498.832	2436.94
499.049	2505.94
499.267	2534.94
499.484	2697.94
499.701	2773.94
499.918	2928.94
500.135	3085.94
500.352	3212.94
500.569	3169.94
500.786	3185.94
501.003	3170.94
501.22	3001.94
501.437	2928.94
501.654	2800.94
501.871	2669.94
502.088	2536.94
502.305	2481.94
502.522	2406.94
502.739	2378.94
502.956	2258.94
503.172	2201.94
503.389	2175.94
503.606	2088.94
503.823	2019.94
504.04	2091.94
504.256	1990.94
504.473	2005.94
504.69	1992.94
504.907	2016.94
505.123	1940.94
505.34	1876.94
505.557	1899.94
505.773	1811.94
505.99	1809.94
506.207	1747.94
506.423	1749.94
506.64	1714.94
506.856	1672.94
507.073	1647.94
507.289	1647.94
507.506	1638.94
507.722	1643.94
507.939	1655.94
508.155	1605.94
508.372	1616.94
508.588	1600.94
508.805	1564.94
509.021	1566.94
509.238	1571.94
509.454	1555.94
509.67	1519.94
509.887	1533.94
510.103	1524.94
510.319	1487.94
510.536	1514.94
510.752	1519.94
510.968	1520.94
511.184	1440.94
511.401	1432.94
511.617	1497.94
511.833	1481.94
512.049	1448.94
512.265	1479.94
512.481	1490.94
512.698	1447.94
512.914	1480.94
513.13	1496.94
513.346	1467.94
513.562	1485.94
513.778	1485.94
513.994	1483.94
514.21	1496.94
514.426	1481.94
514.642	1494.94
514.858	1552.94
515.074	1580.94
515.29	1535.94
515.506	1522.94
515.721	1527.94
515.937	1519.94
516.153	1542.94
516.369	1517.94
516.585	1599.94
516.801	1570.94
517.016	1623.94
517.232	1653.94
517.448	1688.94
517.664	1637.94
517.879	1620.94
518.095	1677.94
518.311	1683.94
518.527	1657.94
518.742	1598.94
518.958	1642.94
519.173	1594.94
519.389	1555.94
519.605	1543.94
519.82	1505.94
520.036	1554.94
520.251	1527.94
520.467	1505.94
520.682	1467.94
520.898	1442.94
521.113	1448.94
521.329	1444.94
521.544	1467.94
521.76	1442.94
521.975	1425.94
522.19	1427.94
522.406	1401.94
522.621	1440.94
522.836	1404.94
523.052	1390.94
523.267	1341.94
523.482	1345.94
523.698	1349.94
523.913	1362.94
524.128	1319.94
524.343	1348.94
524.559	1331.94
524.774	1364.94
524.989	1324.94
525.204	1349.94
525.419	1340.94
525.634	1348.94
525.849	1333.94
526.064	1330.94
526.28	1333.94
526.495	1336.94
526.71	1348.94
526.925	1307.94
527.14	1303.94
527.355	1317.94
527.57	1306.94
527.785	1276.94
527.999	1241.94
528.214	1263.94
528.429	1298.94
528.644	1255.94
528.859	1277.94
529.074	1279.94
529.289	1253.94
529.503	1282.94
529.718	1293.94
529.933	1252.94
530.148	1239.94
530.363	1266.94
530.577	1252.94
530.792	1249.94
531.007	1256.94
531.221	1249.94
531.436	1239.94
531.651	1273.94
531.865	1240.94
532.08	1275.94
532.295	1216.94
532.509	1283.94
532.724	1269.94
532.938	1238.94
533.153	1251.94
533.367	1260.94
533.582	1257.94
533.796	1199.94
534.011	1229.94
534.225	1233.94
534.44	1215.94
534.654	1225.94
534.868	1203.94
535.083	1205.94
535.297	1247.94
535.511	1203.94
535.726	1223.94
535.94	1196.94
536.154	1193.94
536.369	1211.94
536.583	1164.94
536.797	1196.94
537.011	1178.94
537.225	1164.94
537.44	1180.94
537.654	1183.94
537.868	1176.94
538.082	1149.94
538.296	1135.94
538.51	1147.94
538.724	1163.94
538.938	1151.94
539.153	1141.94
539.367	1160.94
539.581	1132.94
539.795	1129.94
540.009	1156.94
540.222	1113.94
540.436	1132.94
540.65	1146.94
540.864	1139.94
541.078	1138.94
541.292	1138.94
541.506	1141.94
541.72	1123.94
541.934	1125.94
542.147	1136.94
542.361	1139.94
542.575	1155.94
542.789	1142.94
543.002	1144.94
543.216	1150.94
543.43	1117.94
543.644	1119.94
543.857	1119.94
544.071	1144.94
544.285	1123.94
544.498	1135.94
544.712	1136.94
544.925	1142.94
545.139	1136.94
545.352	1142.94
545.566	1118.94
545.779	1143.94
545.993	1150.94
546.206	1108.94
546.42	1133.94
546.633	1121.94
546.847	1139.94
547.06	1127.94
547.274	1144.94
547.487	1114.94
547.7	1143.94
547.914	1137.94
548.127	1132.94
548.34	1155.94
548.554	1125.94
548.767	1138.94
548.98	1127.94
549.193	1135.94
549.407	1144.94
549.62	1143.94
549.833	1154.94
550.046	1135.94
550.259	1167.94
550.473	1122.94
550.686	1153.94
550.899	1149.94
551.112	1142.94
551.325	1108.94
551.538	1128.94
551.751	1114.94
551.964	1116.94
552.177	1104.94
552.39	1100.94
552.603	1115.94
552.816	1107.94
553.029	1120.94
553.242	1124.94
553.455	1119.94
553.667	1136.94
553.88	1122.94
554.093	1140.94
554.306	1076.94
554.519	1091.94
554.732	1064.94
554.944	1048.94
555.157	1077.94
555.37	1055.94
555.583	1047.94
555.795	1020.94
556.008	1002.94
556.221	994.94
556.433	1004.94
556.646	1022.94
556.859	1007.94
557.071	987.94
557.284	992.94
557.496	974.94
557.709	973.94
557.921	964.94
558.134	971.94
558.346	980.94
558.559	987.94
558.771	965.94
558.984	948.94
559.196	919.94
559.409	950.94
559.621	970.94
559.833	955.94
560.046	942.94
560.258	948.94
560.47	948.94
560.683	935.94
560.895	931.94
561.107	948.94
561.32	959.94
561.532	936.94
561.744	947.94
561.956	943.94
562.168	944.94
562.381	957.94
562.593	912.94
562.805	939.94
563.017	916.94
563.229	928.94
563.441	961.94
563.653	981.94
563.865	940.94
564.077	945.94
564.289	953.94
564.501	1000.94
564.713	1012.94
564.925	1023.94
565.137	1008.94
565.349	1027.94
565.561	1045.94
565.773	1069.94
565.985	1077.94
566.197	1082.94
566.408	1163.94
566.62	1157.94
566.832	1161.94
567.044	1176.94
567.255	1212.94
567.467	1176.94
567.679	1223.94
567.891	1231.94
568.102	1209.94
568.314	1184.94
568.526	1154.94
568.737	1106.94
568.949	1071.94
569.161	1038.94
569.372	1010.94
569.584	1000.94
569.795	974.94
570.007	970.94
570.218	922.94
570.43	933.94
570.641	904.94
570.853	917.94
571.064	889.94
571.276	904.94
571.487	885.94
571.698	855.94
571.91	863.94
572.121	844.94
572.333	830.94
572.544	831.94
572.755	802.94
572.966	800.94
573.178	809.94
573.389	788.94
573.6	778.94
573.811	769.94
574.023	785.94
574.234	769.94
574.445	769.94
574.656	775.94
574.867	753.94
575.078	756.94
575.289	743.94
575.501	735.94
575.712	711.94
575.923	722.94
576.134	728.94
576.345	714.94
576.556	735.94
576.767	719.94
576.978	714.94
577.188	699.94
577.399	715.94
577.61	682.94
577.821	701.94
578.032	676.94
578.243	681.94
578.454	682.94
578.665	711.94
578.875	694.94
579.086	660.94
579.297	665.94
579.508	657.94
579.718	656.94
579.929	671.94
580.14	680.94
580.35	643.94
580.561	660.94
580.772	667.94
580.982	659.94
581.193	634.94
581.403	640.94
581.614	652.94
581.825	677.94
582.035	653.94
582.246	648.94
582.456	639.94
582.667	651.94
582.877	631.94
583.087	653.94
583.298	647.94
583.508	609.94
583.719	617.94
583.929	646.94
584.139	612.94
584.35	616.94
584.56	631.94
584.77	609.94
584.981	596.94
585.191	610.94
585.401	619.94
585.611	631.94
585.821	606.94
586.032	598.94
586.242	627.94
586.452	619.94
586.662	626.94
586.872	621.94
587.082	587.94
587.292	590.94
587.502	612.94
587.713	585.94
587.923	601.94
588.133	635.94
588.343	603.94
588.553	587.94
588.762	582.94
588.972	600.94
589.182	624.94
589.392	649.94
589.602	603.94
589.812	631.94
590.022	612.94
590.232	615.94
590.441	623.94
590.651	601.94
590.861	615.94
591.071	615.94
591.281	592.94
591.49	621.94
591.7	589.94
591.91	600.94
592.119	621.94
592.329	604.94
592.539	617.94
592.748	620.94
592.958	633.94
593.167	648.94
593.377	627.94
593.587	667.94
593.796	651.94
594.006	663.94
594.215	667.94
594.424	635.94
594.634	643.94
594.843	621.94
595.053	601.94
595.262	584.94
595.472	580.94
595.681	577.94
595.89	604.94
596.1	548.94
596.309	578.94
596.518	563.94
596.727	558.94
596.937	554.94
597.146	540.94
597.355	540.94
597.564	554.94
597.774	533.94
597.983	522.94
598.192	539.94
598.401	559.94
598.61	537.94
598.819	527.94
599.028	481.94
599.237	507.94
599.446	519.94
599.655	501.94
599.864	511.94
600.073	499.94
600.282	506.94
600.491	479.94
600.7	502.94
600.909	507.94
601.118	474.94
601.327	509.94
601.536	506.94
601.745	496.94
601.953	497.94
602.162	496.94
602.371	502.94
602.58	506.94
602.789	458.94
602.997	471.94
603.206	475.94
603.415	480.94
603.623	445.94
603.832	471.94
604.041	473.94
604.249	467.94
604.458	482.94
604.666	459.94
604.875	453.94
605.084	476.94
605.292	480.94
605.501	452.94
605.709	460.94
605.918	448.94
606.126	457.94
606.334	464.94
606.543	458.94
606.751	448.94
606.96	446.94
607.168	442.94
607.376	432.94
607.585	456.94
607.793	461.94
608.001	460.94
608.21	445.94
608.418	438.94
608.626	451.94
608.834	449.94
609.043	439.94
609.251	431.94
609.459	463.94
609.667	417.94
609.875	453.94
610.083	437.94
610.291	460.94
610.499	458.94
610.707	437.94
610.916	422.94
611.124	422.94
611.332	436.94
611.54	439.94
611.748	417.94
611.955	433.94
612.163	443.94
612.371	427.94
612.579	433.94
612.787	424.94
612.995	433.94
613.203	406.94
613.411	418.94
613.618	424.94
613.826	425.94
614.034	420.94
614.242	422.94
614.449	420.94
614.657	411.94
614.865	424.94
615.072	423.94
615.28	413.94
615.488	404.94
615.695	426.94
615.903	412.94
616.111	422.94
616.318	428.94
616.526	428.94
616.733	397.94
616.941	416.94
617.148	425.94
617.356	425.94
617.563	418.94
617.771	423.94
617.978	411.94
618.185	405.94
618.393	409.94
618.6	424.94
618.807	420.94
619.015	411.94
619.222	394.94
619.429	395.94
619.637	400.94
619.844	398.94
620.051	392.94
620.258	399.94
620.466	367.94
620.673	375.94
620.88	370.94
621.087	387.94
621.294	387.94
621.501	376.94
621.708	388.94
621.915	369.94
622.122	385.94
622.329	374.94
622.536	382.94
622.743	393.94
622.95	373.94
623.157	367.94
623.364	374.94
623.571	377.94
623.778	369.94
623.985	383.94
624.192	383.94
624.399	383.94
624.606	375.94
624.812	350.94
625.019	364.94
625.226	384.94
625.433	366.94
625.639	364.94
625.846	367.94
626.053	373.94
626.259	356.94
626.466	351.94
626.673	352.94
626.879	343.94
627.086	359.94
627.293	347.94
627.499	351.94
627.706	361.94
627.912	339.94
628.119	354.94
628.325	338.94
628.532	339.94
628.738	323.94
628.945	344.94
629.151	335.94
629.357	340.94
629.564	350.94
629.77	351.94
629.976	344.94
630.183	335.94
630.389	331.94
630.595	353.94
630.802	312.94
631.008	331.94
631.214	323.94
631.42	327.94
631.627	337.94
631.833	337.94
632.039	338.94
632.245	327.94
632.451	337.94
632.657	314.94
632.863	311.94
633.069	325.94
633.275	321.94
633.481	315.94
633.688	304.94
633.893	321.94
634.099	307.94
634.305	304.94
634.511	308.94
634.717	311.94
634.923	325.94
635.129	311.94
635.335	295.94
635.541	307.94
635.747	314.94
635.952	309.94
636.158	306.94
636.364	308.94
636.57	305.94
636.775	319.94
636.981	327.94
637.187	298.94
637.392	310.94
637.598	322.94
637.804	314.94
638.009	306.94
638.215	308.94
638.421	316.94
638.626	292.94
638.832	305.94
639.037	309.94
639.243	292.94
639.448	283.94
639.654	284.94
639.859	293.94
640.065	310.94
640.27	311.94
640.475	313.94
640.681	312.94
640.886	297.94
641.091	311.94
641.297	294.94
641.502	280.94
641.707	287.94
641.913	289.94
642.118	292.94
642.323	281.94
642.528	283.94
642.733	296.94
642.939	301.94
643.144	283.94
643.349	311.94
643.554	304.94
643.759	304.94
643.964	291.94
644.169	286.94
644.374	285.94
644.579	297.94
644.784	294.94
644.989	284.94
645.194	280.94
645.399	299.94
645.604	306.94
645.809	313.94
646.014	287.94
646.219	293.94
646.423	309.94
646.628	286.94
646.833	308.94
647.038	306.94
647.243	300.94
647.447	307.94
647.652	334.94
647.857	307.94
648.062	322.94
648.266	315.94
648.471	310.94
648.676	309.94
648.88	321.94
649.085	321.94
649.289	314.94
649.494	315.94
649.698	305.94
649.903	312.94
650.107	303.94
650.312	287.94
650.516	298.94
650.721	312.94
650.925	289.94
651.13	284.94
651.334	304.94
651.539	290.94
651.743	303.94
651.947	302.94
652.152	290.94
652.356	275.94
652.56	295.94
652.764	307.94
652.969	290.94
653.173	305.94
653.377	296.94
653.581	290.94
653.785	282.94
653.99	285.94
654.194	291.94
654.398	264.94
654.602	280.94
654.806	283.94
655.01	306.94
655.214	280.94
655.418	295.94
655.622	287.94
655.826	289.94
656.03	292.94
656.234	316.94
656.438	311.94
656.642	329.94
656.846	303.94
657.049	284.94
657.253	278.94
657.457	274.94
657.661	257.94
657.865	227.94
658.068	209.94
658.272	203.94
658.476	179.94
658.68	172.94
658.883	173.94
659.087	150.94
659.291	173.94
659.494	145.94
659.698	141.94
659.901	131.94
660.105	134.94
660.309	124.94
660.512	115.94
660.716	120.94
660.919	124.94
661.123	116.94
661.326	99.94
661.53	102.94
661.733	95.94
661.936	101.94
662.14	91.94
662.343	114.94
662.546	89.94
662.75	85.94
662.953	86.94
663.156	91.94
663.36	81.94
663.563	93.94
663.766	89.94
663.969	69.94
664.173	87.94
664.376	76.94
664.579	91.94
664.782	87.94
664.985	86.94
665.188	77.94
665.391	71.94
665.594	92.94
665.797	87.94
666	87.94
666.203	77.94
666.406	71.94
666.609	88.94
666.812	75.94
667.015	96.94
667.218	100.94
667.421	79.94
667.624	87.94
667.827	90.94
668.03	89.94
668.232	76.94
668.435	72.94
668.638	70.94
668.841	90.94
669.043	80.94
669.246	73.94
669.449	88.94
669.651	90.94
669.854	80.94
670.057	73.94
670.259	91.94
670.462	81.94
670.665	74.94
670.867	85.94
671.07	79.94
671.272	75.94
671.475	75.94
671.677	84.94
671.88	79.94
672.082	82.94
672.284	97.94
672.487	80.94
672.689	76.94
672.892	69.94
