Data from Fe(NO3)3@0.05M.TitratingCurve.Agarose3%dH2O.NegLispCup.LampEnergy10.LIBS07252019_HRD10591_16-46-03-335.txt Node
Date: Thu Jul 25 16:46:03 EDT 2019
User: cochatt
Spectrometer: HR+D1059
Trigger mode: 1
Integration Time (sec): 1.000000E-1
Scans to average: 1
Electric dark correction enabled: true
Nonlinearity correction enabled: false
Boxcar width: 0
XAxis mode: Wavelengths
Number of Pixels in Spectrum: 2048
>>>>>Begin Spectral Data<<<<<
223.165	-20.62
223.4	-20.62
223.635	-20.62
223.869	-6.62
224.104	-22.62
224.338	-25.62
224.573	-14.62
224.808	-8.62
225.042	-0.62
225.277	2.38
225.511	-10.62
225.746	-2.62
225.98	20.38
226.215	9.38
226.449	-2.62
226.683	25.38
226.918	27.38
227.152	30.38
227.387	38.38
227.621	33.38
227.856	53.38
228.09	56.38
228.324	45.38
228.559	53.38
228.793	53.38
229.027	61.38
229.262	68.38
229.496	81.38
229.73	81.38
229.964	85.38
230.199	86.38
230.433	89.38
230.667	91.38
230.901	97.38
231.136	88.38
231.37	87.38
231.604	100.38
231.838	97.38
232.072	104.38
232.306	101.38
232.541	105.38
232.775	98.38
233.009	101.38
233.243	113.38
233.477	98.38
233.711	102.38
233.945	107.38
234.179	97.38
234.413	108.38
234.647	103.38
234.881	95.38
235.115	103.38
235.349	115.38
235.583	119.38
235.817	89.38
236.051	101.38
236.285	75.38
236.519	83.38
236.753	106.38
236.987	92.38
237.221	95.38
237.455	101.38
237.689	97.38
237.922	100.38
238.156	125.38
238.39	103.38
238.624	101.38
238.858	89.38
239.091	107.38
239.325	103.38
239.559	91.38
239.793	105.38
240.027	121.38
240.26	99.38
240.494	105.38
240.728	114.38
240.961	100.38
241.195	103.38
241.429	117.38
241.662	105.38
241.896	109.38
242.13	100.38
242.363	114.38
242.597	114.38
242.83	110.38
243.064	109.38
243.298	99.38
243.531	92.38
243.765	106.38
243.998	114.38
244.232	113.38
244.465	106.38
244.699	115.38
244.932	121.38
245.166	111.38
245.399	107.38
245.633	119.38
245.866	117.38
246.099	116.38
246.333	113.38
246.566	117.38
246.8	123.38
247.033	123.38
247.266	115.38
247.5	100.38
247.733	110.38
247.966	113.38
248.2	123.38
248.433	123.38
248.666	109.38
248.899	113.38
249.133	115.38
249.366	120.38
249.599	126.38
249.832	118.38
250.066	120.38
250.299	102.38
250.532	122.38
250.765	119.38
250.998	118.38
251.231	135.38
251.465	124.38
251.698	110.38
251.931	115.38
252.164	121.38
252.397	117.38
252.63	117.38
252.863	126.38
253.096	120.38
253.329	140.38
253.562	128.38
253.795	146.38
254.028	142.38
254.261	114.38
254.494	128.38
254.727	134.38
254.96	131.38
255.193	128.38
255.426	117.38
255.659	124.38
255.892	115.38
256.124	132.38
256.357	129.38
256.59	134.38
256.823	138.38
257.056	139.38
257.289	133.38
257.521	139.38
257.754	137.38
257.987	139.38
258.22	126.38
258.452	129.38
258.685	125.38
258.918	145.38
259.151	134.38
259.383	133.38
259.616	123.38
259.849	131.38
260.081	154.38
260.314	141.38
260.547	139.38
260.779	141.38
261.012	135.38
261.244	142.38
261.477	137.38
261.71	126.38
261.942	140.38
262.175	135.38
262.407	134.38
262.64	149.38
262.872	135.38
263.105	133.38
263.337	146.38
263.57	162.38
263.802	136.38
264.035	145.38
264.267	137.38
264.499	139.38
264.732	126.38
264.964	142.38
265.197	135.38
265.429	143.38
265.661	149.38
265.894	152.38
266.126	145.38
266.358	157.38
266.591	163.38
266.823	155.38
267.055	149.38
267.287	133.38
267.52	130.38
267.752	152.38
267.984	144.38
268.216	163.38
268.448	152.38
268.681	150.38
268.913	144.38
269.145	150.38
269.377	143.38
269.609	142.38
269.841	150.38
270.073	164.38
270.306	156.38
270.538	155.38
270.77	141.38
271.002	160.38
271.234	146.38
271.466	153.38
271.698	153.38
271.93	166.38
272.162	165.38
272.394	157.38
272.626	155.38
272.858	148.38
273.09	148.38
273.322	161.38
273.553	159.38
273.785	174.38
274.017	165.38
274.249	153.38
274.481	178.38
274.713	164.38
274.945	181.38
275.176	181.38
275.408	153.38
275.64	165.38
275.872	170.38
276.104	156.38
276.335	163.38
276.567	165.38
276.799	161.38
277.031	162.38
277.262	157.38
277.494	167.38
277.726	165.38
277.957	169.38
278.189	163.38
278.421	163.38
278.652	162.38
278.884	163.38
279.115	167.38
279.347	147.38
279.579	162.38
279.81	155.38
280.042	163.38
280.273	161.38
280.505	169.38
280.736	190.38
280.968	162.38
281.199	162.38
281.431	179.38
281.662	185.38
281.894	173.38
282.125	165.38
282.356	177.38
282.588	183.38
282.819	182.38
283.051	172.38
283.282	185.38
283.513	172.38
283.745	169.38
283.976	175.38
284.207	170.38
284.439	181.38
284.67	175.38
284.901	179.38
285.132	177.38
285.364	186.38
285.595	171.38
285.826	179.38
286.057	182.38
286.288	181.38
286.52	173.38
286.751	181.38
286.982	199.38
287.213	181.38
287.444	197.38
287.675	172.38
287.906	178.38
288.138	183.38
288.369	183.38
288.6	183.38
288.831	162.38
289.062	186.38
289.293	192.38
289.524	209.38
289.755	182.38
289.986	187.38
290.217	187.38
290.448	181.38
290.679	183.38
290.91	181.38
291.141	181.38
291.371	200.38
291.602	174.38
291.833	178.38
292.064	183.38
292.295	196.38
292.526	182.38
292.757	198.38
292.987	184.38
293.218	190.38
293.449	184.38
293.68	187.38
293.91	178.38
294.141	200.38
294.372	196.38
294.603	197.38
294.833	189.38
295.064	178.38
295.295	195.38
295.525	198.38
295.756	186.38
295.987	189.38
296.217	193.38
296.448	189.38
296.679	197.38
296.909	194.38
297.14	188.38
297.37	197.38
297.601	199.38
297.831	201.38
298.062	197.38
298.292	192.38
298.523	188.38
298.753	205.38
298.984	192.38
299.214	199.38
299.445	200.38
299.675	195.38
299.905	212.38
300.136	190.38
300.366	217.38
300.597	203.38
300.827	214.38
301.057	208.38
301.288	205.38
301.518	185.38
301.748	203.38
301.979	193.38
302.209	226.38
302.439	222.38
302.669	206.38
302.9	194.38
303.13	222.38
303.36	198.38
303.59	204.38
303.82	206.38
304.051	205.38
304.281	215.38
304.511	199.38
304.741	210.38
304.971	221.38
305.201	201.38
305.431	215.38
305.661	214.38
305.891	199.38
306.121	199.38
306.352	216.38
306.582	218.38
306.812	218.38
307.042	210.38
307.272	211.38
307.502	214.38
307.731	211.38
307.961	191.38
308.191	225.38
308.421	216.38
308.651	214.38
308.881	206.38
309.111	203.38
309.341	197.38
309.571	198.38
309.8	206.38
310.03	210.38
310.26	197.38
310.49	193.38
310.72	221.38
310.949	221.38
311.179	205.38
311.409	213.38
311.639	212.38
311.868	226.38
312.098	203.38
312.328	215.38
312.557	221.38
312.787	217.38
313.017	198.38
313.246	211.38
313.476	207.38
313.706	215.38
313.935	222.38
314.165	222.38
314.394	222.38
314.624	209.38
314.853	217.38
315.083	215.38
315.312	217.38
315.542	216.38
315.771	216.38
316.001	199.38
316.23	222.38
316.46	222.38
316.689	216.38
316.919	230.38
317.148	211.38
317.377	231.38
317.607	223.38
317.836	195.38
318.065	207.38
318.295	215.38
318.524	213.38
318.753	206.38
318.983	221.38
319.212	214.38
319.441	202.38
319.67	232.38
319.9	211.38
320.129	215.38
320.358	212.38
320.587	226.38
320.816	218.38
321.046	225.38
321.275	222.38
321.504	203.38
321.733	244.38
321.962	226.38
322.191	213.38
322.42	212.38
322.649	208.38
322.878	194.38
323.108	209.38
323.337	235.38
323.566	221.38
323.795	227.38
324.024	214.38
324.253	214.38
324.482	205.38
324.71	242.38
324.939	244.38
325.168	224.38
325.397	219.38
325.626	217.38
325.855	236.38
326.084	228.38
326.313	254.38
326.542	228.38
326.77	224.38
326.999	223.38
327.228	234.38
327.457	221.38
327.686	232.38
327.914	242.38
328.143	229.38
328.372	226.38
328.6	228.38
328.829	240.38
329.058	241.38
329.287	223.38
329.515	234.38
329.744	228.38
329.972	233.38
330.201	242.38
330.43	232.38
330.658	237.38
330.887	239.38
331.115	245.38
331.344	260.38
331.572	246.38
331.801	259.38
332.03	237.38
332.258	239.38
332.486	262.38
332.715	257.38
332.943	252.38
333.172	277.38
333.4	270.38
333.629	281.38
333.857	296.38
334.085	286.38
334.314	305.38
334.542	282.38
334.771	275.38
334.999	277.38
335.227	272.38
335.455	279.38
335.684	283.38
335.912	290.38
336.14	273.38
336.369	280.38
336.597	275.38
336.825	271.38
337.053	274.38
337.281	259.38
337.51	263.38
337.738	258.38
337.966	255.38
338.194	250.38
338.422	265.38
338.65	233.38
338.878	251.38
339.106	241.38
339.334	245.38
339.562	259.38
339.79	231.38
340.018	251.38
340.246	235.38
340.474	261.38
340.702	226.38
340.93	226.38
341.158	245.38
341.386	247.38
341.614	250.38
341.842	240.38
342.07	250.38
342.298	240.38
342.526	249.38
342.754	244.38
342.981	277.38
343.209	234.38
343.437	262.38
343.665	248.38
343.893	267.38
344.12	268.38
344.348	276.38
344.576	258.38
344.804	258.38
345.031	252.38
345.259	239.38
345.487	234.38
345.714	260.38
345.942	235.38
346.17	232.38
346.397	259.38
346.625	250.38
346.853	239.38
347.08	234.38
347.308	232.38
347.535	227.38
347.763	228.38
347.99	228.38
348.218	233.38
348.445	236.38
348.673	234.38
348.9	215.38
349.128	243.38
349.355	249.38
349.583	217.38
349.81	242.38
350.037	229.38
350.265	231.38
350.492	236.38
350.72	218.38
350.947	225.38
351.174	232.38
351.402	230.38
351.629	242.38
351.856	243.38
352.083	234.38
352.311	213.38
352.538	226.38
352.765	239.38
352.992	250.38
353.22	226.38
353.447	213.38
353.674	224.38
353.901	225.38
354.128	221.38
354.355	231.38
354.583	218.38
354.81	228.38
355.037	229.38
355.264	253.38
355.491	226.38
355.718	235.38
355.945	226.38
356.172	235.38
356.399	248.38
356.626	253.38
356.853	234.38
357.08	249.38
357.307	236.38
357.534	235.38
357.761	228.38
357.988	238.38
358.215	259.38
358.441	251.38
358.668	238.38
358.895	223.38
359.122	234.38
359.349	224.38
359.576	214.38
359.802	234.38
360.029	230.38
360.256	232.38
360.483	218.38
360.709	228.38
360.936	236.38
361.163	234.38
361.39	217.38
361.616	245.38
361.843	245.38
362.07	249.38
362.296	227.38
362.523	222.38
362.749	239.38
362.976	238.38
363.203	246.38
363.429	246.38
363.656	225.38
363.882	222.38
364.109	234.38
364.335	253.38
364.562	245.38
364.788	234.38
365.015	233.38
365.241	242.38
365.468	241.38
365.694	245.38
365.92	242.38
366.147	234.38
366.373	234.38
366.599	249.38
366.826	220.38
367.052	241.38
367.278	242.38
367.505	238.38
367.731	263.38
367.957	253.38
368.184	228.38
368.41	245.38
368.636	261.38
368.862	251.38
369.089	247.38
369.315	247.38
369.541	247.38
369.767	241.38
369.993	230.38
370.219	243.38
370.445	254.38
370.672	257.38
370.898	246.38
371.124	269.38
371.35	232.38
371.576	269.38
371.802	257.38
372.028	267.38
372.254	269.38
372.48	287.38
372.706	267.38
372.932	263.38
373.158	262.38
373.384	284.38
373.61	269.38
373.835	246.38
374.061	261.38
374.287	270.38
374.513	273.38
374.739	290.38
374.965	287.38
375.191	291.38
375.416	293.38
375.642	282.38
375.868	287.38
376.094	269.38
376.319	283.38
376.545	270.38
376.771	273.38
376.997	271.38
377.222	257.38
377.448	258.38
377.674	245.38
377.899	267.38
378.125	263.38
378.35	255.38
378.576	249.38
378.802	263.38
379.027	271.38
379.253	249.38
379.478	251.38
379.704	264.38
379.929	246.38
380.155	267.38
380.38	269.38
380.606	263.38
380.831	253.38
381.057	264.38
381.282	259.38
381.507	269.38
381.733	271.38
381.958	273.38
382.184	270.38
382.409	264.38
382.634	275.38
382.86	267.38
383.085	284.38
383.31	263.38
383.535	295.38
383.761	294.38
383.986	275.38
384.211	305.38
384.436	289.38
384.662	297.38
384.887	311.38
385.112	329.38
385.337	296.38
385.562	298.38
385.787	292.38
386.013	306.38
386.238	310.38
386.463	326.38
386.688	303.38
386.913	301.38
387.138	305.38
387.363	292.38
387.588	323.38
387.813	302.38
388.038	316.38
388.263	313.38
388.488	329.38
388.713	353.38
388.938	322.38
389.163	310.38
389.387	332.38
389.612	318.38
389.837	321.38
390.062	308.38
390.287	306.38
390.512	323.38
390.736	318.38
390.961	342.38
391.186	309.38
391.411	316.38
391.636	343.38
391.86	332.38
392.085	334.38
392.31	349.38
392.534	338.38
392.759	353.38
392.984	330.38
393.208	345.38
393.433	328.38
393.658	341.38
393.882	339.38
394.107	321.38
394.331	321.38
394.556	329.38
394.78	334.38
395.005	338.38
395.229	349.38
395.454	356.38
395.678	354.38
395.903	360.38
396.127	360.38
396.352	346.38
396.576	341.38
396.801	335.38
397.025	320.38
397.249	352.38
397.474	357.38
397.698	352.38
397.922	362.38
398.147	348.38
398.371	353.38
398.595	366.38
398.82	358.38
399.044	393.38
399.268	417.38
399.492	467.38
399.717	490.38
399.941	514.38
400.165	463.38
400.389	435.38
400.613	422.38
400.837	407.38
401.062	409.38
401.286	383.38
401.51	383.38
401.734	397.38
401.958	413.38
402.182	391.38
402.406	382.38
402.63	377.38
402.854	412.38
403.078	391.38
403.302	428.38
403.526	409.38
403.75	428.38
403.974	427.38
404.198	409.38
404.422	433.38
404.645	417.38
404.869	405.38
405.093	407.38
405.317	413.38
405.541	413.38
405.765	412.38
405.988	405.38
406.212	408.38
406.436	427.38
406.66	444.38
406.883	435.38
407.107	453.38
407.331	471.38
407.555	471.38
407.778	471.38
408.002	466.38
408.226	438.38
408.449	446.38
408.673	457.38
408.896	436.38
409.12	428.38
409.344	433.38
409.567	429.38
409.791	458.38
410.014	454.38
410.238	440.38
410.461	415.38
410.685	422.38
410.908	407.38
411.132	423.38
411.355	434.38
411.578	405.38
411.802	399.38
412.025	414.38
412.249	412.38
412.472	419.38
412.695	417.38
412.919	385.38
413.142	409.38
413.365	399.38
413.589	407.38
413.812	401.38
414.035	418.38
414.258	409.38
414.482	424.38
414.705	413.38
414.928	399.38
415.151	416.38
415.374	415.38
415.597	389.38
415.821	386.38
416.044	389.38
416.267	372.38
416.49	394.38
416.713	388.38
416.936	386.38
417.159	387.38
417.382	367.38
417.605	391.38
417.828	389.38
418.051	388.38
418.274	421.38
418.497	415.38
418.72	438.38
418.943	407.38
419.166	419.38
419.389	427.38
419.611	428.38
419.834	414.38
420.057	393.38
420.28	389.38
420.503	380.38
420.726	364.38
420.948	401.38
421.171	388.38
421.394	400.38
421.617	399.38
421.839	410.38
422.062	405.38
422.285	390.38
422.507	399.38
422.73	405.38
422.953	369.38
423.175	405.38
423.398	424.38
423.621	393.38
423.843	395.38
424.066	407.38
424.288	407.38
424.511	421.38
424.733	403.38
424.956	400.38
425.178	382.38
425.401	406.38
425.623	396.38
425.846	393.38
426.068	387.38
426.291	390.38
426.513	378.38
426.735	384.38
426.958	393.38
427.18	387.38
427.402	385.38
427.625	375.38
427.847	384.38
428.069	381.38
428.292	376.38
428.514	385.38
428.736	375.38
428.958	377.38
429.181	373.38
429.403	362.38
429.625	371.38
429.847	357.38
430.069	366.38
430.292	372.38
430.514	371.38
430.736	369.38
430.958	389.38
431.18	362.38
431.402	363.38
431.624	381.38
431.846	375.38
432.068	359.38
432.29	375.38
432.512	380.38
432.734	368.38
432.956	395.38
433.178	393.38
433.4	391.38
433.622	391.38
433.844	365.38
434.066	383.38
434.287	385.38
434.509	386.38
434.731	393.38
434.953	403.38
435.175	392.38
435.397	389.38
435.618	382.38
435.84	373.38
436.062	380.38
436.284	379.38
436.505	373.38
436.727	379.38
436.949	369.38
437.17	373.38
437.392	377.38
437.614	382.38
437.835	365.38
438.057	349.38
438.278	344.38
438.5	383.38
438.721	353.38
438.943	376.38
439.165	385.38
439.386	379.38
439.608	379.38
439.829	378.38
440.05	369.38
440.272	381.38
440.493	398.38
440.715	394.38
440.936	415.38
441.158	399.38
441.379	399.38
441.6	405.38
441.822	401.38
442.043	406.38
442.264	389.38
442.486	405.38
442.707	394.38
442.928	412.38
443.149	418.38
443.371	405.38
443.592	406.38
443.813	411.38
444.034	414.38
444.255	395.38
444.476	431.38
444.698	460.38
444.919	454.38
445.14	552.38
445.361	511.38
445.582	441.38
445.803	395.38
446.024	401.38
446.245	391.38
446.466	387.38
446.687	388.38
446.908	385.38
447.129	363.38
447.35	379.38
447.571	374.38
447.792	366.38
448.013	354.38
448.234	360.38
448.455	393.38
448.675	371.38
448.896	376.38
449.117	358.38
449.338	340.38
449.559	348.38
449.779	381.38
450	370.38
450.221	369.38
450.442	371.38
450.662	370.38
450.883	367.38
451.104	372.38
451.324	360.38
451.545	367.38
451.766	364.38
451.986	361.38
452.207	361.38
452.428	359.38
452.648	366.38
452.869	347.38
453.089	349.38
453.31	351.38
453.53	318.38
453.751	328.38
453.971	331.38
454.192	358.38
454.412	330.38
454.633	325.38
454.853	336.38
455.073	346.38
455.294	339.38
455.514	350.38
455.734	334.38
455.955	340.38
456.175	333.38
456.395	327.38
456.616	334.38
456.836	344.38
457.056	333.38
457.276	321.38
457.497	330.38
457.717	329.38
457.937	337.38
458.157	348.38
458.377	342.38
458.598	335.38
458.818	356.38
459.038	340.38
459.258	364.38
459.478	386.38
459.698	377.38
459.918	385.38
460.138	378.38
460.358	394.38
460.578	411.38
460.798	414.38
461.018	406.38
461.238	405.38
461.458	408.38
461.678	418.38
461.898	407.38
462.118	430.38
462.338	429.38
462.558	453.38
462.777	474.38
462.997	469.38
463.217	497.38
463.437	500.38
463.657	472.38
463.876	456.38
464.096	472.38
464.316	445.38
464.536	479.38
464.755	445.38
464.975	430.38
465.195	413.38
465.414	405.38
465.634	386.38
465.854	398.38
466.073	391.38
466.293	375.38
466.512	378.38
466.732	378.38
466.951	371.38
467.171	377.38
467.391	382.38
467.61	375.38
467.829	367.38
468.049	360.38
468.268	359.38
468.488	367.38
468.707	357.38
468.927	343.38
469.146	363.38
469.365	365.38
469.585	362.38
469.804	386.38
470.023	382.38
470.243	393.38
470.462	365.38
470.681	376.38
470.901	385.38
471.12	365.38
471.339	377.38
471.558	355.38
471.777	363.38
471.997	369.38
472.216	361.38
472.435	349.38
472.654	333.38
472.873	349.38
473.092	340.38
473.311	354.38
473.53	362.38
473.749	339.38
473.968	361.38
474.187	335.38
474.406	346.38
474.625	324.38
474.844	333.38
475.063	353.38
475.282	351.38
475.501	341.38
475.72	376.38
475.939	362.38
476.158	357.38
476.377	383.38
476.596	374.38
476.814	377.38
477.033	349.38
477.252	356.38
477.471	411.38
477.69	376.38
477.908	391.38
478.127	414.38
478.346	381.38
478.564	379.38
478.783	399.38
479.002	396.38
479.22	408.38
479.439	420.38
479.658	418.38
479.876	423.38
480.095	421.38
480.313	426.38
480.532	419.38
480.751	426.38
480.969	403.38
481.188	384.38
481.406	398.38
481.624	374.38
481.843	389.38
482.061	389.38
482.28	376.38
482.498	403.38
482.717	385.38
482.935	389.38
483.153	405.38
483.372	384.38
483.59	371.38
483.808	389.38
484.027	381.38
484.245	391.38
484.463	389.38
484.681	419.38
484.9	391.38
485.118	408.38
485.336	399.38
485.554	399.38
485.772	417.38
485.99	399.38
486.209	406.38
486.427	397.38
486.645	383.38
486.863	418.38
487.081	407.38
487.299	399.38
487.517	415.38
487.735	409.38
487.953	433.38
488.171	401.38
488.389	409.38
488.607	402.38
488.825	403.38
489.043	387.38
489.261	414.38
489.479	413.38
489.696	386.38
489.914	399.38
490.132	415.38
490.35	413.38
490.568	386.38
490.786	430.38
491.003	422.38
491.221	428.38
491.439	420.38
491.657	410.38
491.874	425.38
492.092	433.38
492.31	422.38
492.527	433.38
492.745	445.38
492.963	443.38
493.18	427.38
493.398	437.38
493.615	431.38
493.833	426.38
494.05	427.38
494.268	431.38
494.485	437.38
494.703	426.38
494.92	435.38
495.138	427.38
495.355	444.38
495.573	417.38
495.79	433.38
496.008	442.38
496.225	452.38
496.442	462.38
496.66	448.38
496.877	441.38
497.094	436.38
497.312	450.38
497.529	470.38
497.746	467.38
497.963	483.38
498.181	486.38
498.398	503.38
498.615	517.38
498.832	534.38
499.049	580.38
499.267	599.38
499.484	653.38
499.701	689.38
499.918	744.38
500.135	823.38
500.352	888.38
500.569	907.38
500.786	870.38
501.003	842.38
501.22	796.38
501.437	736.38
501.654	679.38
501.871	658.38
502.088	595.38
502.305	586.38
502.522	538.38
502.739	530.38
502.956	531.38
503.172	500.38
503.389	489.38
503.606	480.38
503.823	476.38
504.04	452.38
504.256	439.38
504.473	471.38
504.69	487.38
504.907	449.38
505.123	421.38
505.34	411.38
505.557	410.38
505.773	417.38
505.99	395.38
506.207	381.38
506.423	407.38
506.64	391.38
506.856	362.38
507.073	373.38
507.289	379.38
507.506	370.38
507.722	377.38
507.939	372.38
508.155	365.38
508.372	367.38
508.588	379.38
508.805	359.38
509.021	385.38
509.238	358.38
509.454	342.38
509.67	356.38
509.887	349.38
510.103	346.38
510.319	340.38
510.536	364.38
510.752	345.38
510.968	333.38
511.184	342.38
511.401	343.38
511.617	340.38
511.833	336.38
512.049	346.38
512.265	340.38
512.481	332.38
512.698	346.38
512.914	354.38
513.13	348.38
513.346	343.38
513.562	347.38
513.778	338.38
513.994	344.38
514.21	338.38
514.426	356.38
514.642	351.38
514.858	360.38
515.074	367.38
515.29	356.38
515.506	342.38
515.721	340.38
515.937	345.38
516.153	349.38
516.369	373.38
516.585	369.38
516.801	379.38
517.016	410.38
517.232	396.38
517.448	413.38
517.664	437.38
517.879	414.38
518.095	433.38
518.311	409.38
518.527	398.38
518.742	381.38
518.958	395.38
519.173	393.38
519.389	396.38
519.605	361.38
519.82	360.38
520.036	368.38
520.251	344.38
520.467	346.38
520.682	344.38
520.898	347.38
521.113	335.38
521.329	348.38
521.544	332.38
521.76	324.38
521.975	333.38
522.19	332.38
522.406	316.38
522.621	322.38
522.836	324.38
523.052	335.38
523.267	321.38
523.482	326.38
523.698	317.38
523.913	322.38
524.128	334.38
524.343	323.38
524.559	318.38
524.774	340.38
524.989	323.38
525.204	315.38
525.419	319.38
525.634	311.38
525.849	317.38
526.064	313.38
526.28	308.38
526.495	311.38
526.71	316.38
526.925	318.38
527.14	316.38
527.355	301.38
527.57	297.38
527.785	310.38
527.999	317.38
528.214	320.38
528.429	327.38
528.644	311.38
528.859	317.38
529.074	317.38
529.289	323.38
529.503	315.38
529.718	311.38
529.933	325.38
530.148	309.38
530.363	317.38
530.577	317.38
530.792	319.38
531.007	299.38
531.221	305.38
531.436	313.38
531.651	296.38
531.865	309.38
532.08	309.38
532.295	314.38
532.509	295.38
532.724	289.38
532.938	292.38
533.153	309.38
533.367	302.38
533.582	319.38
533.796	324.38
534.011	315.38
534.225	310.38
534.44	301.38
534.654	291.38
534.868	297.38
535.083	289.38
535.297	287.38
535.511	294.38
535.726	302.38
535.94	296.38
536.154	318.38
536.369	279.38
536.583	294.38
536.797	295.38
537.011	300.38
537.225	284.38
537.44	267.38
537.654	287.38
537.868	296.38
538.082	285.38
538.296	291.38
538.51	298.38
538.724	289.38
538.938	300.38
539.153	294.38
539.367	293.38
539.581	302.38
539.795	293.38
540.009	289.38
540.222	301.38
540.436	287.38
540.65	285.38
540.864	287.38
541.078	302.38
541.292	299.38
541.506	317.38
541.72	289.38
541.934	313.38
542.147	295.38
542.361	291.38
542.575	292.38
542.789	305.38
543.002	284.38
543.216	288.38
543.43	287.38
543.644	278.38
543.857	286.38
544.071	313.38
544.285	311.38
544.498	292.38
544.712	303.38
544.925	297.38
545.139	303.38
545.352	299.38
545.566	316.38
545.779	301.38
545.993	311.38
546.206	309.38
546.42	318.38
546.633	301.38
546.847	307.38
547.06	279.38
547.274	312.38
547.487	306.38
547.7	293.38
547.914	293.38
548.127	298.38
548.34	295.38
548.554	300.38
548.767	303.38
548.98	323.38
549.193	313.38
549.407	276.38
549.62	297.38
549.833	303.38
550.046	289.38
550.259	295.38
550.473	300.38
550.686	305.38
550.899	312.38
551.112	287.38
551.325	303.38
551.538	318.38
551.751	281.38
551.964	294.38
552.177	292.38
552.39	290.38
552.603	313.38
552.816	330.38
553.029	324.38
553.242	311.38
553.455	309.38
553.667	305.38
553.88	300.38
554.093	323.38
554.306	290.38
554.519	310.38
554.732	299.38
554.944	301.38
555.157	299.38
555.37	286.38
555.583	265.38
555.795	278.38
556.008	269.38
556.221	254.38
556.433	292.38
556.646	273.38
556.859	275.38
557.071	285.38
557.284	246.38
557.496	278.38
557.709	271.38
557.921	265.38
558.134	271.38
558.346	259.38
558.559	273.38
558.771	250.38
558.984	269.38
559.196	251.38
559.409	255.38
559.621	249.38
559.833	250.38
560.046	244.38
560.258	260.38
560.47	273.38
560.683	262.38
560.895	237.38
561.107	267.38
561.32	234.38
561.532	268.38
561.744	265.38
561.956	260.38
562.168	260.38
562.381	263.38
562.593	266.38
562.805	255.38
563.017	243.38
563.229	257.38
563.441	252.38
563.653	245.38
563.865	255.38
564.077	271.38
564.289	253.38
564.501	250.38
564.713	271.38
564.925	279.38
565.137	277.38
565.349	277.38
565.561	279.38
565.773	298.38
565.985	293.38
566.197	307.38
566.408	300.38
566.62	344.38
566.832	325.38
567.044	349.38
567.255	351.38
567.467	348.38
567.679	359.38
567.891	359.38
568.102	360.38
568.314	347.38
568.526	346.38
568.737	332.38
568.949	312.38
569.161	281.38
569.372	275.38
569.584	277.38
569.795	272.38
570.007	267.38
570.218	249.38
570.43	238.38
570.641	263.38
570.853	254.38
571.064	258.38
571.276	229.38
571.487	251.38
571.698	251.38
571.91	240.38
572.121	225.38
572.333	221.38
572.544	230.38
572.755	221.38
572.966	241.38
573.178	208.38
573.389	219.38
573.6	205.38
573.811	226.38
574.023	210.38
574.234	203.38
574.445	229.38
574.656	214.38
574.867	221.38
575.078	220.38
575.289	202.38
575.501	212.38
575.712	209.38
575.923	202.38
576.134	207.38
576.345	186.38
576.556	225.38
576.767	215.38
576.978	214.38
577.188	199.38
577.399	211.38
577.61	205.38
577.821	194.38
578.032	207.38
578.243	199.38
578.454	215.38
578.665	198.38
578.875	195.38
579.086	196.38
579.297	187.38
579.508	189.38
579.718	191.38
579.929	200.38
580.14	185.38
580.35	194.38
580.561	184.38
580.772	185.38
580.982	189.38
581.193	185.38
581.403	192.38
581.614	179.38
581.825	177.38
582.035	192.38
582.246	186.38
582.456	204.38
582.667	189.38
582.877	190.38
583.087	201.38
583.298	177.38
583.508	199.38
583.719	204.38
583.929	198.38
584.139	188.38
584.35	179.38
584.56	185.38
584.77	180.38
584.981	188.38
585.191	188.38
585.401	178.38
585.611	188.38
585.821	169.38
586.032	179.38
586.242	183.38
586.452	189.38
586.662	187.38
586.872	187.38
587.082	187.38
587.292	178.38
587.502	183.38
587.713	172.38
587.923	163.38
588.133	190.38
588.343	180.38
588.553	191.38
588.762	199.38
588.972	181.38
589.182	182.38
589.392	198.38
589.602	185.38
589.812	189.38
590.022	203.38
590.232	199.38
590.441	191.38
590.651	174.38
590.861	169.38
591.071	196.38
591.281	181.38
591.49	191.38
591.7	176.38
591.91	207.38
592.119	199.38
592.329	191.38
592.539	206.38
592.748	206.38
592.958	209.38
593.167	191.38
593.377	206.38
593.587	207.38
593.796	214.38
594.006	200.38
594.215	211.38
594.424	200.38
594.634	203.38
594.843	184.38
595.053	194.38
595.262	187.38
595.472	174.38
595.681	199.38
595.89	173.38
596.1	184.38
596.309	181.38
596.518	198.38
596.727	174.38
596.937	177.38
597.146	182.38
597.355	171.38
597.564	179.38
597.774	171.38
597.983	172.38
598.192	167.38
598.401	172.38
598.61	157.38
598.819	156.38
599.028	162.38
599.237	178.38
599.446	183.38
599.655	150.38
599.864	172.38
600.073	157.38
600.282	162.38
600.491	158.38
600.7	158.38
600.909	162.38
601.118	150.38
601.327	175.38
601.536	169.38
601.745	164.38
601.953	172.38
602.162	173.38
602.371	157.38
602.58	170.38
602.789	143.38
602.997	165.38
603.206	168.38
603.415	175.38
603.623	165.38
603.832	173.38
604.041	156.38
604.249	136.38
604.458	161.38
604.666	150.38
604.875	144.38
605.084	167.38
605.292	165.38
605.501	168.38
605.709	155.38
605.918	152.38
606.126	154.38
606.334	158.38
606.543	162.38
606.751	170.38
606.96	165.38
607.168	157.38
607.376	154.38
607.585	179.38
607.793	165.38
608.001	163.38
608.21	160.38
608.418	145.38
608.626	158.38
608.834	151.38
609.043	163.38
609.251	161.38
609.459	148.38
609.667	145.38
609.875	149.38
610.083	159.38
610.291	155.38
610.499	141.38
610.707	157.38
610.916	155.38
611.124	146.38
611.332	156.38
611.54	165.38
611.748	163.38
611.955	161.38
612.163	143.38
612.371	147.38
612.579	141.38
612.787	156.38
612.995	159.38
613.203	140.38
613.411	122.38
613.618	158.38
613.826	157.38
614.034	147.38
614.242	153.38
614.449	154.38
614.657	157.38
614.865	157.38
615.072	155.38
615.28	164.38
615.488	151.38
615.695	155.38
615.903	151.38
616.111	165.38
616.318	148.38
616.526	150.38
616.733	150.38
616.941	171.38
617.148	165.38
617.356	157.38
617.563	148.38
617.771	172.38
617.978	150.38
618.185	159.38
618.393	154.38
618.6	150.38
618.807	148.38
619.015	161.38
619.222	138.38
619.429	137.38
619.637	149.38
619.844	150.38
620.051	143.38
620.258	134.38
620.466	156.38
620.673	153.38
620.88	144.38
621.087	147.38
621.294	152.38
621.501	142.38
621.708	158.38
621.915	156.38
622.122	145.38
622.329	143.38
622.536	149.38
622.743	148.38
622.95	144.38
623.157	138.38
623.364	151.38
623.571	151.38
623.778	122.38
623.985	142.38
624.192	141.38
624.399	151.38
624.606	152.38
624.812	146.38
625.019	139.38
625.226	144.38
625.433	140.38
625.639	149.38
625.846	139.38
626.053	144.38
626.259	140.38
626.466	139.38
626.673	140.38
626.879	123.38
627.086	136.38
627.293	148.38
627.499	136.38
627.706	141.38
627.912	142.38
628.119	139.38
628.325	128.38
628.532	123.38
628.738	130.38
628.945	116.38
629.151	146.38
629.357	132.38
629.564	132.38
629.77	152.38
629.976	139.38
630.183	130.38
630.389	122.38
630.595	133.38
630.802	125.38
631.008	140.38
631.214	128.38
631.42	134.38
631.627	125.38
631.833	131.38
632.039	127.38
632.245	130.38
632.451	136.38
632.657	128.38
632.863	129.38
633.069	140.38
633.275	124.38
633.481	130.38
633.688	134.38
633.893	129.38
634.099	124.38
634.305	139.38
634.511	147.38
634.717	134.38
634.923	126.38
635.129	121.38
635.335	121.38
635.541	122.38
635.747	130.38
635.952	110.38
636.158	135.38
636.364	123.38
636.57	131.38
636.775	131.38
636.981	105.38
637.187	115.38
637.392	114.38
637.598	126.38
637.804	141.38
638.009	137.38
638.215	128.38
638.421	133.38
638.626	123.38
638.832	119.38
639.037	122.38
639.243	120.38
639.448	115.38
639.654	130.38
639.859	131.38
640.065	123.38
640.27	141.38
640.475	125.38
640.681	131.38
640.886	129.38
641.091	106.38
641.297	121.38
641.502	118.38
641.707	125.38
641.913	121.38
642.118	123.38
642.323	118.38
642.528	117.38
642.733	130.38
642.939	132.38
643.144	131.38
643.349	129.38
643.554	139.38
643.759	115.38
643.964	127.38
644.169	127.38
644.374	129.38
644.579	117.38
644.784	124.38
644.989	129.38
645.194	129.38
645.399	126.38
645.604	122.38
645.809	127.38
646.014	120.38
646.219	102.38
646.423	109.38
646.628	125.38
646.833	125.38
647.038	131.38
647.243	130.38
647.447	128.38
647.652	113.38
647.857	126.38
648.062	129.38
648.266	127.38
648.471	134.38
648.676	129.38
648.88	116.38
649.085	113.38
649.289	125.38
649.494	145.38
649.698	115.38
649.903	109.38
650.107	122.38
650.312	127.38
650.516	109.38
650.721	113.38
650.925	117.38
651.13	115.38
651.334	114.38
651.539	122.38
651.743	110.38
651.947	111.38
652.152	104.38
652.356	109.38
652.56	116.38
652.764	127.38
652.969	121.38
653.173	93.38
653.377	105.38
653.581	110.38
653.785	115.38
653.99	107.38
654.194	117.38
654.398	97.38
654.602	116.38
654.806	110.38
655.01	120.38
655.214	109.38
655.418	120.38
655.622	102.38
655.826	117.38
656.03	103.38
656.234	120.38
656.438	115.38
656.642	125.38
656.846	114.38
657.049	107.38
657.253	110.38
657.457	119.38
657.661	106.38
657.865	100.38
658.068	94.38
658.272	111.38
658.476	95.38
658.68	90.38
658.883	92.38
659.087	101.38
659.291	100.38
659.494	84.38
659.698	81.38
659.901	84.38
660.105	83.38
660.309	85.38
660.512	84.38
660.716	81.38
660.919	83.38
661.123	88.38
661.326	91.38
661.53	92.38
661.733	104.38
661.936	99.38
662.14	83.38
662.343	86.38
662.546	88.38
662.75	82.38
662.953	82.38
663.156	83.38
663.36	93.38
663.563	76.38
663.766	79.38
663.969	85.38
664.173	91.38
664.376	77.38
664.579	97.38
664.782	82.38
664.985	89.38
665.188	80.38
665.391	75.38
665.594	79.38
665.797	70.38
666	81.38
666.203	89.38
666.406	75.38
666.609	81.38
666.812	98.38
667.015	78.38
667.218	76.38
667.421	95.38
667.624	90.38
667.827	84.38
668.03	85.38
668.232	86.38
668.435	79.38
668.638	87.38
668.841	80.38
669.043	84.38
669.246	87.38
669.449	76.38
669.651	78.38
669.854	76.38
670.057	87.38
670.259	84.38
670.462	95.38
670.665	81.38
670.867	79.38
671.07	78.38
671.272	80.38
671.475	82.38
671.677	93.38
671.88	86.38
672.082	94.38
672.284	87.38
672.487	83.38
672.689	72.38
672.892	90.38
