Data from Fe(NO3)3@0.0125M.TitratingCurve.Agarose3%dH2O.NegLispCup.LampEnergy10.LIBS07252019_HRD10591_16-59-11-337.txt Node
Date: Thu Jul 25 16:59:11 EDT 2019
User: cochatt
Spectrometer: HR+D1059
Trigger mode: 1
Integration Time (sec): 1.000000E-1
Scans to average: 1
Electric dark correction enabled: true
Nonlinearity correction enabled: false
Boxcar width: 0
XAxis mode: Wavelengths
Number of Pixels in Spectrum: 2048
>>>>>Begin Spectral Data<<<<<
223.165	-20.12
223.4	-20.12
223.635	-20.12
223.869	-23.12
224.104	-15.12
224.338	-16.12
224.573	-2.12
224.808	-5.12
225.042	-19.12
225.277	0.88
225.511	-3.12
225.746	-3.12
225.98	7.88
226.215	6.88
226.449	7.88
226.683	30.88
226.918	18.88
227.152	33.88
227.387	39.88
227.621	33.88
227.856	42.88
228.09	47.88
228.324	63.88
228.559	54.88
228.793	78.88
229.027	91.88
229.262	94.88
229.496	100.88
229.73	94.88
229.964	96.88
230.199	106.88
230.433	118.88
230.667	116.88
230.901	113.88
231.136	94.88
231.37	96.88
231.604	111.88
231.838	110.88
232.072	112.88
232.306	117.88
232.541	113.88
232.775	103.88
233.009	118.88
233.243	104.88
233.477	122.88
233.711	123.88
233.945	126.88
234.179	113.88
234.413	115.88
234.647	113.88
234.881	127.88
235.115	126.88
235.349	121.88
235.583	108.88
235.817	128.88
236.051	112.88
236.285	124.88
236.519	129.88
236.753	136.88
236.987	123.88
237.221	115.88
237.455	126.88
237.689	122.88
237.922	132.88
238.156	133.88
238.39	131.88
238.624	133.88
238.858	120.88
239.091	139.88
239.325	122.88
239.559	126.88
239.793	119.88
240.027	134.88
240.26	131.88
240.494	128.88
240.728	153.88
240.961	145.88
241.195	132.88
241.429	146.88
241.662	135.88
241.896	134.88
242.13	135.88
242.363	136.88
242.597	148.88
242.83	152.88
243.064	146.88
243.298	167.88
243.531	143.88
243.765	146.88
243.998	160.88
244.232	154.88
244.465	146.88
244.699	158.88
244.932	160.88
245.166	159.88
245.399	167.88
245.633	163.88
245.866	171.88
246.099	163.88
246.333	155.88
246.566	164.88
246.8	162.88
247.033	152.88
247.266	160.88
247.5	169.88
247.733	160.88
247.966	155.88
248.2	146.88
248.433	166.88
248.666	179.88
248.899	188.88
249.133	184.88
249.366	169.88
249.599	190.88
249.832	162.88
250.066	181.88
250.299	172.88
250.532	190.88
250.765	193.88
250.998	193.88
251.231	163.88
251.465	191.88
251.698	178.88
251.931	183.88
252.164	181.88
252.397	188.88
252.63	193.88
252.863	200.88
253.096	210.88
253.329	185.88
253.562	194.88
253.795	199.88
254.028	182.88
254.261	203.88
254.494	200.88
254.727	201.88
254.96	212.88
255.193	194.88
255.426	193.88
255.659	219.88
255.892	218.88
256.124	201.88
256.357	205.88
256.59	219.88
256.823	211.88
257.056	213.88
257.289	198.88
257.521	224.88
257.754	225.88
257.987	210.88
258.22	218.88
258.452	206.88
258.685	220.88
258.918	230.88
259.151	228.88
259.383	217.88
259.616	220.88
259.849	218.88
260.081	232.88
260.314	216.88
260.547	238.88
260.779	252.88
261.012	238.88
261.244	244.88
261.477	240.88
261.71	228.88
261.942	223.88
262.175	227.88
262.407	236.88
262.64	250.88
262.872	233.88
263.105	246.88
263.337	235.88
263.57	240.88
263.802	232.88
264.035	229.88
264.267	225.88
264.499	219.88
264.732	238.88
264.964	229.88
265.197	239.88
265.429	245.88
265.661	234.88
265.894	242.88
266.126	229.88
266.358	238.88
266.591	252.88
266.823	256.88
267.055	254.88
267.287	250.88
267.52	257.88
267.752	250.88
267.984	264.88
268.216	257.88
268.448	266.88
268.681	271.88
268.913	268.88
269.145	263.88
269.377	262.88
269.609	273.88
269.841	266.88
270.073	280.88
270.306	244.88
270.538	273.88
270.77	278.88
271.002	273.88
271.234	273.88
271.466	276.88
271.698	272.88
271.93	263.88
272.162	288.88
272.394	277.88
272.626	283.88
272.858	286.88
273.09	292.88
273.322	290.88
273.553	301.88
273.785	304.88
274.017	283.88
274.249	315.88
274.481	326.88
274.713	320.88
274.945	324.88
275.176	306.88
275.408	323.88
275.64	309.88
275.872	307.88
276.104	311.88
276.335	312.88
276.567	304.88
276.799	306.88
277.031	327.88
277.262	321.88
277.494	307.88
277.726	312.88
277.957	299.88
278.189	326.88
278.421	295.88
278.652	327.88
278.884	326.88
279.115	327.88
279.347	325.88
279.579	336.88
279.81	338.88
280.042	323.88
280.273	329.88
280.505	328.88
280.736	338.88
280.968	326.88
281.199	322.88
281.431	321.88
281.662	321.88
281.894	337.88
282.125	337.88
282.356	331.88
282.588	324.88
282.819	331.88
283.051	331.88
283.282	351.88
283.513	367.88
283.745	349.88
283.976	359.88
284.207	358.88
284.439	369.88
284.67	362.88
284.901	351.88
285.132	353.88
285.364	367.88
285.595	361.88
285.826	363.88
286.057	345.88
286.288	337.88
286.52	364.88
286.751	380.88
286.982	378.88
287.213	384.88
287.444	356.88
287.675	366.88
287.906	366.88
288.138	382.88
288.369	391.88
288.6	377.88
288.831	403.88
289.062	380.88
289.293	371.88
289.524	391.88
289.755	384.88
289.986	409.88
290.217	392.88
290.448	387.88
290.679	386.88
290.91	380.88
291.141	368.88
291.371	388.88
291.602	381.88
291.833	390.88
292.064	376.88
292.295	372.88
292.526	406.88
292.757	378.88
292.987	374.88
293.218	387.88
293.449	392.88
293.68	374.88
293.91	386.88
294.141	396.88
294.372	399.88
294.603	378.88
294.833	394.88
295.064	408.88
295.295	386.88
295.525	406.88
295.756	415.88
295.987	420.88
296.217	403.88
296.448	418.88
296.679	382.88
296.909	419.88
297.14	404.88
297.37	412.88
297.601	408.88
297.831	416.88
298.062	385.88
298.292	426.88
298.523	426.88
298.753	441.88
298.984	419.88
299.214	418.88
299.445	435.88
299.675	434.88
299.905	425.88
300.136	438.88
300.366	420.88
300.597	420.88
300.827	434.88
301.057	424.88
301.288	425.88
301.518	457.88
301.748	447.88
301.979	418.88
302.209	446.88
302.439	458.88
302.669	439.88
302.9	450.88
303.13	444.88
303.36	452.88
303.59	434.88
303.82	440.88
304.051	455.88
304.281	475.88
304.511	459.88
304.741	460.88
304.971	470.88
305.201	461.88
305.431	477.88
305.661	475.88
305.891	458.88
306.121	476.88
306.352	480.88
306.582	459.88
306.812	454.88
307.042	474.88
307.272	463.88
307.502	454.88
307.731	458.88
307.961	462.88
308.191	454.88
308.421	483.88
308.651	464.88
308.881	440.88
309.111	494.88
309.341	484.88
309.571	492.88
309.8	491.88
310.03	484.88
310.26	491.88
310.49	482.88
310.72	484.88
310.949	490.88
311.179	478.88
311.409	480.88
311.639	486.88
311.868	500.88
312.098	502.88
312.328	475.88
312.557	507.88
312.787	500.88
313.017	451.88
313.246	494.88
313.476	510.88
313.706	495.88
313.935	497.88
314.165	511.88
314.394	514.88
314.624	511.88
314.853	506.88
315.083	521.88
315.312	488.88
315.542	525.88
315.771	535.88
316.001	502.88
316.23	521.88
316.46	523.88
316.689	537.88
316.919	539.88
317.148	547.88
317.377	530.88
317.607	511.88
317.836	538.88
318.065	525.88
318.295	513.88
318.524	527.88
318.753	532.88
318.983	524.88
319.212	521.88
319.441	564.88
319.67	561.88
319.9	543.88
320.129	547.88
320.358	546.88
320.587	535.88
320.816	547.88
321.046	547.88
321.275	556.88
321.504	548.88
321.733	547.88
321.962	549.88
322.191	570.88
322.42	547.88
322.649	529.88
322.878	565.88
323.108	533.88
323.337	563.88
323.566	555.88
323.795	567.88
324.024	565.88
324.253	554.88
324.482	584.88
324.71	582.88
324.939	582.88
325.168	570.88
325.397	560.88
325.626	558.88
325.855	579.88
326.084	582.88
326.313	582.88
326.542	559.88
326.77	567.88
326.999	556.88
327.228	593.88
327.457	587.88
327.686	580.88
327.914	610.88
328.143	574.88
328.372	569.88
328.6	595.88
328.829	574.88
329.058	584.88
329.287	586.88
329.515	596.88
329.744	598.88
329.972	586.88
330.201	575.88
330.43	582.88
330.658	581.88
330.887	619.88
331.115	600.88
331.344	589.88
331.572	601.88
331.801	586.88
332.03	610.88
332.258	635.88
332.486	619.88
332.715	622.88
332.943	614.88
333.172	611.88
333.4	602.88
333.629	633.88
333.857	618.88
334.085	611.88
334.314	633.88
334.542	622.88
334.771	644.88
334.999	635.88
335.227	636.88
335.455	644.88
335.684	622.88
335.912	638.88
336.14	627.88
336.369	648.88
336.597	646.88
336.825	647.88
337.053	642.88
337.281	638.88
337.51	637.88
337.738	646.88
337.966	643.88
338.194	640.88
338.422	656.88
338.65	652.88
338.878	624.88
339.106	631.88
339.334	638.88
339.562	632.88
339.79	644.88
340.018	628.88
340.246	621.88
340.474	606.88
340.702	607.88
340.93	614.88
341.158	626.88
341.386	627.88
341.614	639.88
341.842	627.88
342.07	635.88
342.298	631.88
342.526	627.88
342.754	626.88
342.981	622.88
343.209	628.88
343.437	634.88
343.665	626.88
343.893	634.88
344.12	642.88
344.348	644.88
344.576	643.88
344.804	652.88
345.031	641.88
345.259	638.88
345.487	632.88
345.714	667.88
345.942	611.88
346.17	634.88
346.397	630.88
346.625	635.88
346.853	626.88
347.08	600.88
347.308	622.88
347.535	630.88
347.763	629.88
347.99	644.88
348.218	615.88
348.445	610.88
348.673	624.88
348.9	626.88
349.128	633.88
349.355	641.88
349.583	633.88
349.81	629.88
350.037	611.88
350.265	609.88
350.492	646.88
350.72	627.88
350.947	611.88
351.174	605.88
351.402	610.88
351.629	623.88
351.856	632.88
352.083	637.88
352.311	627.88
352.538	624.88
352.765	602.88
352.992	628.88
353.22	594.88
353.447	622.88
353.674	618.88
353.901	620.88
354.128	616.88
354.355	610.88
354.583	605.88
354.81	613.88
355.037	619.88
355.264	630.88
355.491	609.88
355.718	626.88
355.945	629.88
356.172	619.88
356.399	594.88
356.626	612.88
356.853	635.88
357.08	624.88
357.307	610.88
357.534	614.88
357.761	608.88
357.988	620.88
358.215	615.88
358.441	643.88
358.668	632.88
358.895	617.88
359.122	610.88
359.349	615.88
359.576	634.88
359.802	623.88
360.029	634.88
360.256	635.88
360.483	627.88
360.709	629.88
360.936	619.88
361.163	615.88
361.39	619.88
361.616	631.88
361.843	628.88
362.07	635.88
362.296	629.88
362.523	646.88
362.749	653.88
362.976	628.88
363.203	655.88
363.429	653.88
363.656	646.88
363.882	652.88
364.109	625.88
364.335	636.88
364.562	656.88
364.788	632.88
365.015	625.88
365.241	634.88
365.468	648.88
365.694	612.88
365.92	666.88
366.147	636.88
366.373	665.88
366.599	641.88
366.826	653.88
367.052	634.88
367.278	652.88
367.505	660.88
367.731	655.88
367.957	664.88
368.184	667.88
368.41	643.88
368.636	673.88
368.862	646.88
369.089	666.88
369.315	671.88
369.541	656.88
369.767	649.88
369.993	636.88
370.219	645.88
370.445	657.88
370.672	685.88
370.898	667.88
371.124	666.88
371.35	664.88
371.576	677.88
371.802	670.88
372.028	682.88
372.254	682.88
372.48	663.88
372.706	706.88
372.932	660.88
373.158	686.88
373.384	689.88
373.61	653.88
373.835	661.88
374.061	698.88
374.287	683.88
374.513	678.88
374.739	682.88
374.965	662.88
375.191	704.88
375.416	692.88
375.642	663.88
375.868	674.88
376.094	683.88
376.319	695.88
376.545	678.88
376.771	692.88
376.997	676.88
377.222	652.88
377.448	653.88
377.674	665.88
377.899	670.88
378.125	661.88
378.35	654.88
378.576	662.88
378.802	666.88
379.027	667.88
379.253	674.88
379.478	698.88
379.704	678.88
379.929	683.88
380.155	655.88
380.38	684.88
380.606	664.88
380.831	681.88
381.057	674.88
381.282	673.88
381.507	697.88
381.733	694.88
381.958	682.88
382.184	692.88
382.409	700.88
382.634	679.88
382.86	670.88
383.085	692.88
383.31	704.88
383.535	693.88
383.761	707.88
383.986	693.88
384.211	703.88
384.436	714.88
384.662	697.88
384.887	697.88
385.112	699.88
385.337	700.88
385.562	696.88
385.787	735.88
386.013	734.88
386.238	725.88
386.463	729.88
386.688	705.88
386.913	741.88
387.138	732.88
387.363	729.88
387.588	726.88
387.813	709.88
388.038	731.88
388.263	725.88
388.488	738.88
388.713	712.88
388.938	715.88
389.163	695.88
389.387	734.88
389.612	727.88
389.837	720.88
390.062	751.88
390.287	727.88
390.512	738.88
390.736	743.88
390.961	722.88
391.186	706.88
391.411	742.88
391.636	733.88
391.86	745.88
392.085	780.88
392.31	734.88
392.534	726.88
392.759	732.88
392.984	759.88
393.208	755.88
393.433	744.88
393.658	772.88
393.882	711.88
394.107	754.88
394.331	745.88
394.556	733.88
394.78	743.88
395.005	751.88
395.229	750.88
395.454	740.88
395.678	766.88
395.903	761.88
396.127	767.88
396.352	747.88
396.576	762.88
396.801	752.88
397.025	752.88
397.249	767.88
397.474	774.88
397.698	763.88
397.922	793.88
398.147	756.88
398.371	824.88
398.595	791.88
398.82	826.88
399.044	801.88
399.268	805.88
399.492	826.88
399.717	832.88
399.941	841.88
400.165	858.88
400.389	833.88
400.613	800.88
400.837	800.88
401.062	822.88
401.286	808.88
401.51	831.88
401.734	828.88
401.958	816.88
402.182	786.88
402.406	809.88
402.63	814.88
402.854	824.88
403.078	793.88
403.302	819.88
403.526	785.88
403.75	802.88
403.974	802.88
404.198	803.88
404.422	811.88
404.645	803.88
404.869	811.88
405.093	792.88
405.317	782.88
405.541	814.88
405.765	819.88
405.988	831.88
406.212	806.88
406.436	812.88
406.66	834.88
406.883	831.88
407.107	808.88
407.331	850.88
407.555	848.88
407.778	841.88
408.002	880.88
408.226	842.88
408.449	874.88
408.673	858.88
408.896	851.88
409.12	851.88
409.344	856.88
409.567	837.88
409.791	865.88
410.014	878.88
410.238	843.88
410.461	832.88
410.685	815.88
410.908	796.88
411.132	809.88
411.355	803.88
411.578	811.88
411.802	795.88
412.025	810.88
412.249	831.88
412.472	816.88
412.695	822.88
412.919	779.88
413.142	818.88
413.365	805.88
413.589	792.88
413.812	788.88
414.035	814.88
414.258	800.88
414.482	802.88
414.705	792.88
414.928	780.88
415.151	794.88
415.374	787.88
415.597	774.88
415.821	780.88
416.044	796.88
416.267	782.88
416.49	782.88
416.713	791.88
416.936	804.88
417.159	779.88
417.382	760.88
417.605	750.88
417.828	766.88
418.051	793.88
418.274	776.88
418.497	743.88
418.72	774.88
418.943	739.88
419.166	792.88
419.389	839.88
419.611	792.88
419.834	793.88
420.057	780.88
420.28	774.88
420.503	719.88
420.726	726.88
420.948	766.88
421.171	764.88
421.394	753.88
421.617	742.88
421.839	766.88
422.062	758.88
422.285	770.88
422.507	738.88
422.73	775.88
422.953	760.88
423.175	745.88
423.398	741.88
423.621	748.88
423.843	753.88
424.066	771.88
424.288	717.88
424.511	751.88
424.733	736.88
424.956	727.88
425.178	750.88
425.401	776.88
425.623	763.88
425.846	734.88
426.068	757.88
426.291	744.88
426.513	750.88
426.735	749.88
426.958	758.88
427.18	734.88
427.402	731.88
427.625	774.88
427.847	747.88
428.069	750.88
428.292	734.88
428.514	736.88
428.736	739.88
428.958	743.88
429.181	738.88
429.403	745.88
429.625	736.88
429.847	732.88
430.069	717.88
430.292	743.88
430.514	733.88
430.736	749.88
430.958	759.88
431.18	735.88
431.402	748.88
431.624	735.88
431.846	754.88
432.068	729.88
432.29	741.88
432.512	747.88
432.734	764.88
432.956	747.88
433.178	732.88
433.4	733.88
433.622	749.88
433.844	769.88
434.066	726.88
434.287	738.88
434.509	732.88
434.731	720.88
434.953	746.88
435.175	754.88
435.397	755.88
435.618	723.88
435.84	727.88
436.062	731.88
436.284	730.88
436.505	712.88
436.727	728.88
436.949	725.88
437.17	716.88
437.392	715.88
437.614	742.88
437.835	704.88
438.057	737.88
438.278	750.88
438.5	720.88
438.721	709.88
438.943	722.88
439.165	713.88
439.386	735.88
439.608	743.88
439.829	721.88
440.05	718.88
440.272	729.88
440.493	740.88
440.715	732.88
440.936	744.88
441.158	735.88
441.379	707.88
441.6	729.88
441.822	735.88
442.043	704.88
442.264	745.88
442.486	736.88
442.707	750.88
442.928	750.88
443.149	740.88
443.371	727.88
443.592	724.88
443.813	748.88
444.034	739.88
444.255	750.88
444.476	747.88
444.698	751.88
444.919	740.88
445.14	841.88
445.361	757.88
445.582	720.88
445.803	736.88
446.024	742.88
446.245	753.88
446.466	731.88
446.687	714.88
446.908	725.88
447.129	688.88
447.35	726.88
447.571	701.88
447.792	699.88
448.013	732.88
448.234	694.88
448.455	679.88
448.675	707.88
448.896	715.88
449.117	696.88
449.338	681.88
449.559	682.88
449.779	676.88
450	690.88
450.221	674.88
450.442	700.88
450.662	710.88
450.883	670.88
451.104	714.88
451.324	692.88
451.545	678.88
451.766	685.88
451.986	691.88
452.207	682.88
452.428	672.88
452.648	673.88
452.869	688.88
453.089	672.88
453.31	655.88
453.53	670.88
453.751	680.88
453.971	680.88
454.192	684.88
454.412	651.88
454.633	665.88
454.853	672.88
455.073	679.88
455.294	667.88
455.514	656.88
455.734	680.88
455.955	664.88
456.175	643.88
456.395	675.88
456.616	669.88
456.836	656.88
457.056	687.88
457.276	666.88
457.497	679.88
457.717	652.88
457.937	681.88
458.157	684.88
458.377	671.88
458.598	699.88
458.818	699.88
459.038	687.88
459.258	675.88
459.478	685.88
459.698	706.88
459.918	687.88
460.138	723.88
460.358	720.88
460.578	721.88
460.798	730.88
461.018	733.88
461.238	732.88
461.458	746.88
461.678	742.88
461.898	779.88
462.118	704.88
462.338	734.88
462.558	766.88
462.777	745.88
462.997	781.88
463.217	784.88
463.437	786.88
463.657	771.88
463.876	791.88
464.096	778.88
464.316	759.88
464.536	766.88
464.755	730.88
464.975	751.88
465.195	738.88
465.414	764.88
465.634	718.88
465.854	717.88
466.073	731.88
466.293	716.88
466.512	714.88
466.732	731.88
466.951	745.88
467.171	714.88
467.391	711.88
467.61	747.88
467.829	729.88
468.049	709.88
468.268	712.88
468.488	717.88
468.707	704.88
468.927	718.88
469.146	695.88
469.365	748.88
469.585	712.88
469.804	722.88
470.023	730.88
470.243	716.88
470.462	706.88
470.681	708.88
470.901	727.88
471.12	726.88
471.339	720.88
471.558	735.88
471.777	747.88
471.997	737.88
472.216	736.88
472.435	726.88
472.654	730.88
472.873	734.88
473.092	762.88
473.311	741.88
473.53	758.88
473.749	745.88
473.968	762.88
474.187	735.88
474.406	740.88
474.625	730.88
474.844	774.88
475.063	753.88
475.282	769.88
475.501	756.88
475.72	755.88
475.939	791.88
476.158	767.88
476.377	789.88
476.596	770.88
476.814	794.88
477.033	778.88
477.252	809.88
477.471	810.88
477.69	814.88
477.908	816.88
478.127	809.88
478.346	811.88
478.564	834.88
478.783	835.88
479.002	830.88
479.22	848.88
479.439	850.88
479.658	860.88
479.876	841.88
480.095	847.88
480.313	862.88
480.532	856.88
480.751	879.88
480.969	881.88
481.188	891.88
481.406	881.88
481.624	873.88
481.843	883.88
482.061	894.88
482.28	878.88
482.498	870.88
482.717	897.88
482.935	891.88
483.153	903.88
483.372	884.88
483.59	878.88
483.808	869.88
484.027	896.88
484.245	907.88
484.463	880.88
484.681	918.88
484.9	886.88
485.118	873.88
485.336	923.88
485.554	897.88
485.772	888.88
485.99	918.88
486.209	902.88
486.427	902.88
486.645	930.88
486.863	904.88
487.081	904.88
487.299	916.88
487.517	917.88
487.735	922.88
487.953	904.88
488.171	927.88
488.389	905.88
488.607	908.88
488.825	913.88
489.043	913.88
489.261	901.88
489.479	923.88
489.696	911.88
489.914	938.88
490.132	947.88
490.35	938.88
490.568	912.88
490.786	907.88
491.003	934.88
491.221	913.88
491.439	937.88
491.657	921.88
491.874	923.88
492.092	932.88
492.31	941.88
492.527	955.88
492.745	919.88
492.963	947.88
493.18	948.88
493.398	945.88
493.615	922.88
493.833	945.88
494.05	961.88
494.268	929.88
494.485	943.88
494.703	934.88
494.92	938.88
495.138	965.88
495.355	948.88
495.573	938.88
495.79	978.88
496.008	968.88
496.225	975.88
496.442	959.88
496.66	970.88
496.877	961.88
497.094	1002.88
497.312	1000.88
497.529	986.88
497.746	1003.88
497.963	1010.88
498.181	1004.88
498.398	1004.88
498.615	1039.88
498.832	1083.88
499.049	1063.88
499.267	1081.88
499.484	1084.88
499.701	1118.88
499.918	1126.88
500.135	1142.88
500.352	1154.88
500.569	1138.88
500.786	1171.88
501.003	1145.88
501.22	1118.88
501.437	1115.88
501.654	1099.88
501.871	1099.88
502.088	1121.88
502.305	1064.88
502.522	1065.88
502.739	1075.88
502.956	1029.88
503.172	1039.88
503.389	995.88
503.606	951.88
503.823	956.88
504.04	956.88
504.256	952.88
504.473	951.88
504.69	936.88
504.907	949.88
505.123	936.88
505.34	942.88
505.557	928.88
505.773	918.88
505.99	929.88
506.207	905.88
506.423	893.88
506.64	885.88
506.856	873.88
507.073	894.88
507.289	908.88
507.506	835.88
507.722	906.88
507.939	880.88
508.155	848.88
508.372	853.88
508.588	847.88
508.805	825.88
509.021	841.88
509.238	844.88
509.454	838.88
509.67	817.88
509.887	835.88
510.103	794.88
510.319	849.88
510.536	814.88
510.752	807.88
510.968	826.88
511.184	809.88
511.401	824.88
511.617	810.88
511.833	816.88
512.049	798.88
512.265	815.88
512.481	831.88
512.698	809.88
512.914	784.88
513.13	812.88
513.346	820.88
513.562	814.88
513.778	807.88
513.994	810.88
514.21	775.88
514.426	805.88
514.642	798.88
514.858	798.88
515.074	808.88
515.29	831.88
515.506	829.88
515.721	799.88
515.937	823.88
516.153	833.88
516.369	811.88
516.585	818.88
516.801	832.88
517.016	810.88
517.232	831.88
517.448	848.88
517.664	823.88
517.879	799.88
518.095	817.88
518.311	809.88
518.527	823.88
518.742	798.88
518.958	802.88
519.173	795.88
519.389	813.88
519.605	817.88
519.82	826.88
520.036	800.88
520.251	785.88
520.467	777.88
520.682	802.88
520.898	760.88
521.113	798.88
521.329	777.88
521.544	764.88
521.76	759.88
521.975	791.88
522.19	742.88
522.406	787.88
522.621	768.88
522.836	771.88
523.052	762.88
523.267	767.88
523.482	744.88
523.698	752.88
523.913	765.88
524.128	762.88
524.343	745.88
524.559	750.88
524.774	731.88
524.989	743.88
525.204	749.88
525.419	769.88
525.634	748.88
525.849	725.88
526.064	761.88
526.28	773.88
526.495	732.88
526.71	731.88
526.925	718.88
527.14	710.88
527.355	742.88
527.57	724.88
527.785	727.88
527.999	708.88
528.214	723.88
528.429	726.88
528.644	727.88
528.859	764.88
529.074	722.88
529.289	752.88
529.503	743.88
529.718	732.88
529.933	729.88
530.148	728.88
530.363	712.88
530.577	714.88
530.792	719.88
531.007	738.88
531.221	715.88
531.436	740.88
531.651	718.88
531.865	693.88
532.08	694.88
532.295	724.88
532.509	729.88
532.724	703.88
532.938	721.88
533.153	707.88
533.367	698.88
533.582	703.88
533.796	692.88
534.011	706.88
534.225	705.88
534.44	688.88
534.654	702.88
534.868	699.88
535.083	687.88
535.297	695.88
535.511	716.88
535.726	690.88
535.94	678.88
536.154	664.88
536.369	672.88
536.583	691.88
536.797	707.88
537.011	661.88
537.225	676.88
537.44	666.88
537.654	682.88
537.868	694.88
538.082	670.88
538.296	662.88
538.51	659.88
538.724	661.88
538.938	654.88
539.153	660.88
539.367	681.88
539.581	657.88
539.795	671.88
540.009	672.88
540.222	673.88
540.436	689.88
540.65	666.88
540.864	660.88
541.078	677.88
541.292	636.88
541.506	648.88
541.72	687.88
541.934	661.88
542.147	673.88
542.361	660.88
542.575	629.88
542.789	634.88
543.002	644.88
543.216	633.88
543.43	641.88
543.644	643.88
543.857	657.88
544.071	625.88
544.285	648.88
544.498	651.88
544.712	667.88
544.925	636.88
545.139	657.88
545.352	642.88
545.566	637.88
545.779	628.88
545.993	651.88
546.206	646.88
546.42	627.88
546.633	642.88
546.847	651.88
547.06	630.88
547.274	620.88
547.487	631.88
547.7	655.88
547.914	657.88
548.127	647.88
548.34	630.88
548.554	630.88
548.767	646.88
548.98	621.88
549.193	623.88
549.407	616.88
549.62	658.88
549.833	648.88
550.046	652.88
550.259	626.88
550.473	628.88
550.686	623.88
550.899	631.88
551.112	619.88
551.325	607.88
551.538	612.88
551.751	619.88
551.964	622.88
552.177	630.88
552.39	592.88
552.603	599.88
552.816	622.88
553.029	594.88
553.242	604.88
553.455	637.88
553.667	606.88
553.88	623.88
554.093	611.88
554.306	615.88
554.519	604.88
554.732	594.88
554.944	579.88
555.157	592.88
555.37	579.88
555.583	577.88
555.795	601.88
556.008	583.88
556.221	577.88
556.433	569.88
556.646	564.88
556.859	576.88
557.071	577.88
557.284	601.88
557.496	594.88
557.709	564.88
557.921	554.88
558.134	547.88
558.346	575.88
558.559	595.88
558.771	566.88
558.984	534.88
559.196	560.88
559.409	551.88
559.621	537.88
559.833	537.88
560.046	541.88
560.258	539.88
560.47	555.88
560.683	543.88
560.895	566.88
561.107	555.88
561.32	568.88
561.532	559.88
561.744	547.88
561.956	560.88
562.168	553.88
562.381	556.88
562.593	551.88
562.805	559.88
563.017	542.88
563.229	545.88
563.441	544.88
563.653	566.88
563.865	536.88
564.077	554.88
564.289	531.88
564.501	526.88
564.713	577.88
564.925	571.88
565.137	564.88
565.349	553.88
565.561	562.88
565.773	566.88
565.985	567.88
566.197	554.88
566.408	571.88
566.62	568.88
566.832	582.88
567.044	589.88
567.255	572.88
567.467	554.88
567.679	574.88
567.891	569.88
568.102	568.88
568.314	552.88
568.526	542.88
568.737	572.88
568.949	545.88
569.161	562.88
569.372	527.88
569.584	517.88
569.795	508.88
570.007	510.88
570.218	500.88
570.43	509.88
570.641	510.88
570.853	498.88
571.064	497.88
571.276	488.88
571.487	490.88
571.698	476.88
571.91	462.88
572.121	497.88
572.333	459.88
572.544	447.88
572.755	480.88
572.966	465.88
573.178	468.88
573.389	442.88
573.6	459.88
573.811	467.88
574.023	450.88
574.234	444.88
574.445	451.88
574.656	446.88
574.867	452.88
575.078	458.88
575.289	454.88
575.501	445.88
575.712	425.88
575.923	437.88
576.134	418.88
576.345	444.88
576.556	444.88
576.767	426.88
576.978	430.88
577.188	435.88
577.399	445.88
577.61	415.88
577.821	425.88
578.032	409.88
578.243	420.88
578.454	423.88
578.665	430.88
578.875	394.88
579.086	407.88
579.297	424.88
579.508	421.88
579.718	408.88
579.929	419.88
580.14	409.88
580.35	395.88
580.561	420.88
580.772	408.88
580.982	400.88
581.193	395.88
581.403	376.88
581.614	402.88
581.825	402.88
582.035	395.88
582.246	382.88
582.456	379.88
582.667	407.88
582.877	382.88
583.087	384.88
583.298	404.88
583.508	408.88
583.719	395.88
583.929	404.88
584.139	378.88
584.35	377.88
584.56	404.88
584.77	379.88
584.981	377.88
585.191	392.88
585.401	393.88
585.611	394.88
585.821	363.88
586.032	396.88
586.242	388.88
586.452	373.88
586.662	379.88
586.872	363.88
587.082	361.88
587.292	374.88
587.502	360.88
587.713	352.88
587.923	384.88
588.133	371.88
588.343	371.88
588.553	363.88
588.762	355.88
588.972	373.88
589.182	382.88
589.392	368.88
589.602	364.88
589.812	377.88
590.022	355.88
590.232	366.88
590.441	370.88
590.651	352.88
590.861	357.88
591.071	371.88
591.281	349.88
591.49	366.88
591.7	373.88
591.91	348.88
592.119	375.88
592.329	354.88
592.539	359.88
592.748	369.88
592.958	342.88
593.167	355.88
593.377	353.88
593.587	358.88
593.796	351.88
594.006	365.88
594.215	363.88
594.424	350.88
594.634	352.88
594.843	336.88
595.053	340.88
595.262	340.88
595.472	334.88
595.681	334.88
595.89	327.88
596.1	344.88
596.309	342.88
596.518	353.88
596.727	338.88
596.937	330.88
597.146	312.88
597.355	324.88
597.564	314.88
597.774	334.88
597.983	321.88
598.192	323.88
598.401	318.88
598.61	332.88
598.819	333.88
599.028	329.88
599.237	327.88
599.446	314.88
599.655	326.88
599.864	313.88
600.073	307.88
600.282	312.88
600.491	308.88
600.7	306.88
600.909	307.88
601.118	305.88
601.327	306.88
601.536	303.88
601.745	316.88
601.953	322.88
602.162	302.88
602.371	308.88
602.58	298.88
602.789	298.88
602.997	304.88
603.206	298.88
603.415	300.88
603.623	295.88
603.832	293.88
604.041	303.88
604.249	313.88
604.458	298.88
604.666	294.88
604.875	278.88
605.084	286.88
605.292	296.88
605.501	308.88
605.709	293.88
605.918	293.88
606.126	282.88
606.334	286.88
606.543	288.88
606.751	294.88
606.96	290.88
607.168	295.88
607.376	287.88
607.585	283.88
607.793	288.88
608.001	291.88
608.21	279.88
608.418	296.88
608.626	288.88
608.834	282.88
609.043	273.88
609.251	280.88
609.459	273.88
609.667	300.88
609.875	284.88
610.083	290.88
610.291	284.88
610.499	275.88
610.707	277.88
610.916	294.88
611.124	287.88
611.332	284.88
611.54	279.88
611.748	280.88
611.955	276.88
612.163	261.88
612.371	276.88
612.579	274.88
612.787	270.88
612.995	266.88
613.203	260.88
613.411	275.88
613.618	298.88
613.826	270.88
614.034	299.88
614.242	276.88
614.449	264.88
614.657	279.88
614.865	282.88
615.072	264.88
615.28	274.88
615.488	266.88
615.695	265.88
615.903	286.88
616.111	268.88
616.318	291.88
616.526	274.88
616.733	277.88
616.941	276.88
617.148	269.88
617.356	277.88
617.563	271.88
617.771	252.88
617.978	275.88
618.185	275.88
618.393	273.88
618.6	259.88
618.807	245.88
619.015	260.88
619.222	258.88
619.429	246.88
619.637	263.88
619.844	259.88
620.051	257.88
620.258	239.88
620.466	245.88
620.673	258.88
620.88	247.88
621.087	245.88
621.294	234.88
621.501	255.88
621.708	248.88
621.915	241.88
622.122	260.88
622.329	254.88
622.536	253.88
622.743	225.88
622.95	250.88
623.157	252.88
623.364	267.88
623.571	254.88
623.778	272.88
623.985	250.88
624.192	226.88
624.399	247.88
624.606	214.88
624.812	239.88
625.019	244.88
625.226	243.88
625.433	225.88
625.639	238.88
625.846	232.88
626.053	222.88
626.259	228.88
626.466	221.88
626.673	228.88
626.879	228.88
627.086	223.88
627.293	248.88
627.499	234.88
627.706	225.88
627.912	230.88
628.119	222.88
628.325	217.88
628.532	230.88
628.738	218.88
628.945	225.88
629.151	230.88
629.357	233.88
629.564	234.88
629.77	235.88
629.976	217.88
630.183	232.88
630.389	222.88
630.595	220.88
630.802	224.88
631.008	225.88
631.214	228.88
631.42	218.88
631.627	229.88
631.833	213.88
632.039	223.88
632.245	207.88
632.451	217.88
632.657	227.88
632.863	208.88
633.069	208.88
633.275	215.88
633.481	224.88
633.688	216.88
633.893	209.88
634.099	212.88
634.305	201.88
634.511	201.88
634.717	216.88
634.923	203.88
635.129	220.88
635.335	188.88
635.541	222.88
635.747	205.88
635.952	208.88
636.158	228.88
636.364	216.88
636.57	209.88
636.775	212.88
636.981	219.88
637.187	204.88
637.392	214.88
637.598	198.88
637.804	219.88
638.009	204.88
638.215	199.88
638.421	208.88
638.626	194.88
638.832	212.88
639.037	211.88
639.243	200.88
639.448	204.88
639.654	204.88
639.859	200.88
640.065	190.88
640.27	216.88
640.475	203.88
640.681	197.88
640.886	191.88
641.091	193.88
641.297	202.88
641.502	200.88
641.707	180.88
641.913	205.88
642.118	204.88
642.323	203.88
642.528	191.88
642.733	207.88
642.939	187.88
643.144	187.88
643.349	187.88
643.554	198.88
643.759	218.88
643.964	201.88
644.169	212.88
644.374	193.88
644.579	194.88
644.784	190.88
644.989	200.88
645.194	207.88
645.399	204.88
645.604	192.88
645.809	200.88
646.014	203.88
646.219	204.88
646.423	175.88
646.628	188.88
646.833	190.88
647.038	197.88
647.243	200.88
647.447	202.88
647.652	185.88
647.857	195.88
648.062	191.88
648.266	180.88
648.471	194.88
648.676	180.88
648.88	191.88
649.085	191.88
649.289	198.88
649.494	197.88
649.698	193.88
649.903	187.88
650.107	192.88
650.312	178.88
650.516	192.88
650.721	195.88
650.925	190.88
651.13	170.88
651.334	178.88
651.539	186.88
651.743	193.88
651.947	187.88
652.152	195.88
652.356	190.88
652.56	177.88
652.764	168.88
652.969	170.88
653.173	169.88
653.377	166.88
653.581	171.88
653.785	150.88
653.99	175.88
654.194	173.88
654.398	166.88
654.602	176.88
654.806	174.88
655.01	166.88
655.214	174.88
655.418	152.88
655.622	178.88
655.826	171.88
656.03	170.88
656.234	175.88
656.438	184.88
656.642	168.88
656.846	161.88
657.049	146.88
657.253	164.88
657.457	159.88
657.661	138.88
657.865	142.88
658.068	135.88
658.272	122.88
658.476	133.88
658.68	121.88
658.883	113.88
659.087	139.88
659.291	124.88
659.494	116.88
659.698	118.88
659.901	132.88
660.105	116.88
660.309	108.88
660.512	101.88
660.716	107.88
660.919	105.88
661.123	92.88
661.326	96.88
661.53	100.88
661.733	99.88
661.936	95.88
662.14	89.88
662.343	98.88
662.546	94.88
662.75	89.88
662.953	82.88
663.156	75.88
663.36	76.88
663.563	90.88
663.766	86.88
663.969	81.88
664.173	84.88
664.376	77.88
664.579	79.88
664.782	74.88
664.985	84.88
665.188	80.88
665.391	81.88
665.594	84.88
665.797	93.88
666	92.88
666.203	84.88
666.406	75.88
666.609	84.88
666.812	89.88
667.015	87.88
667.218	79.88
667.421	90.88
667.624	62.88
667.827	88.88
668.03	92.88
668.232	70.88
668.435	76.88
668.638	76.88
668.841	75.88
669.043	83.88
669.246	76.88
669.449	67.88
669.651	74.88
669.854	87.88
670.057	88.88
670.259	66.88
670.462	79.88
670.665	82.88
670.867	88.88
671.07	98.88
671.272	68.88
671.475	99.88
671.677	66.88
671.88	75.88
672.082	87.88
672.284	101.88
672.487	72.88
672.689	78.88
672.892	74.88
