Data from Fe(NO3)3@0.025M.TitratingCurve.Agarose3%dH2O.NegLispCup.LampEnergy10.LIBS07252019_HRD10591_16-53-48-335.txt Node
Date: Thu Jul 25 16:53:48 EDT 2019
User: cochatt
Spectrometer: HR+D1059
Trigger mode: 1
Integration Time (sec): 1.000000E-1
Scans to average: 1
Electric dark correction enabled: true
Nonlinearity correction enabled: false
Boxcar width: 0
XAxis mode: Wavelengths
Number of Pixels in Spectrum: 2048
>>>>>Begin Spectral Data<<<<<
223.165	-16.62
223.4	-16.62
223.635	-16.62
223.869	-24.62
224.104	-30.62
224.338	-27.62
224.573	-5.62
224.808	-8.62
225.042	-7.62
225.277	-5.62
225.511	-1.62
225.746	9.38
225.98	4.38
226.215	7.38
226.449	31.38
226.683	21.38
226.918	28.38
227.152	26.38
227.387	23.38
227.621	27.38
227.856	39.38
228.09	35.38
228.324	36.38
228.559	47.38
228.793	59.38
229.027	89.38
229.262	79.38
229.496	77.38
229.73	86.38
229.964	68.38
230.199	89.38
230.433	91.38
230.667	95.38
230.901	88.38
231.136	83.38
231.37	112.38
231.604	95.38
231.838	110.38
232.072	92.38
232.306	94.38
232.541	79.38
232.775	94.38
233.009	104.38
233.243	112.38
233.477	112.38
233.711	113.38
233.945	116.38
234.179	102.38
234.413	110.38
234.647	91.38
234.881	97.38
235.115	111.38
235.349	104.38
235.583	112.38
235.817	89.38
236.051	100.38
236.285	106.38
236.519	96.38
236.753	84.38
236.987	98.38
237.221	110.38
237.455	107.38
237.689	101.38
237.922	126.38
238.156	102.38
238.39	103.38
238.624	95.38
238.858	124.38
239.091	114.38
239.325	113.38
239.559	102.38
239.793	101.38
240.027	111.38
240.26	119.38
240.494	98.38
240.728	126.38
240.961	102.38
241.195	104.38
241.429	107.38
241.662	128.38
241.896	114.38
242.13	114.38
242.363	110.38
242.597	100.38
242.83	122.38
243.064	108.38
243.298	123.38
243.531	112.38
243.765	118.38
243.998	145.38
244.232	127.38
244.465	118.38
244.699	132.38
244.932	130.38
245.166	120.38
245.399	126.38
245.633	116.38
245.866	129.38
246.099	124.38
246.333	135.38
246.566	132.38
246.8	132.38
247.033	131.38
247.266	134.38
247.5	135.38
247.733	136.38
247.966	136.38
248.2	123.38
248.433	131.38
248.666	127.38
248.899	146.38
249.133	145.38
249.366	139.38
249.599	128.38
249.832	149.38
250.066	143.38
250.299	132.38
250.532	131.38
250.765	138.38
250.998	123.38
251.231	131.38
251.465	154.38
251.698	139.38
251.931	128.38
252.164	134.38
252.397	152.38
252.63	151.38
252.863	138.38
253.096	132.38
253.329	148.38
253.562	128.38
253.795	161.38
254.028	160.38
254.261	159.38
254.494	153.38
254.727	147.38
254.96	160.38
255.193	134.38
255.426	154.38
255.659	150.38
255.892	148.38
256.124	167.38
256.357	168.38
256.59	147.38
256.823	133.38
257.056	158.38
257.289	149.38
257.521	156.38
257.754	154.38
257.987	140.38
258.22	160.38
258.452	162.38
258.685	147.38
258.918	165.38
259.151	168.38
259.383	153.38
259.616	161.38
259.849	156.38
260.081	170.38
260.314	187.38
260.547	164.38
260.779	178.38
261.012	169.38
261.244	167.38
261.477	171.38
261.71	186.38
261.942	180.38
262.175	157.38
262.407	167.38
262.64	165.38
262.872	178.38
263.105	161.38
263.337	178.38
263.57	154.38
263.802	161.38
264.035	185.38
264.267	159.38
264.499	178.38
264.732	173.38
264.964	182.38
265.197	168.38
265.429	171.38
265.661	185.38
265.894	188.38
266.126	176.38
266.358	180.38
266.591	191.38
266.823	191.38
267.055	185.38
267.287	182.38
267.52	192.38
267.752	186.38
267.984	186.38
268.216	177.38
268.448	194.38
268.681	190.38
268.913	188.38
269.145	200.38
269.377	203.38
269.609	185.38
269.841	188.38
270.073	182.38
270.306	190.38
270.538	193.38
270.77	185.38
271.002	193.38
271.234	184.38
271.466	187.38
271.698	194.38
271.93	199.38
272.162	204.38
272.394	212.38
272.626	198.38
272.858	216.38
273.09	201.38
273.322	200.38
273.553	197.38
273.785	207.38
274.017	198.38
274.249	213.38
274.481	212.38
274.713	213.38
274.945	218.38
275.176	222.38
275.408	218.38
275.64	219.38
275.872	204.38
276.104	218.38
276.335	217.38
276.567	198.38
276.799	210.38
277.031	210.38
277.262	204.38
277.494	217.38
277.726	209.38
277.957	205.38
278.189	217.38
278.421	216.38
278.652	223.38
278.884	207.38
279.115	219.38
279.347	219.38
279.579	219.38
279.81	212.38
280.042	215.38
280.273	223.38
280.505	218.38
280.736	217.38
280.968	230.38
281.199	222.38
281.431	217.38
281.662	223.38
281.894	227.38
282.125	224.38
282.356	232.38
282.588	210.38
282.819	232.38
283.051	238.38
283.282	228.38
283.513	231.38
283.745	225.38
283.976	228.38
284.207	238.38
284.439	236.38
284.67	232.38
284.901	225.38
285.132	231.38
285.364	230.38
285.595	243.38
285.826	236.38
286.057	257.38
286.288	256.38
286.52	240.38
286.751	260.38
286.982	242.38
287.213	238.38
287.444	232.38
287.675	240.38
287.906	234.38
288.138	249.38
288.369	252.38
288.6	243.38
288.831	252.38
289.062	259.38
289.293	239.38
289.524	243.38
289.755	244.38
289.986	259.38
290.217	235.38
290.448	238.38
290.679	244.38
290.91	242.38
291.141	259.38
291.371	257.38
291.602	252.38
291.833	241.38
292.064	259.38
292.295	240.38
292.526	242.38
292.757	241.38
292.987	253.38
293.218	249.38
293.449	239.38
293.68	270.38
293.91	245.38
294.141	250.38
294.372	268.38
294.603	250.38
294.833	261.38
295.064	251.38
295.295	250.38
295.525	251.38
295.756	278.38
295.987	227.38
296.217	270.38
296.448	258.38
296.679	260.38
296.909	277.38
297.14	264.38
297.37	265.38
297.601	264.38
297.831	246.38
298.062	266.38
298.292	248.38
298.523	263.38
298.753	275.38
298.984	279.38
299.214	270.38
299.445	264.38
299.675	254.38
299.905	280.38
300.136	266.38
300.366	265.38
300.597	282.38
300.827	288.38
301.057	281.38
301.288	282.38
301.518	265.38
301.748	286.38
301.979	274.38
302.209	280.38
302.439	295.38
302.669	289.38
302.9	280.38
303.13	303.38
303.36	291.38
303.59	284.38
303.82	283.38
304.051	297.38
304.281	307.38
304.511	281.38
304.741	288.38
304.971	300.38
305.201	287.38
305.431	288.38
305.661	307.38
305.891	281.38
306.121	294.38
306.352	283.38
306.582	294.38
306.812	295.38
307.042	302.38
307.272	311.38
307.502	288.38
307.731	308.38
307.961	294.38
308.191	292.38
308.421	297.38
308.651	290.38
308.881	285.38
309.111	292.38
309.341	314.38
309.571	291.38
309.8	300.38
310.03	283.38
310.26	301.38
310.49	287.38
310.72	310.38
310.949	285.38
311.179	274.38
311.409	295.38
311.639	297.38
311.868	296.38
312.098	296.38
312.328	310.38
312.557	313.38
312.787	303.38
313.017	302.38
313.246	310.38
313.476	300.38
313.706	298.38
313.935	317.38
314.165	304.38
314.394	307.38
314.624	321.38
314.853	327.38
315.083	316.38
315.312	328.38
315.542	314.38
315.771	306.38
316.001	319.38
316.23	312.38
316.46	315.38
316.689	314.38
316.919	308.38
317.148	313.38
317.377	311.38
317.607	327.38
317.836	317.38
318.065	317.38
318.295	311.38
318.524	319.38
318.753	331.38
318.983	330.38
319.212	315.38
319.441	318.38
319.67	324.38
319.9	335.38
320.129	341.38
320.358	327.38
320.587	329.38
320.816	324.38
321.046	317.38
321.275	323.38
321.504	313.38
321.733	318.38
321.962	332.38
322.191	328.38
322.42	324.38
322.649	325.38
322.878	332.38
323.108	311.38
323.337	334.38
323.566	331.38
323.795	344.38
324.024	322.38
324.253	305.38
324.482	351.38
324.71	344.38
324.939	341.38
325.168	332.38
325.397	331.38
325.626	352.38
325.855	359.38
326.084	336.38
326.313	338.38
326.542	344.38
326.77	342.38
326.999	369.38
327.228	363.38
327.457	353.38
327.686	379.38
327.914	347.38
328.143	354.38
328.372	363.38
328.6	356.38
328.829	349.38
329.058	360.38
329.287	345.38
329.515	361.38
329.744	360.38
329.972	342.38
330.201	353.38
330.43	367.38
330.658	373.38
330.887	375.38
331.115	354.38
331.344	362.38
331.572	342.38
331.801	344.38
332.03	371.38
332.258	358.38
332.486	359.38
332.715	361.38
332.943	374.38
333.172	369.38
333.4	383.38
333.629	380.38
333.857	407.38
334.085	393.38
334.314	418.38
334.542	385.38
334.771	388.38
334.999	376.38
335.227	371.38
335.455	395.38
335.684	390.38
335.912	384.38
336.14	404.38
336.369	402.38
336.597	389.38
336.825	382.38
337.053	396.38
337.281	404.38
337.51	380.38
337.738	392.38
337.966	385.38
338.194	416.38
338.422	396.38
338.65	377.38
338.878	373.38
339.106	369.38
339.334	388.38
339.562	377.38
339.79	374.38
340.018	373.38
340.246	359.38
340.474	364.38
340.702	375.38
340.93	382.38
341.158	382.38
341.386	381.38
341.614	395.38
341.842	373.38
342.07	396.38
342.298	391.38
342.526	369.38
342.754	380.38
342.981	372.38
343.209	379.38
343.437	366.38
343.665	391.38
343.893	396.38
344.12	411.38
344.348	386.38
344.576	390.38
344.804	387.38
345.031	378.38
345.259	376.38
345.487	383.38
345.714	372.38
345.942	371.38
346.17	383.38
346.397	371.38
346.625	362.38
346.853	353.38
347.08	382.38
347.308	368.38
347.535	369.38
347.763	382.38
347.99	366.38
348.218	353.38
348.445	366.38
348.673	374.38
348.9	353.38
349.128	370.38
349.355	371.38
349.583	352.38
349.81	366.38
350.037	370.38
350.265	393.38
350.492	351.38
350.72	359.38
350.947	365.38
351.174	376.38
351.402	352.38
351.629	346.38
351.856	360.38
352.083	382.38
352.311	363.38
352.538	357.38
352.765	358.38
352.992	349.38
353.22	370.38
353.447	352.38
353.674	376.38
353.901	354.38
354.128	371.38
354.355	337.38
354.583	362.38
354.81	370.38
355.037	370.38
355.264	389.38
355.491	367.38
355.718	371.38
355.945	350.38
356.172	374.38
356.399	340.38
356.626	372.38
356.853	378.38
357.08	367.38
357.307	377.38
357.534	367.38
357.761	361.38
357.988	358.38
358.215	374.38
358.441	367.38
358.668	356.38
358.895	350.38
359.122	368.38
359.349	373.38
359.576	353.38
359.802	353.38
360.029	335.38
360.256	359.38
360.483	368.38
360.709	379.38
360.936	387.38
361.163	368.38
361.39	353.38
361.616	370.38
361.843	375.38
362.07	372.38
362.296	371.38
362.523	367.38
362.749	373.38
362.976	376.38
363.203	374.38
363.429	377.38
363.656	391.38
363.882	364.38
364.109	364.38
364.335	364.38
364.562	376.38
364.788	392.38
365.015	367.38
365.241	376.38
365.468	376.38
365.694	386.38
365.92	380.38
366.147	382.38
366.373	386.38
366.599	373.38
366.826	376.38
367.052	366.38
367.278	379.38
367.505	378.38
367.731	395.38
367.957	383.38
368.184	367.38
368.41	375.38
368.636	380.38
368.862	378.38
369.089	399.38
369.315	372.38
369.541	377.38
369.767	376.38
369.993	407.38
370.219	367.38
370.445	400.38
370.672	391.38
370.898	386.38
371.124	366.38
371.35	400.38
371.576	418.38
371.802	412.38
372.028	398.38
372.254	402.38
372.48	397.38
372.706	399.38
372.932	396.38
373.158	402.38
373.384	403.38
373.61	395.38
373.835	422.38
374.061	405.38
374.287	394.38
374.513	406.38
374.739	404.38
374.965	392.38
375.191	417.38
375.416	414.38
375.642	415.38
375.868	412.38
376.094	401.38
376.319	387.38
376.545	390.38
376.771	395.38
376.997	399.38
377.222	387.38
377.448	378.38
377.674	386.38
377.899	376.38
378.125	388.38
378.35	403.38
378.576	396.38
378.802	408.38
379.027	371.38
379.253	388.38
379.478	393.38
379.704	385.38
379.929	427.38
380.155	408.38
380.38	390.38
380.606	399.38
380.831	414.38
381.057	397.38
381.282	415.38
381.507	382.38
381.733	395.38
381.958	423.38
382.184	414.38
382.409	412.38
382.634	390.38
382.86	395.38
383.085	425.38
383.31	427.38
383.535	421.38
383.761	439.38
383.986	439.38
384.211	441.38
384.436	424.38
384.662	423.38
384.887	445.38
385.112	432.38
385.337	438.38
385.562	447.38
385.787	438.38
386.013	443.38
386.238	434.38
386.463	452.38
386.688	441.38
386.913	430.38
387.138	442.38
387.363	418.38
387.588	441.38
387.813	446.38
388.038	462.38
388.263	444.38
388.488	458.38
388.713	457.38
388.938	456.38
389.163	472.38
389.387	456.38
389.612	416.38
389.837	439.38
390.062	435.38
390.287	456.38
390.512	443.38
390.736	444.38
390.961	481.38
391.186	449.38
391.411	477.38
391.636	465.38
391.86	479.38
392.085	478.38
392.31	475.38
392.534	476.38
392.759	480.38
392.984	468.38
393.208	454.38
393.433	503.38
393.658	479.38
393.882	463.38
394.107	471.38
394.331	473.38
394.556	485.38
394.78	475.38
395.005	484.38
395.229	468.38
395.454	474.38
395.678	486.38
395.903	481.38
396.127	471.38
396.352	511.38
396.576	500.38
396.801	491.38
397.025	499.38
397.249	509.38
397.474	494.38
397.698	495.38
397.922	484.38
398.147	495.38
398.371	489.38
398.595	503.38
398.82	495.38
399.044	540.38
399.268	550.38
399.492	567.38
399.717	573.38
399.941	570.38
400.165	571.38
400.389	548.38
400.613	568.38
400.837	536.38
401.062	541.38
401.286	532.38
401.51	538.38
401.734	509.38
401.958	512.38
402.182	523.38
402.406	526.38
402.63	516.38
402.854	539.38
403.078	522.38
403.302	519.38
403.526	539.38
403.75	519.38
403.974	523.38
404.198	528.38
404.422	514.38
404.645	520.38
404.869	501.38
405.093	559.38
405.317	526.38
405.541	534.38
405.765	537.38
405.988	530.38
406.212	546.38
406.436	555.38
406.66	561.38
406.883	574.38
407.107	562.38
407.331	583.38
407.555	592.38
407.778	545.38
408.002	563.38
408.226	565.38
408.449	598.38
408.673	554.38
408.896	552.38
409.12	545.38
409.344	571.38
409.567	568.38
409.791	565.38
410.014	536.38
410.238	540.38
410.461	554.38
410.685	551.38
410.908	533.38
411.132	539.38
411.355	527.38
411.578	528.38
411.802	518.38
412.025	535.38
412.249	543.38
412.472	555.38
412.695	516.38
412.919	516.38
413.142	539.38
413.365	536.38
413.589	527.38
413.812	522.38
414.035	524.38
414.258	524.38
414.482	526.38
414.705	519.38
414.928	498.38
415.151	503.38
415.374	519.38
415.597	522.38
415.821	530.38
416.044	490.38
416.267	521.38
416.49	508.38
416.713	524.38
416.936	521.38
417.159	494.38
417.382	489.38
417.605	497.38
417.828	485.38
418.051	512.38
418.274	508.38
418.497	495.38
418.72	505.38
418.943	491.38
419.166	498.38
419.389	530.38
419.611	538.38
419.834	524.38
420.057	501.38
420.28	511.38
420.503	518.38
420.726	504.38
420.948	486.38
421.171	478.38
421.394	481.38
421.617	477.38
421.839	468.38
422.062	488.38
422.285	487.38
422.507	487.38
422.73	479.38
422.953	489.38
423.175	498.38
423.398	520.38
423.621	498.38
423.843	488.38
424.066	496.38
424.288	486.38
424.511	502.38
424.733	508.38
424.956	491.38
425.178	505.38
425.401	484.38
425.623	494.38
425.846	488.38
426.068	483.38
426.291	509.38
426.513	481.38
426.735	471.38
426.958	495.38
427.18	480.38
427.402	494.38
427.625	471.38
427.847	476.38
428.069	494.38
428.292	470.38
428.514	473.38
428.736	487.38
428.958	508.38
429.181	469.38
429.403	484.38
429.625	465.38
429.847	460.38
430.069	467.38
430.292	466.38
430.514	470.38
430.736	456.38
430.958	472.38
431.18	483.38
431.402	446.38
431.624	478.38
431.846	465.38
432.068	467.38
432.29	476.38
432.512	473.38
432.734	474.38
432.956	465.38
433.178	472.38
433.4	449.38
433.622	485.38
433.844	466.38
434.066	466.38
434.287	487.38
434.509	483.38
434.731	474.38
434.953	475.38
435.175	460.38
435.397	501.38
435.618	478.38
435.84	478.38
436.062	464.38
436.284	457.38
436.505	456.38
436.727	466.38
436.949	452.38
437.17	479.38
437.392	454.38
437.614	459.38
437.835	466.38
438.057	472.38
438.278	470.38
438.5	455.38
438.721	443.38
438.943	457.38
439.165	434.38
439.386	444.38
439.608	487.38
439.829	469.38
440.05	479.38
440.272	458.38
440.493	466.38
440.715	460.38
440.936	463.38
441.158	472.38
441.379	466.38
441.6	488.38
441.822	462.38
442.043	484.38
442.264	478.38
442.486	495.38
442.707	479.38
442.928	481.38
443.149	475.38
443.371	471.38
443.592	477.38
443.813	479.38
444.034	467.38
444.255	450.38
444.476	473.38
444.698	499.38
444.919	488.38
445.14	578.38
445.361	531.38
445.582	486.38
445.803	481.38
446.024	476.38
446.245	487.38
446.466	492.38
446.687	467.38
446.908	455.38
447.129	441.38
447.35	452.38
447.571	467.38
447.792	425.38
448.013	437.38
448.234	436.38
448.455	443.38
448.675	435.38
448.896	472.38
449.117	425.38
449.338	443.38
449.559	448.38
449.779	424.38
450	421.38
450.221	440.38
450.442	434.38
450.662	433.38
450.883	448.38
451.104	428.38
451.324	438.38
451.545	440.38
451.766	429.38
451.986	438.38
452.207	435.38
452.428	409.38
452.648	450.38
452.869	418.38
453.089	415.38
453.31	428.38
453.53	434.38
453.751	424.38
453.971	434.38
454.192	433.38
454.412	424.38
454.633	420.38
454.853	435.38
455.073	403.38
455.294	407.38
455.514	418.38
455.734	428.38
455.955	416.38
456.175	438.38
456.395	417.38
456.616	438.38
456.836	444.38
457.056	428.38
457.276	404.38
457.497	421.38
457.717	418.38
457.937	432.38
458.157	428.38
458.377	454.38
458.598	456.38
458.818	437.38
459.038	452.38
459.258	458.38
459.478	465.38
459.698	455.38
459.918	463.38
460.138	475.38
460.358	475.38
460.578	465.38
460.798	508.38
461.018	507.38
461.238	487.38
461.458	466.38
461.678	483.38
461.898	498.38
462.118	495.38
462.338	521.38
462.558	526.38
462.777	528.38
462.997	521.38
463.217	553.38
463.437	544.38
463.657	555.38
463.876	542.38
464.096	531.38
464.316	521.38
464.536	515.38
464.755	518.38
464.975	534.38
465.195	499.38
465.414	513.38
465.634	486.38
465.854	491.38
466.073	475.38
466.293	486.38
466.512	445.38
466.732	473.38
466.951	462.38
467.171	462.38
467.391	459.38
467.61	448.38
467.829	456.38
468.049	480.38
468.268	440.38
468.488	451.38
468.707	440.38
468.927	444.38
469.146	458.38
469.365	456.38
469.585	457.38
469.804	454.38
470.023	438.38
470.243	440.38
470.462	451.38
470.681	468.38
470.901	452.38
471.12	455.38
471.339	444.38
471.558	447.38
471.777	458.38
471.997	466.38
472.216	470.38
472.435	464.38
472.654	455.38
472.873	427.38
473.092	486.38
473.311	464.38
473.53	449.38
473.749	462.38
473.968	468.38
474.187	467.38
474.406	454.38
474.625	448.38
474.844	448.38
475.063	456.38
475.282	478.38
475.501	467.38
475.72	464.38
475.939	487.38
476.158	463.38
476.377	492.38
476.596	503.38
476.814	488.38
477.033	501.38
477.252	494.38
477.471	460.38
477.69	480.38
477.908	488.38
478.127	507.38
478.346	496.38
478.564	507.38
478.783	533.38
479.002	528.38
479.22	542.38
479.439	533.38
479.658	525.38
479.876	531.38
480.095	510.38
480.313	548.38
480.532	551.38
480.751	523.38
480.969	542.38
481.188	536.38
481.406	553.38
481.624	515.38
481.843	538.38
482.061	513.38
482.28	537.38
482.498	522.38
482.717	527.38
482.935	551.38
483.153	531.38
483.372	528.38
483.59	523.38
483.808	544.38
484.027	538.38
484.245	543.38
484.463	554.38
484.681	546.38
484.9	541.38
485.118	535.38
485.336	537.38
485.554	530.38
485.772	563.38
485.99	530.38
486.209	530.38
486.427	525.38
486.645	545.38
486.863	561.38
487.081	551.38
487.299	551.38
487.517	523.38
487.735	557.38
487.953	550.38
488.171	554.38
488.389	563.38
488.607	535.38
488.825	534.38
489.043	538.38
489.261	536.38
489.479	535.38
489.696	557.38
489.914	570.38
490.132	552.38
490.35	538.38
490.568	518.38
490.786	550.38
491.003	543.38
491.221	566.38
491.439	564.38
491.657	543.38
491.874	569.38
492.092	536.38
492.31	568.38
492.527	568.38
492.745	576.38
492.963	574.38
493.18	605.38
493.398	580.38
493.615	558.38
493.833	576.38
494.05	543.38
494.268	568.38
494.485	574.38
494.703	572.38
494.92	576.38
495.138	580.38
495.355	586.38
495.573	598.38
495.79	589.38
496.008	599.38
496.225	590.38
496.442	610.38
496.66	601.38
496.877	621.38
497.094	613.38
497.312	606.38
497.529	654.38
497.746	626.38
497.963	655.38
498.181	660.38
498.398	687.38
498.615	719.38
498.832	702.38
499.049	733.38
499.267	735.38
499.484	756.38
499.701	787.38
499.918	846.38
500.135	844.38
500.352	891.38
500.569	871.38
500.786	894.38
501.003	856.38
501.22	845.38
501.437	819.38
501.654	785.38
501.871	785.38
502.088	734.38
502.305	736.38
502.522	728.38
502.739	674.38
502.956	669.38
503.172	651.38
503.389	640.38
503.606	653.38
503.823	630.38
504.04	638.38
504.256	621.38
504.473	641.38
504.69	606.38
504.907	614.38
505.123	611.38
505.34	587.38
505.557	552.38
505.773	596.38
505.99	579.38
506.207	568.38
506.423	571.38
506.64	563.38
506.856	554.38
507.073	556.38
507.289	565.38
507.506	544.38
507.722	530.38
507.939	522.38
508.155	523.38
508.372	516.38
508.588	520.38
508.805	512.38
509.021	523.38
509.238	499.38
509.454	492.38
509.67	508.38
509.887	494.38
510.103	500.38
510.319	488.38
510.536	496.38
510.752	506.38
510.968	494.38
511.184	498.38
511.401	492.38
511.617	494.38
511.833	500.38
512.049	476.38
512.265	499.38
512.481	513.38
512.698	492.38
512.914	471.38
513.13	500.38
513.346	513.38
513.562	510.38
513.778	497.38
513.994	495.38
514.21	490.38
514.426	490.38
514.642	522.38
514.858	506.38
515.074	503.38
515.29	495.38
515.506	487.38
515.721	495.38
515.937	516.38
516.153	513.38
516.369	511.38
516.585	521.38
516.801	538.38
517.016	538.38
517.232	532.38
517.448	532.38
517.664	518.38
517.879	520.38
518.095	548.38
518.311	541.38
518.527	550.38
518.742	525.38
518.958	531.38
519.173	523.38
519.389	497.38
519.605	512.38
519.82	521.38
520.036	496.38
520.251	490.38
520.467	494.38
520.682	482.38
520.898	478.38
521.113	479.38
521.329	467.38
521.544	486.38
521.76	476.38
521.975	459.38
522.19	498.38
522.406	441.38
522.621	464.38
522.836	447.38
523.052	451.38
523.267	460.38
523.482	454.38
523.698	457.38
523.913	464.38
524.128	454.38
524.343	463.38
524.559	447.38
524.774	456.38
524.989	465.38
525.204	452.38
525.419	449.38
525.634	458.38
525.849	436.38
526.064	460.38
526.28	469.38
526.495	437.38
526.71	456.38
526.925	447.38
527.14	448.38
527.355	429.38
527.57	426.38
527.785	412.38
527.999	445.38
528.214	447.38
528.429	439.38
528.644	436.38
528.859	458.38
529.074	440.38
529.289	446.38
529.503	430.38
529.718	440.38
529.933	453.38
530.148	431.38
530.363	446.38
530.577	441.38
530.792	424.38
531.007	440.38
531.221	447.38
531.436	439.38
531.651	419.38
531.865	454.38
532.08	437.38
532.295	430.38
532.509	438.38
532.724	424.38
532.938	419.38
533.153	415.38
533.367	432.38
533.582	450.38
533.796	438.38
534.011	439.38
534.225	422.38
534.44	438.38
534.654	420.38
534.868	422.38
535.083	432.38
535.297	425.38
535.511	418.38
535.726	412.38
535.94	431.38
536.154	420.38
536.369	434.38
536.583	416.38
536.797	408.38
537.011	425.38
537.225	400.38
537.44	425.38
537.654	419.38
537.868	425.38
538.082	435.38
538.296	419.38
538.51	428.38
538.724	414.38
538.938	408.38
539.153	419.38
539.367	405.38
539.581	420.38
539.795	402.38
540.009	394.38
540.222	392.38
540.436	415.38
540.65	403.38
540.864	422.38
541.078	401.38
541.292	402.38
541.506	394.38
541.72	413.38
541.934	406.38
542.147	396.38
542.361	410.38
542.575	405.38
542.789	388.38
543.002	401.38
543.216	406.38
543.43	390.38
543.644	408.38
543.857	403.38
544.071	388.38
544.285	385.38
544.498	402.38
544.712	416.38
544.925	389.38
545.139	396.38
545.352	392.38
545.566	399.38
545.779	396.38
545.993	413.38
546.206	404.38
546.42	378.38
546.633	404.38
546.847	397.38
547.06	401.38
547.274	393.38
547.487	395.38
547.7	415.38
547.914	389.38
548.127	411.38
548.34	410.38
548.554	403.38
548.767	406.38
548.98	404.38
549.193	410.38
549.407	389.38
549.62	412.38
549.833	400.38
550.046	403.38
550.259	396.38
550.473	404.38
550.686	403.38
550.899	379.38
551.112	380.38
551.325	396.38
551.538	410.38
551.751	391.38
551.964	397.38
552.177	404.38
552.39	394.38
552.603	400.38
552.816	416.38
553.029	382.38
553.242	396.38
553.455	401.38
553.667	416.38
553.88	403.38
554.093	384.38
554.306	400.38
554.519	377.38
554.732	375.38
554.944	381.38
555.157	382.38
555.37	374.38
555.583	403.38
555.795	386.38
556.008	384.38
556.221	353.38
556.433	371.38
556.646	367.38
556.859	372.38
557.071	355.38
557.284	362.38
557.496	364.38
557.709	364.38
557.921	366.38
558.134	348.38
558.346	355.38
558.559	366.38
558.771	358.38
558.984	353.38
559.196	357.38
559.409	367.38
559.621	355.38
559.833	355.38
560.046	359.38
560.258	361.38
560.47	364.38
560.683	349.38
560.895	334.38
561.107	354.38
561.32	342.38
561.532	363.38
561.744	377.38
561.956	346.38
562.168	349.38
562.381	346.38
562.593	348.38
562.805	328.38
563.017	346.38
563.229	355.38
563.441	370.38
563.653	354.38
563.865	364.38
564.077	353.38
564.289	370.38
564.501	374.38
564.713	369.38
564.925	372.38
565.137	374.38
565.349	377.38
565.561	398.38
565.773	376.38
565.985	377.38
566.197	404.38
566.408	400.38
566.62	394.38
566.832	409.38
567.044	419.38
567.255	408.38
567.467	422.38
567.679	419.38
567.891	415.38
568.102	396.38
568.314	405.38
568.526	389.38
568.737	376.38
568.949	374.38
569.161	368.38
569.372	366.38
569.584	362.38
569.795	346.38
570.007	361.38
570.218	344.38
570.43	333.38
570.641	340.38
570.853	329.38
571.064	349.38
571.276	318.38
571.487	325.38
571.698	326.38
571.91	318.38
572.121	317.38
572.333	305.38
572.544	322.38
572.755	315.38
572.966	320.38
573.178	299.38
573.389	291.38
573.6	299.38
573.811	304.38
574.023	304.38
574.234	304.38
574.445	308.38
574.656	288.38
574.867	275.38
575.078	295.38
575.289	292.38
575.501	285.38
575.712	271.38
575.923	290.38
576.134	284.38
576.345	311.38
576.556	284.38
576.767	292.38
576.978	295.38
577.188	281.38
577.399	275.38
577.61	263.38
577.821	282.38
578.032	263.38
578.243	278.38
578.454	276.38
578.665	280.38
578.875	277.38
579.086	267.38
579.297	271.38
579.508	244.38
579.718	288.38
579.929	256.38
580.14	256.38
580.35	291.38
580.561	256.38
580.772	258.38
580.982	282.38
581.193	270.38
581.403	278.38
581.614	274.38
581.825	257.38
582.035	259.38
582.246	279.38
582.456	276.38
582.667	265.38
582.877	272.38
583.087	264.38
583.298	244.38
583.508	245.38
583.719	262.38
583.929	258.38
584.139	240.38
584.35	249.38
584.56	259.38
584.77	265.38
584.981	251.38
585.191	253.38
585.401	247.38
585.611	245.38
585.821	235.38
586.032	257.38
586.242	238.38
586.452	252.38
586.662	244.38
586.872	263.38
587.082	238.38
587.292	253.38
587.502	246.38
587.713	229.38
587.923	248.38
588.133	248.38
588.343	255.38
588.553	258.38
588.762	247.38
588.972	240.38
589.182	282.38
589.392	248.38
589.602	254.38
589.812	273.38
590.022	251.38
590.232	250.38
590.441	238.38
590.651	249.38
590.861	241.38
591.071	255.38
591.281	238.38
591.49	257.38
591.7	261.38
591.91	258.38
592.119	260.38
592.329	252.38
592.539	259.38
592.748	270.38
592.958	240.38
593.167	259.38
593.377	266.38
593.587	268.38
593.796	271.38
594.006	263.38
594.215	240.38
594.424	248.38
594.634	254.38
594.843	250.38
595.053	254.38
595.262	240.38
595.472	254.38
595.681	236.38
595.89	231.38
596.1	250.38
596.309	228.38
596.518	248.38
596.727	221.38
596.937	226.38
597.146	224.38
597.355	240.38
597.564	244.38
597.774	227.38
597.983	204.38
598.192	231.38
598.401	228.38
598.61	228.38
598.819	235.38
599.028	226.38
599.237	220.38
599.446	216.38
599.655	223.38
599.864	233.38
600.073	228.38
600.282	204.38
600.491	210.38
600.7	211.38
600.909	220.38
601.118	205.38
601.327	211.38
601.536	208.38
601.745	221.38
601.953	245.38
602.162	222.38
602.371	211.38
602.58	227.38
602.789	219.38
602.997	217.38
603.206	220.38
603.415	208.38
603.623	193.38
603.832	211.38
604.041	212.38
604.249	195.38
604.458	193.38
604.666	203.38
604.875	194.38
605.084	208.38
605.292	213.38
605.501	204.38
605.709	200.38
605.918	205.38
606.126	206.38
606.334	206.38
606.543	208.38
606.751	200.38
606.96	208.38
607.168	193.38
607.376	197.38
607.585	205.38
607.793	196.38
608.001	204.38
608.21	200.38
608.418	195.38
608.626	195.38
608.834	194.38
609.043	195.38
609.251	201.38
609.459	201.38
609.667	214.38
609.875	202.38
610.083	211.38
610.291	214.38
610.499	210.38
610.707	208.38
610.916	190.38
611.124	191.38
611.332	195.38
611.54	199.38
611.748	203.38
611.955	200.38
612.163	196.38
612.371	205.38
612.579	197.38
612.787	186.38
612.995	181.38
613.203	202.38
613.411	196.38
613.618	202.38
613.826	194.38
614.034	191.38
614.242	192.38
614.449	196.38
614.657	192.38
614.865	196.38
615.072	190.38
615.28	211.38
615.488	174.38
615.695	193.38
615.903	190.38
616.111	204.38
616.318	183.38
616.526	197.38
616.733	193.38
616.941	186.38
617.148	191.38
617.356	194.38
617.563	169.38
617.771	194.38
617.978	201.38
618.185	204.38
618.393	184.38
618.6	182.38
618.807	196.38
619.015	198.38
619.222	182.38
619.429	200.38
619.637	193.38
619.844	195.38
620.051	174.38
620.258	185.38
620.466	175.38
620.673	175.38
620.88	184.38
621.087	186.38
621.294	182.38
621.501	179.38
621.708	182.38
621.915	180.38
622.122	192.38
622.329	183.38
622.536	188.38
622.743	179.38
622.95	203.38
623.157	202.38
623.364	186.38
623.571	181.38
623.778	184.38
623.985	181.38
624.192	172.38
624.399	163.38
624.606	195.38
624.812	181.38
625.019	168.38
625.226	168.38
625.433	168.38
625.639	158.38
625.846	177.38
626.053	180.38
626.259	156.38
626.466	166.38
626.673	165.38
626.879	183.38
627.086	166.38
627.293	190.38
627.499	172.38
627.706	172.38
627.912	169.38
628.119	168.38
628.325	171.38
628.532	165.38
628.738	165.38
628.945	161.38
629.151	167.38
629.357	144.38
629.564	170.38
629.77	183.38
629.976	166.38
630.183	169.38
630.389	178.38
630.595	169.38
630.802	164.38
631.008	166.38
631.214	176.38
631.42	163.38
631.627	168.38
631.833	188.38
632.039	156.38
632.245	154.38
632.451	164.38
632.657	157.38
632.863	168.38
633.069	155.38
633.275	154.38
633.481	152.38
633.688	164.38
633.893	171.38
634.099	163.38
634.305	153.38
634.511	162.38
634.717	160.38
634.923	160.38
635.129	157.38
635.335	150.38
635.541	158.38
635.747	164.38
635.952	142.38
636.158	167.38
636.364	159.38
636.57	159.38
636.775	158.38
636.981	166.38
637.187	166.38
637.392	175.38
637.598	146.38
637.804	154.38
638.009	143.38
638.215	167.38
638.421	135.38
638.626	157.38
638.832	152.38
639.037	167.38
639.243	158.38
639.448	140.38
639.654	139.38
639.859	150.38
640.065	148.38
640.27	155.38
640.475	168.38
640.681	160.38
640.886	150.38
641.091	153.38
641.297	146.38
641.502	151.38
641.707	159.38
641.913	150.38
642.118	157.38
642.323	156.38
642.528	151.38
642.733	154.38
642.939	145.38
643.144	153.38
643.349	138.38
643.554	147.38
643.759	149.38
643.964	151.38
644.169	150.38
644.374	135.38
644.579	151.38
644.784	150.38
644.989	147.38
645.194	135.38
645.399	145.38
645.604	132.38
645.809	147.38
646.014	134.38
646.219	155.38
646.423	146.38
646.628	150.38
646.833	148.38
647.038	130.38
647.243	153.38
647.447	146.38
647.652	137.38
647.857	138.38
648.062	145.38
648.266	151.38
648.471	153.38
648.676	142.38
648.88	130.38
649.085	148.38
649.289	142.38
649.494	150.38
649.698	136.38
649.903	142.38
650.107	141.38
650.312	151.38
650.516	141.38
650.721	133.38
650.925	132.38
651.13	147.38
651.334	145.38
651.539	140.38
651.743	137.38
651.947	145.38
652.152	120.38
652.356	135.38
652.56	151.38
652.764	134.38
652.969	142.38
653.173	125.38
653.377	125.38
653.581	121.38
653.785	126.38
653.99	128.38
654.194	130.38
654.398	133.38
654.602	129.38
654.806	138.38
655.01	139.38
655.214	117.38
655.418	117.38
655.622	134.38
655.826	134.38
656.03	132.38
656.234	133.38
656.438	124.38
656.642	126.38
656.846	118.38
657.049	124.38
657.253	127.38
657.457	114.38
657.661	121.38
657.865	112.38
658.068	98.38
658.272	119.38
658.476	102.38
658.68	106.38
658.883	94.38
659.087	105.38
659.291	105.38
659.494	96.38
659.698	98.38
659.901	87.38
660.105	100.38
660.309	88.38
660.512	92.38
660.716	88.38
660.919	86.38
661.123	87.38
661.326	89.38
661.53	86.38
661.733	100.38
661.936	84.38
662.14	83.38
662.343	89.38
662.546	84.38
662.75	86.38
662.953	87.38
663.156	82.38
663.36	71.38
663.563	75.38
663.766	92.38
663.969	97.38
664.173	79.38
664.376	77.38
664.579	83.38
664.782	71.38
664.985	76.38
665.188	69.38
665.391	76.38
665.594	85.38
665.797	68.38
666	74.38
666.203	80.38
666.406	72.38
666.609	75.38
666.812	87.38
667.015	80.38
667.218	99.38
667.421	80.38
667.624	81.38
667.827	86.38
668.03	78.38
668.232	73.38
668.435	80.38
668.638	70.38
668.841	75.38
669.043	69.38
669.246	83.38
669.449	84.38
669.651	86.38
669.854	72.38
670.057	82.38
670.259	72.38
670.462	72.38
670.665	87.38
670.867	75.38
671.07	66.38
671.272	82.38
671.475	81.38
671.677	85.38
671.88	80.38
672.082	83.38
672.284	85.38
672.487	89.38
672.689	83.38
672.892	102.38
