Data from Fe(NO3)3@0.025M.TitratingCurve.Agarose3%dH2O.NegLispCup.LampEnergy10.LIBS07252019_HRD10591_16-54-19-335.txt Node
Date: Thu Jul 25 16:54:19 EDT 2019
User: cochatt
Spectrometer: HR+D1059
Trigger mode: 1
Integration Time (sec): 1.000000E-1
Scans to average: 1
Electric dark correction enabled: true
Nonlinearity correction enabled: false
Boxcar width: 0
XAxis mode: Wavelengths
Number of Pixels in Spectrum: 2048
>>>>>Begin Spectral Data<<<<<
223.165	-10.62
223.4	-10.62
223.635	-10.62
223.869	-33.62
224.104	-5.62
224.338	-6.62
224.573	-18.62
224.808	-10.62
225.042	-13.62
225.277	-14.62
225.511	0.38
225.746	-4.62
225.98	10.38
226.215	17.38
226.449	12.38
226.683	26.38
226.918	30.38
227.152	21.38
227.387	36.38
227.621	33.38
227.856	52.38
228.09	53.38
228.324	55.38
228.559	58.38
228.793	74.38
229.027	79.38
229.262	95.38
229.496	97.38
229.73	125.38
229.964	114.38
230.199	121.38
230.433	102.38
230.667	103.38
230.901	125.38
231.136	115.38
231.37	110.38
231.604	102.38
231.838	106.38
232.072	111.38
232.306	134.38
232.541	130.38
232.775	122.38
233.009	138.38
233.243	119.38
233.477	122.38
233.711	131.38
233.945	116.38
234.179	135.38
234.413	122.38
234.647	138.38
234.881	143.38
235.115	123.38
235.349	126.38
235.583	147.38
235.817	127.38
236.051	139.38
236.285	135.38
236.519	150.38
236.753	131.38
236.987	124.38
237.221	130.38
237.455	146.38
237.689	144.38
237.922	123.38
238.156	132.38
238.39	140.38
238.624	154.38
238.858	139.38
239.091	137.38
239.325	159.38
239.559	156.38
239.793	146.38
240.027	149.38
240.26	155.38
240.494	149.38
240.728	154.38
240.961	160.38
241.195	164.38
241.429	179.38
241.662	165.38
241.896	148.38
242.13	148.38
242.363	146.38
242.597	151.38
242.83	163.38
243.064	159.38
243.298	149.38
243.531	164.38
243.765	169.38
243.998	167.38
244.232	170.38
244.465	167.38
244.699	166.38
244.932	162.38
245.166	165.38
245.399	178.38
245.633	168.38
245.866	164.38
246.099	171.38
246.333	180.38
246.566	184.38
246.8	171.38
247.033	182.38
247.266	180.38
247.5	186.38
247.733	185.38
247.966	186.38
248.2	182.38
248.433	190.38
248.666	203.38
248.899	198.38
249.133	180.38
249.366	215.38
249.599	207.38
249.832	197.38
250.066	187.38
250.299	196.38
250.532	180.38
250.765	195.38
250.998	190.38
251.231	197.38
251.465	167.38
251.698	197.38
251.931	193.38
252.164	191.38
252.397	217.38
252.63	214.38
252.863	233.38
253.096	212.38
253.329	211.38
253.562	210.38
253.795	217.38
254.028	226.38
254.261	244.38
254.494	215.38
254.727	229.38
254.96	208.38
255.193	223.38
255.426	229.38
255.659	201.38
255.892	212.38
256.124	223.38
256.357	220.38
256.59	228.38
256.823	219.38
257.056	224.38
257.289	223.38
257.521	216.38
257.754	231.38
257.987	224.38
258.22	221.38
258.452	227.38
258.685	211.38
258.918	257.38
259.151	222.38
259.383	238.38
259.616	238.38
259.849	245.38
260.081	251.38
260.314	297.38
260.547	256.38
260.779	251.38
261.012	244.38
261.244	275.38
261.477	279.38
261.71	247.38
261.942	254.38
262.175	255.38
262.407	248.38
262.64	253.38
262.872	271.38
263.105	276.38
263.337	278.38
263.57	284.38
263.802	255.38
264.035	243.38
264.267	236.38
264.499	242.38
264.732	257.38
264.964	253.38
265.197	242.38
265.429	270.38
265.661	238.38
265.894	248.38
266.126	251.38
266.358	253.38
266.591	266.38
266.823	260.38
267.055	266.38
267.287	267.38
267.52	265.38
267.752	257.38
267.984	263.38
268.216	272.38
268.448	278.38
268.681	278.38
268.913	266.38
269.145	270.38
269.377	281.38
269.609	270.38
269.841	266.38
270.073	281.38
270.306	263.38
270.538	251.38
270.77	263.38
271.002	283.38
271.234	279.38
271.466	287.38
271.698	283.38
271.93	276.38
272.162	290.38
272.394	300.38
272.626	292.38
272.858	298.38
273.09	286.38
273.322	300.38
273.553	303.38
273.785	294.38
274.017	323.38
274.249	341.38
274.481	336.38
274.713	350.38
274.945	364.38
275.176	378.38
275.408	346.38
275.64	334.38
275.872	333.38
276.104	330.38
276.335	310.38
276.567	299.38
276.799	302.38
277.031	323.38
277.262	333.38
277.494	314.38
277.726	301.38
277.957	326.38
278.189	296.38
278.421	314.38
278.652	326.38
278.884	300.38
279.115	292.38
279.347	293.38
279.579	321.38
279.81	306.38
280.042	326.38
280.273	321.38
280.505	309.38
280.736	314.38
280.968	308.38
281.199	320.38
281.431	302.38
281.662	322.38
281.894	332.38
282.125	329.38
282.356	316.38
282.588	319.38
282.819	332.38
283.051	324.38
283.282	334.38
283.513	338.38
283.745	343.38
283.976	325.38
284.207	336.38
284.439	337.38
284.67	344.38
284.901	353.38
285.132	337.38
285.364	351.38
285.595	342.38
285.826	338.38
286.057	349.38
286.288	344.38
286.52	335.38
286.751	343.38
286.982	347.38
287.213	331.38
287.444	340.38
287.675	347.38
287.906	356.38
288.138	354.38
288.369	357.38
288.6	347.38
288.831	364.38
289.062	350.38
289.293	356.38
289.524	361.38
289.755	370.38
289.986	363.38
290.217	365.38
290.448	360.38
290.679	360.38
290.91	360.38
291.141	366.38
291.371	371.38
291.602	350.38
291.833	358.38
292.064	357.38
292.295	362.38
292.526	376.38
292.757	374.38
292.987	346.38
293.218	345.38
293.449	375.38
293.68	359.38
293.91	354.38
294.141	360.38
294.372	368.38
294.603	375.38
294.833	375.38
295.064	385.38
295.295	360.38
295.525	384.38
295.756	393.38
295.987	370.38
296.217	380.38
296.448	368.38
296.679	390.38
296.909	386.38
297.14	381.38
297.37	401.38
297.601	413.38
297.831	385.38
298.062	382.38
298.292	390.38
298.523	380.38
298.753	390.38
298.984	388.38
299.214	377.38
299.445	395.38
299.675	389.38
299.905	394.38
300.136	393.38
300.366	398.38
300.597	387.38
300.827	398.38
301.057	397.38
301.288	408.38
301.518	419.38
301.748	408.38
301.979	415.38
302.209	421.38
302.439	405.38
302.669	391.38
302.9	419.38
303.13	416.38
303.36	429.38
303.59	399.38
303.82	411.38
304.051	422.38
304.281	395.38
304.511	412.38
304.741	424.38
304.971	409.38
305.201	410.38
305.431	404.38
305.661	409.38
305.891	382.38
306.121	418.38
306.352	429.38
306.582	405.38
306.812	411.38
307.042	409.38
307.272	414.38
307.502	396.38
307.731	427.38
307.961	426.38
308.191	398.38
308.421	399.38
308.651	409.38
308.881	414.38
309.111	392.38
309.341	384.38
309.571	418.38
309.8	417.38
310.03	439.38
310.26	404.38
310.49	426.38
310.72	433.38
310.949	407.38
311.179	404.38
311.409	424.38
311.639	434.38
311.868	432.38
312.098	401.38
312.328	415.38
312.557	443.38
312.787	452.38
313.017	452.38
313.246	424.38
313.476	419.38
313.706	435.38
313.935	440.38
314.165	430.38
314.394	436.38
314.624	439.38
314.853	428.38
315.083	426.38
315.312	445.38
315.542	454.38
315.771	454.38
316.001	464.38
316.23	460.38
316.46	430.38
316.689	459.38
316.919	471.38
317.148	447.38
317.377	454.38
317.607	443.38
317.836	434.38
318.065	465.38
318.295	480.38
318.524	450.38
318.753	432.38
318.983	459.38
319.212	455.38
319.441	458.38
319.67	452.38
319.9	470.38
320.129	452.38
320.358	472.38
320.587	473.38
320.816	453.38
321.046	457.38
321.275	458.38
321.504	454.38
321.733	486.38
321.962	467.38
322.191	472.38
322.42	466.38
322.649	464.38
322.878	456.38
323.108	475.38
323.337	482.38
323.566	485.38
323.795	452.38
324.024	486.38
324.253	476.38
324.482	481.38
324.71	476.38
324.939	476.38
325.168	486.38
325.397	469.38
325.626	467.38
325.855	452.38
326.084	477.38
326.313	483.38
326.542	492.38
326.77	494.38
326.999	498.38
327.228	480.38
327.457	500.38
327.686	495.38
327.914	502.38
328.143	494.38
328.372	475.38
328.6	490.38
328.829	507.38
329.058	463.38
329.287	501.38
329.515	500.38
329.744	484.38
329.972	480.38
330.201	496.38
330.43	485.38
330.658	499.38
330.887	491.38
331.115	509.38
331.344	493.38
331.572	529.38
331.801	524.38
332.03	526.38
332.258	524.38
332.486	537.38
332.715	534.38
332.943	532.38
333.172	524.38
333.4	542.38
333.629	556.38
333.857	538.38
334.085	545.38
334.314	555.38
334.542	573.38
334.771	543.38
334.999	572.38
335.227	565.38
335.455	534.38
335.684	570.38
335.912	578.38
336.14	570.38
336.369	551.38
336.597	564.38
336.825	571.38
337.053	557.38
337.281	569.38
337.51	570.38
337.738	539.38
337.966	555.38
338.194	562.38
338.422	552.38
338.65	554.38
338.878	542.38
339.106	542.38
339.334	532.38
339.562	526.38
339.79	526.38
340.018	535.38
340.246	502.38
340.474	518.38
340.702	525.38
340.93	521.38
341.158	534.38
341.386	525.38
341.614	529.38
341.842	517.38
342.07	503.38
342.298	526.38
342.526	531.38
342.754	526.38
342.981	534.38
343.209	536.38
343.437	553.38
343.665	558.38
343.893	554.38
344.12	555.38
344.348	559.38
344.576	543.38
344.804	540.38
345.031	532.38
345.259	548.38
345.487	542.38
345.714	528.38
345.942	557.38
346.17	509.38
346.397	519.38
346.625	525.38
346.853	494.38
347.08	503.38
347.308	532.38
347.535	499.38
347.763	508.38
347.99	515.38
348.218	526.38
348.445	515.38
348.673	506.38
348.9	483.38
349.128	503.38
349.355	492.38
349.583	509.38
349.81	504.38
350.037	476.38
350.265	522.38
350.492	499.38
350.72	473.38
350.947	520.38
351.174	505.38
351.402	495.38
351.629	478.38
351.856	494.38
352.083	484.38
352.311	503.38
352.538	503.38
352.765	503.38
352.992	498.38
353.22	478.38
353.447	495.38
353.674	489.38
353.901	504.38
354.128	514.38
354.355	493.38
354.583	512.38
354.81	493.38
355.037	503.38
355.264	469.38
355.491	502.38
355.718	504.38
355.945	495.38
356.172	506.38
356.399	496.38
356.626	492.38
356.853	499.38
357.08	505.38
357.307	501.38
357.534	503.38
357.761	511.38
357.988	526.38
358.215	504.38
358.441	518.38
358.668	490.38
358.895	501.38
359.122	488.38
359.349	487.38
359.576	505.38
359.802	505.38
360.029	503.38
360.256	513.38
360.483	500.38
360.709	498.38
360.936	503.38
361.163	507.38
361.39	478.38
361.616	493.38
361.843	494.38
362.07	507.38
362.296	520.38
362.523	489.38
362.749	504.38
362.976	492.38
363.203	522.38
363.429	535.38
363.656	491.38
363.882	498.38
364.109	518.38
364.335	513.38
364.562	508.38
364.788	514.38
365.015	540.38
365.241	514.38
365.468	523.38
365.694	515.38
365.92	519.38
366.147	501.38
366.373	500.38
366.599	480.38
366.826	478.38
367.052	507.38
367.278	540.38
367.505	515.38
367.731	523.38
367.957	517.38
368.184	537.38
368.41	515.38
368.636	531.38
368.862	513.38
369.089	538.38
369.315	486.38
369.541	528.38
369.767	527.38
369.993	513.38
370.219	540.38
370.445	529.38
370.672	524.38
370.898	548.38
371.124	517.38
371.35	531.38
371.576	553.38
371.802	556.38
372.028	541.38
372.254	564.38
372.48	548.38
372.706	563.38
372.932	554.38
373.158	551.38
373.384	568.38
373.61	566.38
373.835	574.38
374.061	573.38
374.287	585.38
374.513	580.38
374.739	593.38
374.965	589.38
375.191	559.38
375.416	574.38
375.642	555.38
375.868	576.38
376.094	572.38
376.319	567.38
376.545	554.38
376.771	552.38
376.997	550.38
377.222	554.38
377.448	547.38
377.674	543.38
377.899	513.38
378.125	540.38
378.35	560.38
378.576	537.38
378.802	516.38
379.027	550.38
379.253	533.38
379.478	565.38
379.704	535.38
379.929	567.38
380.155	549.38
380.38	550.38
380.606	556.38
380.831	540.38
381.057	573.38
381.282	576.38
381.507	548.38
381.733	577.38
381.958	556.38
382.184	580.38
382.409	566.38
382.634	576.38
382.86	572.38
383.085	574.38
383.31	587.38
383.535	590.38
383.761	586.38
383.986	611.38
384.211	587.38
384.436	584.38
384.662	596.38
384.887	597.38
385.112	591.38
385.337	603.38
385.562	602.38
385.787	614.38
386.013	629.38
386.238	627.38
386.463	622.38
386.688	620.38
386.913	629.38
387.138	639.38
387.363	616.38
387.588	628.38
387.813	615.38
388.038	614.38
388.263	622.38
388.488	635.38
388.713	642.38
388.938	636.38
389.163	634.38
389.387	620.38
389.612	632.38
389.837	642.38
390.062	644.38
390.287	652.38
390.512	619.38
390.736	612.38
390.961	626.38
391.186	620.38
391.411	644.38
391.636	623.38
391.86	655.38
392.085	659.38
392.31	654.38
392.534	664.38
392.759	650.38
392.984	650.38
393.208	638.38
393.433	652.38
393.658	644.38
393.882	644.38
394.107	659.38
394.331	668.38
394.556	637.38
394.78	664.38
395.005	682.38
395.229	644.38
395.454	677.38
395.678	664.38
395.903	662.38
396.127	700.38
396.352	664.38
396.576	671.38
396.801	666.38
397.025	663.38
397.249	680.38
397.474	681.38
397.698	685.38
397.922	691.38
398.147	689.38
398.371	718.38
398.595	732.38
398.82	727.38
399.044	754.38
399.268	796.38
399.492	812.38
399.717	838.38
399.941	844.38
400.165	820.38
400.389	833.38
400.613	786.38
400.837	764.38
401.062	765.38
401.286	738.38
401.51	720.38
401.734	765.38
401.958	742.38
402.182	719.38
402.406	725.38
402.63	712.38
402.854	744.38
403.078	740.38
403.302	752.38
403.526	751.38
403.75	729.38
403.974	720.38
404.198	734.38
404.422	762.38
404.645	734.38
404.869	770.38
405.093	754.38
405.317	784.38
405.541	762.38
405.765	773.38
405.988	744.38
406.212	770.38
406.436	789.38
406.66	782.38
406.883	792.38
407.107	806.38
407.331	837.38
407.555	834.38
407.778	840.38
408.002	842.38
408.226	810.38
408.449	823.38
408.673	830.38
408.896	807.38
409.12	795.38
409.344	789.38
409.567	773.38
409.791	798.38
410.014	772.38
410.238	775.38
410.461	801.38
410.685	755.38
410.908	773.38
411.132	772.38
411.355	738.38
411.578	739.38
411.802	748.38
412.025	718.38
412.249	759.38
412.472	783.38
412.695	740.38
412.919	738.38
413.142	732.38
413.365	754.38
413.589	740.38
413.812	739.38
414.035	716.38
414.258	720.38
414.482	697.38
414.705	720.38
414.928	755.38
415.151	732.38
415.374	709.38
415.597	713.38
415.821	711.38
416.044	701.38
416.267	704.38
416.49	728.38
416.713	701.38
416.936	720.38
417.159	713.38
417.382	700.38
417.605	710.38
417.828	676.38
418.051	694.38
418.274	703.38
418.497	701.38
418.72	704.38
418.943	710.38
419.166	748.38
419.389	782.38
419.611	774.38
419.834	716.38
420.057	734.38
420.28	718.38
420.503	683.38
420.726	663.38
420.948	668.38
421.171	696.38
421.394	681.38
421.617	683.38
421.839	703.38
422.062	709.38
422.285	660.38
422.507	689.38
422.73	704.38
422.953	687.38
423.175	676.38
423.398	696.38
423.621	674.38
423.843	680.38
424.066	685.38
424.288	706.38
424.511	676.38
424.733	698.38
424.956	681.38
425.178	675.38
425.401	679.38
425.623	682.38
425.846	653.38
426.068	675.38
426.291	662.38
426.513	671.38
426.735	656.38
426.958	696.38
427.18	654.38
427.402	642.38
427.625	663.38
427.847	634.38
428.069	658.38
428.292	685.38
428.514	653.38
428.736	655.38
428.958	662.38
429.181	673.38
429.403	651.38
429.625	656.38
429.847	643.38
430.069	642.38
430.292	645.38
430.514	651.38
430.736	671.38
430.958	686.38
431.18	680.38
431.402	651.38
431.624	673.38
431.846	661.38
432.068	650.38
432.29	658.38
432.512	645.38
432.734	690.38
432.956	676.38
433.178	684.38
433.4	662.38
433.622	674.38
433.844	690.38
434.066	679.38
434.287	646.38
434.509	682.38
434.731	690.38
434.953	681.38
435.175	679.38
435.397	695.38
435.618	673.38
435.84	672.38
436.062	665.38
436.284	670.38
436.505	648.38
436.727	646.38
436.949	664.38
437.17	632.38
437.392	649.38
437.614	648.38
437.835	628.38
438.057	664.38
438.278	626.38
438.5	615.38
438.721	646.38
438.943	650.38
439.165	650.38
439.386	643.38
439.608	648.38
439.829	647.38
440.05	637.38
440.272	657.38
440.493	651.38
440.715	650.38
440.936	657.38
441.158	657.38
441.379	645.38
441.6	685.38
441.822	652.38
442.043	678.38
442.264	646.38
442.486	664.38
442.707	680.38
442.928	674.38
443.149	667.38
443.371	674.38
443.592	676.38
443.813	668.38
444.034	654.38
444.255	692.38
444.476	668.38
444.698	675.38
444.919	714.38
445.14	798.38
445.361	732.38
445.582	665.38
445.803	670.38
446.024	667.38
446.245	645.38
446.466	673.38
446.687	633.38
446.908	627.38
447.129	650.38
447.35	640.38
447.571	631.38
447.792	623.38
448.013	594.38
448.234	604.38
448.455	622.38
448.675	620.38
448.896	610.38
449.117	590.38
449.338	608.38
449.559	593.38
449.779	595.38
450	603.38
450.221	587.38
450.442	582.38
450.662	593.38
450.883	586.38
451.104	590.38
451.324	608.38
451.545	592.38
451.766	588.38
451.986	578.38
452.207	579.38
452.428	588.38
452.648	558.38
452.869	580.38
453.089	574.38
453.31	580.38
453.53	582.38
453.751	576.38
453.971	571.38
454.192	572.38
454.412	576.38
454.633	563.38
454.853	566.38
455.073	554.38
455.294	557.38
455.514	585.38
455.734	588.38
455.955	562.38
456.175	574.38
456.395	567.38
456.616	585.38
456.836	573.38
457.056	558.38
457.276	564.38
457.497	600.38
457.717	577.38
457.937	587.38
458.157	583.38
458.377	629.38
458.598	618.38
458.818	594.38
459.038	636.38
459.258	636.38
459.478	637.38
459.698	644.38
459.918	656.38
460.138	649.38
460.358	674.38
460.578	678.38
460.798	671.38
461.018	681.38
461.238	694.38
461.458	693.38
461.678	694.38
461.898	717.38
462.118	692.38
462.338	710.38
462.558	734.38
462.777	743.38
462.997	760.38
463.217	745.38
463.437	774.38
463.657	766.38
463.876	759.38
464.096	765.38
464.316	742.38
464.536	756.38
464.755	731.38
464.975	741.38
465.195	715.38
465.414	706.38
465.634	678.38
465.854	677.38
466.073	666.38
466.293	650.38
466.512	652.38
466.732	646.38
466.951	668.38
467.171	644.38
467.391	640.38
467.61	638.38
467.829	621.38
468.049	620.38
468.268	610.38
468.488	601.38
468.707	649.38
468.927	657.38
469.146	641.38
469.365	643.38
469.585	614.38
469.804	630.38
470.023	648.38
470.243	630.38
470.462	635.38
470.681	620.38
470.901	620.38
471.12	639.38
471.339	631.38
471.558	632.38
471.777	619.38
471.997	650.38
472.216	656.38
472.435	641.38
472.654	649.38
472.873	627.38
473.092	632.38
473.311	621.38
473.53	620.38
473.749	628.38
473.968	602.38
474.187	627.38
474.406	650.38
474.625	623.38
474.844	636.38
475.063	601.38
475.282	634.38
475.501	642.38
475.72	621.38
475.939	652.38
476.158	662.38
476.377	669.38
476.596	709.38
476.814	707.38
477.033	679.38
477.252	687.38
477.471	674.38
477.69	690.38
477.908	697.38
478.127	704.38
478.346	710.38
478.564	687.38
478.783	708.38
479.002	744.38
479.22	737.38
479.439	755.38
479.658	731.38
479.876	743.38
480.095	746.38
480.313	771.38
480.532	741.38
480.751	760.38
480.969	746.38
481.188	730.38
481.406	773.38
481.624	758.38
481.843	725.38
482.061	774.38
482.28	770.38
482.498	751.38
482.717	742.38
482.935	747.38
483.153	736.38
483.372	753.38
483.59	744.38
483.808	734.38
484.027	722.38
484.245	764.38
484.463	755.38
484.681	736.38
484.9	742.38
485.118	783.38
485.336	745.38
485.554	772.38
485.772	762.38
485.99	743.38
486.209	763.38
486.427	774.38
486.645	743.38
486.863	775.38
487.081	766.38
487.299	789.38
487.517	775.38
487.735	770.38
487.953	750.38
488.171	772.38
488.389	750.38
488.607	775.38
488.825	780.38
489.043	781.38
489.261	787.38
489.479	773.38
489.696	774.38
489.914	776.38
490.132	755.38
490.35	770.38
490.568	789.38
490.786	785.38
491.003	782.38
491.221	770.38
491.439	747.38
491.657	776.38
491.874	773.38
492.092	780.38
492.31	803.38
492.527	779.38
492.745	789.38
492.963	792.38
493.18	771.38
493.398	794.38
493.615	790.38
493.833	780.38
494.05	762.38
494.268	765.38
494.485	808.38
494.703	796.38
494.92	770.38
495.138	782.38
495.355	783.38
495.573	798.38
495.79	806.38
496.008	838.38
496.225	831.38
496.442	814.38
496.66	820.38
496.877	841.38
497.094	878.38
497.312	866.38
497.529	886.38
497.746	910.38
497.963	897.38
498.181	931.38
498.398	990.38
498.615	1004.38
498.832	1024.38
499.049	1047.38
499.267	1078.38
499.484	1103.38
499.701	1154.38
499.918	1220.38
500.135	1280.38
500.352	1302.38
500.569	1324.38
500.786	1316.38
501.003	1309.38
501.22	1247.38
501.437	1210.38
501.654	1160.38
501.871	1110.38
502.088	1066.38
502.305	1007.38
502.522	1032.38
502.739	996.38
502.956	950.38
503.172	937.38
503.389	935.38
503.606	917.38
503.823	848.38
504.04	887.38
504.256	887.38
504.473	825.38
504.69	850.38
504.907	857.38
505.123	853.38
505.34	806.38
505.557	795.38
505.773	776.38
505.99	772.38
506.207	757.38
506.423	750.38
506.64	713.38
506.856	743.38
507.073	754.38
507.289	746.38
507.506	727.38
507.722	711.38
507.939	719.38
508.155	730.38
508.372	702.38
508.588	679.38
508.805	674.38
509.021	701.38
509.238	674.38
509.454	666.38
509.67	647.38
509.887	675.38
510.103	668.38
510.319	645.38
510.536	678.38
510.752	676.38
510.968	670.38
511.184	636.38
511.401	643.38
511.617	655.38
511.833	638.38
512.049	647.38
512.265	658.38
512.481	643.38
512.698	662.38
512.914	669.38
513.13	661.38
513.346	635.38
513.562	639.38
513.778	631.38
513.994	673.38
514.21	650.38
514.426	666.38
514.642	648.38
514.858	661.38
515.074	666.38
515.29	670.38
515.506	674.38
515.721	663.38
515.937	672.38
516.153	668.38
516.369	660.38
516.585	691.38
516.801	701.38
517.016	714.38
517.232	718.38
517.448	727.38
517.664	726.38
517.879	714.38
518.095	722.38
518.311	723.38
518.527	719.38
518.742	692.38
518.958	707.38
519.173	694.38
519.389	694.38
519.605	672.38
519.82	664.38
520.036	701.38
520.251	695.38
520.467	663.38
520.682	648.38
520.898	643.38
521.113	629.38
521.329	606.38
521.544	636.38
521.76	632.38
521.975	622.38
522.19	618.38
522.406	585.38
522.621	627.38
522.836	620.38
523.052	611.38
523.267	614.38
523.482	600.38
523.698	578.38
523.913	622.38
524.128	605.38
524.343	594.38
524.559	596.38
524.774	601.38
524.989	610.38
525.204	599.38
525.419	595.38
525.634	595.38
525.849	595.38
526.064	535.38
526.28	595.38
526.495	589.38
526.71	589.38
526.925	590.38
527.14	567.38
527.355	584.38
527.57	555.38
527.785	591.38
527.999	588.38
528.214	576.38
528.429	562.38
528.644	586.38
528.859	560.38
529.074	578.38
529.289	570.38
529.503	572.38
529.718	580.38
529.933	580.38
530.148	558.38
530.363	589.38
530.577	555.38
530.792	572.38
531.007	554.38
531.221	574.38
531.436	560.38
531.651	574.38
531.865	553.38
532.08	549.38
532.295	555.38
532.509	567.38
532.724	559.38
532.938	543.38
533.153	559.38
533.367	559.38
533.582	547.38
533.796	548.38
534.011	557.38
534.225	546.38
534.44	556.38
534.654	538.38
534.868	542.38
535.083	528.38
535.297	572.38
535.511	547.38
535.726	547.38
535.94	525.38
536.154	538.38
536.369	522.38
536.583	524.38
536.797	535.38
537.011	528.38
537.225	532.38
537.44	530.38
537.654	523.38
537.868	521.38
538.082	551.38
538.296	542.38
538.51	522.38
538.724	524.38
538.938	514.38
539.153	534.38
539.367	532.38
539.581	514.38
539.795	522.38
540.009	526.38
540.222	514.38
540.436	526.38
540.65	520.38
540.864	534.38
541.078	522.38
541.292	512.38
541.506	520.38
541.72	536.38
541.934	524.38
542.147	540.38
542.361	514.38
542.575	517.38
542.789	527.38
543.002	474.38
543.216	502.38
543.43	514.38
543.644	510.38
543.857	516.38
544.071	504.38
544.285	538.38
544.498	495.38
544.712	524.38
544.925	489.38
545.139	526.38
545.352	508.38
545.566	495.38
545.779	510.38
545.993	506.38
546.206	507.38
546.42	482.38
546.633	491.38
546.847	510.38
547.06	500.38
547.274	485.38
547.487	516.38
547.7	501.38
547.914	526.38
548.127	530.38
548.34	520.38
548.554	500.38
548.767	493.38
548.98	521.38
549.193	523.38
549.407	511.38
549.62	505.38
549.833	510.38
550.046	505.38
550.259	546.38
550.473	527.38
550.686	520.38
550.899	507.38
551.112	527.38
551.325	533.38
551.538	520.38
551.751	510.38
551.964	517.38
552.177	484.38
552.39	503.38
552.603	504.38
552.816	512.38
553.029	509.38
553.242	529.38
553.455	500.38
553.667	529.38
553.88	503.38
554.093	545.38
554.306	525.38
554.519	505.38
554.732	506.38
554.944	489.38
555.157	484.38
555.37	468.38
555.583	477.38
555.795	484.38
556.008	486.38
556.221	463.38
556.433	461.38
556.646	481.38
556.859	479.38
557.071	459.38
557.284	466.38
557.496	455.38
557.709	473.38
557.921	473.38
558.134	451.38
558.346	456.38
558.559	440.38
558.771	450.38
558.984	431.38
559.196	456.38
559.409	455.38
559.621	445.38
559.833	426.38
560.046	425.38
560.258	443.38
560.47	439.38
560.683	447.38
560.895	439.38
561.107	426.38
561.32	461.38
561.532	438.38
561.744	439.38
561.956	437.38
562.168	449.38
562.381	439.38
562.593	452.38
562.805	476.38
563.017	445.38
563.229	439.38
563.441	442.38
563.653	443.38
563.865	465.38
564.077	446.38
564.289	454.38
564.501	471.38
564.713	474.38
564.925	464.38
565.137	478.38
565.349	476.38
565.561	478.38
565.773	489.38
565.985	507.38
566.197	518.38
566.408	545.38
566.62	540.38
566.832	548.38
567.044	548.38
567.255	524.38
567.467	555.38
567.679	569.38
567.891	536.38
568.102	533.38
568.314	533.38
568.526	519.38
568.737	518.38
568.949	518.38
569.161	495.38
569.372	446.38
569.584	446.38
569.795	457.38
570.007	451.38
570.218	437.38
570.43	462.38
570.641	428.38
570.853	437.38
571.064	429.38
571.276	405.38
571.487	435.38
571.698	419.38
571.91	408.38
572.121	394.38
572.333	403.38
572.544	398.38
572.755	394.38
572.966	381.38
573.178	378.38
573.389	388.38
573.6	391.38
573.811	372.38
574.023	361.38
574.234	380.38
574.445	372.38
574.656	365.38
574.867	388.38
575.078	363.38
575.289	353.38
575.501	328.38
575.712	342.38
575.923	363.38
576.134	371.38
576.345	354.38
576.556	349.38
576.767	346.38
576.978	334.38
577.188	344.38
577.399	350.38
577.61	344.38
577.821	313.38
578.032	342.38
578.243	338.38
578.454	335.38
578.665	323.38
578.875	338.38
579.086	336.38
579.297	342.38
579.508	323.38
579.718	326.38
579.929	335.38
580.14	323.38
580.35	333.38
580.561	334.38
580.772	336.38
580.982	318.38
581.193	323.38
581.403	327.38
581.614	314.38
581.825	324.38
582.035	329.38
582.246	314.38
582.456	319.38
582.667	322.38
582.877	306.38
583.087	317.38
583.298	310.38
583.508	310.38
583.719	315.38
583.929	306.38
584.139	312.38
584.35	285.38
584.56	304.38
584.77	297.38
584.981	314.38
585.191	325.38
585.401	294.38
585.611	301.38
585.821	315.38
586.032	302.38
586.242	312.38
586.452	300.38
586.662	302.38
586.872	312.38
587.082	299.38
587.292	300.38
587.502	302.38
587.713	310.38
587.923	322.38
588.133	288.38
588.343	295.38
588.553	290.38
588.762	290.38
588.972	310.38
589.182	318.38
589.392	332.38
589.602	305.38
589.812	307.38
590.022	309.38
590.232	303.38
590.441	283.38
590.651	288.38
590.861	310.38
591.071	316.38
591.281	313.38
591.49	291.38
591.7	310.38
591.91	309.38
592.119	311.38
592.329	313.38
592.539	320.38
592.748	320.38
592.958	323.38
593.167	308.38
593.377	316.38
593.587	328.38
593.796	307.38
594.006	335.38
594.215	301.38
594.424	317.38
594.634	306.38
594.843	300.38
595.053	312.38
595.262	301.38
595.472	297.38
595.681	291.38
595.89	288.38
596.1	293.38
596.309	288.38
596.518	292.38
596.727	293.38
596.937	268.38
597.146	303.38
597.355	290.38
597.564	274.38
597.774	283.38
597.983	283.38
598.192	282.38
598.401	267.38
598.61	259.38
598.819	263.38
599.028	279.38
599.237	266.38
599.446	271.38
599.655	267.38
599.864	267.38
600.073	261.38
600.282	284.38
600.491	258.38
600.7	271.38
600.909	254.38
601.118	266.38
601.327	266.38
601.536	248.38
601.745	236.38
601.953	234.38
602.162	258.38
602.371	256.38
602.58	248.38
602.789	244.38
602.997	239.38
603.206	261.38
603.415	266.38
603.623	243.38
603.832	246.38
604.041	246.38
604.249	235.38
604.458	250.38
604.666	259.38
604.875	247.38
605.084	254.38
605.292	252.38
605.501	250.38
605.709	224.38
605.918	247.38
606.126	252.38
606.334	258.38
606.543	251.38
606.751	248.38
606.96	242.38
607.168	241.38
607.376	234.38
607.585	242.38
607.793	232.38
608.001	253.38
608.21	232.38
608.418	245.38
608.626	236.38
608.834	239.38
609.043	229.38
609.251	239.38
609.459	229.38
609.667	232.38
609.875	227.38
610.083	209.38
610.291	229.38
610.499	237.38
610.707	238.38
610.916	235.38
611.124	231.38
611.332	235.38
611.54	209.38
611.748	237.38
611.955	227.38
612.163	238.38
612.371	238.38
612.579	239.38
612.787	228.38
612.995	214.38
613.203	218.38
613.411	221.38
613.618	214.38
613.826	228.38
614.034	229.38
614.242	233.38
614.449	232.38
614.657	232.38
614.865	215.38
615.072	238.38
615.28	228.38
615.488	232.38
615.695	234.38
615.903	226.38
616.111	221.38
616.318	228.38
616.526	248.38
616.733	249.38
616.941	226.38
617.148	235.38
617.356	210.38
617.563	227.38
617.771	224.38
617.978	226.38
618.185	220.38
618.393	207.38
618.6	227.38
618.807	218.38
619.015	206.38
619.222	214.38
619.429	233.38
619.637	236.38
619.844	209.38
620.051	213.38
620.258	211.38
620.466	201.38
620.673	210.38
620.88	214.38
621.087	226.38
621.294	222.38
621.501	220.38
621.708	218.38
621.915	218.38
622.122	232.38
622.329	221.38
622.536	219.38
622.743	207.38
622.95	210.38
623.157	202.38
623.364	201.38
623.571	206.38
623.778	218.38
623.985	213.38
624.192	217.38
624.399	211.38
624.606	193.38
624.812	207.38
625.019	211.38
625.226	190.38
625.433	204.38
625.639	207.38
625.846	210.38
626.053	216.38
626.259	211.38
626.466	200.38
626.673	205.38
626.879	202.38
627.086	203.38
627.293	200.38
627.499	200.38
627.706	202.38
627.912	188.38
628.119	189.38
628.325	199.38
628.532	194.38
628.738	208.38
628.945	211.38
629.151	192.38
629.357	195.38
629.564	192.38
629.77	190.38
629.976	183.38
630.183	201.38
630.389	184.38
630.595	192.38
630.802	204.38
631.008	193.38
631.214	192.38
631.42	190.38
631.627	199.38
631.833	207.38
632.039	171.38
632.245	197.38
632.451	194.38
632.657	184.38
632.863	172.38
633.069	190.38
633.275	188.38
633.481	172.38
633.688	186.38
633.893	188.38
634.099	173.38
634.305	186.38
634.511	187.38
634.717	173.38
634.923	182.38
635.129	174.38
635.335	178.38
635.541	173.38
635.747	193.38
635.952	178.38
636.158	200.38
636.364	183.38
636.57	176.38
636.775	180.38
636.981	171.38
637.187	175.38
637.392	180.38
637.598	183.38
637.804	159.38
638.009	186.38
638.215	203.38
638.421	174.38
638.626	189.38
638.832	170.38
639.037	169.38
639.243	168.38
639.448	187.38
639.654	179.38
639.859	189.38
640.065	167.38
640.27	177.38
640.475	172.38
640.681	182.38
640.886	174.38
641.091	180.38
641.297	174.38
641.502	182.38
641.707	178.38
641.913	183.38
642.118	175.38
642.323	183.38
642.528	186.38
642.733	178.38
642.939	164.38
643.144	189.38
643.349	181.38
643.554	174.38
643.759	190.38
643.964	160.38
644.169	180.38
644.374	182.38
644.579	182.38
644.784	174.38
644.989	192.38
645.194	169.38
645.399	171.38
645.604	168.38
645.809	175.38
646.014	178.38
646.219	178.38
646.423	155.38
646.628	165.38
646.833	183.38
647.038	171.38
647.243	186.38
647.447	175.38
647.652	166.38
647.857	166.38
648.062	181.38
648.266	190.38
648.471	183.38
648.676	178.38
648.88	174.38
649.085	182.38
649.289	161.38
649.494	176.38
649.698	167.38
649.903	186.38
650.107	180.38
650.312	175.38
650.516	155.38
650.721	172.38
650.925	163.38
651.13	183.38
651.334	168.38
651.539	161.38
651.743	178.38
651.947	165.38
652.152	166.38
652.356	175.38
652.56	166.38
652.764	160.38
652.969	161.38
653.173	175.38
653.377	154.38
653.581	168.38
653.785	167.38
653.99	173.38
654.194	163.38
654.398	162.38
654.602	155.38
654.806	164.38
655.01	158.38
655.214	166.38
655.418	173.38
655.622	172.38
655.826	178.38
656.03	173.38
656.234	177.38
656.438	172.38
656.642	159.38
656.846	188.38
657.049	169.38
657.253	158.38
657.457	143.38
657.661	141.38
657.865	152.38
658.068	136.38
658.272	128.38
658.476	134.38
658.68	131.38
658.883	114.38
659.087	130.38
659.291	116.38
659.494	106.38
659.698	114.38
659.901	108.38
660.105	116.38
660.309	101.38
660.512	109.38
660.716	102.38
660.919	102.38
661.123	100.38
661.326	101.38
661.53	103.38
661.733	95.38
661.936	77.38
662.14	81.38
662.343	91.38
662.546	87.38
662.75	81.38
662.953	93.38
663.156	92.38
663.36	88.38
663.563	82.38
663.766	93.38
663.969	88.38
664.173	88.38
664.376	90.38
664.579	84.38
664.782	87.38
664.985	85.38
665.188	81.38
665.391	87.38
665.594	81.38
665.797	80.38
666	84.38
666.203	87.38
666.406	78.38
666.609	96.38
666.812	87.38
667.015	76.38
667.218	86.38
667.421	90.38
667.624	90.38
667.827	86.38
668.03	87.38
668.232	101.38
668.435	93.38
668.638	85.38
668.841	79.38
669.043	100.38
669.246	88.38
669.449	80.38
669.651	86.38
669.854	83.38
670.057	92.38
670.259	91.38
670.462	79.38
670.665	83.38
670.867	94.38
671.07	69.38
671.272	82.38
671.475	81.38
671.677	78.38
671.88	88.38
672.082	84.38
672.284	92.38
672.487	93.38
672.689	92.38
672.892	90.38
