Data from Fe(NO3)3@0.0125M.TitratingCurve.Agarose3%dH2O.NegLispCup.LampEnergy10.LIBS07252019_HRD10591_16-59-41-336.txt Node
Date: Thu Jul 25 16:59:41 EDT 2019
User: cochatt
Spectrometer: HR+D1059
Trigger mode: 1
Integration Time (sec): 1.000000E-1
Scans to average: 1
Electric dark correction enabled: true
Nonlinearity correction enabled: false
Boxcar width: 0
XAxis mode: Wavelengths
Number of Pixels in Spectrum: 2048
>>>>>Begin Spectral Data<<<<<
223.165	-5.62
223.4	-5.62
223.635	-5.62
223.869	-15.62
224.104	-31.62
224.338	-11.62
224.573	-16.62
224.808	-14.62
225.042	-9.62
225.277	-7.62
225.511	6.38
225.746	7.38
225.98	17.38
226.215	7.38
226.449	14.38
226.683	18.38
226.918	18.38
227.152	23.38
227.387	36.38
227.621	36.38
227.856	41.38
228.09	56.38
228.324	62.38
228.559	58.38
228.793	69.38
229.027	73.38
229.262	81.38
229.496	80.38
229.73	64.38
229.964	89.38
230.199	82.38
230.433	79.38
230.667	86.38
230.901	97.38
231.136	103.38
231.37	95.38
231.604	105.38
231.838	84.38
232.072	96.38
232.306	102.38
232.541	106.38
232.775	105.38
233.009	102.38
233.243	116.38
233.477	112.38
233.711	102.38
233.945	106.38
234.179	109.38
234.413	97.38
234.647	92.38
234.881	99.38
235.115	101.38
235.349	90.38
235.583	102.38
235.817	97.38
236.051	113.38
236.285	96.38
236.519	98.38
236.753	117.38
236.987	111.38
237.221	104.38
237.455	114.38
237.689	104.38
237.922	105.38
238.156	109.38
238.39	100.38
238.624	108.38
238.858	119.38
239.091	93.38
239.325	111.38
239.559	104.38
239.793	95.38
240.027	105.38
240.26	93.38
240.494	104.38
240.728	105.38
240.961	110.38
241.195	112.38
241.429	103.38
241.662	103.38
241.896	109.38
242.13	109.38
242.363	101.38
242.597	110.38
242.83	113.38
243.064	109.38
243.298	92.38
243.531	102.38
243.765	119.38
243.998	114.38
244.232	114.38
244.465	116.38
244.699	101.38
244.932	100.38
245.166	120.38
245.399	115.38
245.633	114.38
245.866	106.38
246.099	108.38
246.333	118.38
246.566	124.38
246.8	99.38
247.033	119.38
247.266	112.38
247.5	113.38
247.733	126.38
247.966	116.38
248.2	117.38
248.433	118.38
248.666	131.38
248.899	120.38
249.133	122.38
249.366	127.38
249.599	110.38
249.832	121.38
250.066	124.38
250.299	121.38
250.532	139.38
250.765	118.38
250.998	119.38
251.231	130.38
251.465	139.38
251.698	121.38
251.931	135.38
252.164	140.38
252.397	130.38
252.63	128.38
252.863	128.38
253.096	125.38
253.329	125.38
253.562	131.38
253.795	144.38
254.028	143.38
254.261	137.38
254.494	132.38
254.727	144.38
254.96	143.38
255.193	134.38
255.426	147.38
255.659	131.38
255.892	139.38
256.124	134.38
256.357	128.38
256.59	136.38
256.823	136.38
257.056	140.38
257.289	140.38
257.521	144.38
257.754	150.38
257.987	145.38
258.22	143.38
258.452	156.38
258.685	126.38
258.918	146.38
259.151	152.38
259.383	156.38
259.616	167.38
259.849	147.38
260.081	154.38
260.314	154.38
260.547	153.38
260.779	149.38
261.012	158.38
261.244	160.38
261.477	156.38
261.71	177.38
261.942	143.38
262.175	149.38
262.407	146.38
262.64	153.38
262.872	153.38
263.105	157.38
263.337	180.38
263.57	167.38
263.802	156.38
264.035	162.38
264.267	160.38
264.499	146.38
264.732	162.38
264.964	165.38
265.197	158.38
265.429	140.38
265.661	166.38
265.894	162.38
266.126	175.38
266.358	154.38
266.591	146.38
266.823	158.38
267.055	163.38
267.287	158.38
267.52	165.38
267.752	168.38
267.984	184.38
268.216	160.38
268.448	171.38
268.681	161.38
268.913	174.38
269.145	163.38
269.377	173.38
269.609	169.38
269.841	172.38
270.073	171.38
270.306	173.38
270.538	167.38
270.77	169.38
271.002	165.38
271.234	191.38
271.466	173.38
271.698	180.38
271.93	191.38
272.162	180.38
272.394	194.38
272.626	171.38
272.858	184.38
273.09	181.38
273.322	193.38
273.553	176.38
273.785	213.38
274.017	196.38
274.249	201.38
274.481	212.38
274.713	216.38
274.945	205.38
275.176	196.38
275.408	197.38
275.64	204.38
275.872	192.38
276.104	203.38
276.335	210.38
276.567	212.38
276.799	209.38
277.031	215.38
277.262	201.38
277.494	205.38
277.726	209.38
277.957	220.38
278.189	215.38
278.421	196.38
278.652	192.38
278.884	193.38
279.115	202.38
279.347	211.38
279.579	222.38
279.81	193.38
280.042	223.38
280.273	199.38
280.505	212.38
280.736	218.38
280.968	231.38
281.199	218.38
281.431	201.38
281.662	204.38
281.894	232.38
282.125	226.38
282.356	231.38
282.588	221.38
282.819	202.38
283.051	241.38
283.282	245.38
283.513	232.38
283.745	216.38
283.976	234.38
284.207	237.38
284.439	239.38
284.67	238.38
284.901	234.38
285.132	232.38
285.364	239.38
285.595	247.38
285.826	248.38
286.057	258.38
286.288	251.38
286.52	249.38
286.751	240.38
286.982	251.38
287.213	246.38
287.444	240.38
287.675	248.38
287.906	243.38
288.138	253.38
288.369	257.38
288.6	247.38
288.831	246.38
289.062	259.38
289.293	253.38
289.524	269.38
289.755	273.38
289.986	285.38
290.217	264.38
290.448	266.38
290.679	259.38
290.91	260.38
291.141	262.38
291.371	271.38
291.602	272.38
291.833	257.38
292.064	290.38
292.295	279.38
292.526	268.38
292.757	274.38
292.987	273.38
293.218	280.38
293.449	268.38
293.68	270.38
293.91	272.38
294.141	277.38
294.372	274.38
294.603	272.38
294.833	272.38
295.064	285.38
295.295	280.38
295.525	263.38
295.756	280.38
295.987	290.38
296.217	290.38
296.448	281.38
296.679	283.38
296.909	287.38
297.14	293.38
297.37	290.38
297.601	287.38
297.831	293.38
298.062	292.38
298.292	294.38
298.523	310.38
298.753	306.38
298.984	284.38
299.214	296.38
299.445	296.38
299.675	292.38
299.905	321.38
300.136	286.38
300.366	305.38
300.597	298.38
300.827	305.38
301.057	299.38
301.288	347.38
301.518	321.38
301.748	303.38
301.979	330.38
302.209	331.38
302.439	310.38
302.669	314.38
302.9	312.38
303.13	323.38
303.36	322.38
303.59	341.38
303.82	324.38
304.051	343.38
304.281	332.38
304.511	338.38
304.741	329.38
304.971	332.38
305.201	329.38
305.431	324.38
305.661	335.38
305.891	335.38
306.121	322.38
306.352	337.38
306.582	317.38
306.812	322.38
307.042	334.38
307.272	343.38
307.502	349.38
307.731	352.38
307.961	346.38
308.191	343.38
308.421	336.38
308.651	342.38
308.881	346.38
309.111	350.38
309.341	336.38
309.571	330.38
309.8	334.38
310.03	329.38
310.26	343.38
310.49	343.38
310.72	326.38
310.949	363.38
311.179	354.38
311.409	372.38
311.639	361.38
311.868	355.38
312.098	354.38
312.328	368.38
312.557	374.38
312.787	358.38
313.017	350.38
313.246	350.38
313.476	374.38
313.706	358.38
313.935	378.38
314.165	381.38
314.394	394.38
314.624	400.38
314.853	375.38
315.083	371.38
315.312	385.38
315.542	390.38
315.771	376.38
316.001	384.38
316.23	384.38
316.46	384.38
316.689	389.38
316.919	398.38
317.148	400.38
317.377	396.38
317.607	378.38
317.836	403.38
318.065	394.38
318.295	422.38
318.524	401.38
318.753	413.38
318.983	388.38
319.212	398.38
319.441	403.38
319.67	389.38
319.9	397.38
320.129	405.38
320.358	408.38
320.587	400.38
320.816	409.38
321.046	410.38
321.275	424.38
321.504	413.38
321.733	397.38
321.962	405.38
322.191	424.38
322.42	397.38
322.649	411.38
322.878	393.38
323.108	415.38
323.337	423.38
323.566	422.38
323.795	424.38
324.024	416.38
324.253	409.38
324.482	416.38
324.71	427.38
324.939	450.38
325.168	430.38
325.397	428.38
325.626	431.38
325.855	436.38
326.084	438.38
326.313	455.38
326.542	440.38
326.77	467.38
326.999	445.38
327.228	450.38
327.457	440.38
327.686	454.38
327.914	429.38
328.143	448.38
328.372	431.38
328.6	442.38
328.829	440.38
329.058	418.38
329.287	448.38
329.515	459.38
329.744	452.38
329.972	443.38
330.201	433.38
330.43	441.38
330.658	439.38
330.887	439.38
331.115	439.38
331.344	447.38
331.572	455.38
331.801	441.38
332.03	477.38
332.258	463.38
332.486	467.38
332.715	434.38
332.943	450.38
333.172	454.38
333.4	463.38
333.629	485.38
333.857	476.38
334.085	491.38
334.314	477.38
334.542	473.38
334.771	493.38
334.999	481.38
335.227	476.38
335.455	474.38
335.684	454.38
335.912	465.38
336.14	484.38
336.369	494.38
336.597	499.38
336.825	482.38
337.053	481.38
337.281	484.38
337.51	476.38
337.738	479.38
337.966	474.38
338.194	466.38
338.422	452.38
338.65	506.38
338.878	498.38
339.106	494.38
339.334	490.38
339.562	463.38
339.79	457.38
340.018	478.38
340.246	468.38
340.474	466.38
340.702	497.38
340.93	494.38
341.158	476.38
341.386	473.38
341.614	453.38
341.842	471.38
342.07	488.38
342.298	473.38
342.526	473.38
342.754	476.38
342.981	481.38
343.209	490.38
343.437	500.38
343.665	480.38
343.893	471.38
344.12	489.38
344.348	509.38
344.576	495.38
344.804	504.38
345.031	470.38
345.259	494.38
345.487	489.38
345.714	463.38
345.942	475.38
346.17	488.38
346.397	485.38
346.625	439.38
346.853	472.38
347.08	465.38
347.308	469.38
347.535	470.38
347.763	484.38
347.99	470.38
348.218	464.38
348.445	463.38
348.673	462.38
348.9	501.38
349.128	504.38
349.355	471.38
349.583	474.38
349.81	468.38
350.037	453.38
350.265	457.38
350.492	457.38
350.72	462.38
350.947	484.38
351.174	521.38
351.402	458.38
351.629	474.38
351.856	464.38
352.083	471.38
352.311	492.38
352.538	489.38
352.765	498.38
352.992	497.38
353.22	461.38
353.447	470.38
353.674	471.38
353.901	474.38
354.128	495.38
354.355	481.38
354.583	497.38
354.81	475.38
355.037	495.38
355.264	455.38
355.491	499.38
355.718	480.38
355.945	489.38
356.172	483.38
356.399	504.38
356.626	475.38
356.853	491.38
357.08	474.38
357.307	482.38
357.534	497.38
357.761	480.38
357.988	510.38
358.215	489.38
358.441	484.38
358.668	498.38
358.895	477.38
359.122	506.38
359.349	503.38
359.576	481.38
359.802	489.38
360.029	462.38
360.256	482.38
360.483	476.38
360.709	485.38
360.936	496.38
361.163	480.38
361.39	505.38
361.616	476.38
361.843	486.38
362.07	489.38
362.296	476.38
362.523	506.38
362.749	489.38
362.976	487.38
363.203	511.38
363.429	491.38
363.656	512.38
363.882	478.38
364.109	510.38
364.335	471.38
364.562	502.38
364.788	516.38
365.015	512.38
365.241	504.38
365.468	497.38
365.694	510.38
365.92	506.38
366.147	512.38
366.373	494.38
366.599	501.38
366.826	490.38
367.052	494.38
367.278	503.38
367.505	528.38
367.731	504.38
367.957	503.38
368.184	528.38
368.41	531.38
368.636	532.38
368.862	511.38
369.089	513.38
369.315	535.38
369.541	526.38
369.767	529.38
369.993	543.38
370.219	536.38
370.445	541.38
370.672	541.38
370.898	530.38
371.124	516.38
371.35	506.38
371.576	551.38
371.802	505.38
372.028	548.38
372.254	534.38
372.48	516.38
372.706	538.38
372.932	548.38
373.158	527.38
373.384	553.38
373.61	560.38
373.835	538.38
374.061	512.38
374.287	548.38
374.513	539.38
374.739	538.38
374.965	545.38
375.191	530.38
375.416	542.38
375.642	530.38
375.868	545.38
376.094	551.38
376.319	557.38
376.545	550.38
376.771	549.38
376.997	550.38
377.222	525.38
377.448	522.38
377.674	537.38
377.899	541.38
378.125	559.38
378.35	546.38
378.576	535.38
378.802	543.38
379.027	537.38
379.253	518.38
379.478	541.38
379.704	526.38
379.929	538.38
380.155	541.38
380.38	545.38
380.606	542.38
380.831	528.38
381.057	531.38
381.282	553.38
381.507	535.38
381.733	545.38
381.958	554.38
382.184	535.38
382.409	527.38
382.634	555.38
382.86	540.38
383.085	566.38
383.31	544.38
383.535	549.38
383.761	558.38
383.986	555.38
384.211	558.38
384.436	584.38
384.662	562.38
384.887	545.38
385.112	570.38
385.337	560.38
385.562	571.38
385.787	551.38
386.013	554.38
386.238	557.38
386.463	608.38
386.688	573.38
386.913	599.38
387.138	567.38
387.363	598.38
387.588	579.38
387.813	592.38
388.038	589.38
388.263	581.38
388.488	580.38
388.713	587.38
388.938	589.38
389.163	574.38
389.387	591.38
389.612	596.38
389.837	598.38
390.062	572.38
390.287	579.38
390.512	578.38
390.736	603.38
390.961	586.38
391.186	586.38
391.411	578.38
391.636	592.38
391.86	583.38
392.085	597.38
392.31	606.38
392.534	613.38
392.759	594.38
392.984	607.38
393.208	595.38
393.433	602.38
393.658	583.38
393.882	605.38
394.107	597.38
394.331	603.38
394.556	575.38
394.78	621.38
395.005	594.38
395.229	588.38
395.454	605.38
395.678	579.38
395.903	608.38
396.127	597.38
396.352	610.38
396.576	608.38
396.801	630.38
397.025	621.38
397.249	599.38
397.474	619.38
397.698	628.38
397.922	612.38
398.147	604.38
398.371	631.38
398.595	618.38
398.82	626.38
399.044	639.38
399.268	621.38
399.492	666.38
399.717	676.38
399.941	686.38
400.165	666.38
400.389	657.38
400.613	651.38
400.837	648.38
401.062	662.38
401.286	660.38
401.51	645.38
401.734	630.38
401.958	644.38
402.182	642.38
402.406	640.38
402.63	633.38
402.854	639.38
403.078	635.38
403.302	653.38
403.526	663.38
403.75	666.38
403.974	656.38
404.198	642.38
404.422	664.38
404.645	666.38
404.869	636.38
405.093	650.38
405.317	665.38
405.541	631.38
405.765	654.38
405.988	642.38
406.212	680.38
406.436	680.38
406.66	669.38
406.883	663.38
407.107	687.38
407.331	685.38
407.555	656.38
407.778	683.38
408.002	673.38
408.226	678.38
408.449	688.38
408.673	680.38
408.896	687.38
409.12	654.38
409.344	696.38
409.567	665.38
409.791	706.38
410.014	685.38
410.238	676.38
410.461	657.38
410.685	662.38
410.908	660.38
411.132	662.38
411.355	639.38
411.578	653.38
411.802	648.38
412.025	629.38
412.249	638.38
412.472	664.38
412.695	648.38
412.919	682.38
413.142	661.38
413.365	644.38
413.589	634.38
413.812	642.38
414.035	653.38
414.258	648.38
414.482	651.38
414.705	650.38
414.928	654.38
415.151	645.38
415.374	645.38
415.597	625.38
415.821	623.38
416.044	637.38
416.267	634.38
416.49	615.38
416.713	638.38
416.936	658.38
417.159	615.38
417.382	622.38
417.605	605.38
417.828	617.38
418.051	604.38
418.274	632.38
418.497	617.38
418.72	638.38
418.943	594.38
419.166	650.38
419.389	667.38
419.611	664.38
419.834	655.38
420.057	636.38
420.28	639.38
420.503	632.38
420.726	621.38
420.948	618.38
421.171	622.38
421.394	608.38
421.617	609.38
421.839	622.38
422.062	636.38
422.285	604.38
422.507	630.38
422.73	605.38
422.953	603.38
423.175	614.38
423.398	614.38
423.621	624.38
423.843	609.38
424.066	605.38
424.288	625.38
424.511	626.38
424.733	614.38
424.956	593.38
425.178	625.38
425.401	620.38
425.623	631.38
425.846	605.38
426.068	633.38
426.291	605.38
426.513	607.38
426.735	624.38
426.958	624.38
427.18	597.38
427.402	648.38
427.625	619.38
427.847	616.38
428.069	613.38
428.292	605.38
428.514	615.38
428.736	613.38
428.958	626.38
429.181	642.38
429.403	602.38
429.625	630.38
429.847	610.38
430.069	611.38
430.292	633.38
430.514	609.38
430.736	625.38
430.958	604.38
431.18	619.38
431.402	636.38
431.624	600.38
431.846	607.38
432.068	623.38
432.29	620.38
432.512	593.38
432.734	620.38
432.956	615.38
433.178	621.38
433.4	613.38
433.622	623.38
433.844	608.38
434.066	634.38
434.287	604.38
434.509	620.38
434.731	639.38
434.953	638.38
435.175	619.38
435.397	608.38
435.618	612.38
435.84	620.38
436.062	606.38
436.284	638.38
436.505	621.38
436.727	640.38
436.949	614.38
437.17	607.38
437.392	631.38
437.614	601.38
437.835	599.38
438.057	613.38
438.278	613.38
438.5	614.38
438.721	585.38
438.943	619.38
439.165	603.38
439.386	619.38
439.608	601.38
439.829	618.38
440.05	625.38
440.272	620.38
440.493	629.38
440.715	600.38
440.936	603.38
441.158	621.38
441.379	620.38
441.6	622.38
441.822	621.38
442.043	631.38
442.264	624.38
442.486	620.38
442.707	614.38
442.928	636.38
443.149	580.38
443.371	585.38
443.592	603.38
443.813	624.38
444.034	608.38
444.255	595.38
444.476	612.38
444.698	620.38
444.919	633.38
445.14	708.38
445.361	683.38
445.582	615.38
445.803	620.38
446.024	617.38
446.245	631.38
446.466	608.38
446.687	606.38
446.908	629.38
447.129	584.38
447.35	590.38
447.571	612.38
447.792	598.38
448.013	581.38
448.234	606.38
448.455	588.38
448.675	574.38
448.896	616.38
449.117	588.38
449.338	585.38
449.559	577.38
449.779	575.38
450	571.38
450.221	555.38
450.442	605.38
450.662	598.38
450.883	572.38
451.104	577.38
451.324	553.38
451.545	567.38
451.766	571.38
451.986	574.38
452.207	577.38
452.428	560.38
452.648	588.38
452.869	557.38
453.089	554.38
453.31	568.38
453.53	590.38
453.751	559.38
453.971	570.38
454.192	562.38
454.412	558.38
454.633	572.38
454.853	562.38
455.073	578.38
455.294	561.38
455.514	576.38
455.734	565.38
455.955	579.38
456.175	576.38
456.395	576.38
456.616	574.38
456.836	584.38
457.056	597.38
457.276	579.38
457.497	575.38
457.717	578.38
457.937	572.38
458.157	582.38
458.377	580.38
458.598	587.38
458.818	572.38
459.038	605.38
459.258	580.38
459.478	594.38
459.698	602.38
459.918	597.38
460.138	590.38
460.358	614.38
460.578	609.38
460.798	622.38
461.018	647.38
461.238	596.38
461.458	582.38
461.678	624.38
461.898	641.38
462.118	621.38
462.338	630.38
462.558	630.38
462.777	637.38
462.997	652.38
463.217	660.38
463.437	637.38
463.657	653.38
463.876	662.38
464.096	669.38
464.316	646.38
464.536	655.38
464.755	655.38
464.975	645.38
465.195	630.38
465.414	621.38
465.634	621.38
465.854	633.38
466.073	630.38
466.293	617.38
466.512	644.38
466.732	621.38
466.951	644.38
467.171	632.38
467.391	605.38
467.61	602.38
467.829	625.38
468.049	608.38
468.268	614.38
468.488	599.38
468.707	617.38
468.927	593.38
469.146	618.38
469.365	628.38
469.585	626.38
469.804	616.38
470.023	623.38
470.243	618.38
470.462	610.38
470.681	623.38
470.901	657.38
471.12	640.38
471.339	623.38
471.558	598.38
471.777	661.38
471.997	644.38
472.216	652.38
472.435	642.38
472.654	614.38
472.873	640.38
473.092	658.38
473.311	653.38
473.53	639.38
473.749	656.38
473.968	653.38
474.187	631.38
474.406	638.38
474.625	641.38
474.844	658.38
475.063	676.38
475.282	677.38
475.501	665.38
475.72	664.38
475.939	680.38
476.158	669.38
476.377	685.38
476.596	673.38
476.814	687.38
477.033	688.38
477.252	670.38
477.471	687.38
477.69	699.38
477.908	704.38
478.127	714.38
478.346	704.38
478.564	696.38
478.783	704.38
479.002	717.38
479.22	721.38
479.439	732.38
479.658	744.38
479.876	732.38
480.095	736.38
480.313	760.38
480.532	734.38
480.751	729.38
480.969	737.38
481.188	777.38
481.406	769.38
481.624	740.38
481.843	724.38
482.061	771.38
482.28	761.38
482.498	749.38
482.717	764.38
482.935	744.38
483.153	771.38
483.372	768.38
483.59	788.38
483.808	754.38
484.027	786.38
484.245	752.38
484.463	762.38
484.681	790.38
484.9	775.38
485.118	791.38
485.336	792.38
485.554	783.38
485.772	795.38
485.99	790.38
486.209	776.38
486.427	768.38
486.645	768.38
486.863	827.38
487.081	785.38
487.299	777.38
487.517	798.38
487.735	790.38
487.953	776.38
488.171	821.38
488.389	822.38
488.607	818.38
488.825	808.38
489.043	804.38
489.261	786.38
489.479	796.38
489.696	778.38
489.914	803.38
490.132	816.38
490.35	787.38
490.568	805.38
490.786	831.38
491.003	804.38
491.221	812.38
491.439	821.38
491.657	809.38
491.874	817.38
492.092	815.38
492.31	821.38
492.527	846.38
492.745	817.38
492.963	833.38
493.18	851.38
493.398	844.38
493.615	822.38
493.833	826.38
494.05	824.38
494.268	844.38
494.485	813.38
494.703	842.38
494.92	836.38
495.138	834.38
495.355	834.38
495.573	829.38
495.79	847.38
496.008	848.38
496.225	864.38
496.442	825.38
496.66	849.38
496.877	865.38
497.094	892.38
497.312	850.38
497.529	896.38
497.746	893.38
497.963	865.38
498.181	902.38
498.398	894.38
498.615	909.38
498.832	893.38
499.049	938.38
499.267	928.38
499.484	934.38
499.701	977.38
499.918	985.38
500.135	981.38
500.352	1002.38
500.569	1018.38
500.786	1003.38
501.003	985.38
501.22	970.38
501.437	974.38
501.654	932.38
501.871	920.38
502.088	940.38
502.305	922.38
502.522	904.38
502.739	912.38
502.956	885.38
503.172	878.38
503.389	887.38
503.606	889.38
503.823	882.38
504.04	873.38
504.256	848.38
504.473	849.38
504.69	847.38
504.907	846.38
505.123	833.38
505.34	815.38
505.557	802.38
505.773	786.38
505.99	817.38
506.207	792.38
506.423	791.38
506.64	785.38
506.856	796.38
507.073	794.38
507.289	775.38
507.506	780.38
507.722	769.38
507.939	775.38
508.155	777.38
508.372	759.38
508.588	757.38
508.805	741.38
509.021	778.38
509.238	758.38
509.454	745.38
509.67	753.38
509.887	749.38
510.103	731.38
510.319	743.38
510.536	730.38
510.752	720.38
510.968	722.38
511.184	726.38
511.401	707.38
511.617	709.38
511.833	729.38
512.049	712.38
512.265	714.38
512.481	726.38
512.698	728.38
512.914	750.38
513.13	728.38
513.346	707.38
513.562	734.38
513.778	719.38
513.994	719.38
514.21	720.38
514.426	702.38
514.642	733.38
514.858	753.38
515.074	701.38
515.29	744.38
515.506	726.38
515.721	726.38
515.937	708.38
516.153	719.38
516.369	716.38
516.585	721.38
516.801	732.38
517.016	711.38
517.232	741.38
517.448	757.38
517.664	752.38
517.879	746.38
518.095	721.38
518.311	748.38
518.527	738.38
518.742	746.38
518.958	735.38
519.173	757.38
519.389	728.38
519.605	724.38
519.82	728.38
520.036	720.38
520.251	713.38
520.467	724.38
520.682	722.38
520.898	724.38
521.113	709.38
521.329	728.38
521.544	705.38
521.76	694.38
521.975	705.38
522.19	702.38
522.406	708.38
522.621	713.38
522.836	719.38
523.052	699.38
523.267	714.38
523.482	708.38
523.698	681.38
523.913	686.38
524.128	692.38
524.343	686.38
524.559	690.38
524.774	690.38
524.989	704.38
525.204	698.38
525.419	686.38
525.634	682.38
525.849	686.38
526.064	670.38
526.28	663.38
526.495	688.38
526.71	693.38
526.925	708.38
527.14	678.38
527.355	691.38
527.57	676.38
527.785	704.38
527.999	659.38
528.214	677.38
528.429	684.38
528.644	695.38
528.859	702.38
529.074	676.38
529.289	692.38
529.503	710.38
529.718	662.38
529.933	655.38
530.148	660.38
530.363	678.38
530.577	680.38
530.792	670.38
531.007	650.38
531.221	640.38
531.436	662.38
531.651	653.38
531.865	660.38
532.08	667.38
532.295	674.38
532.509	650.38
532.724	650.38
532.938	642.38
533.153	663.38
533.367	654.38
533.582	653.38
533.796	688.38
534.011	646.38
534.225	654.38
534.44	672.38
534.654	624.38
534.868	648.38
535.083	644.38
535.297	671.38
535.511	634.38
535.726	655.38
535.94	648.38
536.154	611.38
536.369	630.38
536.583	642.38
536.797	637.38
537.011	625.38
537.225	627.38
537.44	638.38
537.654	637.38
537.868	629.38
538.082	632.38
538.296	654.38
538.51	646.38
538.724	636.38
538.938	632.38
539.153	621.38
539.367	620.38
539.581	632.38
539.795	622.38
540.009	635.38
540.222	636.38
540.436	610.38
540.65	634.38
540.864	614.38
541.078	638.38
541.292	633.38
541.506	613.38
541.72	638.38
541.934	622.38
542.147	623.38
542.361	599.38
542.575	610.38
542.789	615.38
543.002	616.38
543.216	605.38
543.43	607.38
543.644	612.38
543.857	625.38
544.071	623.38
544.285	607.38
544.498	603.38
544.712	625.38
544.925	633.38
545.139	628.38
545.352	602.38
545.566	621.38
545.779	590.38
545.993	599.38
546.206	621.38
546.42	614.38
546.633	589.38
546.847	623.38
547.06	622.38
547.274	601.38
547.487	622.38
547.7	613.38
547.914	594.38
548.127	608.38
548.34	621.38
548.554	569.38
548.767	568.38
548.98	581.38
549.193	576.38
549.407	600.38
549.62	601.38
549.833	604.38
550.046	610.38
550.259	614.38
550.473	590.38
550.686	601.38
550.899	594.38
551.112	586.38
551.325	597.38
551.538	582.38
551.751	606.38
551.964	583.38
552.177	577.38
552.39	587.38
552.603	605.38
552.816	591.38
553.029	562.38
553.242	582.38
553.455	560.38
553.667	596.38
553.88	619.38
554.093	583.38
554.306	567.38
554.519	591.38
554.732	569.38
554.944	575.38
555.157	557.38
555.37	570.38
555.583	574.38
555.795	564.38
556.008	564.38
556.221	546.38
556.433	544.38
556.646	561.38
556.859	558.38
557.071	554.38
557.284	559.38
557.496	541.38
557.709	545.38
557.921	565.38
558.134	540.38
558.346	546.38
558.559	548.38
558.771	541.38
558.984	550.38
559.196	549.38
559.409	529.38
559.621	535.38
559.833	537.38
560.046	535.38
560.258	530.38
560.47	527.38
560.683	542.38
560.895	540.38
561.107	521.38
561.32	528.38
561.532	541.38
561.744	551.38
561.956	530.38
562.168	526.38
562.381	502.38
562.593	534.38
562.805	535.38
563.017	522.38
563.229	547.38
563.441	519.38
563.653	542.38
563.865	534.38
564.077	533.38
564.289	513.38
564.501	535.38
564.713	535.38
564.925	537.38
565.137	526.38
565.349	531.38
565.561	538.38
565.773	541.38
565.985	526.38
566.197	535.38
566.408	522.38
566.62	548.38
566.832	531.38
567.044	542.38
567.255	545.38
567.467	552.38
567.679	538.38
567.891	539.38
568.102	506.38
568.314	530.38
568.526	553.38
568.737	540.38
568.949	529.38
569.161	517.38
569.372	495.38
569.584	493.38
569.795	479.38
570.007	486.38
570.218	485.38
570.43	505.38
570.641	481.38
570.853	466.38
571.064	487.38
571.276	486.38
571.487	487.38
571.698	474.38
571.91	462.38
572.121	479.38
572.333	479.38
572.544	463.38
572.755	452.38
572.966	444.38
573.178	449.38
573.389	442.38
573.6	438.38
573.811	448.38
574.023	442.38
574.234	427.38
574.445	444.38
574.656	423.38
574.867	419.38
575.078	430.38
575.289	427.38
575.501	433.38
575.712	437.38
575.923	428.38
576.134	438.38
576.345	438.38
576.556	431.38
576.767	421.38
576.978	425.38
577.188	422.38
577.399	418.38
577.61	414.38
577.821	409.38
578.032	391.38
578.243	400.38
578.454	427.38
578.665	411.38
578.875	427.38
579.086	386.38
579.297	414.38
579.508	410.38
579.718	408.38
579.929	411.38
580.14	415.38
580.35	400.38
580.561	400.38
580.772	407.38
580.982	396.38
581.193	404.38
581.403	388.38
581.614	383.38
581.825	381.38
582.035	391.38
582.246	390.38
582.456	390.38
582.667	396.38
582.877	407.38
583.087	402.38
583.298	390.38
583.508	399.38
583.719	386.38
583.929	381.38
584.139	396.38
584.35	366.38
584.56	357.38
584.77	394.38
584.981	372.38
585.191	373.38
585.401	376.38
585.611	370.38
585.821	372.38
586.032	375.38
586.242	381.38
586.452	371.38
586.662	381.38
586.872	385.38
587.082	384.38
587.292	374.38
587.502	373.38
587.713	369.38
587.923	380.38
588.133	352.38
588.343	376.38
588.553	363.38
588.762	363.38
588.972	358.38
589.182	394.38
589.392	368.38
589.602	382.38
589.812	350.38
590.022	363.38
590.232	366.38
590.441	360.38
590.651	359.38
590.861	361.38
591.071	367.38
591.281	364.38
591.49	336.38
591.7	362.38
591.91	381.38
592.119	349.38
592.329	346.38
592.539	361.38
592.748	381.38
592.958	362.38
593.167	353.38
593.377	336.38
593.587	367.38
593.796	367.38
594.006	355.38
594.215	365.38
594.424	349.38
594.634	381.38
594.843	361.38
595.053	336.38
595.262	350.38
595.472	338.38
595.681	320.38
595.89	351.38
596.1	339.38
596.309	349.38
596.518	351.38
596.727	318.38
596.937	338.38
597.146	327.38
597.355	335.38
597.564	308.38
597.774	320.38
597.983	321.38
598.192	305.38
598.401	299.38
598.61	316.38
598.819	319.38
599.028	323.38
599.237	329.38
599.446	307.38
599.655	323.38
599.864	324.38
600.073	307.38
600.282	316.38
600.491	309.38
600.7	325.38
600.909	304.38
601.118	302.38
601.327	313.38
601.536	298.38
601.745	308.38
601.953	310.38
602.162	300.38
602.371	313.38
602.58	304.38
602.789	300.38
602.997	325.38
603.206	303.38
603.415	298.38
603.623	316.38
603.832	317.38
604.041	314.38
604.249	292.38
604.458	300.38
604.666	295.38
604.875	304.38
605.084	275.38
605.292	319.38
605.501	308.38
605.709	299.38
605.918	293.38
606.126	295.38
606.334	300.38
606.543	300.38
606.751	310.38
606.96	310.38
607.168	309.38
607.376	288.38
607.585	287.38
607.793	284.38
608.001	301.38
608.21	275.38
608.418	299.38
608.626	282.38
608.834	293.38
609.043	295.38
609.251	277.38
609.459	268.38
609.667	292.38
609.875	285.38
610.083	281.38
610.291	299.38
610.499	294.38
610.707	287.38
610.916	296.38
611.124	291.38
611.332	299.38
611.54	287.38
611.748	294.38
611.955	293.38
612.163	279.38
612.371	289.38
612.579	268.38
612.787	282.38
612.995	295.38
613.203	294.38
613.411	293.38
613.618	290.38
613.826	267.38
614.034	287.38
614.242	287.38
614.449	268.38
614.657	278.38
614.865	283.38
615.072	296.38
615.28	259.38
615.488	279.38
615.695	271.38
615.903	285.38
616.111	294.38
616.318	281.38
616.526	281.38
616.733	279.38
616.941	285.38
617.148	286.38
617.356	286.38
617.563	292.38
617.771	271.38
617.978	274.38
618.185	274.38
618.393	279.38
618.6	272.38
618.807	271.38
619.015	263.38
619.222	266.38
619.429	268.38
619.637	273.38
619.844	278.38
620.051	258.38
620.258	269.38
620.466	255.38
620.673	241.38
620.88	253.38
621.087	243.38
621.294	278.38
621.501	247.38
621.708	248.38
621.915	254.38
622.122	259.38
622.329	248.38
622.536	262.38
622.743	270.38
622.95	241.38
623.157	244.38
623.364	255.38
623.571	260.38
623.778	276.38
623.985	254.38
624.192	266.38
624.399	244.38
624.606	262.38
624.812	249.38
625.019	250.38
625.226	248.38
625.433	250.38
625.639	264.38
625.846	248.38
626.053	252.38
626.259	265.38
626.466	245.38
626.673	235.38
626.879	249.38
627.086	247.38
627.293	241.38
627.499	234.38
627.706	248.38
627.912	248.38
628.119	251.38
628.325	235.38
628.532	233.38
628.738	230.38
628.945	245.38
629.151	243.38
629.357	230.38
629.564	232.38
629.77	235.38
629.976	238.38
630.183	232.38
630.389	238.38
630.595	234.38
630.802	234.38
631.008	242.38
631.214	245.38
631.42	224.38
631.627	234.38
631.833	233.38
632.039	227.38
632.245	227.38
632.451	215.38
632.657	238.38
632.863	221.38
633.069	224.38
633.275	233.38
633.481	258.38
633.688	225.38
633.893	236.38
634.099	216.38
634.305	226.38
634.511	231.38
634.717	224.38
634.923	228.38
635.129	214.38
635.335	228.38
635.541	221.38
635.747	222.38
635.952	217.38
636.158	212.38
636.364	214.38
636.57	239.38
636.775	222.38
636.981	215.38
637.187	220.38
637.392	219.38
637.598	213.38
637.804	215.38
638.009	210.38
638.215	210.38
638.421	211.38
638.626	204.38
638.832	198.38
639.037	214.38
639.243	220.38
639.448	236.38
639.654	205.38
639.859	219.38
640.065	195.38
640.27	220.38
640.475	216.38
640.681	205.38
640.886	210.38
641.091	199.38
641.297	225.38
641.502	214.38
641.707	216.38
641.913	210.38
642.118	201.38
642.323	216.38
642.528	212.38
642.733	205.38
642.939	215.38
643.144	214.38
643.349	207.38
643.554	210.38
643.759	215.38
643.964	216.38
644.169	222.38
644.374	200.38
644.579	204.38
644.784	204.38
644.989	201.38
645.194	195.38
645.399	191.38
645.604	200.38
645.809	202.38
646.014	215.38
646.219	206.38
646.423	215.38
646.628	198.38
646.833	194.38
647.038	212.38
647.243	200.38
647.447	209.38
647.652	206.38
647.857	213.38
648.062	206.38
648.266	209.38
648.471	203.38
648.676	217.38
648.88	202.38
649.085	213.38
649.289	219.38
649.494	205.38
649.698	208.38
649.903	197.38
650.107	201.38
650.312	208.38
650.516	202.38
650.721	198.38
650.925	209.38
651.13	203.38
651.334	196.38
651.539	181.38
651.743	206.38
651.947	188.38
652.152	191.38
652.356	195.38
652.56	190.38
652.764	189.38
652.969	168.38
653.173	189.38
653.377	182.38
653.581	183.38
653.785	181.38
653.99	164.38
654.194	166.38
654.398	192.38
654.602	173.38
654.806	161.38
655.01	169.38
655.214	166.38
655.418	183.38
655.622	152.38
655.826	166.38
656.03	163.38
656.234	165.38
656.438	171.38
656.642	149.38
656.846	143.38
657.049	156.38
657.253	155.38
657.457	159.38
657.661	150.38
657.865	129.38
658.068	148.38
658.272	152.38
658.476	144.38
658.68	131.38
658.883	127.38
659.087	122.38
659.291	116.38
659.494	108.38
659.698	112.38
659.901	118.38
660.105	136.38
660.309	114.38
660.512	117.38
660.716	94.38
660.919	99.38
661.123	119.38
661.326	100.38
661.53	107.38
661.733	101.38
661.936	103.38
662.14	91.38
662.343	100.38
662.546	100.38
662.75	79.38
662.953	98.38
663.156	95.38
663.36	81.38
663.563	92.38
663.766	90.38
663.969	90.38
664.173	97.38
664.376	80.38
664.579	89.38
664.782	82.38
664.985	86.38
665.188	89.38
665.391	81.38
665.594	79.38
665.797	81.38
666	92.38
666.203	84.38
666.406	100.38
666.609	75.38
666.812	70.38
667.015	82.38
667.218	82.38
667.421	77.38
667.624	76.38
667.827	82.38
668.03	85.38
668.232	78.38
668.435	88.38
668.638	79.38
668.841	85.38
669.043	94.38
669.246	83.38
669.449	84.38
669.651	98.38
669.854	104.38
670.057	89.38
670.259	80.38
670.462	89.38
670.665	80.38
670.867	85.38
671.07	94.38
671.272	78.38
671.475	90.38
671.677	91.38
671.88	92.38
672.082	68.38
672.284	92.38
672.487	98.38
672.689	93.38
672.892	77.38
