Data from Fe(NO3)3@0.025M.TitratingCurve.Agarose3%dH2O.NegLispCup.LampEnergy10.LIBS07252019_HRD10591_16-54-26-335.txt Node
Date: Thu Jul 25 16:54:26 EDT 2019
User: cochatt
Spectrometer: HR+D1059
Trigger mode: 1
Integration Time (sec): 1.000000E-1
Scans to average: 1
Electric dark correction enabled: true
Nonlinearity correction enabled: false
Boxcar width: 0
XAxis mode: Wavelengths
Number of Pixels in Spectrum: 2048
>>>>>Begin Spectral Data<<<<<
223.165	-11.5
223.4	-11.5
223.635	-11.5
223.869	-8.5
224.104	-14.5
224.338	-2.5
224.573	-24.5
224.808	-20.5
225.042	-20.5
225.277	-7.5
225.511	-0.5
225.746	-0.5
225.98	1.5
226.215	6.5
226.449	19.5
226.683	16.5
226.918	34.5
227.152	32.5
227.387	26.5
227.621	21.5
227.856	32.5
228.09	43.5
228.324	49.5
228.559	60.5
228.793	65.5
229.027	101.5
229.262	94.5
229.496	102.5
229.73	91.5
229.964	104.5
230.199	126.5
230.433	99.5
230.667	113.5
230.901	114.5
231.136	116.5
231.37	119.5
231.604	116.5
231.838	113.5
232.072	120.5
232.306	142.5
232.541	126.5
232.775	137.5
233.009	135.5
233.243	122.5
233.477	133.5
233.711	135.5
233.945	115.5
234.179	128.5
234.413	135.5
234.647	140.5
234.881	135.5
235.115	122.5
235.349	134.5
235.583	137.5
235.817	133.5
236.051	132.5
236.285	146.5
236.519	154.5
236.753	130.5
236.987	152.5
237.221	141.5
237.455	155.5
237.689	146.5
237.922	150.5
238.156	147.5
238.39	168.5
238.624	181.5
238.858	166.5
239.091	151.5
239.325	149.5
239.559	164.5
239.793	165.5
240.027	176.5
240.26	178.5
240.494	187.5
240.728	161.5
240.961	185.5
241.195	170.5
241.429	168.5
241.662	156.5
241.896	160.5
242.13	161.5
242.363	162.5
242.597	168.5
242.83	148.5
243.064	164.5
243.298	173.5
243.531	182.5
243.765	181.5
243.998	179.5
244.232	197.5
244.465	168.5
244.699	175.5
244.932	183.5
245.166	177.5
245.399	195.5
245.633	179.5
245.866	178.5
246.099	189.5
246.333	198.5
246.566	190.5
246.8	184.5
247.033	186.5
247.266	195.5
247.5	177.5
247.733	191.5
247.966	214.5
248.2	193.5
248.433	207.5
248.666	209.5
248.899	212.5
249.133	199.5
249.366	244.5
249.599	218.5
249.832	222.5
250.066	220.5
250.299	209.5
250.532	201.5
250.765	193.5
250.998	205.5
251.231	221.5
251.465	246.5
251.698	217.5
251.931	218.5
252.164	219.5
252.397	205.5
252.63	235.5
252.863	221.5
253.096	237.5
253.329	228.5
253.562	249.5
253.795	257.5
254.028	254.5
254.261	254.5
254.494	240.5
254.727	226.5
254.96	234.5
255.193	257.5
255.426	237.5
255.659	238.5
255.892	228.5
256.124	234.5
256.357	226.5
256.59	257.5
256.823	245.5
257.056	262.5
257.289	249.5
257.521	243.5
257.754	240.5
257.987	253.5
258.22	243.5
258.452	257.5
258.685	240.5
258.918	286.5
259.151	270.5
259.383	257.5
259.616	261.5
259.849	282.5
260.081	317.5
260.314	345.5
260.547	294.5
260.779	281.5
261.012	286.5
261.244	282.5
261.477	309.5
261.71	290.5
261.942	290.5
262.175	274.5
262.407	265.5
262.64	286.5
262.872	296.5
263.105	305.5
263.337	317.5
263.57	317.5
263.802	264.5
264.035	285.5
264.267	269.5
264.499	258.5
264.732	262.5
264.964	259.5
265.197	275.5
265.429	269.5
265.661	294.5
265.894	278.5
266.126	287.5
266.358	271.5
266.591	277.5
266.823	299.5
267.055	303.5
267.287	288.5
267.52	268.5
267.752	290.5
267.984	289.5
268.216	301.5
268.448	285.5
268.681	301.5
268.913	289.5
269.145	293.5
269.377	295.5
269.609	285.5
269.841	301.5
270.073	315.5
270.306	292.5
270.538	319.5
270.77	315.5
271.002	312.5
271.234	309.5
271.466	307.5
271.698	327.5
271.93	325.5
272.162	338.5
272.394	331.5
272.626	317.5
272.858	329.5
273.09	339.5
273.322	337.5
273.553	341.5
273.785	352.5
274.017	360.5
274.249	407.5
274.481	393.5
274.713	400.5
274.945	439.5
275.176	416.5
275.408	426.5
275.64	398.5
275.872	399.5
276.104	369.5
276.335	341.5
276.567	365.5
276.799	368.5
277.031	370.5
277.262	347.5
277.494	348.5
277.726	341.5
277.957	339.5
278.189	363.5
278.421	347.5
278.652	381.5
278.884	330.5
279.115	338.5
279.347	354.5
279.579	365.5
279.81	341.5
280.042	352.5
280.273	353.5
280.505	367.5
280.736	366.5
280.968	365.5
281.199	329.5
281.431	354.5
281.662	365.5
281.894	361.5
282.125	369.5
282.356	369.5
282.588	370.5
282.819	356.5
283.051	377.5
283.282	384.5
283.513	381.5
283.745	367.5
283.976	371.5
284.207	392.5
284.439	380.5
284.67	377.5
284.901	393.5
285.132	401.5
285.364	383.5
285.595	393.5
285.826	390.5
286.057	390.5
286.288	400.5
286.52	411.5
286.751	393.5
286.982	371.5
287.213	380.5
287.444	392.5
287.675	397.5
287.906	406.5
288.138	390.5
288.369	389.5
288.6	412.5
288.831	391.5
289.062	394.5
289.293	401.5
289.524	401.5
289.755	410.5
289.986	397.5
290.217	421.5
290.448	404.5
290.679	411.5
290.91	410.5
291.141	421.5
291.371	414.5
291.602	390.5
291.833	389.5
292.064	413.5
292.295	402.5
292.526	417.5
292.757	393.5
292.987	418.5
293.218	415.5
293.449	401.5
293.68	411.5
293.91	426.5
294.141	424.5
294.372	416.5
294.603	429.5
294.833	419.5
295.064	426.5
295.295	431.5
295.525	421.5
295.756	417.5
295.987	407.5
296.217	414.5
296.448	409.5
296.679	416.5
296.909	435.5
297.14	438.5
297.37	447.5
297.601	451.5
297.831	448.5
298.062	413.5
298.292	451.5
298.523	472.5
298.753	449.5
298.984	434.5
299.214	430.5
299.445	429.5
299.675	446.5
299.905	421.5
300.136	426.5
300.366	444.5
300.597	451.5
300.827	444.5
301.057	451.5
301.288	452.5
301.518	456.5
301.748	476.5
301.979	483.5
302.209	491.5
302.439	456.5
302.669	458.5
302.9	452.5
303.13	458.5
303.36	463.5
303.59	468.5
303.82	456.5
304.051	486.5
304.281	465.5
304.511	474.5
304.741	472.5
304.971	466.5
305.201	482.5
305.431	473.5
305.661	485.5
305.891	473.5
306.121	457.5
306.352	478.5
306.582	483.5
306.812	468.5
307.042	491.5
307.272	467.5
307.502	467.5
307.731	464.5
307.961	485.5
308.191	469.5
308.421	485.5
308.651	479.5
308.881	480.5
309.111	447.5
309.341	458.5
309.571	456.5
309.8	479.5
310.03	476.5
310.26	471.5
310.49	474.5
310.72	474.5
310.949	470.5
311.179	517.5
311.409	477.5
311.639	483.5
311.868	493.5
312.098	491.5
312.328	518.5
312.557	482.5
312.787	499.5
313.017	503.5
313.246	506.5
313.476	496.5
313.706	514.5
313.935	512.5
314.165	505.5
314.394	520.5
314.624	523.5
314.853	519.5
315.083	489.5
315.312	518.5
315.542	537.5
315.771	498.5
316.001	493.5
316.23	479.5
316.46	511.5
316.689	531.5
316.919	511.5
317.148	510.5
317.377	502.5
317.607	523.5
317.836	511.5
318.065	517.5
318.295	517.5
318.524	528.5
318.753	524.5
318.983	535.5
319.212	521.5
319.441	512.5
319.67	517.5
319.9	539.5
320.129	520.5
320.358	509.5
320.587	521.5
320.816	520.5
321.046	524.5
321.275	551.5
321.504	550.5
321.733	535.5
321.962	546.5
322.191	528.5
322.42	541.5
322.649	536.5
322.878	543.5
323.108	568.5
323.337	543.5
323.566	529.5
323.795	543.5
324.024	561.5
324.253	536.5
324.482	572.5
324.71	543.5
324.939	579.5
325.168	572.5
325.397	544.5
325.626	551.5
325.855	557.5
326.084	566.5
326.313	543.5
326.542	571.5
326.77	542.5
326.999	554.5
327.228	553.5
327.457	565.5
327.686	564.5
327.914	543.5
328.143	570.5
328.372	574.5
328.6	587.5
328.829	597.5
329.058	571.5
329.287	563.5
329.515	593.5
329.744	586.5
329.972	573.5
330.201	579.5
330.43	585.5
330.658	584.5
330.887	587.5
331.115	581.5
331.344	583.5
331.572	597.5
331.801	613.5
332.03	607.5
332.258	608.5
332.486	617.5
332.715	616.5
332.943	623.5
333.172	651.5
333.4	651.5
333.629	654.5
333.857	665.5
334.085	649.5
334.314	654.5
334.542	659.5
334.771	664.5
334.999	684.5
335.227	663.5
335.455	637.5
335.684	662.5
335.912	658.5
336.14	648.5
336.369	646.5
336.597	659.5
336.825	648.5
337.053	674.5
337.281	649.5
337.51	656.5
337.738	625.5
337.966	642.5
338.194	640.5
338.422	649.5
338.65	646.5
338.878	629.5
339.106	627.5
339.334	610.5
339.562	625.5
339.79	609.5
340.018	599.5
340.246	629.5
340.474	610.5
340.702	605.5
340.93	606.5
341.158	621.5
341.386	602.5
341.614	613.5
341.842	590.5
342.07	610.5
342.298	626.5
342.526	602.5
342.754	597.5
342.981	619.5
343.209	633.5
343.437	637.5
343.665	631.5
343.893	635.5
344.12	677.5
344.348	665.5
344.576	645.5
344.804	675.5
345.031	626.5
345.259	633.5
345.487	636.5
345.714	606.5
345.942	614.5
346.17	597.5
346.397	625.5
346.625	616.5
346.853	588.5
347.08	607.5
347.308	614.5
347.535	606.5
347.763	598.5
347.99	587.5
348.218	596.5
348.445	577.5
348.673	587.5
348.9	581.5
349.128	607.5
349.355	584.5
349.583	587.5
349.81	585.5
350.037	577.5
350.265	575.5
350.492	588.5
350.72	564.5
350.947	567.5
351.174	586.5
351.402	591.5
351.629	583.5
351.856	576.5
352.083	559.5
352.311	593.5
352.538	577.5
352.765	605.5
352.992	595.5
353.22	578.5
353.447	577.5
353.674	597.5
353.901	571.5
354.128	587.5
354.355	590.5
354.583	597.5
354.81	590.5
355.037	593.5
355.264	589.5
355.491	590.5
355.718	577.5
355.945	599.5
356.172	557.5
356.399	580.5
356.626	603.5
356.853	589.5
357.08	588.5
357.307	609.5
357.534	578.5
357.761	597.5
357.988	589.5
358.215	595.5
358.441	611.5
358.668	591.5
358.895	588.5
359.122	598.5
359.349	574.5
359.576	575.5
359.802	581.5
360.029	574.5
360.256	596.5
360.483	594.5
360.709	602.5
360.936	601.5
361.163	598.5
361.39	601.5
361.616	604.5
361.843	583.5
362.07	603.5
362.296	603.5
362.523	581.5
362.749	613.5
362.976	616.5
363.203	635.5
363.429	596.5
363.656	604.5
363.882	598.5
364.109	601.5
364.335	581.5
364.562	610.5
364.788	587.5
365.015	591.5
365.241	595.5
365.468	593.5
365.694	597.5
365.92	614.5
366.147	582.5
366.373	595.5
366.599	618.5
366.826	614.5
367.052	613.5
367.278	598.5
367.505	584.5
367.731	612.5
367.957	604.5
368.184	616.5
368.41	617.5
368.636	604.5
368.862	608.5
369.089	603.5
369.315	606.5
369.541	637.5
369.767	635.5
369.993	635.5
370.219	603.5
370.445	611.5
370.672	629.5
370.898	637.5
371.124	630.5
371.35	643.5
371.576	634.5
371.802	629.5
372.028	641.5
372.254	668.5
372.48	670.5
372.706	661.5
372.932	674.5
373.158	648.5
373.384	649.5
373.61	684.5
373.835	669.5
374.061	642.5
374.287	649.5
374.513	656.5
374.739	681.5
374.965	702.5
375.191	701.5
375.416	655.5
375.642	675.5
375.868	669.5
376.094	657.5
376.319	654.5
376.545	643.5
376.771	651.5
376.997	670.5
377.222	641.5
377.448	630.5
377.674	630.5
377.899	649.5
378.125	627.5
378.35	622.5
378.576	629.5
378.802	618.5
379.027	641.5
379.253	625.5
379.478	633.5
379.704	634.5
379.929	623.5
380.155	643.5
380.38	639.5
380.606	643.5
380.831	608.5
381.057	650.5
381.282	650.5
381.507	642.5
381.733	643.5
381.958	639.5
382.184	667.5
382.409	688.5
382.634	668.5
382.86	683.5
383.085	681.5
383.31	698.5
383.535	684.5
383.761	687.5
383.986	688.5
384.211	665.5
384.436	712.5
384.662	678.5
384.887	702.5
385.112	698.5
385.337	709.5
385.562	729.5
385.787	728.5
386.013	741.5
386.238	730.5
386.463	715.5
386.688	728.5
386.913	717.5
387.138	701.5
387.363	723.5
387.588	720.5
387.813	717.5
388.038	748.5
388.263	753.5
388.488	742.5
388.713	761.5
388.938	723.5
389.163	727.5
389.387	755.5
389.612	723.5
389.837	753.5
390.062	744.5
390.287	773.5
390.512	761.5
390.736	750.5
390.961	762.5
391.186	738.5
391.411	781.5
391.636	779.5
391.86	783.5
392.085	793.5
392.31	793.5
392.534	785.5
392.759	777.5
392.984	756.5
393.208	772.5
393.433	777.5
393.658	773.5
393.882	769.5
394.107	805.5
394.331	764.5
394.556	766.5
394.78	770.5
395.005	777.5
395.229	774.5
395.454	797.5
395.678	801.5
395.903	801.5
396.127	817.5
396.352	800.5
396.576	811.5
396.801	814.5
397.025	808.5
397.249	803.5
397.474	848.5
397.698	827.5
397.922	834.5
398.147	821.5
398.371	845.5
398.595	841.5
398.82	870.5
399.044	862.5
399.268	920.5
399.492	967.5
399.717	1000.5
399.941	1017.5
400.165	983.5
400.389	969.5
400.613	950.5
400.837	915.5
401.062	908.5
401.286	896.5
401.51	900.5
401.734	866.5
401.958	853.5
402.182	867.5
402.406	879.5
402.63	879.5
402.854	890.5
403.078	889.5
403.302	890.5
403.526	877.5
403.75	862.5
403.974	839.5
404.198	883.5
404.422	869.5
404.645	917.5
404.869	921.5
405.093	890.5
405.317	869.5
405.541	889.5
405.765	885.5
405.988	880.5
406.212	914.5
406.436	915.5
406.66	963.5
406.883	911.5
407.107	935.5
407.331	963.5
407.555	1017.5
407.778	985.5
408.002	975.5
408.226	947.5
408.449	979.5
408.673	955.5
408.896	945.5
409.12	967.5
409.344	923.5
409.567	936.5
409.791	919.5
410.014	905.5
410.238	936.5
410.461	914.5
410.685	913.5
410.908	906.5
411.132	891.5
411.355	877.5
411.578	879.5
411.802	913.5
412.025	867.5
412.249	882.5
412.472	917.5
412.695	889.5
412.919	859.5
413.142	877.5
413.365	877.5
413.589	861.5
413.812	886.5
414.035	866.5
414.258	856.5
414.482	858.5
414.705	898.5
414.928	853.5
415.151	864.5
415.374	850.5
415.597	849.5
415.821	841.5
416.044	838.5
416.267	832.5
416.49	822.5
416.713	815.5
416.936	834.5
417.159	815.5
417.382	802.5
417.605	831.5
417.828	811.5
418.051	840.5
418.274	849.5
418.497	841.5
418.72	829.5
418.943	811.5
419.166	865.5
419.389	917.5
419.611	898.5
419.834	871.5
420.057	836.5
420.28	839.5
420.503	820.5
420.726	794.5
420.948	776.5
421.171	814.5
421.394	818.5
421.617	801.5
421.839	835.5
422.062	824.5
422.285	832.5
422.507	832.5
422.73	839.5
422.953	843.5
423.175	821.5
423.398	804.5
423.621	815.5
423.843	852.5
424.066	790.5
424.288	803.5
424.511	832.5
424.733	796.5
424.956	809.5
425.178	821.5
425.401	829.5
425.623	830.5
425.846	810.5
426.068	785.5
426.291	798.5
426.513	790.5
426.735	785.5
426.958	775.5
427.18	793.5
427.402	805.5
427.625	799.5
427.847	800.5
428.069	785.5
428.292	766.5
428.514	794.5
428.736	774.5
428.958	767.5
429.181	780.5
429.403	753.5
429.625	746.5
429.847	756.5
430.069	742.5
430.292	789.5
430.514	773.5
430.736	769.5
430.958	805.5
431.18	787.5
431.402	763.5
431.624	775.5
431.846	791.5
432.068	770.5
432.29	776.5
432.512	776.5
432.734	809.5
432.956	777.5
433.178	774.5
433.4	782.5
433.622	794.5
433.844	767.5
434.066	778.5
434.287	809.5
434.509	798.5
434.731	790.5
434.953	799.5
435.175	806.5
435.397	850.5
435.618	802.5
435.84	776.5
436.062	794.5
436.284	759.5
436.505	757.5
436.727	775.5
436.949	798.5
437.17	774.5
437.392	767.5
437.614	775.5
437.835	724.5
438.057	719.5
438.278	745.5
438.5	753.5
438.721	759.5
438.943	733.5
439.165	719.5
439.386	738.5
439.608	755.5
439.829	744.5
440.05	751.5
440.272	740.5
440.493	754.5
440.715	759.5
440.936	775.5
441.158	772.5
441.379	797.5
441.6	785.5
441.822	795.5
442.043	784.5
442.264	791.5
442.486	782.5
442.707	788.5
442.928	775.5
443.149	785.5
443.371	776.5
443.592	763.5
443.813	816.5
444.034	793.5
444.255	820.5
444.476	823.5
444.698	822.5
444.919	824.5
445.14	928.5
445.361	863.5
445.582	797.5
445.803	760.5
446.024	787.5
446.245	772.5
446.466	775.5
446.687	734.5
446.908	728.5
447.129	725.5
447.35	739.5
447.571	722.5
447.792	717.5
448.013	697.5
448.234	685.5
448.455	716.5
448.675	675.5
448.896	688.5
449.117	714.5
449.338	687.5
449.559	700.5
449.779	688.5
450	682.5
450.221	674.5
450.442	679.5
450.662	682.5
450.883	676.5
451.104	661.5
451.324	673.5
451.545	687.5
451.766	707.5
451.986	683.5
452.207	693.5
452.428	695.5
452.648	706.5
452.869	673.5
453.089	646.5
453.31	694.5
453.53	671.5
453.751	705.5
453.971	642.5
454.192	693.5
454.412	673.5
454.633	650.5
454.853	665.5
455.073	678.5
455.294	669.5
455.514	667.5
455.734	679.5
455.955	640.5
456.175	683.5
456.395	649.5
456.616	667.5
456.836	665.5
457.056	667.5
457.276	685.5
457.497	691.5
457.717	668.5
457.937	691.5
458.157	693.5
458.377	689.5
458.598	706.5
458.818	723.5
459.038	723.5
459.258	707.5
459.478	756.5
459.698	747.5
459.918	756.5
460.138	785.5
460.358	806.5
460.578	797.5
460.798	799.5
461.018	836.5
461.238	819.5
461.458	826.5
461.678	826.5
461.898	832.5
462.118	836.5
462.338	851.5
462.558	859.5
462.777	875.5
462.997	918.5
463.217	913.5
463.437	923.5
463.657	901.5
463.876	905.5
464.096	873.5
464.316	878.5
464.536	849.5
464.755	862.5
464.975	847.5
465.195	835.5
465.414	815.5
465.634	777.5
465.854	798.5
466.073	772.5
466.293	776.5
466.512	729.5
466.732	769.5
466.951	755.5
467.171	757.5
467.391	713.5
467.61	728.5
467.829	731.5
468.049	733.5
468.268	669.5
468.488	721.5
468.707	697.5
468.927	754.5
469.146	724.5
469.365	745.5
469.585	710.5
469.804	730.5
470.023	733.5
470.243	744.5
470.462	737.5
470.681	714.5
470.901	709.5
471.12	743.5
471.339	720.5
471.558	766.5
471.777	737.5
471.997	719.5
472.216	734.5
472.435	733.5
472.654	730.5
472.873	733.5
473.092	754.5
473.311	735.5
473.53	745.5
473.749	692.5
473.968	709.5
474.187	709.5
474.406	735.5
474.625	747.5
474.844	747.5
475.063	759.5
475.282	746.5
475.501	732.5
475.72	764.5
475.939	737.5
476.158	752.5
476.377	785.5
476.596	815.5
476.814	824.5
477.033	792.5
477.252	811.5
477.471	821.5
477.69	788.5
477.908	835.5
478.127	837.5
478.346	807.5
478.564	839.5
478.783	833.5
479.002	858.5
479.22	871.5
479.439	890.5
479.658	904.5
479.876	879.5
480.095	901.5
480.313	895.5
480.532	904.5
480.751	917.5
480.969	899.5
481.188	913.5
481.406	893.5
481.624	913.5
481.843	848.5
482.061	885.5
482.28	881.5
482.498	917.5
482.717	871.5
482.935	885.5
483.153	883.5
483.372	882.5
483.59	870.5
483.808	887.5
484.027	888.5
484.245	928.5
484.463	900.5
484.681	916.5
484.9	887.5
485.118	921.5
485.336	910.5
485.554	901.5
485.772	893.5
485.99	915.5
486.209	918.5
486.427	923.5
486.645	910.5
486.863	905.5
487.081	909.5
487.299	917.5
487.517	915.5
487.735	910.5
487.953	916.5
488.171	910.5
488.389	899.5
488.607	908.5
488.825	888.5
489.043	915.5
489.261	894.5
489.479	910.5
489.696	898.5
489.914	938.5
490.132	896.5
490.35	889.5
490.568	919.5
490.786	931.5
491.003	922.5
491.221	886.5
491.439	899.5
491.657	907.5
491.874	907.5
492.092	929.5
492.31	921.5
492.527	910.5
492.745	901.5
492.963	923.5
493.18	922.5
493.398	915.5
493.615	928.5
493.833	928.5
494.05	922.5
494.268	893.5
494.485	939.5
494.703	925.5
494.92	953.5
495.138	975.5
495.355	950.5
495.573	962.5
495.79	945.5
496.008	981.5
496.225	994.5
496.442	972.5
496.66	993.5
496.877	977.5
497.094	1043.5
497.312	994.5
497.529	1044.5
497.746	1071.5
497.963	1096.5
498.181	1114.5
498.398	1156.5
498.615	1203.5
498.832	1246.5
499.049	1244.5
499.267	1323.5
499.484	1350.5
499.701	1407.5
499.918	1439.5
500.135	1539.5
500.352	1557.5
500.569	1547.5
500.786	1570.5
501.003	1565.5
501.22	1507.5
501.437	1455.5
501.654	1380.5
501.871	1311.5
502.088	1291.5
502.305	1231.5
502.522	1202.5
502.739	1161.5
502.956	1127.5
503.172	1109.5
503.389	1087.5
503.606	1038.5
503.823	1026.5
504.04	1034.5
504.256	1021.5
504.473	1026.5
504.69	994.5
504.907	1002.5
505.123	986.5
505.34	997.5
505.557	945.5
505.773	897.5
505.99	894.5
506.207	882.5
506.423	891.5
506.64	879.5
506.856	881.5
507.073	884.5
507.289	882.5
507.506	831.5
507.722	819.5
507.939	851.5
508.155	813.5
508.372	815.5
508.588	808.5
508.805	810.5
509.021	809.5
509.238	801.5
509.454	795.5
509.67	787.5
509.887	791.5
510.103	777.5
510.319	767.5
510.536	777.5
510.752	783.5
510.968	743.5
511.184	755.5
511.401	761.5
511.617	756.5
511.833	753.5
512.049	728.5
512.265	759.5
512.481	754.5
512.698	765.5
512.914	769.5
513.13	753.5
513.346	749.5
513.562	784.5
513.778	779.5
513.994	769.5
514.21	759.5
514.426	779.5
514.642	757.5
514.858	768.5
515.074	758.5
515.29	795.5
515.506	794.5
515.721	783.5
515.937	803.5
516.153	801.5
516.369	815.5
516.585	837.5
516.801	801.5
517.016	813.5
517.232	852.5
517.448	879.5
517.664	833.5
517.879	860.5
518.095	843.5
518.311	859.5
518.527	822.5
518.742	842.5
518.958	802.5
519.173	806.5
519.389	794.5
519.605	799.5
519.82	809.5
520.036	824.5
520.251	799.5
520.467	749.5
520.682	742.5
520.898	741.5
521.113	733.5
521.329	712.5
521.544	722.5
521.76	721.5
521.975	703.5
522.19	723.5
522.406	713.5
522.621	735.5
522.836	747.5
523.052	733.5
523.267	717.5
523.482	709.5
523.698	707.5
523.913	704.5
524.128	697.5
524.343	701.5
524.559	695.5
524.774	707.5
524.989	687.5
525.204	714.5
525.419	705.5
525.634	689.5
525.849	691.5
526.064	706.5
526.28	699.5
526.495	701.5
526.71	691.5
526.925	670.5
527.14	659.5
527.355	660.5
527.57	671.5
527.785	647.5
527.999	662.5
528.214	677.5
528.429	676.5
528.644	688.5
528.859	667.5
529.074	675.5
529.289	687.5
529.503	669.5
529.718	651.5
529.933	638.5
530.148	675.5
530.363	670.5
530.577	650.5
530.792	646.5
531.007	655.5
531.221	661.5
531.436	651.5
531.651	666.5
531.865	654.5
532.08	660.5
532.295	664.5
532.509	665.5
532.724	659.5
532.938	656.5
533.153	652.5
533.367	636.5
533.582	659.5
533.796	656.5
534.011	645.5
534.225	639.5
534.44	641.5
534.654	629.5
534.868	629.5
535.083	640.5
535.297	654.5
535.511	642.5
535.726	635.5
535.94	643.5
536.154	620.5
536.369	626.5
536.583	615.5
536.797	636.5
537.011	628.5
537.225	635.5
537.44	598.5
537.654	642.5
537.868	618.5
538.082	604.5
538.296	634.5
538.51	611.5
538.724	607.5
538.938	596.5
539.153	595.5
539.367	604.5
539.581	593.5
539.795	604.5
540.009	615.5
540.222	602.5
540.436	596.5
540.65	608.5
540.864	603.5
541.078	605.5
541.292	601.5
541.506	603.5
541.72	605.5
541.934	597.5
542.147	623.5
542.361	607.5
542.575	609.5
542.789	611.5
543.002	582.5
543.216	610.5
543.43	608.5
543.644	592.5
543.857	630.5
544.071	591.5
544.285	613.5
544.498	597.5
544.712	595.5
544.925	582.5
545.139	603.5
545.352	601.5
545.566	584.5
545.779	584.5
545.993	585.5
546.206	608.5
546.42	630.5
546.633	607.5
546.847	591.5
547.06	574.5
547.274	581.5
547.487	592.5
547.7	589.5
547.914	588.5
548.127	600.5
548.34	614.5
548.554	598.5
548.767	593.5
548.98	604.5
549.193	594.5
549.407	603.5
549.62	622.5
549.833	621.5
550.046	612.5
550.259	627.5
550.473	587.5
550.686	590.5
550.899	587.5
551.112	589.5
551.325	617.5
551.538	608.5
551.751	598.5
551.964	571.5
552.177	585.5
552.39	568.5
552.603	576.5
552.816	600.5
553.029	607.5
553.242	605.5
553.455	591.5
553.667	593.5
553.88	614.5
554.093	596.5
554.306	577.5
554.519	609.5
554.732	600.5
554.944	572.5
555.157	559.5
555.37	565.5
555.583	537.5
555.795	552.5
556.008	530.5
556.221	545.5
556.433	539.5
556.646	531.5
556.859	529.5
557.071	545.5
557.284	512.5
557.496	544.5
557.709	541.5
557.921	527.5
558.134	507.5
558.346	522.5
558.559	519.5
558.771	541.5
558.984	523.5
559.196	521.5
559.409	515.5
559.621	508.5
559.833	507.5
560.046	504.5
560.258	497.5
560.47	490.5
560.683	514.5
560.895	523.5
561.107	503.5
561.32	506.5
561.532	530.5
561.744	509.5
561.956	509.5
562.168	518.5
562.381	517.5
562.593	510.5
562.805	505.5
563.017	534.5
563.229	522.5
563.441	534.5
563.653	513.5
563.865	511.5
564.077	534.5
564.289	538.5
564.501	530.5
564.713	544.5
564.925	537.5
565.137	554.5
565.349	538.5
565.561	559.5
565.773	577.5
565.985	599.5
566.197	578.5
566.408	588.5
566.62	605.5
566.832	628.5
567.044	651.5
567.255	660.5
567.467	645.5
567.679	651.5
567.891	669.5
568.102	649.5
568.314	628.5
568.526	613.5
568.737	624.5
568.949	593.5
569.161	565.5
569.372	565.5
569.584	523.5
569.795	515.5
570.007	511.5
570.218	493.5
570.43	510.5
570.641	504.5
570.853	486.5
571.064	466.5
571.276	493.5
571.487	471.5
571.698	477.5
571.91	484.5
572.121	467.5
572.333	445.5
572.544	441.5
572.755	448.5
572.966	442.5
573.178	445.5
573.389	438.5
573.6	413.5
573.811	425.5
574.023	437.5
574.234	426.5
574.445	406.5
574.656	421.5
574.867	431.5
575.078	424.5
575.289	415.5
575.501	404.5
575.712	409.5
575.923	407.5
576.134	406.5
576.345	399.5
576.556	393.5
576.767	398.5
576.978	401.5
577.188	378.5
577.399	397.5
577.61	397.5
577.821	394.5
578.032	384.5
578.243	392.5
578.454	392.5
578.665	383.5
578.875	393.5
579.086	390.5
579.297	386.5
579.508	357.5
579.718	389.5
579.929	382.5
580.14	383.5
580.35	363.5
580.561	376.5
580.772	372.5
580.982	359.5
581.193	375.5
581.403	372.5
581.614	361.5
581.825	358.5
582.035	347.5
582.246	359.5
582.456	387.5
582.667	355.5
582.877	370.5
583.087	369.5
583.298	357.5
583.508	369.5
583.719	351.5
583.929	353.5
584.139	339.5
584.35	351.5
584.56	354.5
584.77	346.5
584.981	349.5
585.191	353.5
585.401	354.5
585.611	344.5
585.821	349.5
586.032	360.5
586.242	337.5
586.452	346.5
586.662	350.5
586.872	354.5
587.082	362.5
587.292	331.5
587.502	352.5
587.713	351.5
587.923	358.5
588.133	309.5
588.343	348.5
588.553	338.5
588.762	338.5
588.972	332.5
589.182	375.5
589.392	364.5
589.602	359.5
589.812	371.5
590.022	357.5
590.232	353.5
590.441	352.5
590.651	346.5
590.861	340.5
591.071	326.5
591.281	324.5
591.49	331.5
591.7	335.5
591.91	346.5
592.119	356.5
592.329	334.5
592.539	358.5
592.748	355.5
592.958	349.5
593.167	367.5
593.377	367.5
593.587	388.5
593.796	356.5
594.006	369.5
594.215	345.5
594.424	367.5
594.634	354.5
594.843	341.5
595.053	365.5
595.262	362.5
595.472	348.5
595.681	319.5
595.89	322.5
596.1	331.5
596.309	321.5
596.518	317.5
596.727	314.5
596.937	318.5
597.146	324.5
597.355	333.5
597.564	320.5
597.774	305.5
597.983	291.5
598.192	309.5
598.401	315.5
598.61	293.5
598.819	311.5
599.028	274.5
599.237	285.5
599.446	282.5
599.655	291.5
599.864	289.5
600.073	295.5
600.282	307.5
600.491	313.5
600.7	291.5
600.909	282.5
601.118	289.5
601.327	293.5
601.536	285.5
601.745	270.5
601.953	261.5
602.162	278.5
602.371	265.5
602.58	266.5
602.789	265.5
602.997	271.5
603.206	277.5
603.415	285.5
603.623	280.5
603.832	290.5
604.041	292.5
604.249	262.5
604.458	272.5
604.666	281.5
604.875	264.5
605.084	276.5
605.292	264.5
605.501	278.5
605.709	268.5
605.918	267.5
606.126	280.5
606.334	260.5
606.543	281.5
606.751	278.5
606.96	264.5
607.168	279.5
607.376	264.5
607.585	274.5
607.793	273.5
608.001	263.5
608.21	279.5
608.418	265.5
608.626	262.5
608.834	272.5
609.043	249.5
609.251	274.5
609.459	249.5
609.667	267.5
609.875	263.5
610.083	279.5
610.291	256.5
610.499	267.5
610.707	255.5
610.916	255.5
611.124	263.5
611.332	258.5
611.54	250.5
611.748	258.5
611.955	264.5
612.163	268.5
612.371	262.5
612.579	245.5
612.787	247.5
612.995	255.5
613.203	258.5
613.411	237.5
613.618	253.5
613.826	264.5
614.034	247.5
614.242	237.5
614.449	263.5
614.657	247.5
614.865	238.5
615.072	251.5
615.28	258.5
615.488	255.5
615.695	238.5
615.903	244.5
616.111	240.5
616.318	255.5
616.526	254.5
616.733	259.5
616.941	253.5
617.148	239.5
617.356	254.5
617.563	240.5
617.771	257.5
617.978	262.5
618.185	241.5
618.393	240.5
618.6	237.5
618.807	254.5
619.015	246.5
619.222	233.5
619.429	226.5
619.637	230.5
619.844	244.5
620.051	241.5
620.258	226.5
620.466	249.5
620.673	221.5
620.88	226.5
621.087	230.5
621.294	228.5
621.501	231.5
621.708	241.5
621.915	228.5
622.122	229.5
622.329	238.5
622.536	228.5
622.743	225.5
622.95	232.5
623.157	225.5
623.364	206.5
623.571	209.5
623.778	241.5
623.985	229.5
624.192	228.5
624.399	226.5
624.606	239.5
624.812	221.5
625.019	234.5
625.226	223.5
625.433	230.5
625.639	216.5
625.846	212.5
626.053	214.5
626.259	221.5
626.466	222.5
626.673	214.5
626.879	225.5
627.086	207.5
627.293	220.5
627.499	225.5
627.706	223.5
627.912	225.5
628.119	208.5
628.325	206.5
628.532	217.5
628.738	230.5
628.945	209.5
629.151	221.5
629.357	223.5
629.564	210.5
629.77	213.5
629.976	200.5
630.183	217.5
630.389	205.5
630.595	208.5
630.802	198.5
631.008	209.5
631.214	211.5
631.42	210.5
631.627	208.5
631.833	207.5
632.039	232.5
632.245	191.5
632.451	197.5
632.657	195.5
632.863	205.5
633.069	204.5
633.275	207.5
633.481	206.5
633.688	192.5
633.893	189.5
634.099	199.5
634.305	197.5
634.511	190.5
634.717	210.5
634.923	203.5
635.129	206.5
635.335	216.5
635.541	203.5
635.747	206.5
635.952	198.5
636.158	203.5
636.364	194.5
636.57	202.5
636.775	191.5
636.981	196.5
637.187	198.5
637.392	198.5
637.598	197.5
637.804	186.5
638.009	198.5
638.215	212.5
638.421	204.5
638.626	199.5
638.832	201.5
639.037	184.5
639.243	180.5
639.448	186.5
639.654	185.5
639.859	193.5
640.065	185.5
640.27	192.5
640.475	204.5
640.681	192.5
640.886	189.5
641.091	185.5
641.297	193.5
641.502	177.5
641.707	194.5
641.913	190.5
642.118	192.5
642.323	195.5
642.528	197.5
642.733	217.5
642.939	189.5
643.144	184.5
643.349	189.5
643.554	173.5
643.759	185.5
643.964	177.5
644.169	196.5
644.374	171.5
644.579	183.5
644.784	187.5
644.989	197.5
645.194	179.5
645.399	175.5
645.604	198.5
645.809	200.5
646.014	184.5
646.219	197.5
646.423	177.5
646.628	192.5
646.833	196.5
647.038	191.5
647.243	197.5
647.447	189.5
647.652	191.5
647.857	176.5
648.062	196.5
648.266	199.5
648.471	184.5
648.676	198.5
648.88	187.5
649.085	202.5
649.289	201.5
649.494	186.5
649.698	186.5
649.903	201.5
650.107	200.5
650.312	183.5
650.516	201.5
650.721	196.5
650.925	184.5
651.13	180.5
651.334	177.5
651.539	179.5
651.743	193.5
651.947	186.5
652.152	192.5
652.356	199.5
652.56	178.5
652.764	181.5
652.969	173.5
653.173	180.5
653.377	180.5
653.581	189.5
653.785	182.5
653.99	185.5
654.194	186.5
654.398	188.5
654.602	183.5
654.806	179.5
655.01	189.5
655.214	183.5
655.418	174.5
655.622	174.5
655.826	206.5
656.03	201.5
656.234	194.5
656.438	206.5
656.642	210.5
656.846	191.5
657.049	189.5
657.253	184.5
657.457	163.5
657.661	149.5
657.865	153.5
658.068	151.5
658.272	125.5
658.476	141.5
658.68	139.5
658.883	127.5
659.087	128.5
659.291	125.5
659.494	123.5
659.698	118.5
659.901	104.5
660.105	109.5
660.309	100.5
660.512	104.5
660.716	94.5
660.919	102.5
661.123	102.5
661.326	84.5
661.53	97.5
661.733	103.5
661.936	96.5
662.14	93.5
662.343	71.5
662.546	93.5
662.75	88.5
662.953	83.5
663.156	89.5
663.36	93.5
663.563	83.5
663.766	89.5
663.969	94.5
664.173	76.5
664.376	78.5
664.579	79.5
664.782	79.5
664.985	91.5
665.188	76.5
665.391	77.5
665.594	72.5
665.797	84.5
666	75.5
666.203	87.5
666.406	76.5
666.609	92.5
666.812	75.5
667.015	82.5
667.218	87.5
667.421	77.5
667.624	83.5
667.827	89.5
668.03	85.5
668.232	69.5
668.435	93.5
668.638	81.5
668.841	84.5
669.043	81.5
669.246	74.5
669.449	81.5
669.651	96.5
669.854	86.5
670.057	81.5
670.259	82.5
670.462	75.5
670.665	78.5
670.867	82.5
671.07	91.5
671.272	85.5
671.475	89.5
671.677	84.5
671.88	70.5
672.082	70.5
672.284	76.5
672.487	78.5
672.689	82.5
672.892	75.5
