Data from Fe(NO3)3@0.1M.TitratingCurve.Agarose3%dH2O.NegLispCup.LampEnergy10.LIBS07252019_HRD10591_16-41-05-396.txt Node
Date: Thu Jul 25 16:41:05 EDT 2019
User: cochatt
Spectrometer: HR+D1059
Trigger mode: 1
Integration Time (sec): 1.000000E-1
Scans to average: 1
Electric dark correction enabled: true
Nonlinearity correction enabled: false
Boxcar width: 0
XAxis mode: Wavelengths
Number of Pixels in Spectrum: 2048
>>>>>Begin Spectral Data<<<<<
223.165	-6.94
223.4	-6.94
223.635	-6.94
223.869	7.06
224.104	-7.94
224.338	-18.94
224.573	-10.94
224.808	-6.94
225.042	-17.94
225.277	-4.94
225.511	-1.94
225.746	-4.94
225.98	5.06
226.215	4.06
226.449	6.06
226.683	16.06
226.918	14.06
227.152	29.06
227.387	35.06
227.621	37.06
227.856	44.06
228.09	44.06
228.324	51.06
228.559	55.06
228.793	61.06
229.027	82.06
229.262	92.06
229.496	94.06
229.73	96.06
229.964	93.06
230.199	96.06
230.433	93.06
230.667	96.06
230.901	111.06
231.136	96.06
231.37	97.06
231.604	102.06
231.838	95.06
232.072	102.06
232.306	104.06
232.541	89.06
232.775	101.06
233.009	110.06
233.243	100.06
233.477	98.06
233.711	99.06
233.945	102.06
234.179	102.06
234.413	103.06
234.647	113.06
234.881	100.06
235.115	99.06
235.349	107.06
235.583	110.06
235.817	113.06
236.051	97.06
236.285	103.06
236.519	92.06
236.753	115.06
236.987	117.06
237.221	98.06
237.455	115.06
237.689	110.06
237.922	123.06
238.156	106.06
238.39	107.06
238.624	118.06
238.858	100.06
239.091	105.06
239.325	96.06
239.559	110.06
239.793	117.06
240.027	119.06
240.26	114.06
240.494	115.06
240.728	114.06
240.961	111.06
241.195	111.06
241.429	117.06
241.662	126.06
241.896	104.06
242.13	103.06
242.363	123.06
242.597	117.06
242.83	130.06
243.064	129.06
243.298	119.06
243.531	119.06
243.765	133.06
243.998	123.06
244.232	118.06
244.465	129.06
244.699	122.06
244.932	123.06
245.166	122.06
245.399	127.06
245.633	129.06
245.866	134.06
246.099	129.06
246.333	125.06
246.566	126.06
246.8	128.06
247.033	134.06
247.266	129.06
247.5	122.06
247.733	125.06
247.966	139.06
248.2	122.06
248.433	125.06
248.666	127.06
248.899	130.06
249.133	131.06
249.366	140.06
249.599	131.06
249.832	158.06
250.066	155.06
250.299	141.06
250.532	147.06
250.765	131.06
250.998	141.06
251.231	143.06
251.465	138.06
251.698	134.06
251.931	146.06
252.164	157.06
252.397	141.06
252.63	144.06
252.863	146.06
253.096	137.06
253.329	139.06
253.562	142.06
253.795	150.06
254.028	149.06
254.261	150.06
254.494	142.06
254.727	141.06
254.96	164.06
255.193	148.06
255.426	154.06
255.659	141.06
255.892	158.06
256.124	150.06
256.357	154.06
256.59	150.06
256.823	140.06
257.056	153.06
257.289	149.06
257.521	161.06
257.754	164.06
257.987	154.06
258.22	151.06
258.452	165.06
258.685	174.06
258.918	174.06
259.151	156.06
259.383	157.06
259.616	152.06
259.849	162.06
260.081	169.06
260.314	182.06
260.547	177.06
260.779	158.06
261.012	170.06
261.244	154.06
261.477	172.06
261.71	159.06
261.942	180.06
262.175	166.06
262.407	170.06
262.64	167.06
262.872	167.06
263.105	179.06
263.337	177.06
263.57	178.06
263.802	153.06
264.035	179.06
264.267	186.06
264.499	182.06
264.732	183.06
264.964	168.06
265.197	174.06
265.429	172.06
265.661	184.06
265.894	182.06
266.126	175.06
266.358	166.06
266.591	165.06
266.823	198.06
267.055	177.06
267.287	186.06
267.52	174.06
267.752	191.06
267.984	190.06
268.216	198.06
268.448	177.06
268.681	184.06
268.913	190.06
269.145	190.06
269.377	178.06
269.609	187.06
269.841	203.06
270.073	186.06
270.306	175.06
270.538	181.06
270.77	211.06
271.002	197.06
271.234	193.06
271.466	191.06
271.698	184.06
271.93	195.06
272.162	179.06
272.394	196.06
272.626	177.06
272.858	196.06
273.09	195.06
273.322	193.06
273.553	182.06
273.785	197.06
274.017	203.06
274.249	204.06
274.481	196.06
274.713	202.06
274.945	201.06
275.176	199.06
275.408	203.06
275.64	207.06
275.872	208.06
276.104	197.06
276.335	212.06
276.567	212.06
276.799	202.06
277.031	204.06
277.262	210.06
277.494	200.06
277.726	211.06
277.957	214.06
278.189	222.06
278.421	219.06
278.652	200.06
278.884	214.06
279.115	213.06
279.347	219.06
279.579	207.06
279.81	219.06
280.042	219.06
280.273	210.06
280.505	215.06
280.736	215.06
280.968	214.06
281.199	228.06
281.431	205.06
281.662	213.06
281.894	217.06
282.125	221.06
282.356	238.06
282.588	218.06
282.819	220.06
283.051	212.06
283.282	233.06
283.513	239.06
283.745	227.06
283.976	224.06
284.207	243.06
284.439	224.06
284.67	213.06
284.901	229.06
285.132	229.06
285.364	225.06
285.595	232.06
285.826	237.06
286.057	228.06
286.288	231.06
286.52	239.06
286.751	248.06
286.982	231.06
287.213	249.06
287.444	233.06
287.675	230.06
287.906	238.06
288.138	242.06
288.369	241.06
288.6	252.06
288.831	231.06
289.062	243.06
289.293	244.06
289.524	229.06
289.755	228.06
289.986	233.06
290.217	223.06
290.448	235.06
290.679	234.06
290.91	222.06
291.141	233.06
291.371	231.06
291.602	253.06
291.833	227.06
292.064	261.06
292.295	241.06
292.526	232.06
292.757	249.06
292.987	234.06
293.218	231.06
293.449	238.06
293.68	240.06
293.91	243.06
294.141	234.06
294.372	234.06
294.603	258.06
294.833	265.06
295.064	230.06
295.295	252.06
295.525	267.06
295.756	256.06
295.987	251.06
296.217	265.06
296.448	264.06
296.679	259.06
296.909	250.06
297.14	246.06
297.37	281.06
297.601	263.06
297.831	271.06
298.062	257.06
298.292	257.06
298.523	259.06
298.753	275.06
298.984	258.06
299.214	243.06
299.445	264.06
299.675	243.06
299.905	267.06
300.136	267.06
300.366	270.06
300.597	259.06
300.827	268.06
301.057	279.06
301.288	283.06
301.518	286.06
301.748	266.06
301.979	261.06
302.209	277.06
302.439	283.06
302.669	285.06
302.9	282.06
303.13	250.06
303.36	275.06
303.59	283.06
303.82	286.06
304.051	278.06
304.281	267.06
304.511	278.06
304.741	272.06
304.971	262.06
305.201	282.06
305.431	275.06
305.661	298.06
305.891	255.06
306.121	267.06
306.352	283.06
306.582	280.06
306.812	272.06
307.042	278.06
307.272	268.06
307.502	271.06
307.731	278.06
307.961	260.06
308.191	252.06
308.421	289.06
308.651	275.06
308.881	272.06
309.111	250.06
309.341	288.06
309.571	270.06
309.8	291.06
310.03	276.06
310.26	261.06
310.49	266.06
310.72	277.06
310.949	285.06
311.179	279.06
311.409	268.06
311.639	296.06
311.868	291.06
312.098	271.06
312.328	277.06
312.557	266.06
312.787	295.06
313.017	281.06
313.246	277.06
313.476	279.06
313.706	285.06
313.935	297.06
314.165	286.06
314.394	273.06
314.624	281.06
314.853	290.06
315.083	301.06
315.312	307.06
315.542	278.06
315.771	289.06
316.001	287.06
316.23	280.06
316.46	293.06
316.689	286.06
316.919	292.06
317.148	287.06
317.377	289.06
317.607	276.06
317.836	278.06
318.065	287.06
318.295	292.06
318.524	313.06
318.753	273.06
318.983	270.06
319.212	284.06
319.441	285.06
319.67	289.06
319.9	279.06
320.129	295.06
320.358	291.06
320.587	278.06
320.816	288.06
321.046	299.06
321.275	283.06
321.504	297.06
321.733	285.06
321.962	303.06
322.191	286.06
322.42	303.06
322.649	294.06
322.878	303.06
323.108	295.06
323.337	284.06
323.566	300.06
323.795	296.06
324.024	301.06
324.253	305.06
324.482	295.06
324.71	321.06
324.939	309.06
325.168	296.06
325.397	315.06
325.626	303.06
325.855	301.06
326.084	305.06
326.313	323.06
326.542	311.06
326.77	334.06
326.999	309.06
327.228	325.06
327.457	314.06
327.686	301.06
327.914	313.06
328.143	331.06
328.372	335.06
328.6	318.06
328.829	310.06
329.058	328.06
329.287	318.06
329.515	319.06
329.744	325.06
329.972	325.06
330.201	313.06
330.43	297.06
330.658	308.06
330.887	336.06
331.115	319.06
331.344	338.06
331.572	329.06
331.801	337.06
332.03	347.06
332.258	357.06
332.486	377.06
332.715	353.06
332.943	369.06
333.172	365.06
333.4	393.06
333.629	427.06
333.857	415.06
334.085	395.06
334.314	385.06
334.542	375.06
334.771	397.06
334.999	386.06
335.227	380.06
335.455	383.06
335.684	368.06
335.912	357.06
336.14	389.06
336.369	376.06
336.597	370.06
336.825	354.06
337.053	368.06
337.281	373.06
337.51	367.06
337.738	363.06
337.966	374.06
338.194	341.06
338.422	336.06
338.65	332.06
338.878	341.06
339.106	337.06
339.334	343.06
339.562	353.06
339.79	324.06
340.018	340.06
340.246	322.06
340.474	335.06
340.702	335.06
340.93	335.06
341.158	318.06
341.386	341.06
341.614	345.06
341.842	333.06
342.07	302.06
342.298	328.06
342.526	334.06
342.754	327.06
342.981	326.06
343.209	335.06
343.437	348.06
343.665	374.06
343.893	355.06
344.12	378.06
344.348	368.06
344.576	337.06
344.804	356.06
345.031	349.06
345.259	319.06
345.487	341.06
345.714	349.06
345.942	344.06
346.17	328.06
346.397	322.06
346.625	317.06
346.853	311.06
347.08	315.06
347.308	332.06
347.535	325.06
347.763	316.06
347.99	322.06
348.218	325.06
348.445	319.06
348.673	318.06
348.9	323.06
349.128	316.06
349.355	330.06
349.583	318.06
349.81	313.06
350.037	317.06
350.265	327.06
350.492	315.06
350.72	311.06
350.947	319.06
351.174	315.06
351.402	321.06
351.629	306.06
351.856	318.06
352.083	307.06
352.311	310.06
352.538	327.06
352.765	323.06
352.992	323.06
353.22	308.06
353.447	305.06
353.674	324.06
353.901	310.06
354.128	313.06
354.355	301.06
354.583	314.06
354.81	330.06
355.037	302.06
355.264	320.06
355.491	331.06
355.718	317.06
355.945	327.06
356.172	311.06
356.399	309.06
356.626	307.06
356.853	310.06
357.08	318.06
357.307	337.06
357.534	301.06
357.761	324.06
357.988	312.06
358.215	314.06
358.441	307.06
358.668	314.06
358.895	296.06
359.122	311.06
359.349	297.06
359.576	315.06
359.802	314.06
360.029	315.06
360.256	318.06
360.483	311.06
360.709	321.06
360.936	324.06
361.163	322.06
361.39	303.06
361.616	310.06
361.843	311.06
362.07	333.06
362.296	332.06
362.523	318.06
362.749	315.06
362.976	309.06
363.203	310.06
363.429	296.06
363.656	305.06
363.882	309.06
364.109	329.06
364.335	298.06
364.562	318.06
364.788	305.06
365.015	318.06
365.241	316.06
365.468	323.06
365.694	334.06
365.92	314.06
366.147	305.06
366.373	319.06
366.599	341.06
366.826	314.06
367.052	327.06
367.278	319.06
367.505	332.06
367.731	322.06
367.957	311.06
368.184	333.06
368.41	310.06
368.636	319.06
368.862	321.06
369.089	311.06
369.315	324.06
369.541	323.06
369.767	329.06
369.993	335.06
370.219	334.06
370.445	325.06
370.672	337.06
370.898	354.06
371.124	339.06
371.35	347.06
371.576	350.06
371.802	342.06
372.028	355.06
372.254	349.06
372.48	349.06
372.706	332.06
372.932	353.06
373.158	345.06
373.384	356.06
373.61	346.06
373.835	358.06
374.061	331.06
374.287	356.06
374.513	347.06
374.739	347.06
374.965	372.06
375.191	371.06
375.416	364.06
375.642	365.06
375.868	371.06
376.094	345.06
376.319	334.06
376.545	354.06
376.771	358.06
376.997	337.06
377.222	364.06
377.448	336.06
377.674	353.06
377.899	343.06
378.125	340.06
378.35	341.06
378.576	338.06
378.802	345.06
379.027	327.06
379.253	332.06
379.478	340.06
379.704	327.06
379.929	345.06
380.155	318.06
380.38	333.06
380.606	339.06
380.831	342.06
381.057	369.06
381.282	341.06
381.507	341.06
381.733	361.06
381.958	351.06
382.184	355.06
382.409	338.06
382.634	355.06
382.86	355.06
383.085	365.06
383.31	373.06
383.535	366.06
383.761	373.06
383.986	364.06
384.211	403.06
384.436	379.06
384.662	388.06
384.887	402.06
385.112	370.06
385.337	394.06
385.562	405.06
385.787	409.06
386.013	402.06
386.238	398.06
386.463	403.06
386.688	412.06
386.913	403.06
387.138	391.06
387.363	385.06
387.588	391.06
387.813	414.06
388.038	403.06
388.263	404.06
388.488	412.06
388.713	422.06
388.938	407.06
389.163	411.06
389.387	422.06
389.612	405.06
389.837	414.06
390.062	415.06
390.287	392.06
390.512	403.06
390.736	398.06
390.961	450.06
391.186	413.06
391.411	417.06
391.636	426.06
391.86	431.06
392.085	445.06
392.31	464.06
392.534	428.06
392.759	437.06
392.984	436.06
393.208	455.06
393.433	419.06
393.658	434.06
393.882	412.06
394.107	420.06
394.331	442.06
394.556	433.06
394.78	454.06
395.005	420.06
395.229	434.06
395.454	439.06
395.678	448.06
395.903	461.06
396.127	451.06
396.352	422.06
396.576	435.06
396.801	420.06
397.025	444.06
397.249	458.06
397.474	462.06
397.698	462.06
397.922	445.06
398.147	441.06
398.371	488.06
398.595	486.06
398.82	492.06
399.044	524.06
399.268	555.06
399.492	652.06
399.717	699.06
399.941	663.06
400.165	644.06
400.389	586.06
400.613	544.06
400.837	538.06
401.062	533.06
401.286	524.06
401.51	524.06
401.734	494.06
401.958	494.06
402.182	473.06
402.406	491.06
402.63	527.06
402.854	516.06
403.078	518.06
403.302	538.06
403.526	533.06
403.75	560.06
403.974	549.06
404.198	533.06
404.422	548.06
404.645	545.06
404.869	541.06
405.093	549.06
405.317	545.06
405.541	549.06
405.765	546.06
405.988	535.06
406.212	526.06
406.436	529.06
406.66	547.06
406.883	548.06
407.107	586.06
407.331	580.06
407.555	619.06
407.778	612.06
408.002	597.06
408.226	579.06
408.449	576.06
408.673	581.06
408.896	559.06
409.12	558.06
409.344	588.06
409.567	557.06
409.791	564.06
410.014	557.06
410.238	572.06
410.461	558.06
410.685	523.06
410.908	535.06
411.132	548.06
411.355	510.06
411.578	530.06
411.802	525.06
412.025	543.06
412.249	528.06
412.472	524.06
412.695	517.06
412.919	485.06
413.142	517.06
413.365	505.06
413.589	512.06
413.812	516.06
414.035	470.06
414.258	491.06
414.482	518.06
414.705	535.06
414.928	502.06
415.151	533.06
415.374	513.06
415.597	519.06
415.821	500.06
416.044	491.06
416.267	487.06
416.49	492.06
416.713	489.06
416.936	486.06
417.159	491.06
417.382	494.06
417.605	507.06
417.828	505.06
418.051	507.06
418.274	500.06
418.497	505.06
418.72	507.06
418.943	504.06
419.166	552.06
419.389	536.06
419.611	535.06
419.834	529.06
420.057	523.06
420.28	498.06
420.503	502.06
420.726	485.06
420.948	501.06
421.171	494.06
421.394	509.06
421.617	486.06
421.839	504.06
422.062	511.06
422.285	481.06
422.507	493.06
422.73	517.06
422.953	500.06
423.175	522.06
423.398	482.06
423.621	524.06
423.843	519.06
424.066	521.06
424.288	505.06
424.511	500.06
424.733	535.06
424.956	499.06
425.178	518.06
425.401	502.06
425.623	513.06
425.846	483.06
426.068	500.06
426.291	484.06
426.513	460.06
426.735	476.06
426.958	484.06
427.18	452.06
427.402	469.06
427.625	476.06
427.847	453.06
428.069	475.06
428.292	463.06
428.514	451.06
428.736	454.06
428.958	467.06
429.181	430.06
429.403	458.06
429.625	469.06
429.847	439.06
430.069	455.06
430.292	454.06
430.514	451.06
430.736	462.06
430.958	477.06
431.18	449.06
431.402	456.06
431.624	460.06
431.846	439.06
432.068	466.06
432.29	467.06
432.512	459.06
432.734	461.06
432.956	470.06
433.178	462.06
433.4	465.06
433.622	475.06
433.844	459.06
434.066	461.06
434.287	474.06
434.509	477.06
434.731	490.06
434.953	483.06
435.175	505.06
435.397	489.06
435.618	499.06
435.84	500.06
436.062	468.06
436.284	462.06
436.505	443.06
436.727	477.06
436.949	464.06
437.17	467.06
437.392	446.06
437.614	469.06
437.835	448.06
438.057	459.06
438.278	432.06
438.5	430.06
438.721	461.06
438.943	482.06
439.165	455.06
439.386	448.06
439.608	466.06
439.829	465.06
440.05	484.06
440.272	456.06
440.493	478.06
440.715	483.06
440.936	478.06
441.158	497.06
441.379	495.06
441.6	529.06
441.822	527.06
442.043	517.06
442.264	493.06
442.486	481.06
442.707	526.06
442.928	500.06
443.149	505.06
443.371	490.06
443.592	497.06
443.813	525.06
444.034	521.06
444.255	528.06
444.476	575.06
444.698	563.06
444.919	620.06
445.14	685.06
445.361	577.06
445.582	547.06
445.803	505.06
446.024	498.06
446.245	489.06
446.466	471.06
446.687	493.06
446.908	482.06
447.129	471.06
447.35	456.06
447.571	457.06
447.792	466.06
448.013	471.06
448.234	435.06
448.455	461.06
448.675	445.06
448.896	447.06
449.117	443.06
449.338	436.06
449.559	445.06
449.779	430.06
450	447.06
450.221	439.06
450.442	422.06
450.662	441.06
450.883	425.06
451.104	461.06
451.324	436.06
451.545	434.06
451.766	434.06
451.986	417.06
452.207	437.06
452.428	427.06
452.648	413.06
452.869	430.06
453.089	414.06
453.31	429.06
453.53	435.06
453.751	416.06
453.971	414.06
454.192	407.06
454.412	395.06
454.633	415.06
454.853	411.06
455.073	410.06
455.294	403.06
455.514	424.06
455.734	406.06
455.955	390.06
456.175	411.06
456.395	421.06
456.616	393.06
456.836	412.06
457.056	404.06
457.276	396.06
457.497	429.06
457.717	394.06
457.937	420.06
458.157	405.06
458.377	395.06
458.598	421.06
458.818	428.06
459.038	423.06
459.258	453.06
459.478	455.06
459.698	477.06
459.918	490.06
460.138	502.06
460.358	530.06
460.578	537.06
460.798	508.06
461.018	526.06
461.238	512.06
461.458	517.06
461.678	548.06
461.898	540.06
462.118	535.06
462.338	565.06
462.558	560.06
462.777	587.06
462.997	632.06
463.217	660.06
463.437	655.06
463.657	615.06
463.876	609.06
464.096	619.06
464.316	608.06
464.536	591.06
464.755	553.06
464.975	563.06
465.195	544.06
465.414	515.06
465.634	501.06
465.854	479.06
466.073	489.06
466.293	465.06
466.512	457.06
466.732	451.06
466.951	446.06
467.171	447.06
467.391	448.06
467.61	428.06
467.829	447.06
468.049	446.06
468.268	427.06
468.488	440.06
468.707	437.06
468.927	439.06
469.146	416.06
469.365	433.06
469.585	447.06
469.804	458.06
470.023	437.06
470.243	479.06
470.462	445.06
470.681	461.06
470.901	447.06
471.12	449.06
471.339	439.06
471.558	469.06
471.777	449.06
471.997	417.06
472.216	414.06
472.435	424.06
472.654	410.06
472.873	417.06
473.092	418.06
473.311	417.06
473.53	414.06
473.749	421.06
473.968	409.06
474.187	431.06
474.406	418.06
474.625	422.06
474.844	426.06
475.063	429.06
475.282	419.06
475.501	414.06
475.72	422.06
475.939	439.06
476.158	450.06
476.377	454.06
476.596	445.06
476.814	442.06
477.033	428.06
477.252	444.06
477.471	459.06
477.69	469.06
477.908	487.06
478.127	478.06
478.346	502.06
478.564	483.06
478.783	521.06
479.002	500.06
479.22	517.06
479.439	485.06
479.658	517.06
479.876	486.06
480.095	511.06
480.313	507.06
480.532	526.06
480.751	505.06
480.969	501.06
481.188	489.06
481.406	492.06
481.624	472.06
481.843	479.06
482.061	466.06
482.28	465.06
482.498	471.06
482.717	472.06
482.935	477.06
483.153	464.06
483.372	499.06
483.59	473.06
483.808	468.06
484.027	476.06
484.245	482.06
484.463	487.06
484.681	488.06
484.9	485.06
485.118	471.06
485.336	477.06
485.554	478.06
485.772	498.06
485.99	474.06
486.209	484.06
486.427	470.06
486.645	481.06
486.863	506.06
487.081	492.06
487.299	469.06
487.517	490.06
487.735	489.06
487.953	488.06
488.171	484.06
488.389	497.06
488.607	486.06
488.825	481.06
489.043	476.06
489.261	497.06
489.479	477.06
489.696	475.06
489.914	508.06
490.132	497.06
490.35	469.06
490.568	499.06
490.786	486.06
491.003	512.06
491.221	521.06
491.439	502.06
491.657	494.06
491.874	507.06
492.092	498.06
492.31	524.06
492.527	499.06
492.745	513.06
492.963	505.06
493.18	504.06
493.398	514.06
493.615	506.06
493.833	524.06
494.05	520.06
494.268	515.06
494.485	513.06
494.703	541.06
494.92	508.06
495.138	504.06
495.355	523.06
495.573	523.06
495.79	527.06
496.008	558.06
496.225	546.06
496.442	540.06
496.66	548.06
496.877	550.06
497.094	569.06
497.312	580.06
497.529	577.06
497.746	573.06
497.963	601.06
498.181	638.06
498.398	639.06
498.615	662.06
498.832	706.06
499.049	748.06
499.267	809.06
499.484	850.06
499.701	931.06
499.918	1002.06
500.135	1147.06
500.352	1231.06
500.569	1228.06
500.786	1245.06
501.003	1180.06
501.22	1091.06
501.437	980.06
501.654	873.06
501.871	821.06
502.088	759.06
502.305	725.06
502.522	682.06
502.739	696.06
502.956	655.06
503.172	642.06
503.389	623.06
503.606	578.06
503.823	562.06
504.04	589.06
504.256	571.06
504.473	578.06
504.69	601.06
504.907	582.06
505.123	569.06
505.34	540.06
505.557	505.06
505.773	518.06
505.99	498.06
506.207	473.06
506.423	477.06
506.64	465.06
506.856	466.06
507.073	475.06
507.289	467.06
507.506	445.06
507.722	463.06
507.939	453.06
508.155	436.06
508.372	435.06
508.588	423.06
508.805	432.06
509.021	407.06
509.238	436.06
509.454	417.06
509.67	415.06
509.887	429.06
510.103	434.06
510.319	398.06
510.536	431.06
510.752	403.06
510.968	416.06
511.184	406.06
511.401	406.06
511.617	418.06
511.833	430.06
512.049	403.06
512.265	415.06
512.481	428.06
512.698	434.06
512.914	413.06
513.13	419.06
513.346	432.06
513.562	439.06
513.778	420.06
513.994	414.06
514.21	429.06
514.426	439.06
514.642	418.06
514.858	414.06
515.074	428.06
515.29	434.06
515.506	438.06
515.721	443.06
515.937	437.06
516.153	439.06
516.369	451.06
516.585	472.06
516.801	475.06
517.016	481.06
517.232	502.06
517.448	545.06
517.664	548.06
517.879	534.06
518.095	526.06
518.311	545.06
518.527	515.06
518.742	504.06
518.958	473.06
519.173	468.06
519.389	477.06
519.605	445.06
519.82	433.06
520.036	447.06
520.251	434.06
520.467	409.06
520.682	435.06
520.898	423.06
521.113	412.06
521.329	393.06
521.544	404.06
521.76	405.06
521.975	386.06
522.19	385.06
522.406	394.06
522.621	393.06
522.836	382.06
523.052	377.06
523.267	397.06
523.482	389.06
523.698	389.06
523.913	383.06
524.128	391.06
524.343	383.06
524.559	386.06
524.774	383.06
524.989	389.06
525.204	396.06
525.419	380.06
525.634	375.06
525.849	379.06
526.064	400.06
526.28	383.06
526.495	393.06
526.71	391.06
526.925	395.06
527.14	371.06
527.355	391.06
527.57	400.06
527.785	381.06
527.999	400.06
528.214	381.06
528.429	377.06
528.644	371.06
528.859	387.06
529.074	385.06
529.289	386.06
529.503	379.06
529.718	393.06
529.933	386.06
530.148	381.06
530.363	379.06
530.577	375.06
530.792	353.06
531.007	386.06
531.221	375.06
531.436	378.06
531.651	387.06
531.865	376.06
532.08	369.06
532.295	378.06
532.509	374.06
532.724	392.06
532.938	365.06
533.153	379.06
533.367	380.06
533.582	393.06
533.796	365.06
534.011	385.06
534.225	386.06
534.44	376.06
534.654	381.06
534.868	358.06
535.083	375.06
535.297	371.06
535.511	370.06
535.726	380.06
535.94	380.06
536.154	357.06
536.369	361.06
536.583	358.06
536.797	351.06
537.011	364.06
537.225	352.06
537.44	362.06
537.654	359.06
537.868	360.06
538.082	344.06
538.296	332.06
538.51	341.06
538.724	348.06
538.938	342.06
539.153	344.06
539.367	336.06
539.581	346.06
539.795	341.06
540.009	349.06
540.222	348.06
540.436	341.06
540.65	334.06
540.864	352.06
541.078	367.06
541.292	354.06
541.506	367.06
541.72	353.06
541.934	341.06
542.147	345.06
542.361	343.06
542.575	350.06
542.789	339.06
543.002	355.06
543.216	349.06
543.43	324.06
543.644	343.06
543.857	360.06
544.071	338.06
544.285	347.06
544.498	342.06
544.712	350.06
544.925	352.06
545.139	347.06
545.352	343.06
545.566	360.06
545.779	346.06
545.993	364.06
546.206	355.06
546.42	365.06
546.633	352.06
546.847	367.06
547.06	339.06
547.274	343.06
547.487	358.06
547.7	355.06
547.914	343.06
548.127	375.06
548.34	337.06
548.554	359.06
548.767	365.06
548.98	352.06
549.193	361.06
549.407	344.06
549.62	349.06
549.833	377.06
550.046	357.06
550.259	345.06
550.473	355.06
550.686	336.06
550.899	343.06
551.112	341.06
551.325	354.06
551.538	346.06
551.751	359.06
551.964	358.06
552.177	360.06
552.39	346.06
552.603	351.06
552.816	389.06
553.029	373.06
553.242	391.06
553.455	381.06
553.667	377.06
553.88	375.06
554.093	348.06
554.306	374.06
554.519	353.06
554.732	339.06
554.944	341.06
555.157	333.06
555.37	337.06
555.583	327.06
555.795	335.06
556.008	341.06
556.221	313.06
556.433	311.06
556.646	305.06
556.859	307.06
557.071	309.06
557.284	311.06
557.496	329.06
557.709	293.06
557.921	313.06
558.134	317.06
558.346	310.06
558.559	307.06
558.771	309.06
558.984	293.06
559.196	309.06
559.409	291.06
559.621	314.06
559.833	314.06
560.046	306.06
560.258	283.06
560.47	294.06
560.683	297.06
560.895	304.06
561.107	294.06
561.32	309.06
561.532	289.06
561.744	317.06
561.956	300.06
562.168	305.06
562.381	309.06
562.593	313.06
562.805	286.06
563.017	305.06
563.229	297.06
563.441	313.06
563.653	327.06
563.865	300.06
564.077	309.06
564.289	328.06
564.501	310.06
564.713	300.06
564.925	345.06
565.137	337.06
565.349	329.06
565.561	346.06
565.773	361.06
565.985	355.06
566.197	381.06
566.408	393.06
566.62	403.06
566.832	453.06
567.044	433.06
567.255	433.06
567.467	434.06
567.679	454.06
567.891	482.06
568.102	485.06
568.314	467.06
568.526	441.06
568.737	394.06
568.949	358.06
569.161	377.06
569.372	339.06
569.584	322.06
569.795	330.06
570.007	292.06
570.218	297.06
570.43	327.06
570.641	307.06
570.853	323.06
571.064	322.06
571.276	305.06
571.487	291.06
571.698	280.06
571.91	294.06
572.121	292.06
572.333	260.06
572.544	262.06
572.755	278.06
572.966	258.06
573.178	270.06
573.389	253.06
573.6	263.06
573.811	270.06
574.023	252.06
574.234	276.06
574.445	250.06
574.656	257.06
574.867	256.06
575.078	249.06
575.289	249.06
575.501	230.06
575.712	239.06
575.923	240.06
576.134	245.06
576.345	244.06
576.556	241.06
576.767	236.06
576.978	235.06
577.188	245.06
577.399	261.06
577.61	248.06
577.821	236.06
578.032	248.06
578.243	219.06
578.454	233.06
578.665	231.06
578.875	212.06
579.086	220.06
579.297	214.06
579.508	244.06
579.718	243.06
579.929	245.06
580.14	220.06
580.35	226.06
580.561	238.06
580.772	223.06
580.982	228.06
581.193	230.06
581.403	235.06
581.614	231.06
581.825	229.06
582.035	227.06
582.246	222.06
582.456	225.06
582.667	226.06
582.877	221.06
583.087	217.06
583.298	231.06
583.508	222.06
583.719	218.06
583.929	232.06
584.139	229.06
584.35	215.06
584.56	218.06
584.77	212.06
584.981	219.06
585.191	219.06
585.401	215.06
585.611	222.06
585.821	221.06
586.032	200.06
586.242	215.06
586.452	214.06
586.662	214.06
586.872	213.06
587.082	233.06
587.292	211.06
587.502	230.06
587.713	226.06
587.923	225.06
588.133	214.06
588.343	218.06
588.553	208.06
588.762	226.06
588.972	212.06
589.182	229.06
589.392	228.06
589.602	223.06
589.812	211.06
590.022	217.06
590.232	225.06
590.441	235.06
590.651	198.06
590.861	214.06
591.071	213.06
591.281	201.06
591.49	215.06
591.7	221.06
591.91	240.06
592.119	218.06
592.329	222.06
592.539	230.06
592.748	248.06
592.958	237.06
593.167	229.06
593.377	221.06
593.587	254.06
593.796	251.06
594.006	248.06
594.215	235.06
594.424	248.06
594.634	228.06
594.843	219.06
595.053	243.06
595.262	232.06
595.472	214.06
595.681	218.06
595.89	215.06
596.1	227.06
596.309	222.06
596.518	217.06
596.727	204.06
596.937	201.06
597.146	196.06
597.355	196.06
597.564	207.06
597.774	199.06
597.983	189.06
598.192	190.06
598.401	201.06
598.61	198.06
598.819	199.06
599.028	181.06
599.237	203.06
599.446	194.06
599.655	204.06
599.864	200.06
600.073	197.06
600.282	181.06
600.491	181.06
600.7	187.06
600.909	183.06
601.118	188.06
601.327	197.06
601.536	197.06
601.745	190.06
601.953	182.06
602.162	167.06
602.371	173.06
602.58	190.06
602.789	190.06
602.997	176.06
603.206	183.06
603.415	192.06
603.623	193.06
603.832	173.06
604.041	170.06
604.249	180.06
604.458	185.06
604.666	183.06
604.875	184.06
605.084	167.06
605.292	177.06
605.501	171.06
605.709	175.06
605.918	181.06
606.126	187.06
606.334	181.06
606.543	182.06
606.751	180.06
606.96	166.06
607.168	164.06
607.376	177.06
607.585	160.06
607.793	175.06
608.001	186.06
608.21	179.06
608.418	175.06
608.626	162.06
608.834	179.06
609.043	172.06
609.251	169.06
609.459	167.06
609.667	193.06
609.875	178.06
610.083	171.06
610.291	164.06
610.499	177.06
610.707	171.06
610.916	171.06
611.124	175.06
611.332	179.06
611.54	173.06
611.748	172.06
611.955	179.06
612.163	177.06
612.371	167.06
612.579	174.06
612.787	170.06
612.995	157.06
613.203	198.06
613.411	171.06
613.618	163.06
613.826	166.06
614.034	160.06
614.242	163.06
614.449	172.06
614.657	159.06
614.865	179.06
615.072	172.06
615.28	177.06
615.488	172.06
615.695	163.06
615.903	161.06
616.111	178.06
616.318	164.06
616.526	169.06
616.733	182.06
616.941	167.06
617.148	183.06
617.356	162.06
617.563	173.06
617.771	169.06
617.978	162.06
618.185	156.06
618.393	168.06
618.6	163.06
618.807	186.06
619.015	169.06
619.222	158.06
619.429	161.06
619.637	167.06
619.844	158.06
620.051	168.06
620.258	170.06
620.466	158.06
620.673	165.06
620.88	156.06
621.087	177.06
621.294	159.06
621.501	156.06
621.708	170.06
621.915	149.06
622.122	161.06
622.329	157.06
622.536	152.06
622.743	162.06
622.95	154.06
623.157	162.06
623.364	171.06
623.571	153.06
623.778	167.06
623.985	166.06
624.192	154.06
624.399	151.06
624.606	151.06
624.812	168.06
625.019	137.06
625.226	149.06
625.433	161.06
625.639	144.06
625.846	170.06
626.053	140.06
626.259	157.06
626.466	152.06
626.673	148.06
626.879	158.06
627.086	159.06
627.293	143.06
627.499	145.06
627.706	165.06
627.912	158.06
628.119	152.06
628.325	169.06
628.532	154.06
628.738	144.06
628.945	151.06
629.151	148.06
629.357	153.06
629.564	149.06
629.77	147.06
629.976	133.06
630.183	134.06
630.389	153.06
630.595	145.06
630.802	139.06
631.008	149.06
631.214	135.06
631.42	148.06
631.627	153.06
631.833	136.06
632.039	134.06
632.245	141.06
632.451	136.06
632.657	146.06
632.863	137.06
633.069	146.06
633.275	149.06
633.481	158.06
633.688	128.06
633.893	147.06
634.099	144.06
634.305	135.06
634.511	125.06
634.717	155.06
634.923	135.06
635.129	128.06
635.335	126.06
635.541	135.06
635.747	129.06
635.952	143.06
636.158	134.06
636.364	134.06
636.57	140.06
636.775	149.06
636.981	134.06
637.187	152.06
637.392	142.06
637.598	139.06
637.804	144.06
638.009	140.06
638.215	145.06
638.421	137.06
638.626	126.06
638.832	140.06
639.037	134.06
639.243	135.06
639.448	139.06
639.654	146.06
639.859	149.06
640.065	131.06
640.27	138.06
640.475	136.06
640.681	124.06
640.886	138.06
641.091	146.06
641.297	141.06
641.502	142.06
641.707	126.06
641.913	127.06
642.118	130.06
642.323	119.06
642.528	125.06
642.733	133.06
642.939	130.06
643.144	120.06
643.349	123.06
643.554	137.06
643.759	134.06
643.964	104.06
644.169	115.06
644.374	129.06
644.579	132.06
644.784	150.06
644.989	129.06
645.194	131.06
645.399	134.06
645.604	133.06
645.809	127.06
646.014	137.06
646.219	130.06
646.423	151.06
646.628	127.06
646.833	125.06
647.038	131.06
647.243	125.06
647.447	138.06
647.652	130.06
647.857	157.06
648.062	134.06
648.266	134.06
648.471	138.06
648.676	128.06
648.88	133.06
649.085	130.06
649.289	131.06
649.494	129.06
649.698	144.06
649.903	135.06
650.107	117.06
650.312	150.06
650.516	125.06
650.721	129.06
650.925	134.06
651.13	127.06
651.334	133.06
651.539	130.06
651.743	126.06
651.947	130.06
652.152	106.06
652.356	127.06
652.56	109.06
652.764	119.06
652.969	128.06
653.173	122.06
653.377	127.06
653.581	121.06
653.785	131.06
653.99	119.06
654.194	110.06
654.398	129.06
654.602	100.06
654.806	101.06
655.01	122.06
655.214	122.06
655.418	109.06
655.622	113.06
655.826	107.06
656.03	126.06
656.234	129.06
656.438	121.06
656.642	112.06
656.846	124.06
657.049	129.06
657.253	116.06
657.457	121.06
657.661	117.06
657.865	95.06
658.068	104.06
658.272	87.06
658.476	113.06
658.68	93.06
658.883	98.06
659.087	109.06
659.291	99.06
659.494	105.06
659.698	87.06
659.901	101.06
660.105	95.06
660.309	94.06
660.512	86.06
660.716	97.06
660.919	84.06
661.123	100.06
661.326	98.06
661.53	96.06
661.733	102.06
661.936	95.06
662.14	78.06
662.343	91.06
662.546	100.06
662.75	101.06
662.953	84.06
663.156	91.06
663.36	85.06
663.563	77.06
663.766	84.06
663.969	77.06
664.173	79.06
664.376	84.06
664.579	87.06
664.782	74.06
664.985	83.06
665.188	85.06
665.391	85.06
665.594	86.06
665.797	90.06
666	77.06
666.203	83.06
666.406	66.06
666.609	84.06
666.812	73.06
667.015	90.06
667.218	83.06
667.421	89.06
667.624	74.06
667.827	87.06
668.03	74.06
668.232	87.06
668.435	85.06
668.638	85.06
668.841	84.06
669.043	75.06
669.246	78.06
669.449	79.06
669.651	79.06
669.854	82.06
670.057	74.06
670.259	93.06
670.462	91.06
670.665	64.06
670.867	82.06
671.07	87.06
671.272	92.06
671.475	85.06
671.677	75.06
671.88	104.06
672.082	94.06
672.284	86.06
672.487	93.06
672.689	87.06
672.892	81.06
