Data from Fe(NO3)3@0.05M.TitratingCurve.Agarose3%dH2O.NegLispCup.LampEnergy10.LIBS07252019_HRD10591_16-48-18-333.txt Node
Date: Thu Jul 25 16:48:18 EDT 2019
User: cochatt
Spectrometer: HR+D1059
Trigger mode: 1
Integration Time (sec): 1.000000E-1
Scans to average: 1
Electric dark correction enabled: true
Nonlinearity correction enabled: false
Boxcar width: 0
XAxis mode: Wavelengths
Number of Pixels in Spectrum: 2048
>>>>>Begin Spectral Data<<<<<
223.165	-16.94
223.4	-16.94
223.635	-16.94
223.869	-20.94
224.104	-16.94
224.338	-2.94
224.573	-16.94
224.808	-1.94
225.042	4.06
225.277	-0.94
225.511	-9.94
225.746	8.06
225.98	-1.94
226.215	-1.94
226.449	18.06
226.683	10.06
226.918	19.06
227.152	32.06
227.387	30.06
227.621	38.06
227.856	57.06
228.09	46.06
228.324	41.06
228.559	48.06
228.793	51.06
229.027	59.06
229.262	71.06
229.496	59.06
229.73	76.06
229.964	73.06
230.199	74.06
230.433	66.06
230.667	80.06
230.901	72.06
231.136	82.06
231.37	74.06
231.604	88.06
231.838	92.06
232.072	82.06
232.306	83.06
232.541	83.06
232.775	78.06
233.009	84.06
233.243	70.06
233.477	87.06
233.711	88.06
233.945	88.06
234.179	79.06
234.413	80.06
234.647	75.06
234.881	81.06
235.115	76.06
235.349	83.06
235.583	87.06
235.817	83.06
236.051	97.06
236.285	80.06
236.519	88.06
236.753	86.06
236.987	87.06
237.221	78.06
237.455	74.06
237.689	76.06
237.922	85.06
238.156	78.06
238.39	73.06
238.624	80.06
238.858	71.06
239.091	75.06
239.325	75.06
239.559	84.06
239.793	69.06
240.027	82.06
240.26	80.06
240.494	83.06
240.728	64.06
240.961	75.06
241.195	83.06
241.429	83.06
241.662	73.06
241.896	75.06
242.13	83.06
242.363	95.06
242.597	66.06
242.83	83.06
243.064	80.06
243.298	100.06
243.531	86.06
243.765	83.06
243.998	78.06
244.232	77.06
244.465	85.06
244.699	87.06
244.932	79.06
245.166	91.06
245.399	94.06
245.633	83.06
245.866	75.06
246.099	77.06
246.333	90.06
246.566	85.06
246.8	82.06
247.033	88.06
247.266	84.06
247.5	80.06
247.733	69.06
247.966	75.06
248.2	70.06
248.433	81.06
248.666	82.06
248.899	93.06
249.133	106.06
249.366	90.06
249.599	87.06
249.832	85.06
250.066	79.06
250.299	104.06
250.532	95.06
250.765	84.06
250.998	92.06
251.231	103.06
251.465	80.06
251.698	81.06
251.931	85.06
252.164	87.06
252.397	88.06
252.63	81.06
252.863	78.06
253.096	96.06
253.329	92.06
253.562	74.06
253.795	82.06
254.028	83.06
254.261	89.06
254.494	92.06
254.727	90.06
254.96	80.06
255.193	87.06
255.426	68.06
255.659	91.06
255.892	89.06
256.124	104.06
256.357	88.06
256.59	106.06
256.823	84.06
257.056	80.06
257.289	83.06
257.521	81.06
257.754	82.06
257.987	90.06
258.22	102.06
258.452	81.06
258.685	86.06
258.918	106.06
259.151	93.06
259.383	84.06
259.616	83.06
259.849	89.06
260.081	86.06
260.314	98.06
260.547	85.06
260.779	92.06
261.012	96.06
261.244	115.06
261.477	99.06
261.71	106.06
261.942	68.06
262.175	93.06
262.407	87.06
262.64	93.06
262.872	98.06
263.105	92.06
263.337	89.06
263.57	90.06
263.802	115.06
264.035	87.06
264.267	91.06
264.499	83.06
264.732	91.06
264.964	84.06
265.197	111.06
265.429	89.06
265.661	97.06
265.894	89.06
266.126	94.06
266.358	102.06
266.591	103.06
266.823	98.06
267.055	79.06
267.287	97.06
267.52	100.06
267.752	95.06
267.984	90.06
268.216	87.06
268.448	98.06
268.681	93.06
268.913	98.06
269.145	99.06
269.377	97.06
269.609	104.06
269.841	110.06
270.073	96.06
270.306	98.06
270.538	95.06
270.77	98.06
271.002	104.06
271.234	98.06
271.466	83.06
271.698	99.06
271.93	105.06
272.162	110.06
272.394	89.06
272.626	91.06
272.858	101.06
273.09	103.06
273.322	108.06
273.553	112.06
273.785	104.06
274.017	97.06
274.249	102.06
274.481	106.06
274.713	97.06
274.945	90.06
275.176	100.06
275.408	106.06
275.64	102.06
275.872	104.06
276.104	103.06
276.335	97.06
276.567	101.06
276.799	104.06
277.031	92.06
277.262	93.06
277.494	84.06
277.726	92.06
277.957	94.06
278.189	97.06
278.421	95.06
278.652	90.06
278.884	105.06
279.115	103.06
279.347	100.06
279.579	92.06
279.81	98.06
280.042	97.06
280.273	99.06
280.505	84.06
280.736	93.06
280.968	95.06
281.199	102.06
281.431	106.06
281.662	104.06
281.894	105.06
282.125	105.06
282.356	90.06
282.588	103.06
282.819	84.06
283.051	106.06
283.282	95.06
283.513	112.06
283.745	113.06
283.976	95.06
284.207	96.06
284.439	94.06
284.67	116.06
284.901	91.06
285.132	109.06
285.364	104.06
285.595	99.06
285.826	98.06
286.057	115.06
286.288	104.06
286.52	100.06
286.751	118.06
286.982	107.06
287.213	100.06
287.444	119.06
287.675	109.06
287.906	107.06
288.138	100.06
288.369	102.06
288.6	107.06
288.831	114.06
289.062	106.06
289.293	105.06
289.524	106.06
289.755	94.06
289.986	98.06
290.217	119.06
290.448	101.06
290.679	116.06
290.91	110.06
291.141	102.06
291.371	108.06
291.602	106.06
291.833	113.06
292.064	98.06
292.295	102.06
292.526	126.06
292.757	89.06
292.987	95.06
293.218	102.06
293.449	110.06
293.68	112.06
293.91	118.06
294.141	100.06
294.372	105.06
294.603	98.06
294.833	103.06
295.064	106.06
295.295	103.06
295.525	99.06
295.756	98.06
295.987	94.06
296.217	95.06
296.448	111.06
296.679	114.06
296.909	107.06
297.14	97.06
297.37	116.06
297.601	99.06
297.831	106.06
298.062	105.06
298.292	102.06
298.523	101.06
298.753	114.06
298.984	116.06
299.214	115.06
299.445	115.06
299.675	112.06
299.905	119.06
300.136	112.06
300.366	110.06
300.597	103.06
300.827	112.06
301.057	88.06
301.288	105.06
301.518	114.06
301.748	88.06
301.979	117.06
302.209	95.06
302.439	103.06
302.669	112.06
302.9	118.06
303.13	111.06
303.36	108.06
303.59	94.06
303.82	97.06
304.051	114.06
304.281	111.06
304.511	122.06
304.741	116.06
304.971	98.06
305.201	117.06
305.431	109.06
305.661	102.06
305.891	118.06
306.121	112.06
306.352	120.06
306.582	107.06
306.812	92.06
307.042	108.06
307.272	116.06
307.502	110.06
307.731	113.06
307.961	107.06
308.191	103.06
308.421	117.06
308.651	100.06
308.881	99.06
309.111	119.06
309.341	98.06
309.571	99.06
309.8	101.06
310.03	107.06
310.26	112.06
310.49	117.06
310.72	111.06
310.949	118.06
311.179	97.06
311.409	116.06
311.639	104.06
311.868	110.06
312.098	101.06
312.328	98.06
312.557	127.06
312.787	116.06
313.017	119.06
313.246	113.06
313.476	119.06
313.706	110.06
313.935	114.06
314.165	121.06
314.394	119.06
314.624	113.06
314.853	113.06
315.083	102.06
315.312	106.06
315.542	110.06
315.771	111.06
316.001	110.06
316.23	119.06
316.46	114.06
316.689	108.06
316.919	110.06
317.148	112.06
317.377	119.06
317.607	105.06
317.836	112.06
318.065	110.06
318.295	122.06
318.524	118.06
318.753	123.06
318.983	95.06
319.212	114.06
319.441	98.06
319.67	102.06
319.9	130.06
320.129	104.06
320.358	134.06
320.587	108.06
320.816	113.06
321.046	113.06
321.275	123.06
321.504	112.06
321.733	102.06
321.962	110.06
322.191	119.06
322.42	112.06
322.649	119.06
322.878	125.06
323.108	105.06
323.337	106.06
323.566	113.06
323.795	103.06
324.024	107.06
324.253	127.06
324.482	115.06
324.71	112.06
324.939	112.06
325.168	111.06
325.397	117.06
325.626	113.06
325.855	114.06
326.084	123.06
326.313	115.06
326.542	115.06
326.77	124.06
326.999	120.06
327.228	106.06
327.457	114.06
327.686	126.06
327.914	104.06
328.143	113.06
328.372	109.06
328.6	126.06
328.829	121.06
329.058	123.06
329.287	118.06
329.515	116.06
329.744	123.06
329.972	109.06
330.201	106.06
330.43	114.06
330.658	116.06
330.887	116.06
331.115	116.06
331.344	122.06
331.572	120.06
331.801	125.06
332.03	126.06
332.258	117.06
332.486	121.06
332.715	127.06
332.943	123.06
333.172	132.06
333.4	113.06
333.629	118.06
333.857	114.06
334.085	127.06
334.314	123.06
334.542	125.06
334.771	118.06
334.999	134.06
335.227	122.06
335.455	119.06
335.684	127.06
335.912	126.06
336.14	127.06
336.369	121.06
336.597	137.06
336.825	131.06
337.053	134.06
337.281	126.06
337.51	123.06
337.738	112.06
337.966	112.06
338.194	117.06
338.422	116.06
338.65	122.06
338.878	107.06
339.106	127.06
339.334	121.06
339.562	118.06
339.79	129.06
340.018	120.06
340.246	107.06
340.474	123.06
340.702	105.06
340.93	123.06
341.158	112.06
341.386	96.06
341.614	114.06
341.842	114.06
342.07	122.06
342.298	127.06
342.526	113.06
342.754	115.06
342.981	108.06
343.209	128.06
343.437	135.06
343.665	138.06
343.893	130.06
344.12	136.06
344.348	126.06
344.576	121.06
344.804	117.06
345.031	112.06
345.259	140.06
345.487	127.06
345.714	119.06
345.942	115.06
346.17	127.06
346.397	107.06
346.625	124.06
346.853	123.06
347.08	107.06
347.308	113.06
347.535	113.06
347.763	113.06
347.99	124.06
348.218	121.06
348.445	110.06
348.673	119.06
348.9	137.06
349.128	143.06
349.355	105.06
349.583	110.06
349.81	126.06
350.037	118.06
350.265	112.06
350.492	117.06
350.72	124.06
350.947	120.06
351.174	135.06
351.402	129.06
351.629	122.06
351.856	122.06
352.083	129.06
352.311	126.06
352.538	120.06
352.765	126.06
352.992	127.06
353.22	118.06
353.447	125.06
353.674	110.06
353.901	122.06
354.128	119.06
354.355	118.06
354.583	110.06
354.81	114.06
355.037	125.06
355.264	126.06
355.491	106.06
355.718	109.06
355.945	133.06
356.172	120.06
356.399	126.06
356.626	140.06
356.853	142.06
357.08	123.06
357.307	134.06
357.534	138.06
357.761	110.06
357.988	126.06
358.215	138.06
358.441	128.06
358.668	137.06
358.895	142.06
359.122	124.06
359.349	128.06
359.576	127.06
359.802	118.06
360.029	128.06
360.256	125.06
360.483	128.06
360.709	154.06
360.936	134.06
361.163	110.06
361.39	120.06
361.616	137.06
361.843	128.06
362.07	131.06
362.296	126.06
362.523	132.06
362.749	130.06
362.976	138.06
363.203	131.06
363.429	113.06
363.656	125.06
363.882	143.06
364.109	132.06
364.335	137.06
364.562	125.06
364.788	115.06
365.015	130.06
365.241	131.06
365.468	124.06
365.694	129.06
365.92	122.06
366.147	121.06
366.373	122.06
366.599	121.06
366.826	122.06
367.052	118.06
367.278	134.06
367.505	122.06
367.731	126.06
367.957	110.06
368.184	134.06
368.41	140.06
368.636	127.06
368.862	137.06
369.089	127.06
369.315	120.06
369.541	135.06
369.767	122.06
369.993	134.06
370.219	135.06
370.445	130.06
370.672	128.06
370.898	139.06
371.124	141.06
371.35	136.06
371.576	133.06
371.802	135.06
372.028	136.06
372.254	139.06
372.48	144.06
372.706	131.06
372.932	146.06
373.158	149.06
373.384	147.06
373.61	139.06
373.835	155.06
374.061	132.06
374.287	139.06
374.513	160.06
374.739	144.06
374.965	150.06
375.191	137.06
375.416	145.06
375.642	133.06
375.868	148.06
376.094	138.06
376.319	134.06
376.545	147.06
376.771	146.06
376.997	145.06
377.222	147.06
377.448	155.06
377.674	132.06
377.899	148.06
378.125	137.06
378.35	146.06
378.576	128.06
378.802	150.06
379.027	139.06
379.253	144.06
379.478	146.06
379.704	146.06
379.929	154.06
380.155	158.06
380.38	153.06
380.606	159.06
380.831	160.06
381.057	154.06
381.282	144.06
381.507	139.06
381.733	152.06
381.958	158.06
382.184	147.06
382.409	168.06
382.634	169.06
382.86	147.06
383.085	152.06
383.31	162.06
383.535	159.06
383.761	148.06
383.986	169.06
384.211	156.06
384.436	163.06
384.662	147.06
384.887	162.06
385.112	163.06
385.337	177.06
385.562	176.06
385.787	154.06
386.013	167.06
386.238	147.06
386.463	178.06
386.688	182.06
386.913	163.06
387.138	174.06
387.363	180.06
387.588	167.06
387.813	185.06
388.038	176.06
388.263	178.06
388.488	171.06
388.713	164.06
388.938	188.06
389.163	171.06
389.387	176.06
389.612	177.06
389.837	189.06
390.062	165.06
390.287	150.06
390.512	158.06
390.736	179.06
390.961	194.06
391.186	171.06
391.411	180.06
391.636	187.06
391.86	180.06
392.085	166.06
392.31	193.06
392.534	172.06
392.759	173.06
392.984	161.06
393.208	184.06
393.433	154.06
393.658	182.06
393.882	175.06
394.107	184.06
394.331	196.06
394.556	171.06
394.78	187.06
395.005	175.06
395.229	190.06
395.454	206.06
395.678	194.06
395.903	191.06
396.127	201.06
396.352	192.06
396.576	187.06
396.801	182.06
397.025	191.06
397.249	178.06
397.474	186.06
397.698	195.06
397.922	196.06
398.147	198.06
398.371	182.06
398.595	193.06
398.82	201.06
399.044	200.06
399.268	230.06
399.492	227.06
399.717	240.06
399.941	246.06
400.165	234.06
400.389	225.06
400.613	218.06
400.837	219.06
401.062	212.06
401.286	201.06
401.51	207.06
401.734	219.06
401.958	210.06
402.182	197.06
402.406	211.06
402.63	212.06
402.854	212.06
403.078	204.06
403.302	214.06
403.526	211.06
403.75	220.06
403.974	223.06
404.198	222.06
404.422	207.06
404.645	222.06
404.869	212.06
405.093	224.06
405.317	212.06
405.541	200.06
405.765	227.06
405.988	211.06
406.212	224.06
406.436	222.06
406.66	237.06
406.883	233.06
407.107	240.06
407.331	225.06
407.555	238.06
407.778	221.06
408.002	227.06
408.226	239.06
408.449	234.06
408.673	227.06
408.896	235.06
409.12	226.06
409.344	208.06
409.567	218.06
409.791	232.06
410.014	231.06
410.238	219.06
410.461	229.06
410.685	230.06
410.908	235.06
411.132	215.06
411.355	205.06
411.578	206.06
411.802	222.06
412.025	217.06
412.249	203.06
412.472	232.06
412.695	227.06
412.919	220.06
413.142	207.06
413.365	213.06
413.589	213.06
413.812	218.06
414.035	228.06
414.258	222.06
414.482	227.06
414.705	230.06
414.928	215.06
415.151	234.06
415.374	220.06
415.597	218.06
415.821	223.06
416.044	216.06
416.267	220.06
416.49	216.06
416.713	214.06
416.936	211.06
417.159	207.06
417.382	209.06
417.605	232.06
417.828	215.06
418.051	233.06
418.274	225.06
418.497	222.06
418.72	220.06
418.943	229.06
419.166	217.06
419.389	235.06
419.611	231.06
419.834	248.06
420.057	215.06
420.28	221.06
420.503	217.06
420.726	223.06
420.948	223.06
421.171	235.06
421.394	217.06
421.617	226.06
421.839	212.06
422.062	222.06
422.285	235.06
422.507	242.06
422.73	244.06
422.953	228.06
423.175	233.06
423.398	236.06
423.621	234.06
423.843	230.06
424.066	242.06
424.288	252.06
424.511	258.06
424.733	239.06
424.956	238.06
425.178	227.06
425.401	233.06
425.623	254.06
425.846	236.06
426.068	213.06
426.291	224.06
426.513	224.06
426.735	232.06
426.958	219.06
427.18	218.06
427.402	233.06
427.625	226.06
427.847	215.06
428.069	226.06
428.292	218.06
428.514	221.06
428.736	221.06
428.958	214.06
429.181	229.06
429.403	218.06
429.625	212.06
429.847	211.06
430.069	211.06
430.292	226.06
430.514	206.06
430.736	203.06
430.958	234.06
431.18	219.06
431.402	224.06
431.624	227.06
431.846	235.06
432.068	203.06
432.29	214.06
432.512	207.06
432.734	236.06
432.956	230.06
433.178	230.06
433.4	225.06
433.622	231.06
433.844	239.06
434.066	222.06
434.287	222.06
434.509	226.06
434.731	225.06
434.953	239.06
435.175	237.06
435.397	244.06
435.618	231.06
435.84	232.06
436.062	233.06
436.284	242.06
436.505	219.06
436.727	250.06
436.949	244.06
437.17	235.06
437.392	246.06
437.614	210.06
437.835	216.06
438.057	217.06
438.278	208.06
438.5	218.06
438.721	232.06
438.943	238.06
439.165	235.06
439.386	233.06
439.608	245.06
439.829	242.06
440.05	235.06
440.272	244.06
440.493	225.06
440.715	241.06
440.936	241.06
441.158	251.06
441.379	256.06
441.6	234.06
441.822	249.06
442.043	265.06
442.264	235.06
442.486	250.06
442.707	248.06
442.928	266.06
443.149	263.06
443.371	265.06
443.592	251.06
443.813	254.06
444.034	251.06
444.255	262.06
444.476	270.06
444.698	267.06
444.919	287.06
445.14	394.06
445.361	329.06
445.582	275.06
445.803	255.06
446.024	266.06
446.245	268.06
446.466	244.06
446.687	259.06
446.908	252.06
447.129	253.06
447.35	230.06
447.571	242.06
447.792	261.06
448.013	235.06
448.234	227.06
448.455	238.06
448.675	238.06
448.896	248.06
449.117	231.06
449.338	212.06
449.559	234.06
449.779	235.06
450	219.06
450.221	229.06
450.442	231.06
450.662	229.06
450.883	243.06
451.104	249.06
451.324	226.06
451.545	227.06
451.766	232.06
451.986	231.06
452.207	228.06
452.428	231.06
452.648	213.06
452.869	210.06
453.089	231.06
453.31	215.06
453.53	208.06
453.751	223.06
453.971	226.06
454.192	218.06
454.412	219.06
454.633	233.06
454.853	223.06
455.073	204.06
455.294	222.06
455.514	213.06
455.734	206.06
455.955	234.06
456.175	214.06
456.395	214.06
456.616	210.06
456.836	226.06
457.056	202.06
457.276	206.06
457.497	218.06
457.717	208.06
457.937	246.06
458.157	220.06
458.377	229.06
458.598	231.06
458.818	234.06
459.038	238.06
459.258	228.06
459.478	238.06
459.698	239.06
459.918	258.06
460.138	241.06
460.358	258.06
460.578	262.06
460.798	265.06
461.018	255.06
461.238	280.06
461.458	262.06
461.678	276.06
461.898	285.06
462.118	265.06
462.338	264.06
462.558	284.06
462.777	280.06
462.997	296.06
463.217	298.06
463.437	279.06
463.657	304.06
463.876	297.06
464.096	296.06
464.316	286.06
464.536	282.06
464.755	273.06
464.975	271.06
465.195	272.06
465.414	254.06
465.634	238.06
465.854	238.06
466.073	262.06
466.293	248.06
466.512	243.06
466.732	259.06
466.951	246.06
467.171	229.06
467.391	259.06
467.61	239.06
467.829	248.06
468.049	249.06
468.268	239.06
468.488	248.06
468.707	255.06
468.927	238.06
469.146	254.06
469.365	241.06
469.585	246.06
469.804	238.06
470.023	265.06
470.243	256.06
470.462	233.06
470.681	250.06
470.901	247.06
471.12	244.06
471.339	242.06
471.558	238.06
471.777	249.06
471.997	233.06
472.216	261.06
472.435	257.06
472.654	218.06
472.873	243.06
473.092	229.06
473.311	240.06
473.53	236.06
473.749	233.06
473.968	244.06
474.187	233.06
474.406	236.06
474.625	247.06
474.844	233.06
475.063	243.06
475.282	236.06
475.501	228.06
475.72	271.06
475.939	235.06
476.158	244.06
476.377	234.06
476.596	246.06
476.814	232.06
477.033	240.06
477.252	239.06
477.471	265.06
477.69	276.06
477.908	269.06
478.127	269.06
478.346	279.06
478.564	291.06
478.783	275.06
479.002	276.06
479.22	259.06
479.439	277.06
479.658	285.06
479.876	295.06
480.095	269.06
480.313	259.06
480.532	272.06
480.751	272.06
480.969	265.06
481.188	273.06
481.406	275.06
481.624	271.06
481.843	245.06
482.061	268.06
482.28	267.06
482.498	266.06
482.717	242.06
482.935	255.06
483.153	269.06
483.372	266.06
483.59	253.06
483.808	263.06
484.027	253.06
484.245	254.06
484.463	275.06
484.681	285.06
484.9	269.06
485.118	252.06
485.336	262.06
485.554	268.06
485.772	246.06
485.99	257.06
486.209	273.06
486.427	267.06
486.645	247.06
486.863	268.06
487.081	277.06
487.299	267.06
487.517	269.06
487.735	290.06
487.953	280.06
488.171	267.06
488.389	261.06
488.607	281.06
488.825	274.06
489.043	251.06
489.261	275.06
489.479	275.06
489.696	277.06
489.914	270.06
490.132	279.06
490.35	267.06
490.568	277.06
490.786	266.06
491.003	303.06
491.221	291.06
491.439	288.06
491.657	278.06
491.874	304.06
492.092	281.06
492.31	309.06
492.527	302.06
492.745	298.06
492.963	300.06
493.18	292.06
493.398	280.06
493.615	282.06
493.833	291.06
494.05	292.06
494.268	306.06
494.485	312.06
494.703	287.06
494.92	292.06
495.138	284.06
495.355	286.06
495.573	306.06
495.79	310.06
496.008	281.06
496.225	323.06
496.442	290.06
496.66	304.06
496.877	302.06
497.094	304.06
497.312	302.06
497.529	321.06
497.746	326.06
497.963	322.06
498.181	312.06
498.398	336.06
498.615	360.06
498.832	354.06
499.049	379.06
499.267	404.06
499.484	402.06
499.701	411.06
499.918	453.06
500.135	488.06
500.352	484.06
500.569	490.06
500.786	511.06
501.003	515.06
501.22	481.06
501.437	434.06
501.654	411.06
501.871	400.06
502.088	377.06
502.305	372.06
502.522	373.06
502.739	351.06
502.956	327.06
503.172	338.06
503.389	326.06
503.606	312.06
503.823	319.06
504.04	318.06
504.256	313.06
504.473	302.06
504.69	304.06
504.907	320.06
505.123	276.06
505.34	300.06
505.557	273.06
505.773	276.06
505.99	259.06
506.207	277.06
506.423	266.06
506.64	270.06
506.856	266.06
507.073	231.06
507.289	248.06
507.506	267.06
507.722	270.06
507.939	261.06
508.155	252.06
508.372	239.06
508.588	274.06
508.805	261.06
509.021	267.06
509.238	234.06
509.454	240.06
509.67	228.06
509.887	243.06
510.103	237.06
510.319	243.06
510.536	228.06
510.752	231.06
510.968	241.06
511.184	228.06
511.401	225.06
511.617	232.06
511.833	234.06
512.049	216.06
512.265	242.06
512.481	243.06
512.698	239.06
512.914	234.06
513.13	256.06
513.346	219.06
513.562	237.06
513.778	242.06
513.994	226.06
514.21	238.06
514.426	246.06
514.642	231.06
514.858	246.06
515.074	245.06
515.29	246.06
515.506	225.06
515.721	238.06
515.937	239.06
516.153	245.06
516.369	247.06
516.585	248.06
516.801	254.06
517.016	256.06
517.232	265.06
517.448	280.06
517.664	274.06
517.879	263.06
518.095	276.06
518.311	256.06
518.527	262.06
518.742	269.06
518.958	233.06
519.173	255.06
519.389	241.06
519.605	232.06
519.82	267.06
520.036	239.06
520.251	226.06
520.467	225.06
520.682	246.06
520.898	238.06
521.113	243.06
521.329	227.06
521.544	222.06
521.76	232.06
521.975	226.06
522.19	231.06
522.406	227.06
522.621	239.06
522.836	231.06
523.052	231.06
523.267	241.06
523.482	226.06
523.698	227.06
523.913	221.06
524.128	228.06
524.343	249.06
524.559	231.06
524.774	226.06
524.989	234.06
525.204	227.06
525.419	250.06
525.634	232.06
525.849	234.06
526.064	221.06
526.28	218.06
526.495	236.06
526.71	234.06
526.925	219.06
527.14	206.06
527.355	210.06
527.57	224.06
527.785	208.06
527.999	218.06
528.214	232.06
528.429	222.06
528.644	226.06
528.859	238.06
529.074	234.06
529.289	240.06
529.503	236.06
529.718	243.06
529.933	229.06
530.148	223.06
530.363	204.06
530.577	213.06
530.792	204.06
531.007	219.06
531.221	224.06
531.436	218.06
531.651	218.06
531.865	221.06
532.08	242.06
532.295	212.06
532.509	223.06
532.724	219.06
532.938	230.06
533.153	215.06
533.367	201.06
533.582	230.06
533.796	228.06
534.011	220.06
534.225	218.06
534.44	207.06
534.654	216.06
534.868	218.06
535.083	222.06
535.297	220.06
535.511	242.06
535.726	219.06
535.94	222.06
536.154	222.06
536.369	222.06
536.583	203.06
536.797	219.06
537.011	213.06
537.225	219.06
537.44	202.06
537.654	210.06
537.868	220.06
538.082	211.06
538.296	207.06
538.51	201.06
538.724	192.06
538.938	221.06
539.153	216.06
539.367	218.06
539.581	224.06
539.795	210.06
540.009	202.06
540.222	205.06
540.436	206.06
540.65	200.06
540.864	226.06
541.078	210.06
541.292	226.06
541.506	235.06
541.72	229.06
541.934	220.06
542.147	202.06
542.361	216.06
542.575	213.06
542.789	214.06
543.002	209.06
543.216	214.06
543.43	193.06
543.644	222.06
543.857	226.06
544.071	222.06
544.285	211.06
544.498	220.06
544.712	218.06
544.925	226.06
545.139	212.06
545.352	218.06
545.566	210.06
545.779	226.06
545.993	229.06
546.206	233.06
546.42	216.06
546.633	224.06
546.847	212.06
547.06	224.06
547.274	219.06
547.487	204.06
547.7	224.06
547.914	224.06
548.127	213.06
548.34	226.06
548.554	229.06
548.767	205.06
548.98	227.06
549.193	218.06
549.407	221.06
549.62	206.06
549.833	212.06
550.046	244.06
550.259	218.06
550.473	223.06
550.686	209.06
550.899	199.06
551.112	222.06
551.325	198.06
551.538	223.06
551.751	216.06
551.964	221.06
552.177	227.06
552.39	227.06
552.603	210.06
552.816	232.06
553.029	226.06
553.242	210.06
553.455	228.06
553.667	237.06
553.88	241.06
554.093	219.06
554.306	210.06
554.519	219.06
554.732	221.06
554.944	204.06
555.157	213.06
555.37	212.06
555.583	233.06
555.795	223.06
556.008	216.06
556.221	218.06
556.433	206.06
556.646	199.06
556.859	206.06
557.071	183.06
557.284	209.06
557.496	201.06
557.709	209.06
557.921	211.06
558.134	202.06
558.346	207.06
558.559	209.06
558.771	194.06
558.984	213.06
559.196	192.06
559.409	195.06
559.621	186.06
559.833	185.06
560.046	189.06
560.258	196.06
560.47	191.06
560.683	197.06
560.895	192.06
561.107	202.06
561.32	184.06
561.532	198.06
561.744	190.06
561.956	186.06
562.168	202.06
562.381	193.06
562.593	188.06
562.805	179.06
563.017	200.06
563.229	202.06
563.441	199.06
563.653	195.06
563.865	198.06
564.077	200.06
564.289	202.06
564.501	197.06
564.713	194.06
564.925	200.06
565.137	206.06
565.349	216.06
565.561	212.06
565.773	204.06
565.985	214.06
566.197	232.06
566.408	227.06
566.62	243.06
566.832	226.06
567.044	247.06
567.255	260.06
567.467	262.06
567.679	241.06
567.891	268.06
568.102	251.06
568.314	247.06
568.526	235.06
568.737	219.06
568.949	210.06
569.161	209.06
569.372	206.06
569.584	210.06
569.795	192.06
570.007	206.06
570.218	201.06
570.43	194.06
570.641	198.06
570.853	183.06
571.064	183.06
571.276	187.06
571.487	178.06
571.698	179.06
571.91	185.06
572.121	186.06
572.333	155.06
572.544	168.06
572.755	183.06
572.966	176.06
573.178	188.06
573.389	190.06
573.6	180.06
573.811	174.06
574.023	166.06
574.234	155.06
574.445	178.06
574.656	184.06
574.867	166.06
575.078	163.06
575.289	166.06
575.501	171.06
575.712	166.06
575.923	164.06
576.134	160.06
576.345	169.06
576.556	157.06
576.767	160.06
576.978	165.06
577.188	164.06
577.399	178.06
577.61	165.06
577.821	154.06
578.032	153.06
578.243	162.06
578.454	167.06
578.665	161.06
578.875	152.06
579.086	157.06
579.297	165.06
579.508	172.06
579.718	169.06
579.929	166.06
580.14	160.06
580.35	167.06
580.561	141.06
580.772	156.06
580.982	150.06
581.193	154.06
581.403	143.06
581.614	170.06
581.825	151.06
582.035	145.06
582.246	143.06
582.456	145.06
582.667	152.06
582.877	165.06
583.087	152.06
583.298	137.06
583.508	141.06
583.719	150.06
583.929	167.06
584.139	150.06
584.35	165.06
584.56	156.06
584.77	150.06
584.981	141.06
585.191	137.06
585.401	153.06
585.611	152.06
585.821	151.06
586.032	142.06
586.242	146.06
586.452	155.06
586.662	163.06
586.872	139.06
587.082	135.06
587.292	153.06
587.502	152.06
587.713	145.06
587.923	130.06
588.133	157.06
588.343	146.06
588.553	154.06
588.762	169.06
588.972	147.06
589.182	148.06
589.392	158.06
589.602	143.06
589.812	152.06
590.022	158.06
590.232	140.06
590.441	134.06
590.651	144.06
590.861	150.06
591.071	153.06
591.281	144.06
591.49	145.06
591.7	147.06
591.91	168.06
592.119	166.06
592.329	166.06
592.539	149.06
592.748	160.06
592.958	158.06
593.167	166.06
593.377	160.06
593.587	174.06
593.796	153.06
594.006	163.06
594.215	158.06
594.424	152.06
594.634	160.06
594.843	172.06
595.053	153.06
595.262	153.06
595.472	151.06
595.681	143.06
595.89	145.06
596.1	154.06
596.309	148.06
596.518	148.06
596.727	147.06
596.937	151.06
597.146	143.06
597.355	145.06
597.564	132.06
597.774	140.06
597.983	137.06
598.192	132.06
598.401	144.06
598.61	142.06
598.819	145.06
599.028	137.06
599.237	143.06
599.446	140.06
599.655	142.06
599.864	151.06
600.073	158.06
600.282	146.06
600.491	143.06
600.7	132.06
600.909	140.06
601.118	136.06
601.327	134.06
601.536	150.06
601.745	125.06
601.953	148.06
602.162	140.06
602.371	160.06
602.58	142.06
602.789	138.06
602.997	134.06
603.206	149.06
603.415	138.06
603.623	131.06
603.832	128.06
604.041	124.06
604.249	138.06
604.458	132.06
604.666	129.06
604.875	129.06
605.084	127.06
605.292	148.06
605.501	141.06
605.709	144.06
605.918	130.06
606.126	121.06
606.334	128.06
606.543	138.06
606.751	136.06
606.96	142.06
607.168	132.06
607.376	122.06
607.585	135.06
607.793	135.06
608.001	134.06
608.21	131.06
608.418	128.06
608.626	119.06
608.834	128.06
609.043	132.06
609.251	127.06
609.459	128.06
609.667	140.06
609.875	136.06
610.083	139.06
610.291	136.06
610.499	139.06
610.707	134.06
610.916	140.06
611.124	138.06
611.332	136.06
611.54	122.06
611.748	135.06
611.955	135.06
612.163	132.06
612.371	147.06
612.579	143.06
612.787	145.06
612.995	129.06
613.203	143.06
613.411	126.06
613.618	128.06
613.826	127.06
614.034	127.06
614.242	133.06
614.449	132.06
614.657	122.06
614.865	126.06
615.072	120.06
615.28	109.06
615.488	113.06
615.695	128.06
615.903	129.06
616.111	143.06
616.318	126.06
616.526	135.06
616.733	134.06
616.941	123.06
617.148	119.06
617.356	126.06
617.563	134.06
617.771	128.06
617.978	136.06
618.185	147.06
618.393	131.06
618.6	126.06
618.807	134.06
619.015	144.06
619.222	135.06
619.429	136.06
619.637	126.06
619.844	131.06
620.051	137.06
620.258	122.06
620.466	119.06
620.673	120.06
620.88	124.06
621.087	124.06
621.294	141.06
621.501	119.06
621.708	132.06
621.915	137.06
622.122	124.06
622.329	133.06
622.536	120.06
622.743	128.06
622.95	120.06
623.157	114.06
623.364	132.06
623.571	123.06
623.778	123.06
623.985	121.06
624.192	121.06
624.399	113.06
624.606	95.06
624.812	120.06
625.019	119.06
625.226	118.06
625.433	114.06
625.639	116.06
625.846	131.06
626.053	113.06
626.259	123.06
626.466	132.06
626.673	117.06
626.879	110.06
627.086	118.06
627.293	120.06
627.499	134.06
627.706	124.06
627.912	117.06
628.119	115.06
628.325	119.06
628.532	123.06
628.738	121.06
628.945	110.06
629.151	119.06
629.357	121.06
629.564	119.06
629.77	113.06
629.976	107.06
630.183	120.06
630.389	131.06
630.595	125.06
630.802	121.06
631.008	111.06
631.214	124.06
631.42	113.06
631.627	118.06
631.833	116.06
632.039	111.06
632.245	111.06
632.451	111.06
632.657	111.06
632.863	116.06
633.069	119.06
633.275	106.06
633.481	104.06
633.688	119.06
633.893	122.06
634.099	119.06
634.305	120.06
634.511	118.06
634.717	122.06
634.923	121.06
635.129	100.06
635.335	119.06
635.541	118.06
635.747	107.06
635.952	118.06
636.158	118.06
636.364	116.06
636.57	98.06
636.775	120.06
636.981	120.06
637.187	117.06
637.392	94.06
637.598	101.06
637.804	106.06
638.009	110.06
638.215	104.06
638.421	104.06
638.626	119.06
638.832	110.06
639.037	106.06
639.243	111.06
639.448	104.06
639.654	115.06
639.859	122.06
640.065	118.06
640.27	113.06
640.475	105.06
640.681	94.06
640.886	97.06
641.091	112.06
641.297	110.06
641.502	116.06
641.707	110.06
641.913	116.06
642.118	98.06
642.323	101.06
642.528	106.06
642.733	98.06
642.939	90.06
643.144	110.06
643.349	114.06
643.554	112.06
643.759	127.06
643.964	107.06
644.169	104.06
644.374	94.06
644.579	109.06
644.784	105.06
644.989	108.06
645.194	99.06
645.399	110.06
645.604	116.06
645.809	102.06
646.014	111.06
646.219	100.06
646.423	119.06
646.628	107.06
646.833	108.06
647.038	119.06
647.243	114.06
647.447	119.06
647.652	122.06
647.857	121.06
648.062	112.06
648.266	112.06
648.471	107.06
648.676	103.06
648.88	95.06
649.085	114.06
649.289	116.06
649.494	95.06
649.698	119.06
649.903	104.06
650.107	118.06
650.312	123.06
650.516	133.06
650.721	99.06
650.925	106.06
651.13	106.06
651.334	110.06
651.539	97.06
651.743	106.06
651.947	114.06
652.152	106.06
652.356	112.06
652.56	118.06
652.764	115.06
652.969	109.06
653.173	95.06
653.377	101.06
653.581	118.06
653.785	110.06
653.99	103.06
654.194	100.06
654.398	83.06
654.602	98.06
654.806	106.06
655.01	101.06
655.214	84.06
655.418	93.06
655.622	104.06
655.826	104.06
656.03	104.06
656.234	94.06
656.438	97.06
656.642	100.06
656.846	100.06
657.049	90.06
657.253	96.06
657.457	87.06
657.661	102.06
657.865	101.06
658.068	102.06
658.272	96.06
658.476	100.06
658.68	102.06
658.883	96.06
659.087	97.06
659.291	98.06
659.494	82.06
659.698	88.06
659.901	90.06
660.105	93.06
660.309	89.06
660.512	91.06
660.716	86.06
660.919	103.06
661.123	85.06
661.326	84.06
661.53	86.06
661.733	75.06
661.936	94.06
662.14	90.06
662.343	92.06
662.546	88.06
662.75	81.06
662.953	86.06
663.156	88.06
663.36	87.06
663.563	98.06
663.766	69.06
663.969	71.06
664.173	74.06
664.376	85.06
664.579	73.06
664.782	67.06
664.985	84.06
665.188	79.06
665.391	81.06
665.594	82.06
665.797	74.06
666	85.06
666.203	75.06
666.406	84.06
666.609	76.06
666.812	72.06
667.015	84.06
667.218	63.06
667.421	85.06
667.624	83.06
667.827	78.06
668.03	78.06
668.232	80.06
668.435	76.06
668.638	71.06
668.841	99.06
669.043	78.06
669.246	87.06
669.449	95.06
669.651	99.06
669.854	100.06
670.057	86.06
670.259	89.06
670.462	88.06
670.665	80.06
670.867	85.06
671.07	94.06
671.272	72.06
671.475	88.06
671.677	88.06
671.88	83.06
672.082	74.06
672.284	75.06
672.487	66.06
672.689	81.06
672.892	75.06
