Data from Fe(NO3)3@0.0125M.TitratingCurve.Agarose3%dH2O.NegLispCup.LampEnergy10.LIBS07252019_HRD10591_17-01-01-337.txt Node
Date: Thu Jul 25 17:01:01 EDT 2019
User: cochatt
Spectrometer: HR+D1059
Trigger mode: 1
Integration Time (sec): 1.000000E-1
Scans to average: 1
Electric dark correction enabled: true
Nonlinearity correction enabled: false
Boxcar width: 0
XAxis mode: Wavelengths
Number of Pixels in Spectrum: 2048
>>>>>Begin Spectral Data<<<<<
223.165	-14.94
223.4	-14.94
223.635	-14.94
223.869	-8.94
224.104	-25.94
224.338	-21.94
224.573	-15.94
224.808	-14.94
225.042	-11.94
225.277	-11.94
225.511	-0.94
225.746	5.06
225.98	10.06
226.215	10.06
226.449	20.06
226.683	24.06
226.918	26.06
227.152	32.06
227.387	37.06
227.621	34.06
227.856	39.06
228.09	41.06
228.324	56.06
228.559	45.06
228.793	59.06
229.027	72.06
229.262	80.06
229.496	76.06
229.73	83.06
229.964	94.06
230.199	97.06
230.433	113.06
230.667	90.06
230.901	95.06
231.136	106.06
231.37	90.06
231.604	97.06
231.838	98.06
232.072	113.06
232.306	102.06
232.541	113.06
232.775	102.06
233.009	100.06
233.243	104.06
233.477	113.06
233.711	113.06
233.945	116.06
234.179	117.06
234.413	101.06
234.647	111.06
234.881	121.06
235.115	106.06
235.349	114.06
235.583	110.06
235.817	109.06
236.051	119.06
236.285	115.06
236.519	121.06
236.753	105.06
236.987	112.06
237.221	108.06
237.455	97.06
237.689	102.06
237.922	124.06
238.156	125.06
238.39	121.06
238.624	125.06
238.858	123.06
239.091	120.06
239.325	126.06
239.559	119.06
239.793	114.06
240.027	129.06
240.26	131.06
240.494	124.06
240.728	107.06
240.961	125.06
241.195	139.06
241.429	135.06
241.662	118.06
241.896	117.06
242.13	117.06
242.363	112.06
242.597	139.06
242.83	140.06
243.064	139.06
243.298	131.06
243.531	121.06
243.765	136.06
243.998	135.06
244.232	131.06
244.465	139.06
244.699	125.06
244.932	155.06
245.166	138.06
245.399	143.06
245.633	128.06
245.866	129.06
246.099	124.06
246.333	151.06
246.566	138.06
246.8	135.06
247.033	139.06
247.266	134.06
247.5	127.06
247.733	132.06
247.966	141.06
248.2	152.06
248.433	143.06
248.666	163.06
248.899	153.06
249.133	142.06
249.366	157.06
249.599	143.06
249.832	154.06
250.066	146.06
250.299	166.06
250.532	151.06
250.765	167.06
250.998	153.06
251.231	156.06
251.465	163.06
251.698	157.06
251.931	162.06
252.164	155.06
252.397	153.06
252.63	161.06
252.863	161.06
253.096	163.06
253.329	160.06
253.562	157.06
253.795	166.06
254.028	160.06
254.261	179.06
254.494	168.06
254.727	165.06
254.96	163.06
255.193	169.06
255.426	152.06
255.659	173.06
255.892	155.06
256.124	169.06
256.357	156.06
256.59	173.06
256.823	192.06
257.056	187.06
257.289	175.06
257.521	177.06
257.754	171.06
257.987	183.06
258.22	180.06
258.452	176.06
258.685	184.06
258.918	183.06
259.151	174.06
259.383	177.06
259.616	180.06
259.849	168.06
260.081	209.06
260.314	212.06
260.547	196.06
260.779	199.06
261.012	194.06
261.244	192.06
261.477	203.06
261.71	207.06
261.942	177.06
262.175	195.06
262.407	191.06
262.64	175.06
262.872	188.06
263.105	200.06
263.337	197.06
263.57	201.06
263.802	200.06
264.035	184.06
264.267	186.06
264.499	210.06
264.732	216.06
264.964	185.06
265.197	209.06
265.429	196.06
265.661	200.06
265.894	181.06
266.126	199.06
266.358	200.06
266.591	209.06
266.823	203.06
267.055	211.06
267.287	186.06
267.52	205.06
267.752	189.06
267.984	195.06
268.216	220.06
268.448	211.06
268.681	202.06
268.913	220.06
269.145	202.06
269.377	216.06
269.609	214.06
269.841	217.06
270.073	211.06
270.306	216.06
270.538	214.06
270.77	201.06
271.002	199.06
271.234	214.06
271.466	221.06
271.698	229.06
271.93	215.06
272.162	219.06
272.394	218.06
272.626	226.06
272.858	209.06
273.09	228.06
273.322	239.06
273.553	234.06
273.785	240.06
274.017	245.06
274.249	256.06
274.481	259.06
274.713	242.06
274.945	265.06
275.176	259.06
275.408	255.06
275.64	255.06
275.872	256.06
276.104	230.06
276.335	232.06
276.567	236.06
276.799	240.06
277.031	244.06
277.262	254.06
277.494	232.06
277.726	253.06
277.957	244.06
278.189	227.06
278.421	236.06
278.652	250.06
278.884	255.06
279.115	244.06
279.347	259.06
279.579	248.06
279.81	232.06
280.042	242.06
280.273	268.06
280.505	239.06
280.736	244.06
280.968	261.06
281.199	241.06
281.431	243.06
281.662	252.06
281.894	248.06
282.125	225.06
282.356	248.06
282.588	244.06
282.819	240.06
283.051	231.06
283.282	243.06
283.513	247.06
283.745	248.06
283.976	263.06
284.207	261.06
284.439	255.06
284.67	263.06
284.901	254.06
285.132	256.06
285.364	257.06
285.595	276.06
285.826	263.06
286.057	257.06
286.288	265.06
286.52	278.06
286.751	266.06
286.982	268.06
287.213	267.06
287.444	253.06
287.675	283.06
287.906	270.06
288.138	285.06
288.369	281.06
288.6	275.06
288.831	275.06
289.062	285.06
289.293	275.06
289.524	279.06
289.755	260.06
289.986	280.06
290.217	268.06
290.448	289.06
290.679	283.06
290.91	268.06
291.141	267.06
291.371	287.06
291.602	285.06
291.833	286.06
292.064	277.06
292.295	282.06
292.526	278.06
292.757	265.06
292.987	293.06
293.218	275.06
293.449	292.06
293.68	284.06
293.91	289.06
294.141	291.06
294.372	280.06
294.603	296.06
294.833	293.06
295.064	293.06
295.295	280.06
295.525	292.06
295.756	295.06
295.987	295.06
296.217	284.06
296.448	298.06
296.679	303.06
296.909	299.06
297.14	299.06
297.37	282.06
297.601	300.06
297.831	296.06
298.062	300.06
298.292	305.06
298.523	307.06
298.753	317.06
298.984	298.06
299.214	315.06
299.445	307.06
299.675	321.06
299.905	305.06
300.136	309.06
300.366	319.06
300.597	339.06
300.827	330.06
301.057	323.06
301.288	320.06
301.518	304.06
301.748	317.06
301.979	324.06
302.209	326.06
302.439	343.06
302.669	323.06
302.9	331.06
303.13	308.06
303.36	325.06
303.59	342.06
303.82	348.06
304.051	326.06
304.281	337.06
304.511	329.06
304.741	350.06
304.971	336.06
305.201	332.06
305.431	321.06
305.661	327.06
305.891	319.06
306.121	320.06
306.352	324.06
306.582	323.06
306.812	332.06
307.042	317.06
307.272	332.06
307.502	357.06
307.731	354.06
307.961	331.06
308.191	320.06
308.421	315.06
308.651	333.06
308.881	330.06
309.111	315.06
309.341	331.06
309.571	311.06
309.8	335.06
310.03	334.06
310.26	337.06
310.49	331.06
310.72	332.06
310.949	351.06
311.179	346.06
311.409	313.06
311.639	310.06
311.868	349.06
312.098	346.06
312.328	363.06
312.557	367.06
312.787	353.06
313.017	368.06
313.246	352.06
313.476	361.06
313.706	341.06
313.935	365.06
314.165	347.06
314.394	347.06
314.624	358.06
314.853	357.06
315.083	355.06
315.312	355.06
315.542	363.06
315.771	363.06
316.001	379.06
316.23	371.06
316.46	363.06
316.689	383.06
316.919	368.06
317.148	359.06
317.377	358.06
317.607	374.06
317.836	360.06
318.065	356.06
318.295	363.06
318.524	362.06
318.753	361.06
318.983	360.06
319.212	367.06
319.441	383.06
319.67	375.06
319.9	370.06
320.129	367.06
320.358	357.06
320.587	362.06
320.816	361.06
321.046	371.06
321.275	357.06
321.504	385.06
321.733	367.06
321.962	367.06
322.191	365.06
322.42	364.06
322.649	389.06
322.878	369.06
323.108	374.06
323.337	362.06
323.566	387.06
323.795	363.06
324.024	389.06
324.253	389.06
324.482	380.06
324.71	385.06
324.939	396.06
325.168	373.06
325.397	394.06
325.626	379.06
325.855	384.06
326.084	417.06
326.313	382.06
326.542	409.06
326.77	398.06
326.999	387.06
327.228	399.06
327.457	391.06
327.686	379.06
327.914	379.06
328.143	394.06
328.372	400.06
328.6	385.06
328.829	413.06
329.058	395.06
329.287	399.06
329.515	396.06
329.744	411.06
329.972	401.06
330.201	415.06
330.43	403.06
330.658	404.06
330.887	407.06
331.115	395.06
331.344	379.06
331.572	412.06
331.801	451.06
332.03	418.06
332.258	415.06
332.486	424.06
332.715	407.06
332.943	424.06
333.172	419.06
333.4	417.06
333.629	435.06
333.857	449.06
334.085	443.06
334.314	441.06
334.542	455.06
334.771	466.06
334.999	472.06
335.227	444.06
335.455	447.06
335.684	450.06
335.912	469.06
336.14	453.06
336.369	447.06
336.597	452.06
336.825	464.06
337.053	460.06
337.281	451.06
337.51	451.06
337.738	445.06
337.966	435.06
338.194	433.06
338.422	425.06
338.65	417.06
338.878	416.06
339.106	418.06
339.334	441.06
339.562	429.06
339.79	428.06
340.018	435.06
340.246	421.06
340.474	422.06
340.702	429.06
340.93	440.06
341.158	415.06
341.386	431.06
341.614	433.06
341.842	410.06
342.07	425.06
342.298	444.06
342.526	404.06
342.754	425.06
342.981	418.06
343.209	444.06
343.437	440.06
343.665	457.06
343.893	467.06
344.12	441.06
344.348	454.06
344.576	436.06
344.804	444.06
345.031	436.06
345.259	428.06
345.487	443.06
345.714	422.06
345.942	432.06
346.17	411.06
346.397	433.06
346.625	412.06
346.853	410.06
347.08	407.06
347.308	419.06
347.535	414.06
347.763	393.06
347.99	428.06
348.218	410.06
348.445	411.06
348.673	394.06
348.9	435.06
349.128	412.06
349.355	394.06
349.583	415.06
349.81	413.06
350.037	419.06
350.265	400.06
350.492	418.06
350.72	409.06
350.947	419.06
351.174	416.06
351.402	418.06
351.629	407.06
351.856	418.06
352.083	424.06
352.311	421.06
352.538	401.06
352.765	400.06
352.992	420.06
353.22	411.06
353.447	422.06
353.674	394.06
353.901	395.06
354.128	416.06
354.355	420.06
354.583	402.06
354.81	403.06
355.037	414.06
355.264	392.06
355.491	415.06
355.718	392.06
355.945	427.06
356.172	401.06
356.399	417.06
356.626	415.06
356.853	398.06
357.08	429.06
357.307	407.06
357.534	418.06
357.761	426.06
357.988	440.06
358.215	432.06
358.441	435.06
358.668	421.06
358.895	409.06
359.122	402.06
359.349	409.06
359.576	416.06
359.802	408.06
360.029	428.06
360.256	424.06
360.483	416.06
360.709	415.06
360.936	422.06
361.163	411.06
361.39	424.06
361.616	419.06
361.843	419.06
362.07	412.06
362.296	416.06
362.523	421.06
362.749	403.06
362.976	423.06
363.203	422.06
363.429	433.06
363.656	415.06
363.882	437.06
364.109	423.06
364.335	437.06
364.562	421.06
364.788	420.06
365.015	426.06
365.241	418.06
365.468	424.06
365.694	428.06
365.92	436.06
366.147	425.06
366.373	420.06
366.599	431.06
366.826	418.06
367.052	412.06
367.278	401.06
367.505	421.06
367.731	436.06
367.957	433.06
368.184	430.06
368.41	432.06
368.636	427.06
368.862	421.06
369.089	450.06
369.315	414.06
369.541	433.06
369.767	443.06
369.993	444.06
370.219	434.06
370.445	423.06
370.672	435.06
370.898	437.06
371.124	439.06
371.35	459.06
371.576	428.06
371.802	457.06
372.028	469.06
372.254	448.06
372.48	459.06
372.706	444.06
372.932	468.06
373.158	474.06
373.384	459.06
373.61	458.06
373.835	455.06
374.061	458.06
374.287	462.06
374.513	470.06
374.739	489.06
374.965	482.06
375.191	492.06
375.416	477.06
375.642	476.06
375.868	461.06
376.094	452.06
376.319	444.06
376.545	468.06
376.771	458.06
376.997	446.06
377.222	450.06
377.448	443.06
377.674	463.06
377.899	449.06
378.125	432.06
378.35	457.06
378.576	468.06
378.802	417.06
379.027	451.06
379.253	460.06
379.478	436.06
379.704	453.06
379.929	448.06
380.155	452.06
380.38	438.06
380.606	441.06
380.831	448.06
381.057	453.06
381.282	427.06
381.507	455.06
381.733	478.06
381.958	467.06
382.184	469.06
382.409	478.06
382.634	492.06
382.86	460.06
383.085	478.06
383.31	465.06
383.535	465.06
383.761	470.06
383.986	475.06
384.211	480.06
384.436	501.06
384.662	488.06
384.887	471.06
385.112	486.06
385.337	507.06
385.562	505.06
385.787	499.06
386.013	517.06
386.238	549.06
386.463	508.06
386.688	512.06
386.913	504.06
387.138	505.06
387.363	526.06
387.588	501.06
387.813	519.06
388.038	528.06
388.263	517.06
388.488	516.06
388.713	513.06
388.938	506.06
389.163	510.06
389.387	489.06
389.612	497.06
389.837	526.06
390.062	499.06
390.287	531.06
390.512	517.06
390.736	527.06
390.961	501.06
391.186	514.06
391.411	526.06
391.636	520.06
391.86	531.06
392.085	552.06
392.31	537.06
392.534	536.06
392.759	543.06
392.984	552.06
393.208	541.06
393.433	565.06
393.658	587.06
393.882	538.06
394.107	536.06
394.331	545.06
394.556	550.06
394.78	522.06
395.005	553.06
395.229	519.06
395.454	537.06
395.678	547.06
395.903	553.06
396.127	555.06
396.352	559.06
396.576	534.06
396.801	544.06
397.025	579.06
397.249	571.06
397.474	579.06
397.698	557.06
397.922	571.06
398.147	577.06
398.371	604.06
398.595	592.06
398.82	603.06
399.044	625.06
399.268	652.06
399.492	653.06
399.717	673.06
399.941	696.06
400.165	665.06
400.389	673.06
400.613	625.06
400.837	635.06
401.062	630.06
401.286	602.06
401.51	610.06
401.734	604.06
401.958	594.06
402.182	598.06
402.406	590.06
402.63	598.06
402.854	626.06
403.078	605.06
403.302	601.06
403.526	582.06
403.75	608.06
403.974	606.06
404.198	600.06
404.422	617.06
404.645	597.06
404.869	613.06
405.093	600.06
405.317	620.06
405.541	629.06
405.765	626.06
405.988	636.06
406.212	653.06
406.436	634.06
406.66	624.06
406.883	621.06
407.107	652.06
407.331	662.06
407.555	673.06
407.778	650.06
408.002	662.06
408.226	680.06
408.449	694.06
408.673	659.06
408.896	659.06
409.12	669.06
409.344	670.06
409.567	641.06
409.791	655.06
410.014	654.06
410.238	620.06
410.461	629.06
410.685	611.06
410.908	643.06
411.132	612.06
411.355	616.06
411.578	600.06
411.802	630.06
412.025	612.06
412.249	612.06
412.472	599.06
412.695	624.06
412.919	625.06
413.142	617.06
413.365	617.06
413.589	626.06
413.812	592.06
414.035	597.06
414.258	619.06
414.482	601.06
414.705	603.06
414.928	599.06
415.151	601.06
415.374	601.06
415.597	599.06
415.821	594.06
416.044	581.06
416.267	600.06
416.49	591.06
416.713	604.06
416.936	604.06
417.159	595.06
417.382	550.06
417.605	583.06
417.828	581.06
418.051	597.06
418.274	575.06
418.497	564.06
418.72	580.06
418.943	589.06
419.166	594.06
419.389	632.06
419.611	611.06
419.834	602.06
420.057	587.06
420.28	601.06
420.503	552.06
420.726	580.06
420.948	578.06
421.171	565.06
421.394	585.06
421.617	568.06
421.839	560.06
422.062	573.06
422.285	559.06
422.507	572.06
422.73	588.06
422.953	595.06
423.175	588.06
423.398	567.06
423.621	571.06
423.843	561.06
424.066	569.06
424.288	570.06
424.511	538.06
424.733	564.06
424.956	542.06
425.178	557.06
425.401	556.06
425.623	574.06
425.846	551.06
426.068	542.06
426.291	569.06
426.513	569.06
426.735	547.06
426.958	569.06
427.18	548.06
427.402	551.06
427.625	563.06
427.847	538.06
428.069	543.06
428.292	546.06
428.514	548.06
428.736	538.06
428.958	566.06
429.181	552.06
429.403	549.06
429.625	552.06
429.847	546.06
430.069	536.06
430.292	540.06
430.514	535.06
430.736	546.06
430.958	562.06
431.18	570.06
431.402	552.06
431.624	555.06
431.846	541.06
432.068	545.06
432.29	544.06
432.512	547.06
432.734	549.06
432.956	549.06
433.178	540.06
433.4	565.06
433.622	573.06
433.844	564.06
434.066	577.06
434.287	567.06
434.509	565.06
434.731	580.06
434.953	546.06
435.175	563.06
435.397	582.06
435.618	539.06
435.84	554.06
436.062	545.06
436.284	543.06
436.505	538.06
436.727	535.06
436.949	568.06
437.17	532.06
437.392	519.06
437.614	543.06
437.835	538.06
438.057	535.06
438.278	510.06
438.5	526.06
438.721	518.06
438.943	527.06
439.165	523.06
439.386	530.06
439.608	562.06
439.829	538.06
440.05	525.06
440.272	513.06
440.493	562.06
440.715	545.06
440.936	546.06
441.158	555.06
441.379	538.06
441.6	530.06
441.822	557.06
442.043	566.06
442.264	563.06
442.486	570.06
442.707	549.06
442.928	564.06
443.149	546.06
443.371	560.06
443.592	561.06
443.813	560.06
444.034	570.06
444.255	562.06
444.476	575.06
444.698	562.06
444.919	557.06
445.14	641.06
445.361	589.06
445.582	589.06
445.803	555.06
446.024	559.06
446.245	570.06
446.466	545.06
446.687	516.06
446.908	523.06
447.129	533.06
447.35	552.06
447.571	522.06
447.792	513.06
448.013	509.06
448.234	508.06
448.455	536.06
448.675	516.06
448.896	513.06
449.117	515.06
449.338	497.06
449.559	491.06
449.779	491.06
450	512.06
450.221	484.06
450.442	491.06
450.662	515.06
450.883	488.06
451.104	511.06
451.324	486.06
451.545	482.06
451.766	504.06
451.986	479.06
452.207	475.06
452.428	490.06
452.648	495.06
452.869	487.06
453.089	480.06
453.31	480.06
453.53	495.06
453.751	474.06
453.971	489.06
454.192	511.06
454.412	469.06
454.633	490.06
454.853	481.06
455.073	466.06
455.294	478.06
455.514	498.06
455.734	475.06
455.955	441.06
456.175	481.06
456.395	468.06
456.616	481.06
456.836	489.06
457.056	483.06
457.276	483.06
457.497	502.06
457.717	487.06
457.937	480.06
458.157	499.06
458.377	504.06
458.598	523.06
458.818	529.06
459.038	522.06
459.258	532.06
459.478	553.06
459.698	537.06
459.918	524.06
460.138	553.06
460.358	561.06
460.578	565.06
460.798	557.06
461.018	567.06
461.238	581.06
461.458	588.06
461.678	589.06
461.898	614.06
462.118	592.06
462.338	597.06
462.558	617.06
462.777	608.06
462.997	637.06
463.217	627.06
463.437	663.06
463.657	616.06
463.876	647.06
464.096	615.06
464.316	614.06
464.536	613.06
464.755	621.06
464.975	603.06
465.195	596.06
465.414	593.06
465.634	553.06
465.854	546.06
466.073	564.06
466.293	559.06
466.512	555.06
466.732	530.06
466.951	537.06
467.171	547.06
467.391	545.06
467.61	525.06
467.829	523.06
468.049	533.06
468.268	503.06
468.488	540.06
468.707	526.06
468.927	524.06
469.146	531.06
469.365	526.06
469.585	532.06
469.804	529.06
470.023	517.06
470.243	528.06
470.462	527.06
470.681	519.06
470.901	539.06
471.12	526.06
471.339	528.06
471.558	548.06
471.777	537.06
471.997	523.06
472.216	549.06
472.435	531.06
472.654	537.06
472.873	536.06
473.092	519.06
473.311	552.06
473.53	512.06
473.749	538.06
473.968	535.06
474.187	532.06
474.406	517.06
474.625	531.06
474.844	548.06
475.063	536.06
475.282	555.06
475.501	528.06
475.72	551.06
475.939	553.06
476.158	561.06
476.377	552.06
476.596	559.06
476.814	565.06
477.033	579.06
477.252	571.06
477.471	585.06
477.69	579.06
477.908	608.06
478.127	589.06
478.346	594.06
478.564	607.06
478.783	610.06
479.002	624.06
479.22	623.06
479.439	636.06
479.658	628.06
479.876	625.06
480.095	641.06
480.313	652.06
480.532	646.06
480.751	665.06
480.969	624.06
481.188	647.06
481.406	633.06
481.624	636.06
481.843	608.06
482.061	629.06
482.28	633.06
482.498	635.06
482.717	628.06
482.935	623.06
483.153	638.06
483.372	649.06
483.59	634.06
483.808	659.06
484.027	630.06
484.245	660.06
484.463	638.06
484.681	656.06
484.9	646.06
485.118	645.06
485.336	657.06
485.554	673.06
485.772	667.06
485.99	677.06
486.209	653.06
486.427	635.06
486.645	668.06
486.863	647.06
487.081	682.06
487.299	645.06
487.517	675.06
487.735	661.06
487.953	654.06
488.171	675.06
488.389	679.06
488.607	666.06
488.825	632.06
489.043	643.06
489.261	654.06
489.479	654.06
489.696	654.06
489.914	667.06
490.132	649.06
490.35	646.06
490.568	659.06
490.786	689.06
491.003	654.06
491.221	641.06
491.439	663.06
491.657	656.06
491.874	666.06
492.092	677.06
492.31	661.06
492.527	673.06
492.745	657.06
492.963	673.06
493.18	657.06
493.398	677.06
493.615	704.06
493.833	669.06
494.05	651.06
494.268	666.06
494.485	676.06
494.703	651.06
494.92	673.06
495.138	671.06
495.355	653.06
495.573	697.06
495.79	691.06
496.008	704.06
496.225	697.06
496.442	691.06
496.66	722.06
496.877	714.06
497.094	719.06
497.312	731.06
497.529	761.06
497.746	771.06
497.963	746.06
498.181	775.06
498.398	810.06
498.615	838.06
498.832	856.06
499.049	874.06
499.267	874.06
499.484	936.06
499.701	988.06
499.918	1007.06
500.135	1033.06
500.352	1077.06
500.569	1092.06
500.786	1089.06
501.003	1081.06
501.22	1037.06
501.437	1027.06
501.654	954.06
501.871	910.06
502.088	889.06
502.305	849.06
502.522	801.06
502.739	840.06
502.956	808.06
503.172	777.06
503.389	767.06
503.606	753.06
503.823	751.06
504.04	711.06
504.256	728.06
504.473	722.06
504.69	727.06
504.907	707.06
505.123	696.06
505.34	660.06
505.557	651.06
505.773	653.06
505.99	640.06
506.207	639.06
506.423	641.06
506.64	624.06
506.856	625.06
507.073	601.06
507.289	617.06
507.506	596.06
507.722	607.06
507.939	614.06
508.155	593.06
508.372	591.06
508.588	583.06
508.805	607.06
509.021	556.06
509.238	583.06
509.454	583.06
509.67	564.06
509.887	536.06
510.103	554.06
510.319	598.06
510.536	557.06
510.752	541.06
510.968	567.06
511.184	559.06
511.401	553.06
511.617	554.06
511.833	560.06
512.049	565.06
512.265	553.06
512.481	555.06
512.698	542.06
512.914	543.06
513.13	539.06
513.346	530.06
513.562	540.06
513.778	544.06
513.994	557.06
514.21	547.06
514.426	545.06
514.642	573.06
514.858	567.06
515.074	572.06
515.29	565.06
515.506	561.06
515.721	577.06
515.937	566.06
516.153	572.06
516.369	557.06
516.585	587.06
516.801	600.06
517.016	615.06
517.232	614.06
517.448	620.06
517.664	624.06
517.879	607.06
518.095	643.06
518.311	639.06
518.527	610.06
518.742	603.06
518.958	582.06
519.173	592.06
519.389	595.06
519.605	596.06
519.82	568.06
520.036	589.06
520.251	579.06
520.467	541.06
520.682	548.06
520.898	531.06
521.113	538.06
521.329	560.06
521.544	532.06
521.76	547.06
521.975	539.06
522.19	543.06
522.406	523.06
522.621	521.06
522.836	518.06
523.052	529.06
523.267	521.06
523.482	523.06
523.698	528.06
523.913	497.06
524.128	499.06
524.343	495.06
524.559	502.06
524.774	503.06
524.989	491.06
525.204	502.06
525.419	529.06
525.634	488.06
525.849	515.06
526.064	477.06
526.28	517.06
526.495	511.06
526.71	507.06
526.925	467.06
527.14	478.06
527.355	484.06
527.57	468.06
527.785	499.06
527.999	492.06
528.214	491.06
528.429	518.06
528.644	493.06
528.859	514.06
529.074	499.06
529.289	488.06
529.503	499.06
529.718	501.06
529.933	515.06
530.148	500.06
530.363	513.06
530.577	465.06
530.792	466.06
531.007	490.06
531.221	485.06
531.436	491.06
531.651	509.06
531.865	499.06
532.08	491.06
532.295	507.06
532.509	490.06
532.724	480.06
532.938	505.06
533.153	479.06
533.367	488.06
533.582	478.06
533.796	485.06
534.011	469.06
534.225	483.06
534.44	471.06
534.654	485.06
534.868	477.06
535.083	477.06
535.297	488.06
535.511	480.06
535.726	475.06
535.94	475.06
536.154	484.06
536.369	467.06
536.583	459.06
536.797	491.06
537.011	475.06
537.225	458.06
537.44	456.06
537.654	469.06
537.868	458.06
538.082	464.06
538.296	467.06
538.51	448.06
538.724	449.06
538.938	460.06
539.153	439.06
539.367	467.06
539.581	455.06
539.795	448.06
540.009	451.06
540.222	449.06
540.436	449.06
540.65	447.06
540.864	458.06
541.078	455.06
541.292	446.06
541.506	470.06
541.72	437.06
541.934	471.06
542.147	466.06
542.361	451.06
542.575	461.06
542.789	454.06
543.002	445.06
543.216	439.06
543.43	451.06
543.644	453.06
543.857	444.06
544.071	472.06
544.285	438.06
544.498	442.06
544.712	471.06
544.925	456.06
545.139	461.06
545.352	422.06
545.566	465.06
545.779	455.06
545.993	456.06
546.206	460.06
546.42	445.06
546.633	450.06
546.847	449.06
547.06	455.06
547.274	426.06
547.487	452.06
547.7	449.06
547.914	458.06
548.127	471.06
548.34	473.06
548.554	449.06
548.767	454.06
548.98	443.06
549.193	452.06
549.407	448.06
549.62	454.06
549.833	446.06
550.046	465.06
550.259	471.06
550.473	475.06
550.686	466.06
550.899	442.06
551.112	439.06
551.325	453.06
551.538	467.06
551.751	450.06
551.964	441.06
552.177	427.06
552.39	441.06
552.603	465.06
552.816	443.06
553.029	465.06
553.242	446.06
553.455	456.06
553.667	442.06
553.88	434.06
554.093	419.06
554.306	427.06
554.519	463.06
554.732	428.06
554.944	395.06
555.157	426.06
555.37	410.06
555.583	425.06
555.795	418.06
556.008	411.06
556.221	403.06
556.433	433.06
556.646	421.06
556.859	423.06
557.071	413.06
557.284	404.06
557.496	402.06
557.709	404.06
557.921	394.06
558.134	394.06
558.346	425.06
558.559	396.06
558.771	409.06
558.984	380.06
559.196	383.06
559.409	419.06
559.621	380.06
559.833	382.06
560.046	396.06
560.258	380.06
560.47	374.06
560.683	392.06
560.895	401.06
561.107	366.06
561.32	383.06
561.532	393.06
561.744	394.06
561.956	391.06
562.168	390.06
562.381	407.06
562.593	381.06
562.805	405.06
563.017	398.06
563.229	388.06
563.441	383.06
563.653	401.06
563.865	387.06
564.077	402.06
564.289	396.06
564.501	406.06
564.713	435.06
564.925	425.06
565.137	424.06
565.349	403.06
565.561	403.06
565.773	420.06
565.985	435.06
566.197	432.06
566.408	441.06
566.62	475.06
566.832	461.06
567.044	467.06
567.255	463.06
567.467	476.06
567.679	462.06
567.891	487.06
568.102	491.06
568.314	450.06
568.526	447.06
568.737	456.06
568.949	431.06
569.161	419.06
569.372	407.06
569.584	411.06
569.795	381.06
570.007	408.06
570.218	369.06
570.43	379.06
570.641	375.06
570.853	369.06
571.064	379.06
571.276	338.06
571.487	379.06
571.698	358.06
571.91	336.06
572.121	351.06
572.333	332.06
572.544	349.06
572.755	364.06
572.966	336.06
573.178	316.06
573.389	325.06
573.6	349.06
573.811	324.06
574.023	327.06
574.234	329.06
574.445	326.06
574.656	335.06
574.867	307.06
575.078	319.06
575.289	305.06
575.501	304.06
575.712	324.06
575.923	315.06
576.134	319.06
576.345	319.06
576.556	305.06
576.767	311.06
576.978	307.06
577.188	295.06
577.399	306.06
577.61	313.06
577.821	290.06
578.032	311.06
578.243	301.06
578.454	307.06
578.665	295.06
578.875	290.06
579.086	285.06
579.297	296.06
579.508	309.06
579.718	296.06
579.929	284.06
580.14	302.06
580.35	286.06
580.561	311.06
580.772	288.06
580.982	283.06
581.193	304.06
581.403	281.06
581.614	288.06
581.825	283.06
582.035	297.06
582.246	291.06
582.456	274.06
582.667	274.06
582.877	275.06
583.087	275.06
583.298	295.06
583.508	273.06
583.719	278.06
583.929	288.06
584.139	281.06
584.35	271.06
584.56	272.06
584.77	287.06
584.981	268.06
585.191	268.06
585.401	280.06
585.611	271.06
585.821	275.06
586.032	276.06
586.242	276.06
586.452	264.06
586.662	282.06
586.872	275.06
587.082	264.06
587.292	275.06
587.502	263.06
587.713	248.06
587.923	275.06
588.133	278.06
588.343	263.06
588.553	267.06
588.762	295.06
588.972	281.06
589.182	320.06
589.392	320.06
589.602	298.06
589.812	323.06
590.022	293.06
590.232	267.06
590.441	264.06
590.651	260.06
590.861	280.06
591.071	255.06
591.281	259.06
591.49	278.06
591.7	284.06
591.91	270.06
592.119	273.06
592.329	262.06
592.539	267.06
592.748	283.06
592.958	298.06
593.167	268.06
593.377	273.06
593.587	285.06
593.796	279.06
594.006	284.06
594.215	266.06
594.424	283.06
594.634	285.06
594.843	288.06
595.053	259.06
595.262	277.06
595.472	263.06
595.681	267.06
595.89	267.06
596.1	275.06
596.309	262.06
596.518	250.06
596.727	244.06
596.937	263.06
597.146	243.06
597.355	255.06
597.564	240.06
597.774	256.06
597.983	245.06
598.192	227.06
598.401	249.06
598.61	231.06
598.819	241.06
599.028	228.06
599.237	246.06
599.446	232.06
599.655	240.06
599.864	231.06
600.073	223.06
600.282	242.06
600.491	210.06
600.7	230.06
600.909	239.06
601.118	228.06
601.327	231.06
601.536	219.06
601.745	228.06
601.953	227.06
602.162	232.06
602.371	219.06
602.58	223.06
602.789	219.06
602.997	231.06
603.206	224.06
603.415	227.06
603.623	233.06
603.832	225.06
604.041	226.06
604.249	208.06
604.458	229.06
604.666	227.06
604.875	222.06
605.084	205.06
605.292	235.06
605.501	226.06
605.709	205.06
605.918	232.06
606.126	221.06
606.334	214.06
606.543	218.06
606.751	223.06
606.96	213.06
607.168	223.06
607.376	231.06
607.585	227.06
607.793	232.06
608.001	227.06
608.21	221.06
608.418	215.06
608.626	217.06
608.834	221.06
609.043	213.06
609.251	224.06
609.459	221.06
609.667	230.06
609.875	208.06
610.083	214.06
610.291	215.06
610.499	215.06
610.707	205.06
610.916	215.06
611.124	212.06
611.332	218.06
611.54	216.06
611.748	221.06
611.955	200.06
612.163	207.06
612.371	219.06
612.579	199.06
612.787	228.06
612.995	221.06
613.203	216.06
613.411	206.06
613.618	187.06
613.826	216.06
614.034	211.06
614.242	208.06
614.449	210.06
614.657	209.06
614.865	218.06
615.072	221.06
615.28	215.06
615.488	193.06
615.695	202.06
615.903	207.06
616.111	204.06
616.318	205.06
616.526	202.06
616.733	204.06
616.941	196.06
617.148	199.06
617.356	217.06
617.563	205.06
617.771	200.06
617.978	203.06
618.185	194.06
618.393	196.06
618.6	200.06
618.807	206.06
619.015	199.06
619.222	203.06
619.429	194.06
619.637	204.06
619.844	203.06
620.051	189.06
620.258	163.06
620.466	180.06
620.673	181.06
620.88	194.06
621.087	195.06
621.294	195.06
621.501	192.06
621.708	191.06
621.915	189.06
622.122	202.06
622.329	202.06
622.536	206.06
622.743	193.06
622.95	197.06
623.157	186.06
623.364	191.06
623.571	196.06
623.778	198.06
623.985	191.06
624.192	190.06
624.399	179.06
624.606	192.06
624.812	211.06
625.019	200.06
625.226	177.06
625.433	187.06
625.639	170.06
625.846	186.06
626.053	185.06
626.259	197.06
626.466	176.06
626.673	199.06
626.879	179.06
627.086	197.06
627.293	193.06
627.499	187.06
627.706	185.06
627.912	185.06
628.119	172.06
628.325	193.06
628.532	181.06
628.738	190.06
628.945	180.06
629.151	179.06
629.357	168.06
629.564	194.06
629.77	198.06
629.976	169.06
630.183	183.06
630.389	169.06
630.595	173.06
630.802	201.06
631.008	183.06
631.214	168.06
631.42	170.06
631.627	171.06
631.833	183.06
632.039	185.06
632.245	191.06
632.451	179.06
632.657	168.06
632.863	159.06
633.069	170.06
633.275	174.06
633.481	181.06
633.688	159.06
633.893	187.06
634.099	148.06
634.305	173.06
634.511	186.06
634.717	178.06
634.923	178.06
635.129	186.06
635.335	172.06
635.541	172.06
635.747	179.06
635.952	164.06
636.158	160.06
636.364	177.06
636.57	169.06
636.775	169.06
636.981	174.06
637.187	168.06
637.392	169.06
637.598	172.06
637.804	161.06
638.009	175.06
638.215	177.06
638.421	178.06
638.626	154.06
638.832	175.06
639.037	175.06
639.243	162.06
639.448	183.06
639.654	184.06
639.859	163.06
640.065	163.06
640.27	178.06
640.475	168.06
640.681	177.06
640.886	168.06
641.091	170.06
641.297	175.06
641.502	165.06
641.707	159.06
641.913	165.06
642.118	173.06
642.323	180.06
642.528	166.06
642.733	159.06
642.939	176.06
643.144	168.06
643.349	155.06
643.554	162.06
643.759	166.06
643.964	148.06
644.169	152.06
644.374	167.06
644.579	155.06
644.784	160.06
644.989	185.06
645.194	161.06
645.399	178.06
645.604	167.06
645.809	169.06
646.014	168.06
646.219	173.06
646.423	180.06
646.628	151.06
646.833	183.06
647.038	175.06
647.243	155.06
647.447	169.06
647.652	170.06
647.857	172.06
648.062	180.06
648.266	170.06
648.471	171.06
648.676	171.06
648.88	172.06
649.085	168.06
649.289	176.06
649.494	161.06
649.698	170.06
649.903	183.06
650.107	169.06
650.312	164.06
650.516	170.06
650.721	171.06
650.925	171.06
651.13	170.06
651.334	160.06
651.539	155.06
651.743	166.06
651.947	168.06
652.152	155.06
652.356	163.06
652.56	167.06
652.764	145.06
652.969	163.06
653.173	163.06
653.377	184.06
653.581	170.06
653.785	148.06
653.99	167.06
654.194	179.06
654.398	160.06
654.602	177.06
654.806	163.06
655.01	159.06
655.214	168.06
655.418	161.06
655.622	177.06
655.826	177.06
656.03	187.06
656.234	187.06
656.438	182.06
656.642	191.06
656.846	192.06
657.049	179.06
657.253	177.06
657.457	163.06
657.661	148.06
657.865	149.06
658.068	144.06
658.272	134.06
658.476	143.06
658.68	118.06
658.883	131.06
659.087	125.06
659.291	119.06
659.494	123.06
659.698	119.06
659.901	112.06
660.105	111.06
660.309	115.06
660.512	99.06
660.716	112.06
660.919	108.06
661.123	92.06
661.326	96.06
661.53	93.06
661.733	96.06
661.936	92.06
662.14	75.06
662.343	94.06
662.546	89.06
662.75	83.06
662.953	91.06
663.156	88.06
663.36	93.06
663.563	85.06
663.766	76.06
663.969	80.06
664.173	76.06
664.376	88.06
664.579	79.06
664.782	76.06
664.985	81.06
665.188	90.06
665.391	79.06
665.594	77.06
665.797	88.06
666	83.06
666.203	76.06
666.406	95.06
666.609	79.06
666.812	76.06
667.015	73.06
667.218	88.06
667.421	73.06
667.624	68.06
667.827	89.06
668.03	83.06
668.232	75.06
668.435	71.06
668.638	78.06
668.841	86.06
669.043	82.06
669.246	73.06
669.449	75.06
669.651	86.06
669.854	87.06
670.057	84.06
670.259	88.06
670.462	92.06
670.665	82.06
670.867	76.06
671.07	81.06
671.272	88.06
671.475	75.06
671.677	84.06
671.88	79.06
672.082	82.06
672.284	76.06
672.487	76.06
672.689	82.06
672.892	75.06
