Data from Fe(NO3)3@0.05M.TitratingCurve.Agarose3%dH2O.NegLispCup.LampEnergy10.LIBS07252019_HRD10591_16-46-00-334.txt Node
Date: Thu Jul 25 16:46:00 EDT 2019
User: cochatt
Spectrometer: HR+D1059
Trigger mode: 1
Integration Time (sec): 1.000000E-1
Scans to average: 1
Electric dark correction enabled: true
Nonlinearity correction enabled: false
Boxcar width: 0
XAxis mode: Wavelengths
Number of Pixels in Spectrum: 2048
>>>>>Begin Spectral Data<<<<<
223.165	-21.56
223.4	-21.56
223.635	-21.56
223.869	-15.56
224.104	-18.56
224.338	-1.56
224.573	-18.56
224.808	-11.56
225.042	-15.56
225.277	2.44
225.511	10.44
225.746	18.44
225.98	-0.56
226.215	8.44
226.449	15.44
226.683	23.44
226.918	12.44
227.152	12.44
227.387	45.44
227.621	44.44
227.856	54.44
228.09	50.44
228.324	60.44
228.559	58.44
228.793	63.44
229.027	106.44
229.262	112.44
229.496	125.44
229.73	115.44
229.964	140.44
230.199	135.44
230.433	122.44
230.667	152.44
230.901	135.44
231.136	138.44
231.37	156.44
231.604	155.44
231.838	155.44
232.072	157.44
232.306	163.44
232.541	158.44
232.775	173.44
233.009	167.44
233.243	173.44
233.477	164.44
233.711	154.44
233.945	157.44
234.179	172.44
234.413	172.44
234.647	173.44
234.881	192.44
235.115	186.44
235.349	173.44
235.583	181.44
235.817	164.44
236.051	164.44
236.285	179.44
236.519	204.44
236.753	190.44
236.987	186.44
237.221	198.44
237.455	192.44
237.689	182.44
237.922	197.44
238.156	204.44
238.39	212.44
238.624	231.44
238.858	212.44
239.091	208.44
239.325	228.44
239.559	205.44
239.793	210.44
240.027	238.44
240.26	226.44
240.494	204.44
240.728	219.44
240.961	244.44
241.195	226.44
241.429	232.44
241.662	234.44
241.896	214.44
242.13	206.44
242.363	209.44
242.597	216.44
242.83	231.44
243.064	234.44
243.298	220.44
243.531	232.44
243.765	254.44
243.998	248.44
244.232	220.44
244.465	224.44
244.699	243.44
244.932	230.44
245.166	240.44
245.399	261.44
245.633	246.44
245.866	244.44
246.099	255.44
246.333	247.44
246.566	266.44
246.8	260.44
247.033	261.44
247.266	268.44
247.5	288.44
247.733	261.44
247.966	268.44
248.2	267.44
248.433	290.44
248.666	297.44
248.899	283.44
249.133	271.44
249.366	303.44
249.599	324.44
249.832	312.44
250.066	318.44
250.299	288.44
250.532	307.44
250.765	301.44
250.998	300.44
251.231	290.44
251.465	310.44
251.698	302.44
251.931	314.44
252.164	301.44
252.397	308.44
252.63	337.44
252.863	356.44
253.096	357.44
253.329	347.44
253.562	356.44
253.795	357.44
254.028	357.44
254.261	375.44
254.494	368.44
254.727	349.44
254.96	345.44
255.193	360.44
255.426	358.44
255.659	344.44
255.892	342.44
256.124	340.44
256.357	335.44
256.59	361.44
256.823	353.44
257.056	331.44
257.289	324.44
257.521	359.44
257.754	351.44
257.987	353.44
258.22	354.44
258.452	357.44
258.685	380.44
258.918	388.44
259.151	382.44
259.383	359.44
259.616	384.44
259.849	394.44
260.081	466.44
260.314	487.44
260.547	414.44
260.779	378.44
261.012	419.44
261.244	404.44
261.477	416.44
261.71	429.44
261.942	412.44
262.175	404.44
262.407	386.44
262.64	412.44
262.872	406.44
263.105	430.44
263.337	457.44
263.57	463.44
263.802	406.44
264.035	378.44
264.267	393.44
264.499	370.44
264.732	362.44
264.964	396.44
265.197	389.44
265.429	385.44
265.661	398.44
265.894	381.44
266.126	410.44
266.358	379.44
266.591	409.44
266.823	409.44
267.055	416.44
267.287	409.44
267.52	404.44
267.752	416.44
267.984	420.44
268.216	417.44
268.448	420.44
268.681	424.44
268.913	426.44
269.145	430.44
269.377	432.44
269.609	441.44
269.841	417.44
270.073	403.44
270.306	420.44
270.538	429.44
270.77	421.44
271.002	447.44
271.234	430.44
271.466	460.44
271.698	468.44
271.93	469.44
272.162	454.44
272.394	453.44
272.626	480.44
272.858	456.44
273.09	474.44
273.322	458.44
273.553	485.44
273.785	506.44
274.017	549.44
274.249	565.44
274.481	584.44
274.713	589.44
274.945	638.44
275.176	661.44
275.408	618.44
275.64	587.44
275.872	608.44
276.104	560.44
276.335	474.44
276.567	494.44
276.799	501.44
277.031	512.44
277.262	514.44
277.494	480.44
277.726	493.44
277.957	505.44
278.189	503.44
278.421	498.44
278.652	501.44
278.884	493.44
279.115	493.44
279.347	515.44
279.579	516.44
279.81	489.44
280.042	488.44
280.273	469.44
280.505	508.44
280.736	483.44
280.968	503.44
281.199	490.44
281.431	501.44
281.662	518.44
281.894	533.44
282.125	516.44
282.356	530.44
282.588	532.44
282.819	540.44
283.051	538.44
283.282	538.44
283.513	518.44
283.745	542.44
283.976	551.44
284.207	535.44
284.439	572.44
284.67	528.44
284.901	545.44
285.132	526.44
285.364	560.44
285.595	554.44
285.826	557.44
286.057	574.44
286.288	545.44
286.52	544.44
286.751	553.44
286.982	546.44
287.213	556.44
287.444	578.44
287.675	573.44
287.906	574.44
288.138	565.44
288.369	572.44
288.6	580.44
288.831	545.44
289.062	586.44
289.293	557.44
289.524	551.44
289.755	567.44
289.986	573.44
290.217	565.44
290.448	573.44
290.679	584.44
290.91	550.44
291.141	568.44
291.371	569.44
291.602	570.44
291.833	566.44
292.064	589.44
292.295	562.44
292.526	584.44
292.757	564.44
292.987	584.44
293.218	570.44
293.449	578.44
293.68	594.44
293.91	597.44
294.141	557.44
294.372	586.44
294.603	594.44
294.833	602.44
295.064	586.44
295.295	571.44
295.525	574.44
295.756	589.44
295.987	596.44
296.217	603.44
296.448	589.44
296.679	620.44
296.909	575.44
297.14	610.44
297.37	619.44
297.601	597.44
297.831	608.44
298.062	614.44
298.292	606.44
298.523	625.44
298.753	630.44
298.984	637.44
299.214	623.44
299.445	618.44
299.675	634.44
299.905	626.44
300.136	624.44
300.366	624.44
300.597	665.44
300.827	645.44
301.057	619.44
301.288	628.44
301.518	644.44
301.748	646.44
301.979	673.44
302.209	674.44
302.439	705.44
302.669	637.44
302.9	662.44
303.13	665.44
303.36	630.44
303.59	650.44
303.82	667.44
304.051	683.44
304.281	680.44
304.511	670.44
304.741	652.44
304.971	673.44
305.201	670.44
305.431	663.44
305.661	668.44
305.891	651.44
306.121	644.44
306.352	659.44
306.582	670.44
306.812	650.44
307.042	668.44
307.272	679.44
307.502	661.44
307.731	666.44
307.961	679.44
308.191	665.44
308.421	693.44
308.651	705.44
308.881	672.44
309.111	670.44
309.341	684.44
309.571	687.44
309.8	654.44
310.03	678.44
310.26	677.44
310.49	654.44
310.72	680.44
310.949	659.44
311.179	717.44
311.409	672.44
311.639	707.44
311.868	691.44
312.098	697.44
312.328	694.44
312.557	702.44
312.787	683.44
313.017	707.44
313.246	706.44
313.476	704.44
313.706	701.44
313.935	695.44
314.165	728.44
314.394	714.44
314.624	718.44
314.853	698.44
315.083	727.44
315.312	708.44
315.542	704.44
315.771	746.44
316.001	715.44
316.23	710.44
316.46	741.44
316.689	694.44
316.919	722.44
317.148	718.44
317.377	736.44
317.607	718.44
317.836	723.44
318.065	712.44
318.295	731.44
318.524	726.44
318.753	716.44
318.983	731.44
319.212	719.44
319.441	737.44
319.67	719.44
319.9	730.44
320.129	773.44
320.358	723.44
320.587	749.44
320.816	747.44
321.046	740.44
321.275	736.44
321.504	721.44
321.733	728.44
321.962	745.44
322.191	756.44
322.42	741.44
322.649	752.44
322.878	780.44
323.108	769.44
323.337	771.44
323.566	725.44
323.795	754.44
324.024	778.44
324.253	787.44
324.482	782.44
324.71	763.44
324.939	780.44
325.168	760.44
325.397	760.44
325.626	774.44
325.855	785.44
326.084	790.44
326.313	769.44
326.542	752.44
326.77	786.44
326.999	810.44
327.228	793.44
327.457	772.44
327.686	822.44
327.914	797.44
328.143	817.44
328.372	795.44
328.6	786.44
328.829	803.44
329.058	820.44
329.287	790.44
329.515	811.44
329.744	806.44
329.972	815.44
330.201	802.44
330.43	782.44
330.658	794.44
330.887	804.44
331.115	803.44
331.344	830.44
331.572	837.44
331.801	834.44
332.03	828.44
332.258	825.44
332.486	861.44
332.715	881.44
332.943	841.44
333.172	854.44
333.4	894.44
333.629	869.44
333.857	883.44
334.085	889.44
334.314	898.44
334.542	912.44
334.771	889.44
334.999	892.44
335.227	915.44
335.455	905.44
335.684	914.44
335.912	916.44
336.14	934.44
336.369	906.44
336.597	908.44
336.825	910.44
337.053	922.44
337.281	895.44
337.51	908.44
337.738	891.44
337.966	917.44
338.194	868.44
338.422	895.44
338.65	907.44
338.878	870.44
339.106	856.44
339.334	857.44
339.562	882.44
339.79	876.44
340.018	874.44
340.246	841.44
340.474	850.44
340.702	845.44
340.93	834.44
341.158	870.44
341.386	886.44
341.614	868.44
341.842	890.44
342.07	852.44
342.298	836.44
342.526	828.44
342.754	842.44
342.981	853.44
343.209	866.44
343.437	880.44
343.665	880.44
343.893	883.44
344.12	924.44
344.348	955.44
344.576	902.44
344.804	894.44
345.031	880.44
345.259	872.44
345.487	862.44
345.714	885.44
345.942	856.44
346.17	845.44
346.397	836.44
346.625	811.44
346.853	840.44
347.08	844.44
347.308	841.44
347.535	845.44
347.763	845.44
347.99	826.44
348.218	826.44
348.445	835.44
348.673	816.44
348.9	807.44
349.128	804.44
349.355	821.44
349.583	822.44
349.81	833.44
350.037	814.44
350.265	829.44
350.492	798.44
350.72	801.44
350.947	797.44
351.174	838.44
351.402	838.44
351.629	820.44
351.856	829.44
352.083	790.44
352.311	824.44
352.538	827.44
352.765	816.44
352.992	802.44
353.22	820.44
353.447	810.44
353.674	814.44
353.901	811.44
354.128	819.44
354.355	833.44
354.583	796.44
354.81	800.44
355.037	833.44
355.264	812.44
355.491	790.44
355.718	802.44
355.945	817.44
356.172	817.44
356.399	788.44
356.626	835.44
356.853	812.44
357.08	829.44
357.307	848.44
357.534	828.44
357.761	844.44
357.988	870.44
358.215	855.44
358.441	887.44
358.668	838.44
358.895	840.44
359.122	828.44
359.349	819.44
359.576	796.44
359.802	848.44
360.029	822.44
360.256	817.44
360.483	814.44
360.709	838.44
360.936	854.44
361.163	833.44
361.39	836.44
361.616	816.44
361.843	839.44
362.07	862.44
362.296	828.44
362.523	825.44
362.749	836.44
362.976	837.44
363.203	842.44
363.429	837.44
363.656	864.44
363.882	836.44
364.109	835.44
364.335	852.44
364.562	855.44
364.788	838.44
365.015	831.44
365.241	845.44
365.468	834.44
365.694	822.44
365.92	846.44
366.147	836.44
366.373	861.44
366.599	844.44
366.826	846.44
367.052	846.44
367.278	846.44
367.505	820.44
367.731	846.44
367.957	862.44
368.184	869.44
368.41	856.44
368.636	876.44
368.862	870.44
369.089	855.44
369.315	873.44
369.541	881.44
369.767	876.44
369.993	852.44
370.219	867.44
370.445	900.44
370.672	890.44
370.898	896.44
371.124	882.44
371.35	889.44
371.576	897.44
371.802	911.44
372.028	923.44
372.254	926.44
372.48	909.44
372.706	936.44
372.932	937.44
373.158	944.44
373.384	968.44
373.61	948.44
373.835	981.44
374.061	946.44
374.287	939.44
374.513	920.44
374.739	931.44
374.965	1016.44
375.191	1004.44
375.416	954.44
375.642	960.44
375.868	942.44
376.094	938.44
376.319	956.44
376.545	903.44
376.771	924.44
376.997	920.44
377.222	912.44
377.448	896.44
377.674	878.44
377.899	911.44
378.125	914.44
378.35	900.44
378.576	895.44
378.802	917.44
379.027	937.44
379.253	909.44
379.478	883.44
379.704	904.44
379.929	935.44
380.155	906.44
380.38	928.44
380.606	920.44
380.831	921.44
381.057	924.44
381.282	957.44
381.507	932.44
381.733	974.44
381.958	956.44
382.184	974.44
382.409	1022.44
382.634	1019.44
382.86	990.44
383.085	980.44
383.31	965.44
383.535	972.44
383.761	958.44
383.986	984.44
384.211	993.44
384.436	995.44
384.662	986.44
384.887	990.44
385.112	999.44
385.337	995.44
385.562	1039.44
385.787	1076.44
386.013	1047.44
386.238	1081.44
386.463	1058.44
386.688	1025.44
386.913	1037.44
387.138	1052.44
387.363	1081.44
387.588	1051.44
387.813	1046.44
388.038	1056.44
388.263	1046.44
388.488	1062.44
388.713	1037.44
388.938	1088.44
389.163	1052.44
389.387	1074.44
389.612	1055.44
389.837	1069.44
390.062	1085.44
390.287	1076.44
390.512	1068.44
390.736	1100.44
390.961	1102.44
391.186	1082.44
391.411	1107.44
391.636	1120.44
391.86	1116.44
392.085	1164.44
392.31	1131.44
392.534	1124.44
392.759	1115.44
392.984	1123.44
393.208	1103.44
393.433	1127.44
393.658	1122.44
393.882	1110.44
394.107	1123.44
394.331	1123.44
394.556	1112.44
394.78	1120.44
395.005	1153.44
395.229	1123.44
395.454	1165.44
395.678	1153.44
395.903	1170.44
396.127	1159.44
396.352	1152.44
396.576	1144.44
396.801	1138.44
397.025	1174.44
397.249	1187.44
397.474	1209.44
397.698	1200.44
397.922	1214.44
398.147	1204.44
398.371	1225.44
398.595	1244.44
398.82	1279.44
399.044	1272.44
399.268	1334.44
399.492	1350.44
399.717	1425.44
399.941	1414.44
400.165	1410.44
400.389	1402.44
400.613	1395.44
400.837	1356.44
401.062	1330.44
401.286	1308.44
401.51	1284.44
401.734	1299.44
401.958	1294.44
402.182	1295.44
402.406	1268.44
402.63	1276.44
402.854	1281.44
403.078	1274.44
403.302	1280.44
403.526	1276.44
403.75	1294.44
403.974	1282.44
404.198	1285.44
404.422	1312.44
404.645	1294.44
404.869	1313.44
405.093	1300.44
405.317	1328.44
405.541	1309.44
405.765	1344.44
405.988	1318.44
406.212	1347.44
406.436	1350.44
406.66	1393.44
406.883	1372.44
407.107	1406.44
407.331	1437.44
407.555	1465.44
407.778	1464.44
408.002	1463.44
408.226	1445.44
408.449	1486.44
408.673	1401.44
408.896	1430.44
409.12	1384.44
409.344	1386.44
409.567	1355.44
409.791	1380.44
410.014	1376.44
410.238	1395.44
410.461	1377.44
410.685	1372.44
410.908	1390.44
411.132	1379.44
411.355	1326.44
411.578	1313.44
411.802	1344.44
412.025	1372.44
412.249	1312.44
412.472	1330.44
412.695	1322.44
412.919	1324.44
413.142	1332.44
413.365	1331.44
413.589	1305.44
413.812	1291.44
414.035	1309.44
414.258	1320.44
414.482	1326.44
414.705	1319.44
414.928	1274.44
415.151	1278.44
415.374	1281.44
415.597	1280.44
415.821	1268.44
416.044	1265.44
416.267	1283.44
416.49	1241.44
416.713	1238.44
416.936	1257.44
417.159	1254.44
417.382	1223.44
417.605	1226.44
417.828	1211.44
418.051	1241.44
418.274	1228.44
418.497	1240.44
418.72	1251.44
418.943	1218.44
419.166	1290.44
419.389	1355.44
419.611	1394.44
419.834	1308.44
420.057	1285.44
420.28	1244.44
420.503	1235.44
420.726	1212.44
420.948	1216.44
421.171	1202.44
421.394	1203.44
421.617	1226.44
421.839	1230.44
422.062	1209.44
422.285	1196.44
422.507	1210.44
422.73	1202.44
422.953	1224.44
423.175	1195.44
423.398	1240.44
423.621	1206.44
423.843	1218.44
424.066	1227.44
424.288	1226.44
424.511	1214.44
424.733	1222.44
424.956	1224.44
425.178	1227.44
425.401	1237.44
425.623	1211.44
425.846	1233.44
426.068	1230.44
426.291	1225.44
426.513	1230.44
426.735	1193.44
426.958	1220.44
427.18	1200.44
427.402	1208.44
427.625	1225.44
427.847	1204.44
428.069	1170.44
428.292	1216.44
428.514	1183.44
428.736	1191.44
428.958	1187.44
429.181	1161.44
429.403	1156.44
429.625	1201.44
429.847	1183.44
430.069	1188.44
430.292	1170.44
430.514	1163.44
430.736	1184.44
430.958	1231.44
431.18	1201.44
431.402	1192.44
431.624	1176.44
431.846	1173.44
432.068	1172.44
432.29	1198.44
432.512	1202.44
432.734	1233.44
432.956	1200.44
433.178	1214.44
433.4	1193.44
433.622	1198.44
433.844	1205.44
434.066	1214.44
434.287	1183.44
434.509	1219.44
434.731	1237.44
434.953	1210.44
435.175	1220.44
435.397	1236.44
435.618	1188.44
435.84	1218.44
436.062	1201.44
436.284	1206.44
436.505	1200.44
436.727	1164.44
436.949	1194.44
437.17	1202.44
437.392	1163.44
437.614	1186.44
437.835	1150.44
438.057	1185.44
438.278	1151.44
438.5	1185.44
438.721	1181.44
438.943	1185.44
439.165	1156.44
439.386	1181.44
439.608	1176.44
439.829	1186.44
440.05	1154.44
440.272	1176.44
440.493	1156.44
440.715	1189.44
440.936	1224.44
441.158	1252.44
441.379	1196.44
441.6	1224.44
441.822	1255.44
442.043	1207.44
442.264	1218.44
442.486	1202.44
442.707	1225.44
442.928	1201.44
443.149	1216.44
443.371	1237.44
443.592	1245.44
443.813	1204.44
444.034	1261.44
444.255	1248.44
444.476	1243.44
444.698	1244.44
444.919	1258.44
445.14	1377.44
445.361	1292.44
445.582	1258.44
445.803	1240.44
446.024	1205.44
446.245	1186.44
446.466	1166.44
446.687	1177.44
446.908	1220.44
447.129	1166.44
447.35	1120.44
447.571	1162.44
447.792	1129.44
448.013	1134.44
448.234	1128.44
448.455	1119.44
448.675	1099.44
448.896	1136.44
449.117	1083.44
449.338	1124.44
449.559	1107.44
449.779	1102.44
450	1069.44
450.221	1092.44
450.442	1122.44
450.662	1088.44
450.883	1074.44
451.104	1088.44
451.324	1079.44
451.545	1109.44
451.766	1086.44
451.986	1065.44
452.207	1060.44
452.428	1097.44
452.648	1090.44
452.869	1057.44
453.089	1038.44
453.31	1034.44
453.53	1081.44
453.751	1076.44
453.971	1060.44
454.192	1053.44
454.412	1022.44
454.633	1044.44
454.853	1038.44
455.073	1051.44
455.294	1065.44
455.514	1001.44
455.734	1045.44
455.955	1023.44
456.175	999.44
456.395	1005.44
456.616	1026.44
456.836	1034.44
457.056	1046.44
457.276	1044.44
457.497	1065.44
457.717	1074.44
457.937	1061.44
458.157	1076.44
458.377	1091.44
458.598	1089.44
458.818	1124.44
459.038	1111.44
459.258	1128.44
459.478	1123.44
459.698	1166.44
459.918	1158.44
460.138	1188.44
460.358	1204.44
460.578	1229.44
460.798	1205.44
461.018	1253.44
461.238	1249.44
461.458	1266.44
461.678	1276.44
461.898	1266.44
462.118	1286.44
462.338	1288.44
462.558	1306.44
462.777	1358.44
462.997	1362.44
463.217	1365.44
463.437	1420.44
463.657	1388.44
463.876	1371.44
464.096	1367.44
464.316	1368.44
464.536	1333.44
464.755	1337.44
464.975	1334.44
465.195	1303.44
465.414	1260.44
465.634	1235.44
465.854	1220.44
466.073	1227.44
466.293	1201.44
466.512	1165.44
466.732	1200.44
466.951	1227.44
467.171	1152.44
467.391	1150.44
467.61	1136.44
467.829	1098.44
468.049	1150.44
468.268	1164.44
468.488	1120.44
468.707	1123.44
468.927	1192.44
469.146	1193.44
469.365	1146.44
469.585	1140.44
469.804	1172.44
470.023	1186.44
470.243	1170.44
470.462	1152.44
470.681	1160.44
470.901	1156.44
471.12	1159.44
471.339	1152.44
471.558	1163.44
471.777	1152.44
471.997	1149.44
472.216	1163.44
472.435	1164.44
472.654	1145.44
472.873	1130.44
473.092	1173.44
473.311	1171.44
473.53	1115.44
473.749	1125.44
473.968	1196.44
474.187	1154.44
474.406	1179.44
474.625	1167.44
474.844	1156.44
475.063	1203.44
475.282	1193.44
475.501	1174.44
475.72	1222.44
475.939	1192.44
476.158	1178.44
476.377	1230.44
476.596	1259.44
476.814	1291.44
477.033	1240.44
477.252	1237.44
477.471	1229.44
477.69	1309.44
477.908	1290.44
478.127	1332.44
478.346	1305.44
478.564	1302.44
478.783	1321.44
479.002	1344.44
479.22	1369.44
479.439	1438.44
479.658	1367.44
479.876	1376.44
480.095	1387.44
480.313	1378.44
480.532	1379.44
480.751	1380.44
480.969	1377.44
481.188	1380.44
481.406	1394.44
481.624	1391.44
481.843	1366.44
482.061	1360.44
482.28	1405.44
482.498	1367.44
482.717	1346.44
482.935	1397.44
483.153	1381.44
483.372	1362.44
483.59	1389.44
483.808	1383.44
484.027	1367.44
484.245	1389.44
484.463	1417.44
484.681	1400.44
484.9	1401.44
485.118	1417.44
485.336	1428.44
485.554	1413.44
485.772	1418.44
485.99	1439.44
486.209	1405.44
486.427	1420.44
486.645	1411.44
486.863	1417.44
487.081	1405.44
487.299	1425.44
487.517	1479.44
487.735	1436.44
487.953	1408.44
488.171	1442.44
488.389	1417.44
488.607	1415.44
488.825	1402.44
489.043	1405.44
489.261	1418.44
489.479	1423.44
489.696	1389.44
489.914	1422.44
490.132	1442.44
490.35	1438.44
490.568	1413.44
490.786	1412.44
491.003	1461.44
491.221	1450.44
491.439	1472.44
491.657	1430.44
491.874	1445.44
492.092	1475.44
492.31	1474.44
492.527	1491.44
492.745	1452.44
492.963	1453.44
493.18	1481.44
493.398	1443.44
493.615	1474.44
493.833	1447.44
494.05	1447.44
494.268	1493.44
494.485	1476.44
494.703	1483.44
494.92	1464.44
495.138	1505.44
495.355	1509.44
495.573	1498.44
495.79	1491.44
496.008	1538.44
496.225	1524.44
496.442	1593.44
496.66	1565.44
496.877	1616.44
497.094	1582.44
497.312	1581.44
497.529	1640.44
497.746	1661.44
497.963	1685.44
498.181	1723.44
498.398	1757.44
498.615	1856.44
498.832	1867.44
499.049	1899.44
499.267	1977.44
499.484	2032.44
499.701	2107.44
499.918	2170.44
500.135	2248.44
500.352	2316.44
500.569	2282.44
500.786	2323.44
501.003	2304.44
501.22	2232.44
501.437	2171.44
501.654	2064.44
501.871	1984.44
502.088	1917.44
502.305	1898.44
502.522	1887.44
502.739	1766.44
502.956	1729.44
503.172	1698.44
503.389	1651.44
503.606	1613.44
503.823	1586.44
504.04	1618.44
504.256	1596.44
504.473	1572.44
504.69	1501.44
504.907	1516.44
505.123	1506.44
505.34	1484.44
505.557	1446.44
505.773	1439.44
505.99	1410.44
506.207	1399.44
506.423	1353.44
506.64	1342.44
506.856	1332.44
507.073	1334.44
507.289	1331.44
507.506	1324.44
507.722	1312.44
507.939	1290.44
508.155	1280.44
508.372	1292.44
508.588	1270.44
508.805	1250.44
509.021	1238.44
509.238	1243.44
509.454	1210.44
509.67	1222.44
509.887	1225.44
510.103	1238.44
510.319	1217.44
510.536	1192.44
510.752	1192.44
510.968	1176.44
511.184	1180.44
511.401	1176.44
511.617	1154.44
511.833	1143.44
512.049	1173.44
512.265	1190.44
512.481	1166.44
512.698	1177.44
512.914	1189.44
513.13	1162.44
513.346	1157.44
513.562	1186.44
513.778	1171.44
513.994	1175.44
514.21	1183.44
514.426	1156.44
514.642	1192.44
514.858	1189.44
515.074	1194.44
515.29	1203.44
515.506	1174.44
515.721	1197.44
515.937	1204.44
516.153	1195.44
516.369	1195.44
516.585	1215.44
516.801	1242.44
517.016	1251.44
517.232	1292.44
517.448	1288.44
517.664	1300.44
517.879	1280.44
518.095	1265.44
518.311	1256.44
518.527	1252.44
518.742	1241.44
518.958	1244.44
519.173	1213.44
519.389	1216.44
519.605	1202.44
519.82	1234.44
520.036	1251.44
520.251	1224.44
520.467	1193.44
520.682	1142.44
520.898	1156.44
521.113	1141.44
521.329	1113.44
521.544	1127.44
521.76	1120.44
521.975	1139.44
522.19	1136.44
522.406	1100.44
522.621	1151.44
522.836	1140.44
523.052	1114.44
523.267	1116.44
523.482	1088.44
523.698	1099.44
523.913	1043.44
524.128	1095.44
524.343	1077.44
524.559	1066.44
524.774	1060.44
524.989	1086.44
525.204	1095.44
525.419	1073.44
525.634	1052.44
525.849	1053.44
526.064	1050.44
526.28	1050.44
526.495	1076.44
526.71	1092.44
526.925	1070.44
527.14	1030.44
527.355	1045.44
527.57	1024.44
527.785	1046.44
527.999	1004.44
528.214	1029.44
528.429	1028.44
528.644	998.44
528.859	1042.44
529.074	1006.44
529.289	1013.44
529.503	1008.44
529.718	970.44
529.933	1005.44
530.148	996.44
530.363	1029.44
530.577	996.44
530.792	997.44
531.007	994.44
531.221	975.44
531.436	1000.44
531.651	1002.44
531.865	991.44
532.08	999.44
532.295	1023.44
532.509	1008.44
532.724	998.44
532.938	948.44
533.153	991.44
533.367	989.44
533.582	988.44
533.796	984.44
534.011	996.44
534.225	977.44
534.44	994.44
534.654	990.44
534.868	954.44
535.083	983.44
535.297	967.44
535.511	955.44
535.726	935.44
535.94	946.44
536.154	937.44
536.369	955.44
536.583	953.44
536.797	966.44
537.011	915.44
537.225	936.44
537.44	959.44
537.654	933.44
537.868	925.44
538.082	917.44
538.296	918.44
538.51	915.44
538.724	928.44
538.938	949.44
539.153	930.44
539.367	921.44
539.581	897.44
539.795	914.44
540.009	896.44
540.222	904.44
540.436	893.44
540.65	938.44
540.864	911.44
541.078	902.44
541.292	923.44
541.506	929.44
541.72	905.44
541.934	911.44
542.147	929.44
542.361	921.44
542.575	900.44
542.789	905.44
543.002	900.44
543.216	890.44
543.43	905.44
543.644	903.44
543.857	904.44
544.071	877.44
544.285	921.44
544.498	900.44
544.712	900.44
544.925	907.44
545.139	914.44
545.352	900.44
545.566	904.44
545.779	930.44
545.993	933.44
546.206	900.44
546.42	882.44
546.633	910.44
546.847	886.44
547.06	917.44
547.274	902.44
547.487	915.44
547.7	894.44
547.914	932.44
548.127	931.44
548.34	927.44
548.554	898.44
548.767	907.44
548.98	895.44
549.193	892.44
549.407	890.44
549.62	929.44
549.833	946.44
550.046	902.44
550.259	905.44
550.473	907.44
550.686	892.44
550.899	876.44
551.112	892.44
551.325	907.44
551.538	922.44
551.751	903.44
551.964	886.44
552.177	878.44
552.39	861.44
552.603	916.44
552.816	884.44
553.029	891.44
553.242	892.44
553.455	876.44
553.667	882.44
553.88	900.44
554.093	876.44
554.306	877.44
554.519	838.44
554.732	840.44
554.944	852.44
555.157	861.44
555.37	842.44
555.583	858.44
555.795	858.44
556.008	811.44
556.221	814.44
556.433	804.44
556.646	781.44
556.859	786.44
557.071	782.44
557.284	793.44
557.496	769.44
557.709	811.44
557.921	810.44
558.134	770.44
558.346	800.44
558.559	795.44
558.771	771.44
558.984	770.44
559.196	768.44
559.409	748.44
559.621	788.44
559.833	747.44
560.046	769.44
560.258	746.44
560.47	757.44
560.683	770.44
560.895	749.44
561.107	750.44
561.32	762.44
561.532	772.44
561.744	757.44
561.956	776.44
562.168	757.44
562.381	767.44
562.593	749.44
562.805	773.44
563.017	772.44
563.229	756.44
563.441	754.44
563.653	770.44
563.865	763.44
564.077	785.44
564.289	777.44
564.501	774.44
564.713	774.44
564.925	781.44
565.137	811.44
565.349	836.44
565.561	844.44
565.773	849.44
565.985	852.44
566.197	870.44
566.408	893.44
566.62	874.44
566.832	909.44
567.044	900.44
567.255	900.44
567.467	908.44
567.679	924.44
567.891	903.44
568.102	907.44
568.314	868.44
568.526	898.44
568.737	886.44
568.949	830.44
569.161	791.44
569.372	813.44
569.584	775.44
569.795	768.44
570.007	753.44
570.218	749.44
570.43	730.44
570.641	725.44
570.853	710.44
571.064	685.44
571.276	722.44
571.487	685.44
571.698	683.44
571.91	696.44
572.121	662.44
572.333	651.44
572.544	646.44
572.755	659.44
572.966	676.44
573.178	640.44
573.389	640.44
573.6	626.44
573.811	614.44
574.023	630.44
574.234	618.44
574.445	601.44
574.656	620.44
574.867	606.44
575.078	616.44
575.289	598.44
575.501	596.44
575.712	569.44
575.923	585.44
576.134	583.44
576.345	587.44
576.556	593.44
576.767	574.44
576.978	572.44
577.188	586.44
577.399	579.44
577.61	587.44
577.821	575.44
578.032	558.44
578.243	581.44
578.454	569.44
578.665	557.44
578.875	547.44
579.086	539.44
579.297	556.44
579.508	536.44
579.718	561.44
579.929	545.44
580.14	552.44
580.35	529.44
580.561	524.44
580.772	552.44
580.982	524.44
581.193	532.44
581.403	518.44
581.614	545.44
581.825	520.44
582.035	522.44
582.246	537.44
582.456	526.44
582.667	534.44
582.877	540.44
583.087	525.44
583.298	533.44
583.508	525.44
583.719	502.44
583.929	514.44
584.139	498.44
584.35	518.44
584.56	496.44
584.77	514.44
584.981	511.44
585.191	498.44
585.401	494.44
585.611	497.44
585.821	514.44
586.032	498.44
586.242	491.44
586.452	500.44
586.662	499.44
586.872	491.44
587.082	481.44
587.292	472.44
587.502	492.44
587.713	486.44
587.923	512.44
588.133	494.44
588.343	481.44
588.553	490.44
588.762	489.44
588.972	490.44
589.182	546.44
589.392	532.44
589.602	497.44
589.812	516.44
590.022	496.44
590.232	504.44
590.441	484.44
590.651	503.44
590.861	490.44
591.071	487.44
591.281	498.44
591.49	485.44
591.7	499.44
591.91	480.44
592.119	496.44
592.329	513.44
592.539	528.44
592.748	493.44
592.958	515.44
593.167	507.44
593.377	533.44
593.587	503.44
593.796	505.44
594.006	513.44
594.215	519.44
594.424	489.44
594.634	488.44
594.843	478.44
595.053	485.44
595.262	491.44
595.472	470.44
595.681	445.44
595.89	487.44
596.1	479.44
596.309	470.44
596.518	457.44
596.727	451.44
596.937	465.44
597.146	452.44
597.355	448.44
597.564	429.44
597.774	421.44
597.983	424.44
598.192	417.44
598.401	441.44
598.61	420.44
598.819	413.44
599.028	421.44
599.237	440.44
599.446	406.44
599.655	411.44
599.864	421.44
600.073	408.44
600.282	422.44
600.491	401.44
600.7	402.44
600.909	414.44
601.118	390.44
601.327	402.44
601.536	399.44
601.745	396.44
601.953	405.44
602.162	396.44
602.371	398.44
602.58	401.44
602.789	381.44
602.997	404.44
603.206	411.44
603.415	382.44
603.623	393.44
603.832	413.44
604.041	398.44
604.249	379.44
604.458	411.44
604.666	387.44
604.875	381.44
605.084	379.44
605.292	389.44
605.501	404.44
605.709	387.44
605.918	386.44
606.126	384.44
606.334	381.44
606.543	362.44
606.751	376.44
606.96	386.44
607.168	391.44
607.376	359.44
607.585	382.44
607.793	362.44
608.001	375.44
608.21	370.44
608.418	369.44
608.626	372.44
608.834	348.44
609.043	365.44
609.251	353.44
609.459	356.44
609.667	352.44
609.875	388.44
610.083	355.44
610.291	356.44
610.499	375.44
610.707	361.44
610.916	350.44
611.124	357.44
611.332	359.44
611.54	348.44
611.748	361.44
611.955	337.44
612.163	357.44
612.371	348.44
612.579	348.44
612.787	350.44
612.995	335.44
613.203	374.44
613.411	352.44
613.618	348.44
613.826	356.44
614.034	334.44
614.242	357.44
614.449	362.44
614.657	352.44
614.865	332.44
615.072	371.44
615.28	341.44
615.488	328.44
615.695	338.44
615.903	350.44
616.111	344.44
616.318	340.44
616.526	341.44
616.733	345.44
616.941	317.44
617.148	343.44
617.356	331.44
617.563	345.44
617.771	345.44
617.978	351.44
618.185	360.44
618.393	342.44
618.6	337.44
618.807	329.44
619.015	329.44
619.222	338.44
619.429	341.44
619.637	330.44
619.844	321.44
620.051	328.44
620.258	326.44
620.466	315.44
620.673	308.44
620.88	330.44
621.087	312.44
621.294	332.44
621.501	316.44
621.708	325.44
621.915	331.44
622.122	312.44
622.329	295.44
622.536	324.44
622.743	322.44
622.95	301.44
623.157	298.44
623.364	292.44
623.571	336.44
623.778	296.44
623.985	288.44
624.192	303.44
624.399	322.44
624.606	316.44
624.812	314.44
625.019	303.44
625.226	308.44
625.433	301.44
625.639	310.44
625.846	300.44
626.053	304.44
626.259	301.44
626.466	296.44
626.673	308.44
626.879	295.44
627.086	281.44
627.293	303.44
627.499	300.44
627.706	283.44
627.912	272.44
628.119	294.44
628.325	301.44
628.532	289.44
628.738	282.44
628.945	318.44
629.151	291.44
629.357	273.44
629.564	286.44
629.77	293.44
629.976	274.44
630.183	282.44
630.389	268.44
630.595	278.44
630.802	278.44
631.008	276.44
631.214	297.44
631.42	286.44
631.627	287.44
631.833	266.44
632.039	280.44
632.245	275.44
632.451	274.44
632.657	269.44
632.863	264.44
633.069	261.44
633.275	273.44
633.481	253.44
633.688	281.44
633.893	268.44
634.099	266.44
634.305	274.44
634.511	265.44
634.717	263.44
634.923	253.44
635.129	265.44
635.335	272.44
635.541	254.44
635.747	245.44
635.952	247.44
636.158	259.44
636.364	270.44
636.57	264.44
636.775	275.44
636.981	268.44
637.187	269.44
637.392	243.44
637.598	247.44
637.804	243.44
638.009	273.44
638.215	244.44
638.421	248.44
638.626	261.44
638.832	244.44
639.037	276.44
639.243	261.44
639.448	251.44
639.654	260.44
639.859	270.44
640.065	260.44
640.27	236.44
640.475	249.44
640.681	249.44
640.886	237.44
641.091	256.44
641.297	255.44
641.502	246.44
641.707	242.44
641.913	257.44
642.118	256.44
642.323	248.44
642.528	240.44
642.733	229.44
642.939	246.44
643.144	230.44
643.349	254.44
643.554	252.44
643.759	254.44
643.964	258.44
644.169	260.44
644.374	244.44
644.579	252.44
644.784	222.44
644.989	232.44
645.194	235.44
645.399	251.44
645.604	243.44
645.809	238.44
646.014	235.44
646.219	253.44
646.423	256.44
646.628	248.44
646.833	252.44
647.038	244.44
647.243	247.44
647.447	261.44
647.652	252.44
647.857	248.44
648.062	229.44
648.266	269.44
648.471	252.44
648.676	249.44
648.88	261.44
649.085	268.44
649.289	277.44
649.494	260.44
649.698	252.44
649.903	242.44
650.107	233.44
650.312	237.44
650.516	239.44
650.721	254.44
650.925	227.44
651.13	239.44
651.334	237.44
651.539	251.44
651.743	242.44
651.947	231.44
652.152	224.44
652.356	228.44
652.56	214.44
652.764	225.44
652.969	241.44
653.173	247.44
653.377	231.44
653.581	218.44
653.785	221.44
653.99	225.44
654.194	232.44
654.398	229.44
654.602	240.44
654.806	224.44
655.01	234.44
655.214	225.44
655.418	237.44
655.622	214.44
655.826	227.44
656.03	219.44
656.234	230.44
656.438	229.44
656.642	242.44
656.846	216.44
657.049	213.44
657.253	208.44
657.457	205.44
657.661	172.44
657.865	168.44
658.068	164.44
658.272	162.44
658.476	149.44
658.68	135.44
658.883	139.44
659.087	131.44
659.291	121.44
659.494	124.44
659.698	123.44
659.901	128.44
660.105	112.44
660.309	117.44
660.512	110.44
660.716	104.44
660.919	113.44
661.123	99.44
661.326	95.44
661.53	94.44
661.733	97.44
661.936	100.44
662.14	101.44
662.343	96.44
662.546	99.44
662.75	93.44
662.953	92.44
663.156	89.44
663.36	91.44
663.563	87.44
663.766	96.44
663.969	77.44
664.173	97.44
664.376	92.44
664.579	87.44
664.782	74.44
664.985	85.44
665.188	75.44
665.391	84.44
665.594	75.44
665.797	88.44
666	82.44
666.203	88.44
666.406	78.44
666.609	81.44
666.812	95.44
667.015	88.44
667.218	75.44
667.421	87.44
667.624	101.44
667.827	76.44
668.03	62.44
668.232	79.44
668.435	84.44
668.638	79.44
668.841	95.44
669.043	74.44
669.246	81.44
669.449	70.44
669.651	89.44
669.854	68.44
670.057	100.44
670.259	86.44
670.462	73.44
670.665	83.44
670.867	84.44
671.07	74.44
671.272	85.44
671.475	85.44
671.677	73.44
671.88	88.44
672.082	54.44
672.284	78.44
672.487	68.44
672.689	89.44
672.892	85.44
