Data from Fe(NO3)3@0.05M.TitratingCurve.Agarose3%dH2O.NegLispCup.LampEnergy10.LIBS07252019_HRD10591_16-47-09-334.txt Node
Date: Thu Jul 25 16:47:09 EDT 2019
User: cochatt
Spectrometer: HR+D1059
Trigger mode: 1
Integration Time (sec): 1.000000E-1
Scans to average: 1
Electric dark correction enabled: true
Nonlinearity correction enabled: false
Boxcar width: 0
XAxis mode: Wavelengths
Number of Pixels in Spectrum: 2048
>>>>>Begin Spectral Data<<<<<
223.165	-12.75
223.4	-12.75
223.635	-12.75
223.869	-37.75
224.104	-16.75
224.338	-15.75
224.573	-13.75
224.808	-19.75
225.042	1.25
225.277	-7.75
225.511	14.25
225.746	10.25
225.98	2.25
226.215	5.25
226.449	11.25
226.683	22.25
226.918	15.25
227.152	42.25
227.387	37.25
227.621	29.25
227.856	50.25
228.09	58.25
228.324	63.25
228.559	53.25
228.793	60.25
229.027	78.25
229.262	85.25
229.496	87.25
229.73	100.25
229.964	93.25
230.199	101.25
230.433	101.25
230.667	112.25
230.901	94.25
231.136	118.25
231.37	111.25
231.604	98.25
231.838	123.25
232.072	109.25
232.306	110.25
232.541	118.25
232.775	112.25
233.009	125.25
233.243	117.25
233.477	122.25
233.711	108.25
233.945	118.25
234.179	112.25
234.413	125.25
234.647	112.25
234.881	116.25
235.115	124.25
235.349	120.25
235.583	114.25
235.817	128.25
236.051	123.25
236.285	107.25
236.519	117.25
236.753	119.25
236.987	112.25
237.221	116.25
237.455	128.25
237.689	102.25
237.922	110.25
238.156	132.25
238.39	125.25
238.624	116.25
238.858	107.25
239.091	120.25
239.325	114.25
239.559	124.25
239.793	134.25
240.027	131.25
240.26	132.25
240.494	133.25
240.728	139.25
240.961	134.25
241.195	126.25
241.429	116.25
241.662	140.25
241.896	139.25
242.13	141.25
242.363	128.25
242.597	134.25
242.83	119.25
243.064	131.25
243.298	134.25
243.531	149.25
243.765	139.25
243.998	142.25
244.232	148.25
244.465	133.25
244.699	156.25
244.932	155.25
245.166	147.25
245.399	161.25
245.633	147.25
245.866	150.25
246.099	155.25
246.333	141.25
246.566	135.25
246.8	149.25
247.033	140.25
247.266	148.25
247.5	149.25
247.733	149.25
247.966	151.25
248.2	154.25
248.433	154.25
248.666	164.25
248.899	157.25
249.133	162.25
249.366	184.25
249.599	155.25
249.832	176.25
250.066	161.25
250.299	158.25
250.532	149.25
250.765	160.25
250.998	174.25
251.231	173.25
251.465	177.25
251.698	176.25
251.931	161.25
252.164	168.25
252.397	184.25
252.63	181.25
252.863	180.25
253.096	177.25
253.329	151.25
253.562	176.25
253.795	178.25
254.028	182.25
254.261	175.25
254.494	186.25
254.727	182.25
254.96	156.25
255.193	183.25
255.426	166.25
255.659	177.25
255.892	182.25
256.124	169.25
256.357	185.25
256.59	182.25
256.823	186.25
257.056	183.25
257.289	179.25
257.521	187.25
257.754	185.25
257.987	175.25
258.22	200.25
258.452	200.25
258.685	209.25
258.918	174.25
259.151	188.25
259.383	209.25
259.616	182.25
259.849	193.25
260.081	195.25
260.314	213.25
260.547	201.25
260.779	197.25
261.012	198.25
261.244	195.25
261.477	217.25
261.71	206.25
261.942	197.25
262.175	196.25
262.407	204.25
262.64	195.25
262.872	209.25
263.105	189.25
263.337	214.25
263.57	218.25
263.802	192.25
264.035	184.25
264.267	210.25
264.499	206.25
264.732	214.25
264.964	208.25
265.197	200.25
265.429	206.25
265.661	214.25
265.894	197.25
266.126	212.25
266.358	216.25
266.591	206.25
266.823	210.25
267.055	225.25
267.287	217.25
267.52	205.25
267.752	210.25
267.984	217.25
268.216	197.25
268.448	224.25
268.681	227.25
268.913	213.25
269.145	216.25
269.377	217.25
269.609	205.25
269.841	219.25
270.073	227.25
270.306	214.25
270.538	226.25
270.77	215.25
271.002	219.25
271.234	218.25
271.466	216.25
271.698	232.25
271.93	226.25
272.162	236.25
272.394	231.25
272.626	242.25
272.858	233.25
273.09	241.25
273.322	246.25
273.553	243.25
273.785	256.25
274.017	241.25
274.249	245.25
274.481	253.25
274.713	256.25
274.945	275.25
275.176	260.25
275.408	271.25
275.64	256.25
275.872	261.25
276.104	265.25
276.335	228.25
276.567	241.25
276.799	248.25
277.031	265.25
277.262	258.25
277.494	260.25
277.726	262.25
277.957	248.25
278.189	251.25
278.421	244.25
278.652	258.25
278.884	269.25
279.115	262.25
279.347	260.25
279.579	268.25
279.81	271.25
280.042	256.25
280.273	264.25
280.505	255.25
280.736	272.25
280.968	270.25
281.199	264.25
281.431	285.25
281.662	274.25
281.894	280.25
282.125	273.25
282.356	283.25
282.588	270.25
282.819	269.25
283.051	275.25
283.282	273.25
283.513	264.25
283.745	266.25
283.976	278.25
284.207	279.25
284.439	289.25
284.67	286.25
284.901	283.25
285.132	286.25
285.364	266.25
285.595	288.25
285.826	292.25
286.057	278.25
286.288	270.25
286.52	289.25
286.751	285.25
286.982	259.25
287.213	286.25
287.444	299.25
287.675	301.25
287.906	285.25
288.138	280.25
288.369	298.25
288.6	276.25
288.831	290.25
289.062	292.25
289.293	280.25
289.524	290.25
289.755	301.25
289.986	282.25
290.217	296.25
290.448	297.25
290.679	301.25
290.91	312.25
291.141	306.25
291.371	298.25
291.602	308.25
291.833	283.25
292.064	302.25
292.295	297.25
292.526	297.25
292.757	308.25
292.987	297.25
293.218	304.25
293.449	308.25
293.68	305.25
293.91	303.25
294.141	295.25
294.372	291.25
294.603	293.25
294.833	309.25
295.064	307.25
295.295	298.25
295.525	300.25
295.756	312.25
295.987	305.25
296.217	313.25
296.448	291.25
296.679	308.25
296.909	317.25
297.14	301.25
297.37	323.25
297.601	312.25
297.831	312.25
298.062	313.25
298.292	301.25
298.523	306.25
298.753	327.25
298.984	328.25
299.214	316.25
299.445	317.25
299.675	340.25
299.905	320.25
300.136	310.25
300.366	325.25
300.597	325.25
300.827	344.25
301.057	334.25
301.288	337.25
301.518	340.25
301.748	350.25
301.979	345.25
302.209	341.25
302.439	359.25
302.669	328.25
302.9	326.25
303.13	330.25
303.36	343.25
303.59	329.25
303.82	326.25
304.051	331.25
304.281	338.25
304.511	336.25
304.741	342.25
304.971	339.25
305.201	352.25
305.431	354.25
305.661	345.25
305.891	323.25
306.121	342.25
306.352	345.25
306.582	343.25
306.812	323.25
307.042	337.25
307.272	343.25
307.502	333.25
307.731	329.25
307.961	341.25
308.191	325.25
308.421	324.25
308.651	319.25
308.881	322.25
309.111	326.25
309.341	320.25
309.571	312.25
309.8	330.25
310.03	323.25
310.26	337.25
310.49	325.25
310.72	334.25
310.949	329.25
311.179	337.25
311.409	342.25
311.639	348.25
311.868	326.25
312.098	321.25
312.328	354.25
312.557	358.25
312.787	355.25
313.017	360.25
313.246	361.25
313.476	352.25
313.706	354.25
313.935	380.25
314.165	344.25
314.394	349.25
314.624	358.25
314.853	356.25
315.083	376.25
315.312	362.25
315.542	357.25
315.771	378.25
316.001	356.25
316.23	374.25
316.46	355.25
316.689	366.25
316.919	344.25
317.148	345.25
317.377	352.25
317.607	359.25
317.836	361.25
318.065	367.25
318.295	362.25
318.524	362.25
318.753	381.25
318.983	355.25
319.212	344.25
319.441	348.25
319.67	365.25
319.9	360.25
320.129	364.25
320.358	359.25
320.587	354.25
320.816	352.25
321.046	356.25
321.275	364.25
321.504	371.25
321.733	368.25
321.962	366.25
322.191	357.25
322.42	355.25
322.649	363.25
322.878	369.25
323.108	347.25
323.337	346.25
323.566	372.25
323.795	360.25
324.024	356.25
324.253	377.25
324.482	378.25
324.71	375.25
324.939	382.25
325.168	369.25
325.397	376.25
325.626	378.25
325.855	368.25
326.084	390.25
326.313	385.25
326.542	403.25
326.77	392.25
326.999	378.25
327.228	377.25
327.457	378.25
327.686	385.25
327.914	378.25
328.143	372.25
328.372	376.25
328.6	385.25
328.829	384.25
329.058	377.25
329.287	408.25
329.515	394.25
329.744	382.25
329.972	381.25
330.201	391.25
330.43	394.25
330.658	391.25
330.887	388.25
331.115	419.25
331.344	393.25
331.572	403.25
331.801	423.25
332.03	418.25
332.258	440.25
332.486	430.25
332.715	448.25
332.943	428.25
333.172	455.25
333.4	454.25
333.629	481.25
333.857	480.25
334.085	469.25
334.314	491.25
334.542	480.25
334.771	485.25
334.999	472.25
335.227	462.25
335.455	486.25
335.684	465.25
335.912	458.25
336.14	450.25
336.369	433.25
336.597	450.25
336.825	450.25
337.053	443.25
337.281	460.25
337.51	437.25
337.738	436.25
337.966	448.25
338.194	443.25
338.422	423.25
338.65	429.25
338.878	416.25
339.106	428.25
339.334	427.25
339.562	410.25
339.79	400.25
340.018	412.25
340.246	406.25
340.474	405.25
340.702	403.25
340.93	405.25
341.158	403.25
341.386	418.25
341.614	401.25
341.842	404.25
342.07	413.25
342.298	387.25
342.526	402.25
342.754	402.25
342.981	396.25
343.209	399.25
343.437	413.25
343.665	450.25
343.893	461.25
344.12	465.25
344.348	473.25
344.576	451.25
344.804	432.25
345.031	438.25
345.259	432.25
345.487	425.25
345.714	410.25
345.942	411.25
346.17	418.25
346.397	390.25
346.625	387.25
346.853	392.25
347.08	391.25
347.308	388.25
347.535	378.25
347.763	418.25
347.99	410.25
348.218	411.25
348.445	368.25
348.673	391.25
348.9	400.25
349.128	395.25
349.355	381.25
349.583	378.25
349.81	388.25
350.037	390.25
350.265	397.25
350.492	386.25
350.72	391.25
350.947	384.25
351.174	386.25
351.402	363.25
351.629	366.25
351.856	372.25
352.083	393.25
352.311	376.25
352.538	384.25
352.765	373.25
352.992	371.25
353.22	378.25
353.447	387.25
353.674	404.25
353.901	379.25
354.128	385.25
354.355	364.25
354.583	390.25
354.81	388.25
355.037	387.25
355.264	396.25
355.491	390.25
355.718	368.25
355.945	370.25
356.172	391.25
356.399	370.25
356.626	378.25
356.853	385.25
357.08	399.25
357.307	397.25
357.534	392.25
357.761	380.25
357.988	396.25
358.215	407.25
358.441	417.25
358.668	392.25
358.895	392.25
359.122	391.25
359.349	392.25
359.576	394.25
359.802	374.25
360.029	378.25
360.256	389.25
360.483	395.25
360.709	403.25
360.936	412.25
361.163	411.25
361.39	398.25
361.616	408.25
361.843	397.25
362.07	411.25
362.296	400.25
362.523	400.25
362.749	375.25
362.976	386.25
363.203	392.25
363.429	393.25
363.656	384.25
363.882	393.25
364.109	397.25
364.335	403.25
364.562	400.25
364.788	393.25
365.015	393.25
365.241	381.25
365.468	398.25
365.694	398.25
365.92	390.25
366.147	383.25
366.373	394.25
366.599	399.25
366.826	390.25
367.052	392.25
367.278	393.25
367.505	395.25
367.731	406.25
367.957	396.25
368.184	408.25
368.41	405.25
368.636	415.25
368.862	402.25
369.089	412.25
369.315	398.25
369.541	417.25
369.767	414.25
369.993	410.25
370.219	432.25
370.445	428.25
370.672	419.25
370.898	418.25
371.124	434.25
371.35	442.25
371.576	433.25
371.802	428.25
372.028	427.25
372.254	438.25
372.48	438.25
372.706	453.25
372.932	450.25
373.158	440.25
373.384	421.25
373.61	457.25
373.835	453.25
374.061	437.25
374.287	445.25
374.513	449.25
374.739	461.25
374.965	482.25
375.191	472.25
375.416	467.25
375.642	469.25
375.868	457.25
376.094	459.25
376.319	468.25
376.545	457.25
376.771	448.25
376.997	445.25
377.222	420.25
377.448	411.25
377.674	434.25
377.899	428.25
378.125	424.25
378.35	443.25
378.576	448.25
378.802	414.25
379.027	428.25
379.253	449.25
379.478	440.25
379.704	426.25
379.929	427.25
380.155	424.25
380.38	435.25
380.606	434.25
380.831	427.25
381.057	434.25
381.282	452.25
381.507	435.25
381.733	445.25
381.958	450.25
382.184	450.25
382.409	446.25
382.634	474.25
382.86	465.25
383.085	464.25
383.31	453.25
383.535	473.25
383.761	474.25
383.986	471.25
384.211	485.25
384.436	496.25
384.662	489.25
384.887	498.25
385.112	493.25
385.337	498.25
385.562	494.25
385.787	505.25
386.013	514.25
386.238	542.25
386.463	526.25
386.688	538.25
386.913	530.25
387.138	508.25
387.363	503.25
387.588	510.25
387.813	526.25
388.038	515.25
388.263	529.25
388.488	521.25
388.713	520.25
388.938	514.25
389.163	531.25
389.387	546.25
389.612	501.25
389.837	508.25
390.062	516.25
390.287	537.25
390.512	522.25
390.736	503.25
390.961	533.25
391.186	512.25
391.411	544.25
391.636	560.25
391.86	569.25
392.085	560.25
392.31	565.25
392.534	561.25
392.759	568.25
392.984	576.25
393.208	562.25
393.433	567.25
393.658	561.25
393.882	555.25
394.107	559.25
394.331	546.25
394.556	552.25
394.78	554.25
395.005	523.25
395.229	576.25
395.454	576.25
395.678	595.25
395.903	571.25
396.127	567.25
396.352	564.25
396.576	550.25
396.801	563.25
397.025	576.25
397.249	567.25
397.474	573.25
397.698	556.25
397.922	600.25
398.147	596.25
398.371	638.25
398.595	643.25
398.82	653.25
399.044	677.25
399.268	717.25
399.492	772.25
399.717	856.25
399.941	838.25
400.165	791.25
400.389	755.25
400.613	718.25
400.837	702.25
401.062	674.25
401.286	670.25
401.51	656.25
401.734	650.25
401.958	663.25
402.182	666.25
402.406	642.25
402.63	641.25
402.854	677.25
403.078	665.25
403.302	651.25
403.526	688.25
403.75	726.25
403.974	696.25
404.198	691.25
404.422	715.25
404.645	691.25
404.869	716.25
405.093	690.25
405.317	692.25
405.541	687.25
405.765	712.25
405.988	686.25
406.212	730.25
406.436	706.25
406.66	743.25
406.883	724.25
407.107	747.25
407.331	774.25
407.555	794.25
407.778	788.25
408.002	767.25
408.226	769.25
408.449	773.25
408.673	717.25
408.896	722.25
409.12	694.25
409.344	707.25
409.567	709.25
409.791	716.25
410.014	716.25
410.238	706.25
410.461	715.25
410.685	696.25
410.908	710.25
411.132	694.25
411.355	681.25
411.578	693.25
411.802	654.25
412.025	682.25
412.249	698.25
412.472	712.25
412.695	656.25
412.919	656.25
413.142	680.25
413.365	668.25
413.589	679.25
413.812	641.25
414.035	638.25
414.258	667.25
414.482	679.25
414.705	654.25
414.928	664.25
415.151	675.25
415.374	634.25
415.597	649.25
415.821	654.25
416.044	628.25
416.267	644.25
416.49	648.25
416.713	645.25
416.936	649.25
417.159	630.25
417.382	642.25
417.605	631.25
417.828	626.25
418.051	612.25
418.274	620.25
418.497	628.25
418.72	652.25
418.943	655.25
419.166	664.25
419.389	711.25
419.611	696.25
419.834	653.25
420.057	673.25
420.28	666.25
420.503	644.25
420.726	611.25
420.948	621.25
421.171	634.25
421.394	622.25
421.617	620.25
421.839	630.25
422.062	643.25
422.285	638.25
422.507	649.25
422.73	647.25
422.953	623.25
423.175	645.25
423.398	659.25
423.621	633.25
423.843	659.25
424.066	650.25
424.288	641.25
424.511	655.25
424.733	649.25
424.956	633.25
425.178	638.25
425.401	621.25
425.623	645.25
425.846	645.25
426.068	639.25
426.291	624.25
426.513	617.25
426.735	601.25
426.958	589.25
427.18	601.25
427.402	623.25
427.625	620.25
427.847	608.25
428.069	617.25
428.292	619.25
428.514	610.25
428.736	594.25
428.958	593.25
429.181	565.25
429.403	564.25
429.625	582.25
429.847	587.25
430.069	563.25
430.292	588.25
430.514	571.25
430.736	592.25
430.958	620.25
431.18	593.25
431.402	582.25
431.624	562.25
431.846	607.25
432.068	584.25
432.29	595.25
432.512	606.25
432.734	618.25
432.956	600.25
433.178	601.25
433.4	584.25
433.622	603.25
433.844	588.25
434.066	603.25
434.287	609.25
434.509	628.25
434.731	620.25
434.953	650.25
435.175	648.25
435.397	652.25
435.618	629.25
435.84	598.25
436.062	603.25
436.284	597.25
436.505	590.25
436.727	582.25
436.949	606.25
437.17	601.25
437.392	587.25
437.614	587.25
437.835	581.25
438.057	568.25
438.278	568.25
438.5	575.25
438.721	596.25
438.943	573.25
439.165	580.25
439.386	582.25
439.608	589.25
439.829	626.25
440.05	602.25
440.272	608.25
440.493	609.25
440.715	604.25
440.936	629.25
441.158	636.25
441.379	616.25
441.6	665.25
441.822	652.25
442.043	680.25
442.264	635.25
442.486	633.25
442.707	627.25
442.928	666.25
443.149	651.25
443.371	630.25
443.592	643.25
443.813	659.25
444.034	675.25
444.255	680.25
444.476	693.25
444.698	720.25
444.919	701.25
445.14	788.25
445.361	716.25
445.582	696.25
445.803	650.25
446.024	634.25
446.245	628.25
446.466	629.25
446.687	612.25
446.908	612.25
447.129	592.25
447.35	594.25
447.571	600.25
447.792	589.25
448.013	568.25
448.234	563.25
448.455	578.25
448.675	577.25
448.896	546.25
449.117	571.25
449.338	562.25
449.559	557.25
449.779	570.25
450	566.25
450.221	566.25
450.442	541.25
450.662	576.25
450.883	555.25
451.104	545.25
451.324	578.25
451.545	565.25
451.766	566.25
451.986	566.25
452.207	566.25
452.428	561.25
452.648	544.25
452.869	542.25
453.089	537.25
453.31	541.25
453.53	542.25
453.751	521.25
453.971	532.25
454.192	556.25
454.412	497.25
454.633	543.25
454.853	526.25
455.073	522.25
455.294	533.25
455.514	533.25
455.734	505.25
455.955	541.25
456.175	522.25
456.395	513.25
456.616	514.25
456.836	518.25
457.056	541.25
457.276	525.25
457.497	530.25
457.717	532.25
457.937	531.25
458.157	540.25
458.377	551.25
458.598	554.25
458.818	544.25
459.038	573.25
459.258	578.25
459.478	579.25
459.698	587.25
459.918	618.25
460.138	669.25
460.358	640.25
460.578	646.25
460.798	661.25
461.018	660.25
461.238	681.25
461.458	711.25
461.678	683.25
461.898	674.25
462.118	689.25
462.338	706.25
462.558	718.25
462.777	740.25
462.997	763.25
463.217	824.25
463.437	830.25
463.657	802.25
463.876	761.25
464.096	752.25
464.316	762.25
464.536	745.25
464.755	736.25
464.975	745.25
465.195	710.25
465.414	666.25
465.634	648.25
465.854	651.25
466.073	643.25
466.293	616.25
466.512	612.25
466.732	601.25
466.951	589.25
467.171	584.25
467.391	582.25
467.61	582.25
467.829	599.25
468.049	562.25
468.268	585.25
468.488	551.25
468.707	572.25
468.927	567.25
469.146	600.25
469.365	569.25
469.585	568.25
469.804	588.25
470.023	562.25
470.243	590.25
470.462	599.25
470.681	608.25
470.901	606.25
471.12	590.25
471.339	593.25
471.558	586.25
471.777	570.25
471.997	548.25
472.216	580.25
472.435	563.25
472.654	538.25
472.873	544.25
473.092	541.25
473.311	554.25
473.53	550.25
473.749	571.25
473.968	552.25
474.187	547.25
474.406	540.25
474.625	567.25
474.844	568.25
475.063	565.25
475.282	578.25
475.501	565.25
475.72	564.25
475.939	560.25
476.158	580.25
476.377	576.25
476.596	590.25
476.814	581.25
477.033	577.25
477.252	582.25
477.471	596.25
477.69	600.25
477.908	611.25
478.127	617.25
478.346	644.25
478.564	647.25
478.783	664.25
479.002	647.25
479.22	648.25
479.439	672.25
479.658	667.25
479.876	650.25
480.095	671.25
480.313	689.25
480.532	704.25
480.751	693.25
480.969	679.25
481.188	656.25
481.406	668.25
481.624	631.25
481.843	638.25
482.061	636.25
482.28	643.25
482.498	612.25
482.717	612.25
482.935	612.25
483.153	620.25
483.372	610.25
483.59	637.25
483.808	644.25
484.027	639.25
484.245	622.25
484.463	650.25
484.681	646.25
484.9	636.25
485.118	634.25
485.336	666.25
485.554	631.25
485.772	650.25
485.99	658.25
486.209	640.25
486.427	645.25
486.645	651.25
486.863	689.25
487.081	632.25
487.299	647.25
487.517	666.25
487.735	649.25
487.953	652.25
488.171	689.25
488.389	660.25
488.607	650.25
488.825	643.25
489.043	647.25
489.261	614.25
489.479	645.25
489.696	633.25
489.914	641.25
490.132	648.25
490.35	680.25
490.568	658.25
490.786	653.25
491.003	643.25
491.221	680.25
491.439	668.25
491.657	670.25
491.874	652.25
492.092	699.25
492.31	715.25
492.527	692.25
492.745	660.25
492.963	678.25
493.18	679.25
493.398	678.25
493.615	694.25
493.833	692.25
494.05	717.25
494.268	664.25
494.485	682.25
494.703	698.25
494.92	690.25
495.138	706.25
495.355	706.25
495.573	698.25
495.79	705.25
496.008	700.25
496.225	702.25
496.442	712.25
496.66	735.25
496.877	728.25
497.094	770.25
497.312	757.25
497.529	759.25
497.746	793.25
497.963	794.25
498.181	824.25
498.398	850.25
498.615	917.25
498.832	946.25
499.049	983.25
499.267	1044.25
499.484	1130.25
499.701	1178.25
499.918	1298.25
500.135	1430.25
500.352	1546.25
500.569	1587.25
500.786	1540.25
501.003	1492.25
501.22	1394.25
501.437	1305.25
501.654	1176.25
501.871	1130.25
502.088	1029.25
502.305	973.25
502.522	955.25
502.739	934.25
502.956	865.25
503.172	844.25
503.389	820.25
503.606	797.25
503.823	791.25
504.04	764.25
504.256	800.25
504.473	768.25
504.69	803.25
504.907	746.25
505.123	744.25
505.34	697.25
505.557	685.25
505.773	678.25
505.99	658.25
506.207	645.25
506.423	633.25
506.64	635.25
506.856	618.25
507.073	596.25
507.289	621.25
507.506	617.25
507.722	610.25
507.939	609.25
508.155	584.25
508.372	625.25
508.588	604.25
508.805	582.25
509.021	565.25
509.238	580.25
509.454	570.25
509.67	570.25
509.887	586.25
510.103	561.25
510.319	563.25
510.536	566.25
510.752	563.25
510.968	552.25
511.184	552.25
511.401	546.25
511.617	572.25
511.833	544.25
512.049	541.25
512.265	571.25
512.481	564.25
512.698	585.25
512.914	550.25
513.13	570.25
513.346	568.25
513.562	572.25
513.778	586.25
513.994	558.25
514.21	580.25
514.426	570.25
514.642	566.25
514.858	576.25
515.074	555.25
515.29	600.25
515.506	586.25
515.721	598.25
515.937	590.25
516.153	602.25
516.369	617.25
516.585	616.25
516.801	639.25
517.016	644.25
517.232	673.25
517.448	710.25
517.664	672.25
517.879	696.25
518.095	720.25
518.311	693.25
518.527	679.25
518.742	667.25
518.958	650.25
519.173	611.25
519.389	612.25
519.605	610.25
519.82	608.25
520.036	595.25
520.251	598.25
520.467	570.25
520.682	562.25
520.898	548.25
521.113	537.25
521.329	549.25
521.544	550.25
521.76	531.25
521.975	543.25
522.19	556.25
522.406	532.25
522.621	525.25
522.836	529.25
523.052	541.25
523.267	531.25
523.482	539.25
523.698	517.25
523.913	512.25
524.128	519.25
524.343	525.25
524.559	525.25
524.774	504.25
524.989	511.25
525.204	507.25
525.419	518.25
525.634	512.25
525.849	508.25
526.064	498.25
526.28	516.25
526.495	501.25
526.71	504.25
526.925	513.25
527.14	494.25
527.355	512.25
527.57	514.25
527.785	478.25
527.999	477.25
528.214	520.25
528.429	498.25
528.644	512.25
528.859	504.25
529.074	530.25
529.289	514.25
529.503	483.25
529.718	504.25
529.933	498.25
530.148	511.25
530.363	498.25
530.577	479.25
530.792	489.25
531.007	510.25
531.221	495.25
531.436	474.25
531.651	481.25
531.865	504.25
532.08	506.25
532.295	482.25
532.509	496.25
532.724	483.25
532.938	481.25
533.153	502.25
533.367	506.25
533.582	484.25
533.796	473.25
534.011	485.25
534.225	502.25
534.44	484.25
534.654	496.25
534.868	482.25
535.083	487.25
535.297	491.25
535.511	480.25
535.726	489.25
535.94	460.25
536.154	470.25
536.369	466.25
536.583	482.25
536.797	457.25
537.011	468.25
537.225	475.25
537.44	487.25
537.654	498.25
537.868	486.25
538.082	458.25
538.296	468.25
538.51	462.25
538.724	467.25
538.938	479.25
539.153	465.25
539.367	445.25
539.581	449.25
539.795	424.25
540.009	465.25
540.222	465.25
540.436	470.25
540.65	480.25
540.864	444.25
541.078	464.25
541.292	462.25
541.506	473.25
541.72	472.25
541.934	452.25
542.147	479.25
542.361	472.25
542.575	456.25
542.789	466.25
543.002	457.25
543.216	443.25
543.43	452.25
543.644	455.25
543.857	449.25
544.071	460.25
544.285	469.25
544.498	450.25
544.712	470.25
544.925	468.25
545.139	454.25
545.352	465.25
545.566	477.25
545.779	473.25
545.993	471.25
546.206	465.25
546.42	474.25
546.633	437.25
546.847	462.25
547.06	468.25
547.274	451.25
547.487	467.25
547.7	471.25
547.914	480.25
548.127	472.25
548.34	480.25
548.554	473.25
548.767	464.25
548.98	481.25
549.193	459.25
549.407	459.25
549.62	479.25
549.833	480.25
550.046	480.25
550.259	467.25
550.473	460.25
550.686	446.25
550.899	475.25
551.112	445.25
551.325	449.25
551.538	462.25
551.751	469.25
551.964	489.25
552.177	459.25
552.39	457.25
552.603	484.25
552.816	496.25
553.029	476.25
553.242	487.25
553.455	492.25
553.667	499.25
553.88	484.25
554.093	476.25
554.306	473.25
554.519	466.25
554.732	455.25
554.944	463.25
555.157	451.25
555.37	441.25
555.583	458.25
555.795	455.25
556.008	425.25
556.221	421.25
556.433	416.25
556.646	414.25
556.859	411.25
557.071	413.25
557.284	411.25
557.496	420.25
557.709	438.25
557.921	412.25
558.134	416.25
558.346	408.25
558.559	417.25
558.771	376.25
558.984	406.25
559.196	394.25
559.409	396.25
559.621	418.25
559.833	404.25
560.046	399.25
560.258	400.25
560.47	401.25
560.683	391.25
560.895	397.25
561.107	395.25
561.32	379.25
561.532	397.25
561.744	386.25
561.956	379.25
562.168	404.25
562.381	383.25
562.593	395.25
562.805	391.25
563.017	419.25
563.229	400.25
563.441	393.25
563.653	392.25
563.865	393.25
564.077	410.25
564.289	407.25
564.501	417.25
564.713	426.25
564.925	417.25
565.137	451.25
565.349	433.25
565.561	442.25
565.773	456.25
565.985	467.25
566.197	477.25
566.408	488.25
566.62	521.25
566.832	545.25
567.044	561.25
567.255	560.25
567.467	586.25
567.679	566.25
567.891	582.25
568.102	608.25
568.314	576.25
568.526	548.25
568.737	527.25
568.949	470.25
569.161	474.25
569.372	454.25
569.584	433.25
569.795	401.25
570.007	435.25
570.218	409.25
570.43	398.25
570.641	404.25
570.853	403.25
571.064	394.25
571.276	406.25
571.487	376.25
571.698	380.25
571.91	348.25
572.121	346.25
572.333	342.25
572.544	344.25
572.755	344.25
572.966	360.25
573.178	350.25
573.389	334.25
573.6	340.25
573.811	342.25
574.023	349.25
574.234	334.25
574.445	326.25
574.656	321.25
574.867	337.25
575.078	332.25
575.289	310.25
575.501	326.25
575.712	293.25
575.923	296.25
576.134	326.25
576.345	331.25
576.556	323.25
576.767	308.25
576.978	319.25
577.188	312.25
577.399	305.25
577.61	296.25
577.821	293.25
578.032	291.25
578.243	312.25
578.454	312.25
578.665	296.25
578.875	299.25
579.086	309.25
579.297	274.25
579.508	285.25
579.718	304.25
579.929	284.25
580.14	272.25
580.35	298.25
580.561	309.25
580.772	277.25
580.982	295.25
581.193	296.25
581.403	284.25
581.614	285.25
581.825	288.25
582.035	278.25
582.246	282.25
582.456	292.25
582.667	296.25
582.877	294.25
583.087	288.25
583.298	277.25
583.508	283.25
583.719	273.25
583.929	289.25
584.139	284.25
584.35	276.25
584.56	282.25
584.77	289.25
584.981	282.25
585.191	293.25
585.401	269.25
585.611	272.25
585.821	268.25
586.032	284.25
586.242	265.25
586.452	274.25
586.662	277.25
586.872	281.25
587.082	267.25
587.292	267.25
587.502	276.25
587.713	261.25
587.923	265.25
588.133	270.25
588.343	258.25
588.553	296.25
588.762	282.25
588.972	280.25
589.182	275.25
589.392	275.25
589.602	282.25
589.812	281.25
590.022	278.25
590.232	276.25
590.441	273.25
590.651	278.25
590.861	269.25
591.071	271.25
591.281	284.25
591.49	288.25
591.7	305.25
591.91	295.25
592.119	276.25
592.329	296.25
592.539	275.25
592.748	317.25
592.958	313.25
593.167	301.25
593.377	307.25
593.587	324.25
593.796	319.25
594.006	311.25
594.215	343.25
594.424	306.25
594.634	308.25
594.843	297.25
595.053	299.25
595.262	295.25
595.472	288.25
595.681	267.25
595.89	274.25
596.1	266.25
596.309	258.25
596.518	264.25
596.727	279.25
596.937	259.25
597.146	256.25
597.355	256.25
597.564	253.25
597.774	240.25
597.983	273.25
598.192	239.25
598.401	237.25
598.61	229.25
598.819	240.25
599.028	226.25
599.237	236.25
599.446	234.25
599.655	226.25
599.864	217.25
600.073	242.25
600.282	237.25
600.491	238.25
600.7	234.25
600.909	240.25
601.118	236.25
601.327	237.25
601.536	247.25
601.745	236.25
601.953	244.25
602.162	240.25
602.371	240.25
602.58	243.25
602.789	224.25
602.997	226.25
603.206	225.25
603.415	226.25
603.623	231.25
603.832	224.25
604.041	229.25
604.249	205.25
604.458	225.25
604.666	219.25
604.875	222.25
605.084	218.25
605.292	225.25
605.501	225.25
605.709	222.25
605.918	209.25
606.126	215.25
606.334	224.25
606.543	230.25
606.751	236.25
606.96	229.25
607.168	210.25
607.376	228.25
607.585	228.25
607.793	225.25
608.001	217.25
608.21	219.25
608.418	205.25
608.626	220.25
608.834	211.25
609.043	216.25
609.251	212.25
609.459	202.25
609.667	215.25
609.875	208.25
610.083	220.25
610.291	217.25
610.499	200.25
610.707	220.25
610.916	193.25
611.124	221.25
611.332	204.25
611.54	244.25
611.748	220.25
611.955	213.25
612.163	212.25
612.371	217.25
612.579	204.25
612.787	218.25
612.995	210.25
613.203	224.25
613.411	209.25
613.618	222.25
613.826	204.25
614.034	212.25
614.242	202.25
614.449	212.25
614.657	195.25
614.865	201.25
615.072	222.25
615.28	220.25
615.488	190.25
615.695	209.25
615.903	211.25
616.111	201.25
616.318	213.25
616.526	219.25
616.733	203.25
616.941	206.25
617.148	189.25
617.356	200.25
617.563	214.25
617.771	204.25
617.978	205.25
618.185	203.25
618.393	203.25
618.6	197.25
618.807	212.25
619.015	199.25
619.222	198.25
619.429	201.25
619.637	206.25
619.844	202.25
620.051	198.25
620.258	196.25
620.466	198.25
620.673	195.25
620.88	185.25
621.087	198.25
621.294	205.25
621.501	199.25
621.708	189.25
621.915	197.25
622.122	184.25
622.329	187.25
622.536	208.25
622.743	195.25
622.95	210.25
623.157	192.25
623.364	171.25
623.571	184.25
623.778	210.25
623.985	187.25
624.192	195.25
624.399	187.25
624.606	194.25
624.812	199.25
625.019	193.25
625.226	203.25
625.433	202.25
625.639	209.25
625.846	192.25
626.053	171.25
626.259	186.25
626.466	182.25
626.673	186.25
626.879	168.25
627.086	188.25
627.293	188.25
627.499	176.25
627.706	194.25
627.912	188.25
628.119	202.25
628.325	174.25
628.532	182.25
628.738	183.25
628.945	185.25
629.151	192.25
629.357	181.25
629.564	191.25
629.77	182.25
629.976	180.25
630.183	185.25
630.389	169.25
630.595	178.25
630.802	180.25
631.008	170.25
631.214	154.25
631.42	153.25
631.627	178.25
631.833	171.25
632.039	169.25
632.245	180.25
632.451	168.25
632.657	173.25
632.863	170.25
633.069	172.25
633.275	173.25
633.481	168.25
633.688	165.25
633.893	163.25
634.099	179.25
634.305	169.25
634.511	156.25
634.717	165.25
634.923	158.25
635.129	161.25
635.335	159.25
635.541	165.25
635.747	165.25
635.952	159.25
636.158	165.25
636.364	156.25
636.57	167.25
636.775	168.25
636.981	171.25
637.187	162.25
637.392	153.25
637.598	170.25
637.804	172.25
638.009	158.25
638.215	161.25
638.421	143.25
638.626	162.25
638.832	160.25
639.037	168.25
639.243	161.25
639.448	165.25
639.654	156.25
639.859	165.25
640.065	160.25
640.27	152.25
640.475	157.25
640.681	165.25
640.886	164.25
641.091	168.25
641.297	167.25
641.502	160.25
641.707	167.25
641.913	163.25
642.118	149.25
642.323	149.25
642.528	160.25
642.733	158.25
642.939	171.25
643.144	155.25
643.349	145.25
643.554	168.25
643.759	142.25
643.964	149.25
644.169	142.25
644.374	136.25
644.579	129.25
644.784	170.25
644.989	152.25
645.194	162.25
645.399	143.25
645.604	141.25
645.809	139.25
646.014	155.25
646.219	151.25
646.423	154.25
646.628	158.25
646.833	149.25
647.038	162.25
647.243	162.25
647.447	163.25
647.652	156.25
647.857	161.25
648.062	152.25
648.266	156.25
648.471	149.25
648.676	164.25
648.88	151.25
649.085	156.25
649.289	166.25
649.494	144.25
649.698	154.25
649.903	155.25
650.107	159.25
650.312	143.25
650.516	151.25
650.721	153.25
650.925	140.25
651.13	146.25
651.334	140.25
651.539	154.25
651.743	148.25
651.947	147.25
652.152	149.25
652.356	150.25
652.56	145.25
652.764	136.25
652.969	148.25
653.173	126.25
653.377	122.25
653.581	139.25
653.785	142.25
653.99	141.25
654.194	140.25
654.398	124.25
654.602	126.25
654.806	122.25
655.01	132.25
655.214	131.25
655.418	133.25
655.622	121.25
655.826	130.25
656.03	128.25
656.234	114.25
656.438	124.25
656.642	114.25
656.846	124.25
657.049	112.25
657.253	110.25
657.457	109.25
657.661	129.25
657.865	118.25
658.068	126.25
658.272	123.25
658.476	114.25
658.68	110.25
658.883	98.25
659.087	102.25
659.291	97.25
659.494	91.25
659.698	93.25
659.901	107.25
660.105	104.25
660.309	92.25
660.512	95.25
660.716	100.25
660.919	97.25
661.123	93.25
661.326	92.25
661.53	87.25
661.733	91.25
661.936	87.25
662.14	101.25
662.343	79.25
662.546	92.25
662.75	92.25
662.953	89.25
663.156	79.25
663.36	96.25
663.563	80.25
663.766	94.25
663.969	91.25
664.173	76.25
664.376	89.25
664.579	91.25
664.782	100.25
664.985	90.25
665.188	88.25
665.391	81.25
665.594	70.25
665.797	85.25
666	88.25
666.203	80.25
666.406	93.25
666.609	87.25
666.812	85.25
667.015	97.25
667.218	78.25
667.421	83.25
667.624	82.25
667.827	81.25
668.03	80.25
668.232	74.25
668.435	83.25
668.638	72.25
668.841	89.25
669.043	68.25
669.246	75.25
669.449	79.25
669.651	92.25
669.854	77.25
670.057	90.25
670.259	78.25
670.462	74.25
670.665	94.25
670.867	76.25
671.07	96.25
671.272	87.25
671.475	97.25
671.677	78.25
671.88	82.25
672.082	100.25
672.284	91.25
672.487	93.25
672.689	82.25
672.892	74.25
