Data from Fe(NO3)3@0.1M.TitratingCurve.Agarose3%dH2O.NegLispCup.LampEnergy10.LIBS07252019_HRD10591_16-38-25-332.txt Node
Date: Thu Jul 25 16:38:25 EDT 2019
User: cochatt
Spectrometer: HR+D1059
Trigger mode: 1
Integration Time (sec): 1.000000E-1
Scans to average: 1
Electric dark correction enabled: true
Nonlinearity correction enabled: false
Boxcar width: 0
XAxis mode: Wavelengths
Number of Pixels in Spectrum: 2048
>>>>>Begin Spectral Data<<<<<
223.165	-11.62
223.4	-11.62
223.635	-11.62
223.869	-24.62
224.104	-15.62
224.338	3.38
224.573	-10.62
224.808	-8.62
225.042	-15.62
225.277	-23.62
225.511	-10.62
225.746	21.38
225.98	6.38
226.215	12.38
226.449	11.38
226.683	15.38
226.918	13.38
227.152	37.38
227.387	28.38
227.621	26.38
227.856	44.38
228.09	37.38
228.324	48.38
228.559	62.38
228.793	61.38
229.027	75.38
229.262	81.38
229.496	91.38
229.73	90.38
229.964	98.38
230.199	88.38
230.433	111.38
230.667	97.38
230.901	98.38
231.136	84.38
231.37	90.38
231.604	87.38
231.838	114.38
232.072	107.38
232.306	111.38
232.541	113.38
232.775	108.38
233.009	112.38
233.243	102.38
233.477	109.38
233.711	105.38
233.945	102.38
234.179	96.38
234.413	118.38
234.647	116.38
234.881	107.38
235.115	119.38
235.349	107.38
235.583	112.38
235.817	96.38
236.051	106.38
236.285	99.38
236.519	108.38
236.753	99.38
236.987	116.38
237.221	102.38
237.455	89.38
237.689	115.38
237.922	123.38
238.156	111.38
238.39	102.38
238.624	100.38
238.858	127.38
239.091	109.38
239.325	117.38
239.559	106.38
239.793	104.38
240.027	120.38
240.26	111.38
240.494	113.38
240.728	103.38
240.961	121.38
241.195	113.38
241.429	131.38
241.662	116.38
241.896	117.38
242.13	112.38
242.363	114.38
242.597	127.38
242.83	135.38
243.064	124.38
243.298	126.38
243.531	120.38
243.765	123.38
243.998	121.38
244.232	137.38
244.465	120.38
244.699	127.38
244.932	133.38
245.166	118.38
245.399	125.38
245.633	132.38
245.866	140.38
246.099	140.38
246.333	144.38
246.566	131.38
246.8	133.38
247.033	122.38
247.266	127.38
247.5	111.38
247.733	140.38
247.966	144.38
248.2	143.38
248.433	135.38
248.666	127.38
248.899	139.38
249.133	137.38
249.366	159.38
249.599	129.38
249.832	150.38
250.066	146.38
250.299	147.38
250.532	154.38
250.765	139.38
250.998	136.38
251.231	139.38
251.465	143.38
251.698	151.38
251.931	151.38
252.164	161.38
252.397	140.38
252.63	146.38
252.863	153.38
253.096	150.38
253.329	157.38
253.562	149.38
253.795	162.38
254.028	158.38
254.261	158.38
254.494	162.38
254.727	152.38
254.96	165.38
255.193	163.38
255.426	165.38
255.659	155.38
255.892	148.38
256.124	157.38
256.357	164.38
256.59	171.38
256.823	145.38
257.056	156.38
257.289	178.38
257.521	173.38
257.754	164.38
257.987	161.38
258.22	164.38
258.452	162.38
258.685	170.38
258.918	171.38
259.151	167.38
259.383	167.38
259.616	148.38
259.849	164.38
260.081	177.38
260.314	166.38
260.547	169.38
260.779	193.38
261.012	170.38
261.244	163.38
261.477	183.38
261.71	170.38
261.942	163.38
262.175	176.38
262.407	177.38
262.64	182.38
262.872	182.38
263.105	185.38
263.337	184.38
263.57	181.38
263.802	168.38
264.035	189.38
264.267	173.38
264.499	186.38
264.732	191.38
264.964	175.38
265.197	178.38
265.429	177.38
265.661	184.38
265.894	189.38
266.126	195.38
266.358	195.38
266.591	186.38
266.823	196.38
267.055	181.38
267.287	166.38
267.52	191.38
267.752	199.38
267.984	181.38
268.216	189.38
268.448	208.38
268.681	195.38
268.913	172.38
269.145	190.38
269.377	194.38
269.609	183.38
269.841	198.38
270.073	184.38
270.306	202.38
270.538	212.38
270.77	195.38
271.002	210.38
271.234	208.38
271.466	199.38
271.698	208.38
271.93	216.38
272.162	187.38
272.394	211.38
272.626	199.38
272.858	191.38
273.09	215.38
273.322	207.38
273.553	201.38
273.785	216.38
274.017	229.38
274.249	199.38
274.481	223.38
274.713	204.38
274.945	228.38
275.176	231.38
275.408	214.38
275.64	201.38
275.872	213.38
276.104	202.38
276.335	212.38
276.567	227.38
276.799	208.38
277.031	219.38
277.262	224.38
277.494	235.38
277.726	218.38
277.957	220.38
278.189	220.38
278.421	220.38
278.652	222.38
278.884	222.38
279.115	219.38
279.347	226.38
279.579	220.38
279.81	223.38
280.042	231.38
280.273	233.38
280.505	252.38
280.736	224.38
280.968	239.38
281.199	223.38
281.431	236.38
281.662	255.38
281.894	220.38
282.125	257.38
282.356	248.38
282.588	239.38
282.819	231.38
283.051	237.38
283.282	227.38
283.513	236.38
283.745	230.38
283.976	241.38
284.207	216.38
284.439	227.38
284.67	234.38
284.901	230.38
285.132	231.38
285.364	229.38
285.595	231.38
285.826	259.38
286.057	248.38
286.288	255.38
286.52	249.38
286.751	227.38
286.982	248.38
287.213	251.38
287.444	247.38
287.675	256.38
287.906	252.38
288.138	249.38
288.369	264.38
288.6	264.38
288.831	263.38
289.062	247.38
289.293	256.38
289.524	272.38
289.755	259.38
289.986	245.38
290.217	235.38
290.448	261.38
290.679	263.38
290.91	265.38
291.141	257.38
291.371	270.38
291.602	263.38
291.833	266.38
292.064	272.38
292.295	265.38
292.526	254.38
292.757	261.38
292.987	263.38
293.218	253.38
293.449	275.38
293.68	260.38
293.91	266.38
294.141	265.38
294.372	256.38
294.603	249.38
294.833	287.38
295.064	267.38
295.295	267.38
295.525	267.38
295.756	262.38
295.987	273.38
296.217	271.38
296.448	269.38
296.679	260.38
296.909	269.38
297.14	255.38
297.37	267.38
297.601	298.38
297.831	258.38
298.062	264.38
298.292	287.38
298.523	293.38
298.753	262.38
298.984	262.38
299.214	267.38
299.445	264.38
299.675	280.38
299.905	304.38
300.136	297.38
300.366	269.38
300.597	272.38
300.827	290.38
301.057	292.38
301.288	283.38
301.518	274.38
301.748	290.38
301.979	291.38
302.209	293.38
302.439	278.38
302.669	288.38
302.9	284.38
303.13	279.38
303.36	282.38
303.59	282.38
303.82	312.38
304.051	311.38
304.281	301.38
304.511	266.38
304.741	285.38
304.971	314.38
305.201	294.38
305.431	292.38
305.661	291.38
305.891	292.38
306.121	293.38
306.352	285.38
306.582	268.38
306.812	295.38
307.042	298.38
307.272	289.38
307.502	293.38
307.731	288.38
307.961	302.38
308.191	282.38
308.421	296.38
308.651	298.38
308.881	270.38
309.111	299.38
309.341	287.38
309.571	284.38
309.8	275.38
310.03	295.38
310.26	289.38
310.49	287.38
310.72	293.38
310.949	287.38
311.179	276.38
311.409	292.38
311.639	305.38
311.868	307.38
312.098	301.38
312.328	300.38
312.557	297.38
312.787	291.38
313.017	302.38
313.246	294.38
313.476	313.38
313.706	313.38
313.935	316.38
314.165	325.38
314.394	319.38
314.624	329.38
314.853	306.38
315.083	311.38
315.312	282.38
315.542	300.38
315.771	316.38
316.001	326.38
316.23	305.38
316.46	304.38
316.689	295.38
316.919	296.38
317.148	295.38
317.377	313.38
317.607	294.38
317.836	297.38
318.065	298.38
318.295	291.38
318.524	291.38
318.753	310.38
318.983	328.38
319.212	307.38
319.441	291.38
319.67	309.38
319.9	303.38
320.129	298.38
320.358	287.38
320.587	304.38
320.816	311.38
321.046	304.38
321.275	313.38
321.504	314.38
321.733	313.38
321.962	298.38
322.191	307.38
322.42	320.38
322.649	309.38
322.878	296.38
323.108	317.38
323.337	318.38
323.566	292.38
323.795	329.38
324.024	327.38
324.253	318.38
324.482	326.38
324.71	309.38
324.939	329.38
325.168	305.38
325.397	324.38
325.626	326.38
325.855	341.38
326.084	318.38
326.313	339.38
326.542	324.38
326.77	344.38
326.999	350.38
327.228	332.38
327.457	337.38
327.686	339.38
327.914	334.38
328.143	338.38
328.372	324.38
328.6	354.38
328.829	330.38
329.058	326.38
329.287	343.38
329.515	330.38
329.744	335.38
329.972	337.38
330.201	327.38
330.43	342.38
330.658	342.38
330.887	343.38
331.115	351.38
331.344	348.38
331.572	350.38
331.801	351.38
332.03	355.38
332.258	374.38
332.486	357.38
332.715	369.38
332.943	413.38
333.172	394.38
333.4	412.38
333.629	411.38
333.857	426.38
334.085	432.38
334.314	418.38
334.542	430.38
334.771	432.38
334.999	399.38
335.227	413.38
335.455	409.38
335.684	389.38
335.912	401.38
336.14	407.38
336.369	392.38
336.597	407.38
336.825	376.38
337.053	404.38
337.281	375.38
337.51	381.38
337.738	397.38
337.966	387.38
338.194	372.38
338.422	387.38
338.65	382.38
338.878	396.38
339.106	365.38
339.334	361.38
339.562	348.38
339.79	335.38
340.018	357.38
340.246	356.38
340.474	355.38
340.702	337.38
340.93	335.38
341.158	361.38
341.386	354.38
341.614	355.38
341.842	354.38
342.07	376.38
342.298	369.38
342.526	338.38
342.754	327.38
342.981	346.38
343.209	330.38
343.437	351.38
343.665	385.38
343.893	387.38
344.12	410.38
344.348	395.38
344.576	386.38
344.804	375.38
345.031	355.38
345.259	349.38
345.487	336.38
345.714	357.38
345.942	370.38
346.17	341.38
346.397	335.38
346.625	358.38
346.853	328.38
347.08	339.38
347.308	345.38
347.535	344.38
347.763	339.38
347.99	352.38
348.218	348.38
348.445	344.38
348.673	342.38
348.9	348.38
349.128	334.38
349.355	326.38
349.583	338.38
349.81	342.38
350.037	328.38
350.265	328.38
350.492	337.38
350.72	322.38
350.947	335.38
351.174	316.38
351.402	339.38
351.629	328.38
351.856	333.38
352.083	348.38
352.311	356.38
352.538	343.38
352.765	341.38
352.992	337.38
353.22	327.38
353.447	331.38
353.674	321.38
353.901	339.38
354.128	327.38
354.355	315.38
354.583	337.38
354.81	335.38
355.037	323.38
355.264	351.38
355.491	333.38
355.718	336.38
355.945	338.38
356.172	328.38
356.399	337.38
356.626	339.38
356.853	349.38
357.08	327.38
357.307	333.38
357.534	346.38
357.761	340.38
357.988	347.38
358.215	339.38
358.441	339.38
358.668	326.38
358.895	327.38
359.122	337.38
359.349	323.38
359.576	323.38
359.802	319.38
360.029	352.38
360.256	317.38
360.483	331.38
360.709	319.38
360.936	337.38
361.163	336.38
361.39	337.38
361.616	333.38
361.843	331.38
362.07	338.38
362.296	346.38
362.523	340.38
362.749	340.38
362.976	351.38
363.203	347.38
363.429	345.38
363.656	331.38
363.882	337.38
364.109	332.38
364.335	321.38
364.562	337.38
364.788	353.38
365.015	337.38
365.241	313.38
365.468	332.38
365.694	323.38
365.92	353.38
366.147	330.38
366.373	341.38
366.599	330.38
366.826	325.38
367.052	355.38
367.278	336.38
367.505	322.38
367.731	337.38
367.957	340.38
368.184	356.38
368.41	347.38
368.636	356.38
368.862	346.38
369.089	343.38
369.315	335.38
369.541	358.38
369.767	362.38
369.993	354.38
370.219	344.38
370.445	358.38
370.672	338.38
370.898	344.38
371.124	361.38
371.35	348.38
371.576	372.38
371.802	360.38
372.028	364.38
372.254	378.38
372.48	360.38
372.706	383.38
372.932	389.38
373.158	380.38
373.384	379.38
373.61	373.38
373.835	373.38
374.061	373.38
374.287	368.38
374.513	375.38
374.739	386.38
374.965	394.38
375.191	408.38
375.416	417.38
375.642	381.38
375.868	381.38
376.094	365.38
376.319	377.38
376.545	375.38
376.771	368.38
376.997	373.38
377.222	357.38
377.448	364.38
377.674	373.38
377.899	361.38
378.125	367.38
378.35	379.38
378.576	354.38
378.802	362.38
379.027	374.38
379.253	379.38
379.478	373.38
379.704	359.38
379.929	383.38
380.155	377.38
380.38	360.38
380.606	391.38
380.831	352.38
381.057	354.38
381.282	351.38
381.507	364.38
381.733	362.38
381.958	367.38
382.184	393.38
382.409	382.38
382.634	389.38
382.86	385.38
383.085	392.38
383.31	397.38
383.535	401.38
383.761	377.38
383.986	431.38
384.211	425.38
384.436	417.38
384.662	438.38
384.887	454.38
385.112	432.38
385.337	443.38
385.562	459.38
385.787	433.38
386.013	422.38
386.238	429.38
386.463	433.38
386.688	437.38
386.913	449.38
387.138	441.38
387.363	435.38
387.588	437.38
387.813	439.38
388.038	425.38
388.263	438.38
388.488	441.38
388.713	441.38
388.938	446.38
389.163	443.38
389.387	439.38
389.612	435.38
389.837	420.38
390.062	432.38
390.287	445.38
390.512	438.38
390.736	439.38
390.961	440.38
391.186	447.38
391.411	455.38
391.636	479.38
391.86	487.38
392.085	530.38
392.31	490.38
392.534	474.38
392.759	440.38
392.984	459.38
393.208	453.38
393.433	479.38
393.658	456.38
393.882	462.38
394.107	464.38
394.331	469.38
394.556	468.38
394.78	468.38
395.005	455.38
395.229	446.38
395.454	473.38
395.678	482.38
395.903	497.38
396.127	481.38
396.352	484.38
396.576	464.38
396.801	470.38
397.025	497.38
397.249	505.38
397.474	495.38
397.698	478.38
397.922	507.38
398.147	493.38
398.371	481.38
398.595	514.38
398.82	523.38
399.044	551.38
399.268	593.38
399.492	675.38
399.717	731.38
399.941	724.38
400.165	688.38
400.389	645.38
400.613	577.38
400.837	569.38
401.062	554.38
401.286	549.38
401.51	520.38
401.734	533.38
401.958	555.38
402.182	554.38
402.406	541.38
402.63	561.38
402.854	574.38
403.078	577.38
403.302	593.38
403.526	579.38
403.75	593.38
403.974	604.38
404.198	590.38
404.422	605.38
404.645	617.38
404.869	589.38
405.093	584.38
405.317	556.38
405.541	595.38
405.765	583.38
405.988	596.38
406.212	587.38
406.436	580.38
406.66	627.38
406.883	605.38
407.107	633.38
407.331	665.38
407.555	675.38
407.778	689.38
408.002	673.38
408.226	651.38
408.449	665.38
408.673	621.38
408.896	585.38
409.12	595.38
409.344	594.38
409.567	616.38
409.791	597.38
410.014	590.38
410.238	596.38
410.461	615.38
410.685	585.38
410.908	560.38
411.132	576.38
411.355	549.38
411.578	571.38
411.802	544.38
412.025	569.38
412.249	560.38
412.472	582.38
412.695	575.38
412.919	543.38
413.142	563.38
413.365	552.38
413.589	550.38
413.812	555.38
414.035	538.38
414.258	546.38
414.482	544.38
414.705	537.38
414.928	574.38
415.151	551.38
415.374	565.38
415.597	551.38
415.821	551.38
416.044	554.38
416.267	536.38
416.49	559.38
416.713	526.38
416.936	545.38
417.159	536.38
417.382	523.38
417.605	525.38
417.828	549.38
418.051	528.38
418.274	538.38
418.497	523.38
418.72	553.38
418.943	547.38
419.166	590.38
419.389	619.38
419.611	607.38
419.834	581.38
420.057	560.38
420.28	567.38
420.503	518.38
420.726	528.38
420.948	535.38
421.171	536.38
421.394	511.38
421.617	555.38
421.839	552.38
422.062	544.38
422.285	529.38
422.507	547.38
422.73	516.38
422.953	536.38
423.175	555.38
423.398	553.38
423.621	557.38
423.843	551.38
424.066	564.38
424.288	551.38
424.511	544.38
424.733	539.38
424.956	547.38
425.178	547.38
425.401	556.38
425.623	528.38
425.846	515.38
426.068	530.38
426.291	525.38
426.513	515.38
426.735	510.38
426.958	523.38
427.18	521.38
427.402	502.38
427.625	489.38
427.847	497.38
428.069	497.38
428.292	500.38
428.514	485.38
428.736	481.38
428.958	489.38
429.181	492.38
429.403	491.38
429.625	484.38
429.847	500.38
430.069	480.38
430.292	487.38
430.514	495.38
430.736	469.38
430.958	484.38
431.18	503.38
431.402	505.38
431.624	489.38
431.846	473.38
432.068	482.38
432.29	501.38
432.512	502.38
432.734	491.38
432.956	512.38
433.178	485.38
433.4	505.38
433.622	499.38
433.844	486.38
434.066	495.38
434.287	525.38
434.509	499.38
434.731	535.38
434.953	539.38
435.175	522.38
435.397	539.38
435.618	515.38
435.84	484.38
436.062	497.38
436.284	515.38
436.505	504.38
436.727	523.38
436.949	487.38
437.17	487.38
437.392	484.38
437.614	491.38
437.835	467.38
438.057	460.38
438.278	486.38
438.5	470.38
438.721	469.38
438.943	471.38
439.165	484.38
439.386	490.38
439.608	487.38
439.829	481.38
440.05	503.38
440.272	486.38
440.493	505.38
440.715	512.38
440.936	511.38
441.158	500.38
441.379	516.38
441.6	535.38
441.822	526.38
442.043	540.38
442.264	525.38
442.486	515.38
442.707	525.38
442.928	535.38
443.149	519.38
443.371	542.38
443.592	534.38
443.813	518.38
444.034	545.38
444.255	551.38
444.476	575.38
444.698	597.38
444.919	604.38
445.14	693.38
445.361	623.38
445.582	564.38
445.803	529.38
446.024	511.38
446.245	510.38
446.466	530.38
446.687	487.38
446.908	487.38
447.129	497.38
447.35	468.38
447.571	474.38
447.792	470.38
448.013	455.38
448.234	462.38
448.455	476.38
448.675	461.38
448.896	460.38
449.117	450.38
449.338	445.38
449.559	439.38
449.779	439.38
450	461.38
450.221	437.38
450.442	455.38
450.662	459.38
450.883	463.38
451.104	471.38
451.324	471.38
451.545	464.38
451.766	454.38
451.986	449.38
452.207	449.38
452.428	462.38
452.648	435.38
452.869	448.38
453.089	420.38
453.31	438.38
453.53	427.38
453.751	444.38
453.971	432.38
454.192	432.38
454.412	417.38
454.633	431.38
454.853	418.38
455.073	431.38
455.294	427.38
455.514	442.38
455.734	424.38
455.955	425.38
456.175	425.38
456.395	420.38
456.616	423.38
456.836	431.38
457.056	431.38
457.276	435.38
457.497	433.38
457.717	418.38
457.937	429.38
458.157	426.38
458.377	461.38
458.598	448.38
458.818	450.38
459.038	476.38
459.258	473.38
459.478	489.38
459.698	505.38
459.918	499.38
460.138	526.38
460.358	565.38
460.578	564.38
460.798	557.38
461.018	549.38
461.238	552.38
461.458	549.38
461.678	565.38
461.898	573.38
462.118	590.38
462.338	595.38
462.558	600.38
462.777	618.38
462.997	677.38
463.217	682.38
463.437	701.38
463.657	649.38
463.876	646.38
464.096	624.38
464.316	634.38
464.536	648.38
464.755	630.38
464.975	602.38
465.195	557.38
465.414	545.38
465.634	533.38
465.854	507.38
466.073	501.38
466.293	486.38
466.512	471.38
466.732	481.38
466.951	495.38
467.171	480.38
467.391	475.38
467.61	486.38
467.829	485.38
468.049	463.38
468.268	464.38
468.488	464.38
468.707	465.38
468.927	432.38
469.146	473.38
469.365	444.38
469.585	486.38
469.804	487.38
470.023	466.38
470.243	478.38
470.462	487.38
470.681	471.38
470.901	481.38
471.12	459.38
471.339	457.38
471.558	462.38
471.777	458.38
471.997	452.38
472.216	468.38
472.435	455.38
472.654	449.38
472.873	457.38
473.092	445.38
473.311	443.38
473.53	436.38
473.749	452.38
473.968	453.38
474.187	451.38
474.406	441.38
474.625	453.38
474.844	462.38
475.063	454.38
475.282	447.38
475.501	440.38
475.72	452.38
475.939	483.38
476.158	476.38
476.377	460.38
476.596	466.38
476.814	486.38
477.033	472.38
477.252	490.38
477.471	505.38
477.69	488.38
477.908	505.38
478.127	513.38
478.346	526.38
478.564	536.38
478.783	524.38
479.002	544.38
479.22	555.38
479.439	532.38
479.658	554.38
479.876	551.38
480.095	548.38
480.313	589.38
480.532	569.38
480.751	555.38
480.969	541.38
481.188	526.38
481.406	543.38
481.624	528.38
481.843	497.38
482.061	519.38
482.28	522.38
482.498	507.38
482.717	507.38
482.935	499.38
483.153	500.38
483.372	523.38
483.59	522.38
483.808	509.38
484.027	500.38
484.245	509.38
484.463	502.38
484.681	528.38
484.9	538.38
485.118	513.38
485.336	528.38
485.554	508.38
485.772	522.38
485.99	519.38
486.209	550.38
486.427	524.38
486.645	536.38
486.863	531.38
487.081	518.38
487.299	523.38
487.517	537.38
487.735	517.38
487.953	513.38
488.171	551.38
488.389	523.38
488.607	529.38
488.825	523.38
489.043	535.38
489.261	536.38
489.479	548.38
489.696	509.38
489.914	533.38
490.132	526.38
490.35	545.38
490.568	550.38
490.786	525.38
491.003	539.38
491.221	522.38
491.439	533.38
491.657	538.38
491.874	547.38
492.092	554.38
492.31	533.38
492.527	533.38
492.745	556.38
492.963	540.38
493.18	563.38
493.398	564.38
493.615	554.38
493.833	563.38
494.05	581.38
494.268	569.38
494.485	566.38
494.703	555.38
494.92	567.38
495.138	569.38
495.355	564.38
495.573	575.38
495.79	554.38
496.008	579.38
496.225	575.38
496.442	595.38
496.66	586.38
496.877	593.38
497.094	592.38
497.312	609.38
497.529	617.38
497.746	635.38
497.963	644.38
498.181	681.38
498.398	691.38
498.615	756.38
498.832	754.38
499.049	836.38
499.267	877.38
499.484	927.38
499.701	1012.38
499.918	1105.38
500.135	1215.38
500.352	1322.38
500.569	1398.38
500.786	1372.38
501.003	1287.38
501.22	1193.38
501.437	1067.38
501.654	975.38
501.871	932.38
502.088	866.38
502.305	776.38
502.522	772.38
502.739	752.38
502.956	700.38
503.172	668.38
503.389	653.38
503.606	633.38
503.823	645.38
504.04	627.38
504.256	641.38
504.473	649.38
504.69	665.38
504.907	652.38
505.123	596.38
505.34	578.38
505.557	563.38
505.773	548.38
505.99	551.38
506.207	526.38
506.423	524.38
506.64	496.38
506.856	489.38
507.073	480.38
507.289	495.38
507.506	509.38
507.722	499.38
507.939	479.38
508.155	481.38
508.372	486.38
508.588	488.38
508.805	488.38
509.021	488.38
509.238	500.38
509.454	485.38
509.67	467.38
509.887	452.38
510.103	465.38
510.319	454.38
510.536	451.38
510.752	467.38
510.968	450.38
511.184	490.38
511.401	459.38
511.617	487.38
511.833	461.38
512.049	452.38
512.265	450.38
512.481	479.38
512.698	438.38
512.914	459.38
513.13	469.38
513.346	460.38
513.562	472.38
513.778	478.38
513.994	436.38
514.21	449.38
514.426	464.38
514.642	487.38
514.858	479.38
515.074	489.38
515.29	485.38
515.506	470.38
515.721	492.38
515.937	490.38
516.153	481.38
516.369	523.38
516.585	532.38
516.801	539.38
517.016	563.38
517.232	559.38
517.448	565.38
517.664	614.38
517.879	595.38
518.095	591.38
518.311	570.38
518.527	593.38
518.742	559.38
518.958	550.38
519.173	513.38
519.389	511.38
519.605	495.38
519.82	489.38
520.036	490.38
520.251	480.38
520.467	454.38
520.682	474.38
520.898	467.38
521.113	472.38
521.329	464.38
521.544	465.38
521.76	460.38
521.975	444.38
522.19	455.38
522.406	443.38
522.621	431.38
522.836	429.38
523.052	427.38
523.267	427.38
523.482	440.38
523.698	451.38
523.913	440.38
524.128	449.38
524.343	415.38
524.559	431.38
524.774	431.38
524.989	436.38
525.204	405.38
525.419	419.38
525.634	416.38
525.849	405.38
526.064	427.38
526.28	420.38
526.495	406.38
526.71	423.38
526.925	423.38
527.14	421.38
527.355	403.38
527.57	428.38
527.785	459.38
527.999	435.38
528.214	425.38
528.429	417.38
528.644	419.38
528.859	413.38
529.074	404.38
529.289	425.38
529.503	417.38
529.718	408.38
529.933	417.38
530.148	409.38
530.363	417.38
530.577	402.38
530.792	409.38
531.007	412.38
531.221	408.38
531.436	409.38
531.651	403.38
531.865	418.38
532.08	404.38
532.295	402.38
532.509	408.38
532.724	405.38
532.938	387.38
533.153	426.38
533.367	428.38
533.582	410.38
533.796	418.38
534.011	423.38
534.225	404.38
534.44	425.38
534.654	401.38
534.868	416.38
535.083	408.38
535.297	409.38
535.511	409.38
535.726	416.38
535.94	415.38
536.154	406.38
536.369	399.38
536.583	389.38
536.797	389.38
537.011	380.38
537.225	397.38
537.44	376.38
537.654	401.38
537.868	392.38
538.082	384.38
538.296	380.38
538.51	378.38
538.724	393.38
538.938	384.38
539.153	372.38
539.367	386.38
539.581	393.38
539.795	387.38
540.009	385.38
540.222	392.38
540.436	379.38
540.65	379.38
540.864	379.38
541.078	390.38
541.292	385.38
541.506	385.38
541.72	372.38
541.934	378.38
542.147	372.38
542.361	365.38
542.575	377.38
542.789	385.38
543.002	356.38
543.216	371.38
543.43	381.38
543.644	380.38
543.857	363.38
544.071	375.38
544.285	381.38
544.498	386.38
544.712	389.38
544.925	381.38
545.139	403.38
545.352	383.38
545.566	391.38
545.779	381.38
545.993	395.38
546.206	377.38
546.42	370.38
546.633	373.38
546.847	379.38
547.06	375.38
547.274	392.38
547.487	388.38
547.7	383.38
547.914	403.38
548.127	403.38
548.34	376.38
548.554	379.38
548.767	389.38
548.98	413.38
549.193	383.38
549.407	393.38
549.62	396.38
549.833	400.38
550.046	405.38
550.259	408.38
550.473	393.38
550.686	393.38
550.899	388.38
551.112	376.38
551.325	393.38
551.538	385.38
551.751	377.38
551.964	391.38
552.177	386.38
552.39	379.38
552.603	401.38
552.816	416.38
553.029	374.38
553.242	401.38
553.455	412.38
553.667	404.38
553.88	408.38
554.093	381.38
554.306	384.38
554.519	374.38
554.732	379.38
554.944	381.38
555.157	369.38
555.37	357.38
555.583	362.38
555.795	363.38
556.008	365.38
556.221	349.38
556.433	363.38
556.646	356.38
556.859	341.38
557.071	341.38
557.284	342.38
557.496	339.38
557.709	349.38
557.921	323.38
558.134	330.38
558.346	325.38
558.559	339.38
558.771	323.38
558.984	324.38
559.196	349.38
559.409	333.38
559.621	325.38
559.833	332.38
560.046	340.38
560.258	336.38
560.47	334.38
560.683	345.38
560.895	316.38
561.107	320.38
561.32	341.38
561.532	320.38
561.744	352.38
561.956	323.38
562.168	329.38
562.381	335.38
562.593	326.38
562.805	333.38
563.017	330.38
563.229	316.38
563.441	340.38
563.653	326.38
563.865	356.38
564.077	337.38
564.289	346.38
564.501	354.38
564.713	353.38
564.925	362.38
565.137	343.38
565.349	360.38
565.561	373.38
565.773	364.38
565.985	373.38
566.197	413.38
566.408	428.38
566.62	443.38
566.832	458.38
567.044	486.38
567.255	485.38
567.467	515.38
567.679	513.38
567.891	547.38
568.102	541.38
568.314	543.38
568.526	492.38
568.737	440.38
568.949	426.38
569.161	404.38
569.372	393.38
569.584	359.38
569.795	364.38
570.007	352.38
570.218	347.38
570.43	326.38
570.641	322.38
570.853	323.38
571.064	330.38
571.276	312.38
571.487	312.38
571.698	322.38
571.91	327.38
572.121	311.38
572.333	303.38
572.544	295.38
572.755	290.38
572.966	289.38
573.178	283.38
573.389	296.38
573.6	288.38
573.811	271.38
574.023	273.38
574.234	281.38
574.445	297.38
574.656	277.38
574.867	271.38
575.078	273.38
575.289	269.38
575.501	267.38
575.712	256.38
575.923	274.38
576.134	273.38
576.345	279.38
576.556	281.38
576.767	265.38
576.978	261.38
577.188	285.38
577.399	259.38
577.61	269.38
577.821	264.38
578.032	260.38
578.243	263.38
578.454	260.38
578.665	255.38
578.875	272.38
579.086	258.38
579.297	251.38
579.508	246.38
579.718	247.38
579.929	257.38
580.14	225.38
580.35	261.38
580.561	286.38
580.772	260.38
580.982	256.38
581.193	233.38
581.403	239.38
581.614	255.38
581.825	236.38
582.035	244.38
582.246	228.38
582.456	247.38
582.667	249.38
582.877	245.38
583.087	232.38
583.298	237.38
583.508	246.38
583.719	233.38
583.929	248.38
584.139	241.38
584.35	235.38
584.56	241.38
584.77	239.38
584.981	227.38
585.191	233.38
585.401	254.38
585.611	221.38
585.821	228.38
586.032	225.38
586.242	225.38
586.452	232.38
586.662	243.38
586.872	232.38
587.082	236.38
587.292	265.38
587.502	232.38
587.713	239.38
587.923	228.38
588.133	239.38
588.343	227.38
588.553	261.38
588.762	230.38
588.972	231.38
589.182	234.38
589.392	234.38
589.602	233.38
589.812	236.38
590.022	236.38
590.232	225.38
590.441	246.38
590.651	235.38
590.861	213.38
591.071	213.38
591.281	232.38
591.49	242.38
591.7	219.38
591.91	230.38
592.119	253.38
592.329	251.38
592.539	266.38
592.748	274.38
592.958	263.38
593.167	270.38
593.377	279.38
593.587	278.38
593.796	264.38
594.006	262.38
594.215	269.38
594.424	269.38
594.634	258.38
594.843	264.38
595.053	256.38
595.262	258.38
595.472	243.38
595.681	261.38
595.89	223.38
596.1	243.38
596.309	235.38
596.518	239.38
596.727	224.38
596.937	213.38
597.146	205.38
597.355	209.38
597.564	220.38
597.774	232.38
597.983	217.38
598.192	215.38
598.401	220.38
598.61	204.38
598.819	196.38
599.028	213.38
599.237	204.38
599.446	196.38
599.655	193.38
599.864	210.38
600.073	215.38
600.282	187.38
600.491	199.38
600.7	193.38
600.909	204.38
601.118	209.38
601.327	207.38
601.536	183.38
601.745	185.38
601.953	186.38
602.162	195.38
602.371	191.38
602.58	192.38
602.789	180.38
602.997	184.38
603.206	174.38
603.415	202.38
603.623	198.38
603.832	207.38
604.041	199.38
604.249	201.38
604.458	199.38
604.666	204.38
604.875	190.38
605.084	193.38
605.292	189.38
605.501	167.38
605.709	181.38
605.918	207.38
606.126	200.38
606.334	193.38
606.543	192.38
606.751	194.38
606.96	196.38
607.168	192.38
607.376	183.38
607.585	188.38
607.793	177.38
608.001	198.38
608.21	195.38
608.418	183.38
608.626	184.38
608.834	193.38
609.043	184.38
609.251	180.38
609.459	176.38
609.667	178.38
609.875	191.38
610.083	186.38
610.291	192.38
610.499	184.38
610.707	164.38
610.916	179.38
611.124	191.38
611.332	172.38
611.54	179.38
611.748	187.38
611.955	202.38
612.163	201.38
612.371	192.38
612.579	184.38
612.787	168.38
612.995	181.38
613.203	193.38
613.411	178.38
613.618	171.38
613.826	174.38
614.034	177.38
614.242	165.38
614.449	169.38
614.657	179.38
614.865	181.38
615.072	200.38
615.28	185.38
615.488	193.38
615.695	177.38
615.903	183.38
616.111	181.38
616.318	191.38
616.526	182.38
616.733	174.38
616.941	183.38
617.148	204.38
617.356	203.38
617.563	172.38
617.771	183.38
617.978	153.38
618.185	166.38
618.393	181.38
618.6	193.38
618.807	161.38
619.015	199.38
619.222	160.38
619.429	180.38
619.637	172.38
619.844	189.38
620.051	171.38
620.258	171.38
620.466	160.38
620.673	160.38
620.88	168.38
621.087	169.38
621.294	183.38
621.501	167.38
621.708	177.38
621.915	156.38
622.122	182.38
622.329	162.38
622.536	169.38
622.743	185.38
622.95	179.38
623.157	159.38
623.364	173.38
623.571	156.38
623.778	151.38
623.985	148.38
624.192	165.38
624.399	154.38
624.606	160.38
624.812	153.38
625.019	163.38
625.226	153.38
625.433	175.38
625.639	146.38
625.846	156.38
626.053	178.38
626.259	155.38
626.466	161.38
626.673	175.38
626.879	159.38
627.086	182.38
627.293	179.38
627.499	170.38
627.706	167.38
627.912	163.38
628.119	153.38
628.325	163.38
628.532	161.38
628.738	143.38
628.945	154.38
629.151	163.38
629.357	165.38
629.564	148.38
629.77	150.38
629.976	158.38
630.183	153.38
630.389	164.38
630.595	155.38
630.802	149.38
631.008	148.38
631.214	140.38
631.42	155.38
631.627	163.38
631.833	147.38
632.039	150.38
632.245	139.38
632.451	151.38
632.657	156.38
632.863	139.38
633.069	148.38
633.275	135.38
633.481	138.38
633.688	149.38
633.893	147.38
634.099	146.38
634.305	140.38
634.511	135.38
634.717	139.38
634.923	139.38
635.129	129.38
635.335	148.38
635.541	127.38
635.747	127.38
635.952	160.38
636.158	149.38
636.364	146.38
636.57	145.38
636.775	145.38
636.981	137.38
637.187	146.38
637.392	139.38
637.598	149.38
637.804	146.38
638.009	150.38
638.215	138.38
638.421	145.38
638.626	134.38
638.832	130.38
639.037	132.38
639.243	149.38
639.448	129.38
639.654	139.38
639.859	141.38
640.065	144.38
640.27	140.38
640.475	134.38
640.681	132.38
640.886	148.38
641.091	137.38
641.297	126.38
641.502	135.38
641.707	141.38
641.913	118.38
642.118	131.38
642.323	128.38
642.528	136.38
642.733	134.38
642.939	139.38
643.144	140.38
643.349	135.38
643.554	127.38
643.759	124.38
643.964	139.38
644.169	156.38
644.374	137.38
644.579	131.38
644.784	149.38
644.989	139.38
645.194	131.38
645.399	142.38
645.604	105.38
645.809	138.38
646.014	136.38
646.219	134.38
646.423	135.38
646.628	140.38
646.833	134.38
647.038	116.38
647.243	133.38
647.447	121.38
647.652	127.38
647.857	133.38
648.062	147.38
648.266	140.38
648.471	139.38
648.676	144.38
648.88	135.38
649.085	139.38
649.289	121.38
649.494	137.38
649.698	136.38
649.903	145.38
650.107	127.38
650.312	139.38
650.516	142.38
650.721	139.38
650.925	142.38
651.13	136.38
651.334	115.38
651.539	129.38
651.743	133.38
651.947	121.38
652.152	125.38
652.356	122.38
652.56	127.38
652.764	135.38
652.969	128.38
653.173	123.38
653.377	137.38
653.581	122.38
653.785	123.38
653.99	124.38
654.194	111.38
654.398	107.38
654.602	126.38
654.806	119.38
655.01	103.38
655.214	101.38
655.418	116.38
655.622	120.38
655.826	93.38
656.03	127.38
656.234	111.38
656.438	121.38
656.642	107.38
656.846	104.38
657.049	126.38
657.253	106.38
657.457	113.38
657.661	99.38
657.865	107.38
658.068	101.38
658.272	93.38
658.476	100.38
658.68	102.38
658.883	96.38
659.087	96.38
659.291	90.38
659.494	94.38
659.698	86.38
659.901	97.38
660.105	98.38
660.309	77.38
660.512	76.38
660.716	103.38
660.919	93.38
661.123	109.38
661.326	92.38
661.53	87.38
661.733	80.38
661.936	78.38
662.14	75.38
662.343	96.38
662.546	87.38
662.75	87.38
662.953	89.38
663.156	82.38
663.36	84.38
663.563	96.38
663.766	76.38
663.969	94.38
664.173	84.38
664.376	86.38
664.579	85.38
664.782	77.38
664.985	97.38
665.188	82.38
665.391	58.38
665.594	76.38
665.797	76.38
666	73.38
666.203	88.38
666.406	91.38
666.609	80.38
666.812	85.38
667.015	84.38
667.218	83.38
667.421	79.38
667.624	77.38
667.827	87.38
668.03	67.38
668.232	84.38
668.435	79.38
668.638	85.38
668.841	83.38
669.043	79.38
669.246	84.38
669.449	95.38
669.651	95.38
669.854	89.38
670.057	81.38
670.259	84.38
670.462	76.38
670.665	88.38
670.867	82.38
671.07	72.38
671.272	82.38
671.475	60.38
671.677	81.38
671.88	82.38
672.082	86.38
672.284	79.38
672.487	93.38
672.689	93.38
672.892	80.38
