Data from Fe(NO3)3@0.1M.TitratingCurve.Agarose3%dH2O.NegLispCup.LampEnergy10.LIBS07252019_HRD10591_16-38-19-331.txt Node
Date: Thu Jul 25 16:38:19 EDT 2019
User: cochatt
Spectrometer: HR+D1059
Trigger mode: 1
Integration Time (sec): 1.000000E-1
Scans to average: 1
Electric dark correction enabled: true
Nonlinearity correction enabled: false
Boxcar width: 0
XAxis mode: Wavelengths
Number of Pixels in Spectrum: 2048
>>>>>Begin Spectral Data<<<<<
223.165	-25.31
223.4	-25.31
223.635	-25.31
223.869	-11.31
224.104	-17.31
224.338	-14.31
224.573	-9.31
224.808	-9.31
225.042	7.69
225.277	-3.31
225.511	-3.31
225.746	-1.31
225.98	-2.31
226.215	-5.31
226.449	15.69
226.683	12.69
226.918	26.69
227.152	39.69
227.387	27.69
227.621	30.69
227.856	30.69
228.09	40.69
228.324	46.69
228.559	46.69
228.793	67.69
229.027	88.69
229.262	72.69
229.496	91.69
229.73	111.69
229.964	95.69
230.199	93.69
230.433	94.69
230.667	98.69
230.901	115.69
231.136	110.69
231.37	109.69
231.604	115.69
231.838	100.69
232.072	93.69
232.306	100.69
232.541	117.69
232.775	122.69
233.009	126.69
233.243	112.69
233.477	110.69
233.711	104.69
233.945	123.69
234.179	122.69
234.413	124.69
234.647	120.69
234.881	123.69
235.115	126.69
235.349	130.69
235.583	112.69
235.817	122.69
236.051	126.69
236.285	118.69
236.519	116.69
236.753	126.69
236.987	128.69
237.221	136.69
237.455	131.69
237.689	131.69
237.922	112.69
238.156	125.69
238.39	134.69
238.624	122.69
238.858	142.69
239.091	125.69
239.325	118.69
239.559	133.69
239.793	135.69
240.027	148.69
240.26	139.69
240.494	143.69
240.728	137.69
240.961	141.69
241.195	143.69
241.429	136.69
241.662	140.69
241.896	129.69
242.13	128.69
242.363	138.69
242.597	141.69
242.83	144.69
243.064	142.69
243.298	150.69
243.531	140.69
243.765	149.69
243.998	159.69
244.232	145.69
244.465	150.69
244.699	152.69
244.932	166.69
245.166	153.69
245.399	164.69
245.633	163.69
245.866	166.69
246.099	156.69
246.333	154.69
246.566	160.69
246.8	148.69
247.033	144.69
247.266	178.69
247.5	165.69
247.733	158.69
247.966	174.69
248.2	158.69
248.433	165.69
248.666	163.69
248.899	176.69
249.133	180.69
249.366	180.69
249.599	173.69
249.832	189.69
250.066	182.69
250.299	162.69
250.532	164.69
250.765	172.69
250.998	190.69
251.231	178.69
251.465	184.69
251.698	175.69
251.931	178.69
252.164	188.69
252.397	186.69
252.63	177.69
252.863	188.69
253.096	199.69
253.329	217.69
253.562	188.69
253.795	195.69
254.028	191.69
254.261	184.69
254.494	198.69
254.727	172.69
254.96	192.69
255.193	198.69
255.426	204.69
255.659	200.69
255.892	205.69
256.124	189.69
256.357	193.69
256.59	207.69
256.823	188.69
257.056	209.69
257.289	215.69
257.521	207.69
257.754	205.69
257.987	219.69
258.22	199.69
258.452	219.69
258.685	237.69
258.918	209.69
259.151	201.69
259.383	204.69
259.616	208.69
259.849	212.69
260.081	240.69
260.314	210.69
260.547	227.69
260.779	216.69
261.012	220.69
261.244	240.69
261.477	210.69
261.71	212.69
261.942	246.69
262.175	231.69
262.407	237.69
262.64	206.69
262.872	228.69
263.105	239.69
263.337	235.69
263.57	230.69
263.802	250.69
264.035	234.69
264.267	230.69
264.499	231.69
264.732	232.69
264.964	226.69
265.197	227.69
265.429	236.69
265.661	240.69
265.894	243.69
266.126	250.69
266.358	256.69
266.591	241.69
266.823	265.69
267.055	247.69
267.287	236.69
267.52	231.69
267.752	246.69
267.984	235.69
268.216	269.69
268.448	254.69
268.681	243.69
268.913	250.69
269.145	235.69
269.377	255.69
269.609	252.69
269.841	253.69
270.073	250.69
270.306	261.69
270.538	283.69
270.77	251.69
271.002	255.69
271.234	258.69
271.466	260.69
271.698	272.69
271.93	278.69
272.162	290.69
272.394	274.69
272.626	264.69
272.858	256.69
273.09	258.69
273.322	288.69
273.553	265.69
273.785	298.69
274.017	279.69
274.249	282.69
274.481	279.69
274.713	286.69
274.945	287.69
275.176	288.69
275.408	274.69
275.64	286.69
275.872	295.69
276.104	282.69
276.335	278.69
276.567	267.69
276.799	283.69
277.031	295.69
277.262	281.69
277.494	298.69
277.726	292.69
277.957	259.69
278.189	280.69
278.421	294.69
278.652	287.69
278.884	291.69
279.115	302.69
279.347	294.69
279.579	296.69
279.81	309.69
280.042	305.69
280.273	305.69
280.505	309.69
280.736	307.69
280.968	307.69
281.199	322.69
281.431	314.69
281.662	310.69
281.894	319.69
282.125	304.69
282.356	328.69
282.588	318.69
282.819	308.69
283.051	299.69
283.282	320.69
283.513	332.69
283.745	321.69
283.976	311.69
284.207	325.69
284.439	320.69
284.67	331.69
284.901	332.69
285.132	319.69
285.364	323.69
285.595	328.69
285.826	322.69
286.057	330.69
286.288	346.69
286.52	326.69
286.751	326.69
286.982	339.69
287.213	342.69
287.444	340.69
287.675	339.69
287.906	321.69
288.138	331.69
288.369	343.69
288.6	333.69
288.831	334.69
289.062	351.69
289.293	344.69
289.524	341.69
289.755	350.69
289.986	340.69
290.217	343.69
290.448	340.69
290.679	332.69
290.91	347.69
291.141	342.69
291.371	342.69
291.602	340.69
291.833	346.69
292.064	365.69
292.295	338.69
292.526	353.69
292.757	344.69
292.987	342.69
293.218	348.69
293.449	341.69
293.68	340.69
293.91	351.69
294.141	365.69
294.372	338.69
294.603	356.69
294.833	349.69
295.064	359.69
295.295	363.69
295.525	347.69
295.756	339.69
295.987	345.69
296.217	360.69
296.448	354.69
296.679	358.69
296.909	354.69
297.14	368.69
297.37	368.69
297.601	372.69
297.831	366.69
298.062	372.69
298.292	378.69
298.523	372.69
298.753	377.69
298.984	387.69
299.214	366.69
299.445	367.69
299.675	399.69
299.905	378.69
300.136	387.69
300.366	374.69
300.597	390.69
300.827	393.69
301.057	393.69
301.288	406.69
301.518	387.69
301.748	380.69
301.979	400.69
302.209	376.69
302.439	401.69
302.669	388.69
302.9	379.69
303.13	378.69
303.36	404.69
303.59	391.69
303.82	386.69
304.051	402.69
304.281	397.69
304.511	402.69
304.741	408.69
304.971	390.69
305.201	407.69
305.431	382.69
305.661	369.69
305.891	388.69
306.121	392.69
306.352	381.69
306.582	383.69
306.812	379.69
307.042	395.69
307.272	394.69
307.502	409.69
307.731	388.69
307.961	380.69
308.191	379.69
308.421	391.69
308.651	396.69
308.881	376.69
309.111	381.69
309.341	372.69
309.571	382.69
309.8	384.69
310.03	380.69
310.26	386.69
310.49	396.69
310.72	392.69
310.949	392.69
311.179	393.69
311.409	398.69
311.639	401.69
311.868	390.69
312.098	396.69
312.328	387.69
312.557	419.69
312.787	418.69
313.017	411.69
313.246	430.69
313.476	407.69
313.706	417.69
313.935	399.69
314.165	413.69
314.394	418.69
314.624	418.69
314.853	433.69
315.083	429.69
315.312	422.69
315.542	428.69
315.771	423.69
316.001	418.69
316.23	425.69
316.46	405.69
316.689	407.69
316.919	412.69
317.148	398.69
317.377	405.69
317.607	424.69
317.836	416.69
318.065	418.69
318.295	439.69
318.524	410.69
318.753	406.69
318.983	401.69
319.212	423.69
319.441	424.69
319.67	414.69
319.9	388.69
320.129	421.69
320.358	412.69
320.587	412.69
320.816	417.69
321.046	408.69
321.275	423.69
321.504	430.69
321.733	432.69
321.962	430.69
322.191	442.69
322.42	423.69
322.649	410.69
322.878	433.69
323.108	433.69
323.337	435.69
323.566	418.69
323.795	437.69
324.024	452.69
324.253	430.69
324.482	447.69
324.71	442.69
324.939	436.69
325.168	444.69
325.397	436.69
325.626	427.69
325.855	440.69
326.084	456.69
326.313	440.69
326.542	466.69
326.77	450.69
326.999	433.69
327.228	440.69
327.457	464.69
327.686	465.69
327.914	446.69
328.143	450.69
328.372	457.69
328.6	442.69
328.829	449.69
329.058	444.69
329.287	463.69
329.515	453.69
329.744	456.69
329.972	468.69
330.201	446.69
330.43	462.69
330.658	466.69
330.887	458.69
331.115	507.69
331.344	463.69
331.572	468.69
331.801	495.69
332.03	498.69
332.258	497.69
332.486	509.69
332.715	526.69
332.943	537.69
333.172	558.69
333.4	573.69
333.629	576.69
333.857	592.69
334.085	596.69
334.314	564.69
334.542	572.69
334.771	566.69
334.999	588.69
335.227	549.69
335.455	544.69
335.684	557.69
335.912	569.69
336.14	571.69
336.369	529.69
336.597	531.69
336.825	521.69
337.053	513.69
337.281	535.69
337.51	528.69
337.738	528.69
337.966	534.69
338.194	528.69
338.422	504.69
338.65	498.69
338.878	522.69
339.106	509.69
339.334	492.69
339.562	487.69
339.79	475.69
340.018	490.69
340.246	495.69
340.474	476.69
340.702	481.69
340.93	469.69
341.158	480.69
341.386	474.69
341.614	492.69
341.842	489.69
342.07	479.69
342.298	471.69
342.526	463.69
342.754	481.69
342.981	462.69
343.209	485.69
343.437	518.69
343.665	523.69
343.893	562.69
344.12	580.69
344.348	565.69
344.576	534.69
344.804	514.69
345.031	492.69
345.259	511.69
345.487	496.69
345.714	471.69
345.942	479.69
346.17	462.69
346.397	478.69
346.625	456.69
346.853	449.69
347.08	460.69
347.308	483.69
347.535	455.69
347.763	461.69
347.99	460.69
348.218	475.69
348.445	471.69
348.673	470.69
348.9	458.69
349.128	468.69
349.355	472.69
349.583	446.69
349.81	451.69
350.037	472.69
350.265	443.69
350.492	460.69
350.72	460.69
350.947	438.69
351.174	444.69
351.402	443.69
351.629	454.69
351.856	453.69
352.083	445.69
352.311	456.69
352.538	444.69
352.765	457.69
352.992	457.69
353.22	459.69
353.447	464.69
353.674	459.69
353.901	460.69
354.128	453.69
354.355	474.69
354.583	469.69
354.81	442.69
355.037	463.69
355.264	476.69
355.491	449.69
355.718	446.69
355.945	451.69
356.172	444.69
356.399	469.69
356.626	460.69
356.853	476.69
357.08	480.69
357.307	456.69
357.534	470.69
357.761	457.69
357.988	453.69
358.215	462.69
358.441	459.69
358.668	462.69
358.895	447.69
359.122	442.69
359.349	456.69
359.576	462.69
359.802	466.69
360.029	456.69
360.256	469.69
360.483	422.69
360.709	424.69
360.936	459.69
361.163	462.69
361.39	461.69
361.616	467.69
361.843	448.69
362.07	447.69
362.296	446.69
362.523	450.69
362.749	451.69
362.976	433.69
363.203	459.69
363.429	442.69
363.656	460.69
363.882	460.69
364.109	451.69
364.335	463.69
364.562	462.69
364.788	455.69
365.015	448.69
365.241	446.69
365.468	470.69
365.694	468.69
365.92	463.69
366.147	455.69
366.373	448.69
366.599	458.69
366.826	448.69
367.052	468.69
367.278	458.69
367.505	442.69
367.731	477.69
367.957	479.69
368.184	464.69
368.41	454.69
368.636	453.69
368.862	481.69
369.089	462.69
369.315	482.69
369.541	479.69
369.767	480.69
369.993	470.69
370.219	478.69
370.445	462.69
370.672	479.69
370.898	484.69
371.124	496.69
371.35	499.69
371.576	480.69
371.802	490.69
372.028	502.69
372.254	497.69
372.48	497.69
372.706	531.69
372.932	524.69
373.158	526.69
373.384	501.69
373.61	511.69
373.835	509.69
374.061	498.69
374.287	494.69
374.513	502.69
374.739	509.69
374.965	543.69
375.191	526.69
375.416	523.69
375.642	528.69
375.868	516.69
376.094	511.69
376.319	521.69
376.545	514.69
376.771	534.69
376.997	500.69
377.222	524.69
377.448	496.69
377.674	498.69
377.899	507.69
378.125	493.69
378.35	503.69
378.576	501.69
378.802	512.69
379.027	509.69
379.253	508.69
379.478	502.69
379.704	490.69
379.929	517.69
380.155	492.69
380.38	508.69
380.606	522.69
380.831	496.69
381.057	507.69
381.282	508.69
381.507	490.69
381.733	501.69
381.958	512.69
382.184	516.69
382.409	545.69
382.634	515.69
382.86	541.69
383.085	514.69
383.31	536.69
383.535	546.69
383.761	541.69
383.986	568.69
384.211	574.69
384.436	576.69
384.662	576.69
384.887	568.69
385.112	581.69
385.337	604.69
385.562	613.69
385.787	583.69
386.013	612.69
386.238	584.69
386.463	588.69
386.688	607.69
386.913	579.69
387.138	601.69
387.363	594.69
387.588	604.69
387.813	584.69
388.038	611.69
388.263	599.69
388.488	589.69
388.713	604.69
388.938	584.69
389.163	595.69
389.387	604.69
389.612	611.69
389.837	586.69
390.062	573.69
390.287	592.69
390.512	602.69
390.736	598.69
390.961	623.69
391.186	624.69
391.411	650.69
391.636	657.69
391.86	655.69
392.085	684.69
392.31	674.69
392.534	670.69
392.759	654.69
392.984	641.69
393.208	632.69
393.433	641.69
393.658	645.69
393.882	628.69
394.107	649.69
394.331	638.69
394.556	626.69
394.78	656.69
395.005	637.69
395.229	666.69
395.454	661.69
395.678	684.69
395.903	661.69
396.127	682.69
396.352	660.69
396.576	680.69
396.801	671.69
397.025	649.69
397.249	670.69
397.474	698.69
397.698	674.69
397.922	683.69
398.147	689.69
398.371	682.69
398.595	723.69
398.82	740.69
399.044	802.69
399.268	841.69
399.492	948.69
399.717	1044.69
399.941	1042.69
400.165	955.69
400.389	881.69
400.613	822.69
400.837	816.69
401.062	751.69
401.286	771.69
401.51	730.69
401.734	742.69
401.958	773.69
402.182	738.69
402.406	780.69
402.63	755.69
402.854	750.69
403.078	778.69
403.302	784.69
403.526	816.69
403.75	844.69
403.974	840.69
404.198	822.69
404.422	803.69
404.645	834.69
404.869	838.69
405.093	827.69
405.317	821.69
405.541	806.69
405.765	830.69
405.988	815.69
406.212	824.69
406.436	800.69
406.66	844.69
406.883	831.69
407.107	862.69
407.331	903.69
407.555	932.69
407.778	926.69
408.002	922.69
408.226	899.69
408.449	872.69
408.673	870.69
408.896	832.69
409.12	829.69
409.344	820.69
409.567	800.69
409.791	827.69
410.014	826.69
410.238	817.69
410.461	816.69
410.685	803.69
410.908	801.69
411.132	776.69
411.355	756.69
411.578	780.69
411.802	782.69
412.025	769.69
412.249	816.69
412.472	776.69
412.695	748.69
412.919	755.69
413.142	753.69
413.365	728.69
413.589	784.69
413.812	775.69
414.035	730.69
414.258	749.69
414.482	739.69
414.705	764.69
414.928	742.69
415.151	754.69
415.374	743.69
415.597	766.69
415.821	740.69
416.044	732.69
416.267	700.69
416.49	709.69
416.713	694.69
416.936	751.69
417.159	728.69
417.382	699.69
417.605	713.69
417.828	730.69
418.051	737.69
418.274	724.69
418.497	733.69
418.72	752.69
418.943	752.69
419.166	795.69
419.389	824.69
419.611	830.69
419.834	780.69
420.057	752.69
420.28	719.69
420.503	714.69
420.726	740.69
420.948	728.69
421.171	704.69
421.394	715.69
421.617	703.69
421.839	722.69
422.062	725.69
422.285	701.69
422.507	749.69
422.73	757.69
422.953	753.69
423.175	748.69
423.398	735.69
423.621	746.69
423.843	764.69
424.066	727.69
424.288	739.69
424.511	748.69
424.733	735.69
424.956	714.69
425.178	714.69
425.401	751.69
425.623	720.69
425.846	699.69
426.068	688.69
426.291	682.69
426.513	700.69
426.735	687.69
426.958	704.69
427.18	655.69
427.402	700.69
427.625	653.69
427.847	656.69
428.069	659.69
428.292	693.69
428.514	670.69
428.736	670.69
428.958	652.69
429.181	647.69
429.403	648.69
429.625	631.69
429.847	646.69
430.069	654.69
430.292	659.69
430.514	635.69
430.736	662.69
430.958	670.69
431.18	639.69
431.402	642.69
431.624	663.69
431.846	666.69
432.068	658.69
432.29	686.69
432.512	647.69
432.734	658.69
432.956	663.69
433.178	668.69
433.4	659.69
433.622	666.69
433.844	649.69
434.066	658.69
434.287	678.69
434.509	670.69
434.731	692.69
434.953	724.69
435.175	707.69
435.397	711.69
435.618	679.69
435.84	669.69
436.062	676.69
436.284	686.69
436.505	634.69
436.727	678.69
436.949	668.69
437.17	654.69
437.392	649.69
437.614	631.69
437.835	632.69
438.057	632.69
438.278	644.69
438.5	658.69
438.721	652.69
438.943	652.69
439.165	637.69
439.386	632.69
439.608	647.69
439.829	643.69
440.05	665.69
440.272	669.69
440.493	678.69
440.715	667.69
440.936	651.69
441.158	705.69
441.379	717.69
441.6	721.69
441.822	721.69
442.043	730.69
442.264	699.69
442.486	691.69
442.707	705.69
442.928	693.69
443.149	718.69
443.371	709.69
443.592	717.69
443.813	704.69
444.034	740.69
444.255	734.69
444.476	763.69
444.698	805.69
444.919	826.69
445.14	907.69
445.361	826.69
445.582	743.69
445.803	719.69
446.024	696.69
446.245	695.69
446.466	657.69
446.687	648.69
446.908	656.69
447.129	633.69
447.35	635.69
447.571	662.69
447.792	603.69
448.013	636.69
448.234	615.69
448.455	617.69
448.675	612.69
448.896	599.69
449.117	592.69
449.338	598.69
449.559	614.69
449.779	603.69
450	580.69
450.221	606.69
450.442	590.69
450.662	592.69
450.883	619.69
451.104	618.69
451.324	588.69
451.545	608.69
451.766	615.69
451.986	599.69
452.207	605.69
452.428	607.69
452.648	592.69
452.869	584.69
453.089	564.69
453.31	590.69
453.53	596.69
453.751	592.69
453.971	574.69
454.192	586.69
454.412	579.69
454.633	546.69
454.853	564.69
455.073	574.69
455.294	577.69
455.514	575.69
455.734	550.69
455.955	552.69
456.175	550.69
456.395	560.69
456.616	557.69
456.836	564.69
457.056	550.69
457.276	550.69
457.497	579.69
457.717	580.69
457.937	593.69
458.157	562.69
458.377	576.69
458.598	578.69
458.818	590.69
459.038	598.69
459.258	658.69
459.478	641.69
459.698	661.69
459.918	694.69
460.138	715.69
460.358	716.69
460.578	736.69
460.798	765.69
461.018	768.69
461.238	748.69
461.458	766.69
461.678	755.69
461.898	772.69
462.118	781.69
462.338	794.69
462.558	817.69
462.777	833.69
462.997	895.69
463.217	956.69
463.437	938.69
463.657	915.69
463.876	856.69
464.096	865.69
464.316	859.69
464.536	834.69
464.755	828.69
464.975	768.69
465.195	760.69
465.414	731.69
465.634	686.69
465.854	676.69
466.073	673.69
466.293	674.69
466.512	634.69
466.732	628.69
466.951	637.69
467.171	634.69
467.391	646.69
467.61	619.69
467.829	629.69
468.049	631.69
468.268	608.69
468.488	608.69
468.707	589.69
468.927	618.69
469.146	599.69
469.365	626.69
469.585	621.69
469.804	645.69
470.023	617.69
470.243	656.69
470.462	647.69
470.681	653.69
470.901	634.69
471.12	634.69
471.339	616.69
471.558	627.69
471.777	636.69
471.997	619.69
472.216	592.69
472.435	616.69
472.654	580.69
472.873	597.69
473.092	590.69
473.311	594.69
473.53	606.69
473.749	603.69
473.968	582.69
474.187	590.69
474.406	596.69
474.625	586.69
474.844	612.69
475.063	610.69
475.282	605.69
475.501	605.69
475.72	624.69
475.939	611.69
476.158	622.69
476.377	614.69
476.596	615.69
476.814	621.69
477.033	639.69
477.252	661.69
477.471	670.69
477.69	660.69
477.908	645.69
478.127	714.69
478.346	698.69
478.564	712.69
478.783	712.69
479.002	693.69
479.22	736.69
479.439	713.69
479.658	735.69
479.876	736.69
480.095	732.69
480.313	747.69
480.532	766.69
480.751	754.69
480.969	728.69
481.188	732.69
481.406	724.69
481.624	726.69
481.843	715.69
482.061	678.69
482.28	688.69
482.498	672.69
482.717	674.69
482.935	672.69
483.153	674.69
483.372	665.69
483.59	671.69
483.808	682.69
484.027	676.69
484.245	684.69
484.463	671.69
484.681	668.69
484.9	713.69
485.118	694.69
485.336	721.69
485.554	702.69
485.772	726.69
485.99	705.69
486.209	709.69
486.427	695.69
486.645	689.69
486.863	680.69
487.081	700.69
487.299	686.69
487.517	713.69
487.735	693.69
487.953	686.69
488.171	719.69
488.389	695.69
488.607	702.69
488.825	682.69
489.043	693.69
489.261	677.69
489.479	684.69
489.696	690.69
489.914	691.69
490.132	691.69
490.35	706.69
490.568	686.69
490.786	681.69
491.003	690.69
491.221	697.69
491.439	705.69
491.657	702.69
491.874	695.69
492.092	706.69
492.31	715.69
492.527	733.69
492.745	733.69
492.963	730.69
493.18	727.69
493.398	754.69
493.615	733.69
493.833	737.69
494.05	746.69
494.268	718.69
494.485	748.69
494.703	759.69
494.92	773.69
495.138	732.69
495.355	767.69
495.573	772.69
495.79	733.69
496.008	751.69
496.225	786.69
496.442	788.69
496.66	773.69
496.877	798.69
497.094	801.69
497.312	834.69
497.529	830.69
497.746	838.69
497.963	894.69
498.181	896.69
498.398	944.69
498.615	1004.69
498.832	1068.69
499.049	1137.69
499.267	1175.69
499.484	1244.69
499.701	1416.69
499.918	1518.69
500.135	1655.69
500.352	1827.69
500.569	1886.69
500.786	1879.69
501.003	1790.69
501.22	1643.69
501.437	1516.69
501.654	1310.69
501.871	1245.69
502.088	1194.69
502.305	1076.69
502.522	1026.69
502.739	1040.69
502.956	962.69
503.172	958.69
503.389	890.69
503.606	872.69
503.823	864.69
504.04	853.69
504.256	875.69
504.473	872.69
504.69	886.69
504.907	869.69
505.123	814.69
505.34	782.69
505.557	746.69
505.773	751.69
505.99	705.69
506.207	718.69
506.423	686.69
506.64	704.69
506.856	675.69
507.073	682.69
507.289	671.69
507.506	668.69
507.722	658.69
507.939	654.69
508.155	669.69
508.372	659.69
508.588	650.69
508.805	619.69
509.021	619.69
509.238	651.69
509.454	638.69
509.67	623.69
509.887	622.69
510.103	621.69
510.319	612.69
510.536	615.69
510.752	603.69
510.968	618.69
511.184	580.69
511.401	600.69
511.617	620.69
511.833	583.69
512.049	598.69
512.265	608.69
512.481	625.69
512.698	597.69
512.914	609.69
513.13	596.69
513.346	587.69
513.562	615.69
513.778	603.69
513.994	621.69
514.21	610.69
514.426	604.69
514.642	614.69
514.858	641.69
515.074	612.69
515.29	639.69
515.506	640.69
515.721	667.69
515.937	664.69
516.153	657.69
516.369	668.69
516.585	692.69
516.801	701.69
517.016	730.69
517.232	739.69
517.448	753.69
517.664	788.69
517.879	804.69
518.095	812.69
518.311	816.69
518.527	774.69
518.742	718.69
518.958	697.69
519.173	686.69
519.389	676.69
519.605	655.69
519.82	636.69
520.036	623.69
520.251	618.69
520.467	635.69
520.682	612.69
520.898	613.69
521.113	609.69
521.329	611.69
521.544	595.69
521.76	588.69
521.975	581.69
522.19	572.69
522.406	588.69
522.621	579.69
522.836	573.69
523.052	560.69
523.267	577.69
523.482	576.69
523.698	581.69
523.913	574.69
524.128	538.69
524.343	576.69
524.559	582.69
524.774	552.69
524.989	574.69
525.204	554.69
525.419	537.69
525.634	532.69
525.849	560.69
526.064	550.69
526.28	571.69
526.495	532.69
526.71	570.69
526.925	564.69
527.14	552.69
527.355	566.69
527.57	564.69
527.785	557.69
527.999	535.69
528.214	554.69
528.429	536.69
528.644	530.69
528.859	554.69
529.074	545.69
529.289	550.69
529.503	574.69
529.718	546.69
529.933	562.69
530.148	554.69
530.363	530.69
530.577	549.69
530.792	536.69
531.007	557.69
531.221	553.69
531.436	542.69
531.651	556.69
531.865	542.69
532.08	545.69
532.295	534.69
532.509	550.69
532.724	557.69
532.938	558.69
533.153	563.69
533.367	544.69
533.582	550.69
533.796	543.69
534.011	539.69
534.225	530.69
534.44	543.69
534.654	534.69
534.868	544.69
535.083	549.69
535.297	521.69
535.511	533.69
535.726	538.69
535.94	526.69
536.154	529.69
536.369	505.69
536.583	523.69
536.797	524.69
537.011	531.69
537.225	523.69
537.44	516.69
537.654	514.69
537.868	504.69
538.082	502.69
538.296	506.69
538.51	495.69
538.724	522.69
538.938	503.69
539.153	499.69
539.367	517.69
539.581	456.69
539.795	495.69
540.009	491.69
540.222	485.69
540.436	484.69
540.65	504.69
540.864	496.69
541.078	499.69
541.292	493.69
541.506	484.69
541.72	476.69
541.934	494.69
542.147	491.69
542.361	477.69
542.575	482.69
542.789	479.69
543.002	460.69
543.216	491.69
543.43	483.69
543.644	487.69
543.857	476.69
544.071	488.69
544.285	493.69
544.498	507.69
544.712	472.69
544.925	485.69
545.139	517.69
545.352	507.69
545.566	508.69
545.779	497.69
545.993	498.69
546.206	518.69
546.42	509.69
546.633	513.69
546.847	522.69
547.06	509.69
547.274	510.69
547.487	491.69
547.7	518.69
547.914	504.69
548.127	507.69
548.34	506.69
548.554	488.69
548.767	518.69
548.98	516.69
549.193	527.69
549.407	518.69
549.62	501.69
549.833	534.69
550.046	501.69
550.259	502.69
550.473	511.69
550.686	496.69
550.899	477.69
551.112	476.69
551.325	472.69
551.538	498.69
551.751	494.69
551.964	484.69
552.177	492.69
552.39	510.69
552.603	496.69
552.816	545.69
553.029	496.69
553.242	523.69
553.455	551.69
553.667	565.69
553.88	540.69
554.093	532.69
554.306	524.69
554.519	501.69
554.732	479.69
554.944	499.69
555.157	475.69
555.37	492.69
555.583	476.69
555.795	460.69
556.008	469.69
556.221	468.69
556.433	444.69
556.646	456.69
556.859	442.69
557.071	434.69
557.284	456.69
557.496	433.69
557.709	440.69
557.921	420.69
558.134	436.69
558.346	434.69
558.559	410.69
558.771	414.69
558.984	421.69
559.196	430.69
559.409	422.69
559.621	423.69
559.833	434.69
560.046	417.69
560.258	410.69
560.47	419.69
560.683	413.69
560.895	411.69
561.107	420.69
561.32	401.69
561.532	408.69
561.744	417.69
561.956	432.69
562.168	425.69
562.381	422.69
562.593	418.69
562.805	418.69
563.017	420.69
563.229	434.69
563.441	417.69
563.653	437.69
563.865	440.69
564.077	458.69
564.289	438.69
564.501	417.69
564.713	475.69
564.925	464.69
565.137	471.69
565.349	462.69
565.561	475.69
565.773	498.69
565.985	508.69
566.197	538.69
566.408	549.69
566.62	565.69
566.832	629.69
567.044	652.69
567.255	647.69
567.467	646.69
567.679	691.69
567.891	738.69
568.102	718.69
568.314	701.69
568.526	637.69
568.737	594.69
568.949	544.69
569.161	532.69
569.372	512.69
569.584	445.69
569.795	464.69
570.007	444.69
570.218	446.69
570.43	416.69
570.641	421.69
570.853	407.69
571.064	430.69
571.276	432.69
571.487	402.69
571.698	411.69
571.91	406.69
572.121	389.69
572.333	375.69
572.544	377.69
572.755	374.69
572.966	366.69
573.178	356.69
573.389	373.69
573.6	352.69
573.811	356.69
574.023	367.69
574.234	358.69
574.445	368.69
574.656	340.69
574.867	355.69
575.078	348.69
575.289	366.69
575.501	324.69
575.712	328.69
575.923	334.69
576.134	342.69
576.345	323.69
576.556	338.69
576.767	332.69
576.978	318.69
577.188	306.69
577.399	334.69
577.61	326.69
577.821	298.69
578.032	329.69
578.243	320.69
578.454	326.69
578.665	333.69
578.875	320.69
579.086	315.69
579.297	313.69
579.508	300.69
579.718	305.69
579.929	319.69
580.14	317.69
580.35	312.69
580.561	288.69
580.772	285.69
580.982	312.69
581.193	308.69
581.403	309.69
581.614	289.69
581.825	286.69
582.035	294.69
582.246	301.69
582.456	292.69
582.667	302.69
582.877	294.69
583.087	302.69
583.298	271.69
583.508	298.69
583.719	294.69
583.929	314.69
584.139	285.69
584.35	307.69
584.56	301.69
584.77	291.69
584.981	295.69
585.191	306.69
585.401	289.69
585.611	295.69
585.821	287.69
586.032	295.69
586.242	301.69
586.452	302.69
586.662	293.69
586.872	284.69
587.082	285.69
587.292	274.69
587.502	279.69
587.713	277.69
587.923	282.69
588.133	277.69
588.343	264.69
588.553	284.69
588.762	307.69
588.972	290.69
589.182	288.69
589.392	275.69
589.602	278.69
589.812	277.69
590.022	294.69
590.232	291.69
590.441	287.69
590.651	295.69
590.861	296.69
591.071	287.69
591.281	296.69
591.49	296.69
591.7	302.69
591.91	288.69
592.119	319.69
592.329	303.69
592.539	316.69
592.748	333.69
592.958	331.69
593.167	325.69
593.377	342.69
593.587	350.69
593.796	332.69
594.006	325.69
594.215	342.69
594.424	351.69
594.634	327.69
594.843	332.69
595.053	325.69
595.262	314.69
595.472	311.69
595.681	302.69
595.89	308.69
596.1	298.69
596.309	286.69
596.518	289.69
596.727	288.69
596.937	278.69
597.146	243.69
597.355	244.69
597.564	261.69
597.774	262.69
597.983	268.69
598.192	253.69
598.401	253.69
598.61	248.69
598.819	254.69
599.028	249.69
599.237	246.69
599.446	239.69
599.655	252.69
599.864	255.69
600.073	255.69
600.282	248.69
600.491	237.69
600.7	259.69
600.909	246.69
601.118	240.69
601.327	224.69
601.536	239.69
601.745	229.69
601.953	234.69
602.162	239.69
602.371	227.69
602.58	238.69
602.789	235.69
602.997	240.69
603.206	234.69
603.415	238.69
603.623	237.69
603.832	214.69
604.041	233.69
604.249	212.69
604.458	243.69
604.666	235.69
604.875	217.69
605.084	233.69
605.292	234.69
605.501	223.69
605.709	229.69
605.918	243.69
606.126	225.69
606.334	227.69
606.543	223.69
606.751	230.69
606.96	205.69
607.168	231.69
607.376	214.69
607.585	206.69
607.793	217.69
608.001	214.69
608.21	212.69
608.418	227.69
608.626	214.69
608.834	217.69
609.043	221.69
609.251	221.69
609.459	219.69
609.667	237.69
609.875	204.69
610.083	195.69
610.291	212.69
610.499	225.69
610.707	225.69
610.916	226.69
611.124	221.69
611.332	219.69
611.54	210.69
611.748	214.69
611.955	227.69
612.163	217.69
612.371	211.69
612.579	212.69
612.787	206.69
612.995	226.69
613.203	203.69
613.411	230.69
613.618	218.69
613.826	221.69
614.034	217.69
614.242	199.69
614.449	217.69
614.657	217.69
614.865	215.69
615.072	212.69
615.28	200.69
615.488	201.69
615.695	199.69
615.903	227.69
616.111	205.69
616.318	211.69
616.526	210.69
616.733	211.69
616.941	205.69
617.148	226.69
617.356	206.69
617.563	210.69
617.771	204.69
617.978	199.69
618.185	223.69
618.393	212.69
618.6	207.69
618.807	211.69
619.015	200.69
619.222	220.69
619.429	208.69
619.637	206.69
619.844	209.69
620.051	203.69
620.258	216.69
620.466	196.69
620.673	199.69
620.88	196.69
621.087	202.69
621.294	199.69
621.501	202.69
621.708	185.69
621.915	195.69
622.122	196.69
622.329	218.69
622.536	206.69
622.743	210.69
622.95	206.69
623.157	198.69
623.364	183.69
623.571	183.69
623.778	198.69
623.985	204.69
624.192	180.69
624.399	188.69
624.606	188.69
624.812	192.69
625.019	195.69
625.226	182.69
625.433	196.69
625.639	191.69
625.846	193.69
626.053	182.69
626.259	181.69
626.466	192.69
626.673	186.69
626.879	180.69
627.086	167.69
627.293	176.69
627.499	192.69
627.706	187.69
627.912	176.69
628.119	179.69
628.325	180.69
628.532	173.69
628.738	179.69
628.945	174.69
629.151	190.69
629.357	194.69
629.564	189.69
629.77	170.69
629.976	182.69
630.183	180.69
630.389	194.69
630.595	174.69
630.802	163.69
631.008	167.69
631.214	172.69
631.42	179.69
631.627	175.69
631.833	159.69
632.039	176.69
632.245	179.69
632.451	158.69
632.657	172.69
632.863	171.69
633.069	174.69
633.275	178.69
633.481	172.69
633.688	162.69
633.893	157.69
634.099	154.69
634.305	172.69
634.511	166.69
634.717	154.69
634.923	155.69
635.129	154.69
635.335	177.69
635.541	160.69
635.747	154.69
635.952	151.69
636.158	150.69
636.364	147.69
636.57	179.69
636.775	163.69
636.981	156.69
637.187	162.69
637.392	162.69
637.598	155.69
637.804	167.69
638.009	158.69
638.215	156.69
638.421	160.69
638.626	173.69
638.832	172.69
639.037	146.69
639.243	167.69
639.448	162.69
639.654	174.69
639.859	160.69
640.065	161.69
640.27	159.69
640.475	142.69
640.681	156.69
640.886	156.69
641.091	165.69
641.297	155.69
641.502	150.69
641.707	164.69
641.913	145.69
642.118	149.69
642.323	148.69
642.528	157.69
642.733	158.69
642.939	141.69
643.144	150.69
643.349	139.69
643.554	160.69
643.759	165.69
643.964	147.69
644.169	142.69
644.374	144.69
644.579	159.69
644.784	156.69
644.989	145.69
645.194	145.69
645.399	172.69
645.604	141.69
645.809	136.69
646.014	160.69
646.219	155.69
646.423	148.69
646.628	151.69
646.833	143.69
647.038	141.69
647.243	163.69
647.447	145.69
647.652	154.69
647.857	159.69
648.062	156.69
648.266	147.69
648.471	156.69
648.676	142.69
648.88	163.69
649.085	153.69
649.289	151.69
649.494	144.69
649.698	137.69
649.903	130.69
650.107	148.69
650.312	157.69
650.516	118.69
650.721	137.69
650.925	143.69
651.13	146.69
651.334	152.69
651.539	125.69
651.743	136.69
651.947	121.69
652.152	121.69
652.356	139.69
652.56	132.69
652.764	140.69
652.969	139.69
653.173	131.69
653.377	125.69
653.581	133.69
653.785	135.69
653.99	125.69
654.194	117.69
654.398	134.69
654.602	130.69
654.806	129.69
655.01	128.69
655.214	125.69
655.418	127.69
655.622	116.69
655.826	118.69
656.03	104.69
656.234	130.69
656.438	118.69
656.642	124.69
656.846	118.69
657.049	109.69
657.253	125.69
657.457	140.69
657.661	104.69
657.865	104.69
658.068	98.69
658.272	122.69
658.476	100.69
658.68	111.69
658.883	109.69
659.087	108.69
659.291	86.69
659.494	83.69
659.698	94.69
659.901	83.69
660.105	87.69
660.309	96.69
660.512	94.69
660.716	96.69
660.919	90.69
661.123	90.69
661.326	93.69
661.53	76.69
661.733	95.69
661.936	94.69
662.14	89.69
662.343	85.69
662.546	81.69
662.75	80.69
662.953	83.69
663.156	73.69
663.36	83.69
663.563	83.69
663.766	65.69
663.969	82.69
664.173	74.69
664.376	87.69
664.579	85.69
664.782	77.69
664.985	90.69
665.188	83.69
665.391	84.69
665.594	91.69
665.797	83.69
666	62.69
666.203	70.69
666.406	61.69
666.609	70.69
666.812	73.69
667.015	80.69
667.218	79.69
667.421	84.69
667.624	70.69
667.827	79.69
668.03	76.69
668.232	83.69
668.435	69.69
668.638	73.69
668.841	80.69
669.043	85.69
669.246	76.69
669.449	78.69
669.651	81.69
669.854	81.69
670.057	78.69
670.259	73.69
670.462	93.69
670.665	67.69
670.867	83.69
671.07	86.69
671.272	72.69
671.475	96.69
671.677	66.69
671.88	70.69
672.082	76.69
672.284	80.69
672.487	75.69
672.689	59.69
672.892	77.69
