Data from Fe(NO3)3@0.0125M.TitratingCurve.Agarose3%dH2O.NegLispCup.LampEnergy10.LIBS07252019_HRD10591_16-58-38-336.txt Node
Date: Thu Jul 25 16:58:38 EDT 2019
User: cochatt
Spectrometer: HR+D1059
Trigger mode: 1
Integration Time (sec): 1.000000E-1
Scans to average: 1
Electric dark correction enabled: true
Nonlinearity correction enabled: false
Boxcar width: 0
XAxis mode: Wavelengths
Number of Pixels in Spectrum: 2048
>>>>>Begin Spectral Data<<<<<
223.165	-20.06
223.4	-20.06
223.635	-20.06
223.869	-19.06
224.104	-21.06
224.338	-4.06
224.573	-18.06
224.808	-11.06
225.042	-10.06
225.277	-6.06
225.511	-2.06
225.746	14.94
225.98	-2.06
226.215	14.94
226.449	21.94
226.683	22.94
226.918	9.94
227.152	28.94
227.387	36.94
227.621	41.94
227.856	47.94
228.09	59.94
228.324	44.94
228.559	57.94
228.793	76.94
229.027	107.94
229.262	114.94
229.496	121.94
229.73	121.94
229.964	117.94
230.199	112.94
230.433	134.94
230.667	129.94
230.901	131.94
231.136	133.94
231.37	132.94
231.604	136.94
231.838	128.94
232.072	143.94
232.306	162.94
232.541	142.94
232.775	131.94
233.009	138.94
233.243	146.94
233.477	136.94
233.711	139.94
233.945	151.94
234.179	158.94
234.413	142.94
234.647	143.94
234.881	152.94
235.115	140.94
235.349	144.94
235.583	166.94
235.817	150.94
236.051	158.94
236.285	140.94
236.519	165.94
236.753	167.94
236.987	155.94
237.221	157.94
237.455	165.94
237.689	171.94
237.922	160.94
238.156	159.94
238.39	155.94
238.624	168.94
238.858	153.94
239.091	178.94
239.325	179.94
239.559	172.94
239.793	149.94
240.027	180.94
240.26	191.94
240.494	181.94
240.728	156.94
240.961	174.94
241.195	195.94
241.429	190.94
241.662	174.94
241.896	181.94
242.13	192.94
242.363	182.94
242.597	172.94
242.83	190.94
243.064	202.94
243.298	193.94
243.531	195.94
243.765	201.94
243.998	216.94
244.232	193.94
244.465	209.94
244.699	205.94
244.932	204.94
245.166	199.94
245.399	212.94
245.633	214.94
245.866	202.94
246.099	197.94
246.333	208.94
246.566	211.94
246.8	209.94
247.033	226.94
247.266	217.94
247.5	218.94
247.733	227.94
247.966	225.94
248.2	215.94
248.433	226.94
248.666	234.94
248.899	221.94
249.133	225.94
249.366	249.94
249.599	244.94
249.832	246.94
250.066	227.94
250.299	239.94
250.532	230.94
250.765	249.94
250.998	244.94
251.231	243.94
251.465	262.94
251.698	261.94
251.931	251.94
252.164	255.94
252.397	243.94
252.63	256.94
252.863	251.94
253.096	248.94
253.329	257.94
253.562	242.94
253.795	255.94
254.028	261.94
254.261	275.94
254.494	274.94
254.727	274.94
254.96	263.94
255.193	261.94
255.426	269.94
255.659	286.94
255.892	269.94
256.124	280.94
256.357	266.94
256.59	296.94
256.823	274.94
257.056	283.94
257.289	287.94
257.521	284.94
257.754	308.94
257.987	297.94
258.22	298.94
258.452	282.94
258.685	292.94
258.918	297.94
259.151	311.94
259.383	305.94
259.616	297.94
259.849	280.94
260.081	334.94
260.314	329.94
260.547	302.94
260.779	301.94
261.012	334.94
261.244	328.94
261.477	331.94
261.71	342.94
261.942	326.94
262.175	327.94
262.407	327.94
262.64	345.94
262.872	327.94
263.105	322.94
263.337	328.94
263.57	339.94
263.802	346.94
264.035	329.94
264.267	334.94
264.499	329.94
264.732	332.94
264.964	332.94
265.197	314.94
265.429	348.94
265.661	357.94
265.894	359.94
266.126	359.94
266.358	362.94
266.591	346.94
266.823	357.94
267.055	362.94
267.287	357.94
267.52	366.94
267.752	365.94
267.984	367.94
268.216	385.94
268.448	354.94
268.681	393.94
268.913	369.94
269.145	366.94
269.377	383.94
269.609	388.94
269.841	378.94
270.073	374.94
270.306	379.94
270.538	383.94
270.77	391.94
271.002	396.94
271.234	396.94
271.466	394.94
271.698	408.94
271.93	399.94
272.162	386.94
272.394	413.94
272.626	424.94
272.858	408.94
273.09	393.94
273.322	405.94
273.553	403.94
273.785	403.94
274.017	400.94
274.249	437.94
274.481	426.94
274.713	438.94
274.945	427.94
275.176	441.94
275.408	420.94
275.64	422.94
275.872	442.94
276.104	430.94
276.335	434.94
276.567	433.94
276.799	435.94
277.031	436.94
277.262	429.94
277.494	445.94
277.726	433.94
277.957	450.94
278.189	460.94
278.421	429.94
278.652	457.94
278.884	454.94
279.115	464.94
279.347	454.94
279.579	467.94
279.81	458.94
280.042	477.94
280.273	480.94
280.505	457.94
280.736	461.94
280.968	446.94
281.199	473.94
281.431	485.94
281.662	491.94
281.894	483.94
282.125	477.94
282.356	506.94
282.588	483.94
282.819	484.94
283.051	483.94
283.282	486.94
283.513	474.94
283.745	493.94
283.976	484.94
284.207	512.94
284.439	500.94
284.67	513.94
284.901	505.94
285.132	499.94
285.364	517.94
285.595	505.94
285.826	513.94
286.057	534.94
286.288	500.94
286.52	509.94
286.751	534.94
286.982	533.94
287.213	539.94
287.444	525.94
287.675	515.94
287.906	536.94
288.138	528.94
288.369	542.94
288.6	540.94
288.831	524.94
289.062	559.94
289.293	536.94
289.524	553.94
289.755	533.94
289.986	542.94
290.217	530.94
290.448	537.94
290.679	565.94
290.91	554.94
291.141	541.94
291.371	538.94
291.602	555.94
291.833	546.94
292.064	572.94
292.295	571.94
292.526	565.94
292.757	561.94
292.987	563.94
293.218	556.94
293.449	551.94
293.68	558.94
293.91	574.94
294.141	567.94
294.372	567.94
294.603	541.94
294.833	553.94
295.064	569.94
295.295	585.94
295.525	564.94
295.756	583.94
295.987	533.94
296.217	577.94
296.448	583.94
296.679	566.94
296.909	586.94
297.14	574.94
297.37	602.94
297.601	590.94
297.831	597.94
298.062	604.94
298.292	600.94
298.523	610.94
298.753	596.94
298.984	598.94
299.214	622.94
299.445	606.94
299.675	583.94
299.905	602.94
300.136	615.94
300.366	591.94
300.597	616.94
300.827	625.94
301.057	627.94
301.288	592.94
301.518	609.94
301.748	649.94
301.979	672.94
302.209	625.94
302.439	621.94
302.669	618.94
302.9	642.94
303.13	615.94
303.36	634.94
303.59	667.94
303.82	646.94
304.051	653.94
304.281	653.94
304.511	646.94
304.741	663.94
304.971	650.94
305.201	633.94
305.431	673.94
305.661	657.94
305.891	650.94
306.121	669.94
306.352	647.94
306.582	649.94
306.812	635.94
307.042	663.94
307.272	653.94
307.502	664.94
307.731	668.94
307.961	651.94
308.191	671.94
308.421	692.94
308.651	667.94
308.881	659.94
309.111	664.94
309.341	653.94
309.571	667.94
309.8	663.94
310.03	677.94
310.26	690.94
310.49	687.94
310.72	693.94
310.949	676.94
311.179	690.94
311.409	700.94
311.639	723.94
311.868	680.94
312.098	703.94
312.328	697.94
312.557	718.94
312.787	697.94
313.017	735.94
313.246	727.94
313.476	712.94
313.706	720.94
313.935	716.94
314.165	707.94
314.394	728.94
314.624	705.94
314.853	693.94
315.083	712.94
315.312	728.94
315.542	718.94
315.771	722.94
316.001	733.94
316.23	727.94
316.46	739.94
316.689	751.94
316.919	732.94
317.148	754.94
317.377	741.94
317.607	724.94
317.836	737.94
318.065	755.94
318.295	773.94
318.524	740.94
318.753	740.94
318.983	746.94
319.212	739.94
319.441	759.94
319.67	781.94
319.9	758.94
320.129	767.94
320.358	766.94
320.587	766.94
320.816	779.94
321.046	787.94
321.275	767.94
321.504	775.94
321.733	791.94
321.962	783.94
322.191	763.94
322.42	782.94
322.649	787.94
322.878	779.94
323.108	768.94
323.337	803.94
323.566	804.94
323.795	800.94
324.024	813.94
324.253	806.94
324.482	814.94
324.71	794.94
324.939	782.94
325.168	799.94
325.397	805.94
325.626	805.94
325.855	795.94
326.084	831.94
326.313	817.94
326.542	799.94
326.77	820.94
326.999	813.94
327.228	802.94
327.457	825.94
327.686	819.94
327.914	820.94
328.143	858.94
328.372	799.94
328.6	823.94
328.829	805.94
329.058	804.94
329.287	838.94
329.515	792.94
329.744	825.94
329.972	810.94
330.201	823.94
330.43	817.94
330.658	822.94
330.887	842.94
331.115	853.94
331.344	827.94
331.572	865.94
331.801	876.94
332.03	867.94
332.258	850.94
332.486	887.94
332.715	858.94
332.943	860.94
333.172	839.94
333.4	854.94
333.629	878.94
333.857	878.94
334.085	907.94
334.314	865.94
334.542	910.94
334.771	910.94
334.999	889.94
335.227	900.94
335.455	911.94
335.684	903.94
335.912	924.94
336.14	902.94
336.369	900.94
336.597	898.94
336.825	884.94
337.053	919.94
337.281	914.94
337.51	907.94
337.738	918.94
337.966	895.94
338.194	892.94
338.422	921.94
338.65	892.94
338.878	917.94
339.106	891.94
339.334	926.94
339.562	892.94
339.79	889.94
340.018	890.94
340.246	857.94
340.474	870.94
340.702	878.94
340.93	889.94
341.158	887.94
341.386	891.94
341.614	893.94
341.842	872.94
342.07	879.94
342.298	855.94
342.526	888.94
342.754	884.94
342.981	886.94
343.209	873.94
343.437	897.94
343.665	869.94
343.893	922.94
344.12	927.94
344.348	903.94
344.576	904.94
344.804	899.94
345.031	860.94
345.259	903.94
345.487	901.94
345.714	900.94
345.942	886.94
346.17	888.94
346.397	866.94
346.625	851.94
346.853	869.94
347.08	851.94
347.308	847.94
347.535	857.94
347.763	855.94
347.99	853.94
348.218	856.94
348.445	865.94
348.673	828.94
348.9	861.94
349.128	851.94
349.355	867.94
349.583	851.94
349.81	868.94
350.037	858.94
350.265	819.94
350.492	857.94
350.72	868.94
350.947	835.94
351.174	860.94
351.402	857.94
351.629	845.94
351.856	840.94
352.083	869.94
352.311	829.94
352.538	848.94
352.765	884.94
352.992	845.94
353.22	809.94
353.447	858.94
353.674	856.94
353.901	862.94
354.128	849.94
354.355	838.94
354.583	839.94
354.81	834.94
355.037	860.94
355.264	838.94
355.491	858.94
355.718	868.94
355.945	869.94
356.172	855.94
356.399	857.94
356.626	839.94
356.853	875.94
357.08	842.94
357.307	848.94
357.534	836.94
357.761	834.94
357.988	850.94
358.215	844.94
358.441	851.94
358.668	861.94
358.895	851.94
359.122	871.94
359.349	878.94
359.576	856.94
359.802	837.94
360.029	863.94
360.256	885.94
360.483	858.94
360.709	859.94
360.936	858.94
361.163	871.94
361.39	845.94
361.616	841.94
361.843	859.94
362.07	882.94
362.296	860.94
362.523	870.94
362.749	866.94
362.976	855.94
363.203	865.94
363.429	853.94
363.656	879.94
363.882	871.94
364.109	861.94
364.335	888.94
364.562	891.94
364.788	883.94
365.015	888.94
365.241	883.94
365.468	875.94
365.694	894.94
365.92	903.94
366.147	860.94
366.373	884.94
366.599	863.94
366.826	903.94
367.052	875.94
367.278	887.94
367.505	895.94
367.731	887.94
367.957	872.94
368.184	909.94
368.41	901.94
368.636	882.94
368.862	904.94
369.089	917.94
369.315	897.94
369.541	906.94
369.767	884.94
369.993	912.94
370.219	921.94
370.445	910.94
370.672	913.94
370.898	929.94
371.124	890.94
371.35	917.94
371.576	931.94
371.802	929.94
372.028	917.94
372.254	893.94
372.48	918.94
372.706	949.94
372.932	936.94
373.158	915.94
373.384	922.94
373.61	928.94
373.835	929.94
374.061	928.94
374.287	954.94
374.513	940.94
374.739	930.94
374.965	918.94
375.191	942.94
375.416	951.94
375.642	938.94
375.868	952.94
376.094	937.94
376.319	925.94
376.545	914.94
376.771	909.94
376.997	924.94
377.222	918.94
377.448	901.94
377.674	892.94
377.899	921.94
378.125	896.94
378.35	908.94
378.576	905.94
378.802	918.94
379.027	908.94
379.253	907.94
379.478	894.94
379.704	907.94
379.929	918.94
380.155	926.94
380.38	905.94
380.606	924.94
380.831	943.94
381.057	914.94
381.282	906.94
381.507	927.94
381.733	929.94
381.958	950.94
382.184	943.94
382.409	935.94
382.634	950.94
382.86	936.94
383.085	951.94
383.31	966.94
383.535	968.94
383.761	948.94
383.986	967.94
384.211	968.94
384.436	959.94
384.662	966.94
384.887	965.94
385.112	941.94
385.337	961.94
385.562	991.94
385.787	960.94
386.013	992.94
386.238	1006.94
386.463	994.94
386.688	969.94
386.913	1001.94
387.138	982.94
387.363	999.94
387.588	991.94
387.813	1008.94
388.038	1007.94
388.263	1028.94
388.488	1007.94
388.713	974.94
388.938	1010.94
389.163	999.94
389.387	998.94
389.612	984.94
389.837	1012.94
390.062	1018.94
390.287	993.94
390.512	1005.94
390.736	1020.94
390.961	1031.94
391.186	989.94
391.411	1034.94
391.636	1048.94
391.86	1029.94
392.085	1058.94
392.31	1040.94
392.534	997.94
392.759	1025.94
392.984	1029.94
393.208	1043.94
393.433	1041.94
393.658	1035.94
393.882	1053.94
394.107	1033.94
394.331	1064.94
394.556	1025.94
394.78	1031.94
395.005	1039.94
395.229	1013.94
395.454	1045.94
395.678	1050.94
395.903	1047.94
396.127	1066.94
396.352	1057.94
396.576	1011.94
396.801	1044.94
397.025	1066.94
397.249	1056.94
397.474	1077.94
397.698	1100.94
397.922	1116.94
398.147	1125.94
398.371	1127.94
398.595	1115.94
398.82	1109.94
399.044	1163.94
399.268	1155.94
399.492	1195.94
399.717	1159.94
399.941	1192.94
400.165	1193.94
400.389	1197.94
400.613	1163.94
400.837	1177.94
401.062	1146.94
401.286	1129.94
401.51	1127.94
401.734	1116.94
401.958	1139.94
402.182	1137.94
402.406	1118.94
402.63	1152.94
402.854	1153.94
403.078	1147.94
403.302	1122.94
403.526	1130.94
403.75	1125.94
403.974	1117.94
404.198	1135.94
404.422	1138.94
404.645	1102.94
404.869	1113.94
405.093	1146.94
405.317	1144.94
405.541	1147.94
405.765	1151.94
405.988	1148.94
406.212	1154.94
406.436	1182.94
406.66	1187.94
406.883	1199.94
407.107	1205.94
407.331	1229.94
407.555	1190.94
407.778	1220.94
408.002	1229.94
408.226	1228.94
408.449	1243.94
408.673	1236.94
408.896	1219.94
409.12	1216.94
409.344	1228.94
409.567	1177.94
409.791	1215.94
410.014	1190.94
410.238	1185.94
410.461	1177.94
410.685	1168.94
410.908	1185.94
411.132	1168.94
411.355	1165.94
411.578	1141.94
411.802	1174.94
412.025	1144.94
412.249	1147.94
412.472	1197.94
412.695	1145.94
412.919	1155.94
413.142	1155.94
413.365	1145.94
413.589	1165.94
413.812	1142.94
414.035	1113.94
414.258	1113.94
414.482	1160.94
414.705	1146.94
414.928	1127.94
415.151	1122.94
415.374	1122.94
415.597	1098.94
415.821	1093.94
416.044	1094.94
416.267	1100.94
416.49	1101.94
416.713	1086.94
416.936	1099.94
417.159	1062.94
417.382	1062.94
417.605	1052.94
417.828	1076.94
418.051	1094.94
418.274	1078.94
418.497	1060.94
418.72	1078.94
418.943	1051.94
419.166	1108.94
419.389	1137.94
419.611	1139.94
419.834	1112.94
420.057	1089.94
420.28	1056.94
420.503	1067.94
420.726	1040.94
420.948	1069.94
421.171	1037.94
421.394	1067.94
421.617	1043.94
421.839	1041.94
422.062	1071.94
422.285	1046.94
422.507	1071.94
422.73	1089.94
422.953	1045.94
423.175	1030.94
423.398	1060.94
423.621	1035.94
423.843	1033.94
424.066	1042.94
424.288	1046.94
424.511	1022.94
424.733	1042.94
424.956	1074.94
425.178	1058.94
425.401	1054.94
425.623	1066.94
425.846	1049.94
426.068	1043.94
426.291	1034.94
426.513	1037.94
426.735	1048.94
426.958	1029.94
427.18	1055.94
427.402	1049.94
427.625	1034.94
427.847	1005.94
428.069	1025.94
428.292	1056.94
428.514	1048.94
428.736	991.94
428.958	1010.94
429.181	1009.94
429.403	1027.94
429.625	1033.94
429.847	998.94
430.069	1037.94
430.292	1037.94
430.514	1023.94
430.736	1046.94
430.958	1039.94
431.18	1029.94
431.402	1010.94
431.624	1057.94
431.846	997.94
432.068	1006.94
432.29	1045.94
432.512	1025.94
432.734	1067.94
432.956	1041.94
433.178	1026.94
433.4	1043.94
433.622	1023.94
433.844	1027.94
434.066	1049.94
434.287	1025.94
434.509	1031.94
434.731	1020.94
434.953	1040.94
435.175	1023.94
435.397	1043.94
435.618	1025.94
435.84	1006.94
436.062	1022.94
436.284	1002.94
436.505	1029.94
436.727	1005.94
436.949	1000.94
437.17	996.94
437.392	993.94
437.614	1011.94
437.835	1009.94
438.057	996.94
438.278	981.94
438.5	950.94
438.721	993.94
438.943	1006.94
439.165	979.94
439.386	998.94
439.608	987.94
439.829	984.94
440.05	980.94
440.272	1003.94
440.493	984.94
440.715	1028.94
440.936	972.94
441.158	999.94
441.379	1004.94
441.6	1022.94
441.822	1006.94
442.043	1021.94
442.264	1031.94
442.486	999.94
442.707	1040.94
442.928	1018.94
443.149	1044.94
443.371	1026.94
443.592	1013.94
443.813	998.94
444.034	1003.94
444.255	1010.94
444.476	1044.94
444.698	998.94
444.919	1039.94
445.14	1126.94
445.361	1059.94
445.582	1002.94
445.803	990.94
446.024	1001.94
446.245	1013.94
446.466	1019.94
446.687	983.94
446.908	1014.94
447.129	981.94
447.35	962.94
447.571	997.94
447.792	942.94
448.013	964.94
448.234	903.94
448.455	926.94
448.675	940.94
448.896	938.94
449.117	914.94
449.338	925.94
449.559	936.94
449.779	949.94
450	929.94
450.221	916.94
450.442	933.94
450.662	919.94
450.883	927.94
451.104	922.94
451.324	919.94
451.545	945.94
451.766	938.94
451.986	906.94
452.207	934.94
452.428	927.94
452.648	919.94
452.869	906.94
453.089	886.94
453.31	917.94
453.53	903.94
453.751	904.94
453.971	862.94
454.192	917.94
454.412	898.94
454.633	921.94
454.853	909.94
455.073	887.94
455.294	909.94
455.514	907.94
455.734	896.94
455.955	878.94
456.175	908.94
456.395	919.94
456.616	905.94
456.836	897.94
457.056	898.94
457.276	905.94
457.497	904.94
457.717	895.94
457.937	900.94
458.157	912.94
458.377	918.94
458.598	939.94
458.818	961.94
459.038	956.94
459.258	972.94
459.478	949.94
459.698	1009.94
459.918	966.94
460.138	997.94
460.358	1021.94
460.578	995.94
460.798	997.94
461.018	1014.94
461.238	1005.94
461.458	1039.94
461.678	1034.94
461.898	1034.94
462.118	1048.94
462.338	1034.94
462.558	1075.94
462.777	1044.94
462.997	1050.94
463.217	1063.94
463.437	1102.94
463.657	1057.94
463.876	1076.94
464.096	1089.94
464.316	1065.94
464.536	1060.94
464.755	1060.94
464.975	1055.94
465.195	1022.94
465.414	1020.94
465.634	1031.94
465.854	1015.94
466.073	987.94
466.293	992.94
466.512	981.94
466.732	985.94
466.951	975.94
467.171	974.94
467.391	971.94
467.61	988.94
467.829	970.94
468.049	976.94
468.268	967.94
468.488	981.94
468.707	966.94
468.927	985.94
469.146	947.94
469.365	958.94
469.585	955.94
469.804	982.94
470.023	994.94
470.243	965.94
470.462	966.94
470.681	979.94
470.901	980.94
471.12	984.94
471.339	976.94
471.558	965.94
471.777	1001.94
471.997	980.94
472.216	993.94
472.435	1005.94
472.654	989.94
472.873	975.94
473.092	1011.94
473.311	974.94
473.53	993.94
473.749	993.94
473.968	994.94
474.187	1006.94
474.406	973.94
474.625	1031.94
474.844	998.94
475.063	1003.94
475.282	1039.94
475.501	1038.94
475.72	1017.94
475.939	1051.94
476.158	1054.94
476.377	1051.94
476.596	1043.94
476.814	1085.94
477.033	1076.94
477.252	1064.94
477.471	1080.94
477.69	1080.94
477.908	1089.94
478.127	1079.94
478.346	1106.94
478.564	1108.94
478.783	1117.94
479.002	1174.94
479.22	1141.94
479.439	1142.94
479.658	1165.94
479.876	1161.94
480.095	1168.94
480.313	1153.94
480.532	1195.94
480.751	1153.94
480.969	1163.94
481.188	1152.94
481.406	1157.94
481.624	1158.94
481.843	1159.94
482.061	1172.94
482.28	1195.94
482.498	1174.94
482.717	1175.94
482.935	1164.94
483.153	1139.94
483.372	1218.94
483.59	1219.94
483.808	1174.94
484.027	1190.94
484.245	1185.94
484.463	1195.94
484.681	1241.94
484.9	1220.94
485.118	1191.94
485.336	1226.94
485.554	1192.94
485.772	1198.94
485.99	1204.94
486.209	1215.94
486.427	1238.94
486.645	1232.94
486.863	1203.94
487.081	1222.94
487.299	1217.94
487.517	1213.94
487.735	1227.94
487.953	1235.94
488.171	1228.94
488.389	1211.94
488.607	1249.94
488.825	1227.94
489.043	1218.94
489.261	1272.94
489.479	1196.94
489.696	1221.94
489.914	1233.94
490.132	1253.94
490.35	1239.94
490.568	1242.94
490.786	1222.94
491.003	1211.94
491.221	1216.94
491.439	1197.94
491.657	1245.94
491.874	1250.94
492.092	1285.94
492.31	1245.94
492.527	1253.94
492.745	1257.94
492.963	1262.94
493.18	1275.94
493.398	1238.94
493.615	1265.94
493.833	1245.94
494.05	1282.94
494.268	1267.94
494.485	1252.94
494.703	1287.94
494.92	1268.94
495.138	1269.94
495.355	1282.94
495.573	1291.94
495.79	1308.94
496.008	1313.94
496.225	1301.94
496.442	1345.94
496.66	1342.94
496.877	1345.94
497.094	1362.94
497.312	1347.94
497.529	1356.94
497.746	1391.94
497.963	1390.94
498.181	1413.94
498.398	1459.94
498.615	1484.94
498.832	1494.94
499.049	1515.94
499.267	1506.94
499.484	1558.94
499.701	1592.94
499.918	1640.94
500.135	1660.94
500.352	1695.94
500.569	1675.94
500.786	1685.94
501.003	1668.94
501.22	1643.94
501.437	1616.94
501.654	1571.94
501.871	1586.94
502.088	1521.94
502.305	1507.94
502.522	1481.94
502.739	1441.94
502.956	1413.94
503.172	1429.94
503.389	1383.94
503.606	1319.94
503.823	1320.94
504.04	1349.94
504.256	1323.94
504.473	1332.94
504.69	1292.94
504.907	1279.94
505.123	1292.94
505.34	1301.94
505.557	1218.94
505.773	1230.94
505.99	1217.94
506.207	1205.94
506.423	1176.94
506.64	1180.94
506.856	1162.94
507.073	1167.94
507.289	1165.94
507.506	1157.94
507.722	1143.94
507.939	1147.94
508.155	1150.94
508.372	1115.94
508.588	1121.94
508.805	1098.94
509.021	1098.94
509.238	1089.94
509.454	1117.94
509.67	1063.94
509.887	1093.94
510.103	1079.94
510.319	1104.94
510.536	1099.94
510.752	1090.94
510.968	1078.94
511.184	1054.94
511.401	1061.94
511.617	1044.94
511.833	1052.94
512.049	1052.94
512.265	1037.94
512.481	1077.94
512.698	1061.94
512.914	1077.94
513.13	1062.94
513.346	1049.94
513.562	1060.94
513.778	1077.94
513.994	1062.94
514.21	1047.94
514.426	1076.94
514.642	1045.94
514.858	1073.94
515.074	1083.94
515.29	1053.94
515.506	1021.94
515.721	1063.94
515.937	1077.94
516.153	1083.94
516.369	1088.94
516.585	1048.94
516.801	1051.94
517.016	1090.94
517.232	1099.94
517.448	1111.94
517.664	1093.94
517.879	1114.94
518.095	1099.94
518.311	1081.94
518.527	1105.94
518.742	1090.94
518.958	1064.94
519.173	1069.94
519.389	1078.94
519.605	1033.94
519.82	1051.94
520.036	1058.94
520.251	1064.94
520.467	1045.94
520.682	1038.94
520.898	1046.94
521.113	1033.94
521.329	1009.94
521.544	978.94
521.76	1022.94
521.975	1003.94
522.19	1001.94
522.406	1013.94
522.621	999.94
522.836	987.94
523.052	988.94
523.267	976.94
523.482	935.94
523.698	989.94
523.913	953.94
524.128	980.94
524.343	964.94
524.559	965.94
524.774	981.94
524.989	980.94
525.204	959.94
525.419	945.94
525.634	951.94
525.849	951.94
526.064	971.94
526.28	963.94
526.495	969.94
526.71	917.94
526.925	919.94
527.14	940.94
527.355	926.94
527.57	957.94
527.785	961.94
527.999	949.94
528.214	938.94
528.429	954.94
528.644	957.94
528.859	923.94
529.074	902.94
529.289	951.94
529.503	935.94
529.718	943.94
529.933	923.94
530.148	905.94
530.363	925.94
530.577	901.94
530.792	938.94
531.007	917.94
531.221	894.94
531.436	928.94
531.651	917.94
531.865	913.94
532.08	922.94
532.295	923.94
532.509	897.94
532.724	909.94
532.938	915.94
533.153	897.94
533.367	905.94
533.582	908.94
533.796	911.94
534.011	902.94
534.225	891.94
534.44	891.94
534.654	911.94
534.868	910.94
535.083	888.94
535.297	868.94
535.511	859.94
535.726	876.94
535.94	893.94
536.154	890.94
536.369	841.94
536.583	848.94
536.797	873.94
537.011	884.94
537.225	857.94
537.44	883.94
537.654	858.94
537.868	859.94
538.082	870.94
538.296	852.94
538.51	837.94
538.724	859.94
538.938	851.94
539.153	869.94
539.367	857.94
539.581	826.94
539.795	833.94
540.009	846.94
540.222	846.94
540.436	840.94
540.65	838.94
540.864	843.94
541.078	812.94
541.292	834.94
541.506	807.94
541.72	839.94
541.934	846.94
542.147	869.94
542.361	839.94
542.575	835.94
542.789	827.94
543.002	822.94
543.216	818.94
543.43	815.94
543.644	800.94
543.857	815.94
544.071	827.94
544.285	823.94
544.498	813.94
544.712	815.94
544.925	807.94
545.139	842.94
545.352	810.94
545.566	833.94
545.779	825.94
545.993	827.94
546.206	820.94
546.42	793.94
546.633	810.94
546.847	799.94
547.06	836.94
547.274	826.94
547.487	820.94
547.7	821.94
547.914	832.94
548.127	811.94
548.34	821.94
548.554	791.94
548.767	807.94
548.98	799.94
549.193	805.94
549.407	779.94
549.62	796.94
549.833	809.94
550.046	812.94
550.259	830.94
550.473	799.94
550.686	797.94
550.899	808.94
551.112	781.94
551.325	800.94
551.538	782.94
551.751	782.94
551.964	795.94
552.177	779.94
552.39	791.94
552.603	803.94
552.816	786.94
553.029	827.94
553.242	814.94
553.455	769.94
553.667	794.94
553.88	795.94
554.093	782.94
554.306	789.94
554.519	755.94
554.732	739.94
554.944	754.94
555.157	767.94
555.37	740.94
555.583	736.94
555.795	760.94
556.008	738.94
556.221	748.94
556.433	740.94
556.646	729.94
556.859	731.94
557.071	724.94
557.284	702.94
557.496	717.94
557.709	719.94
557.921	731.94
558.134	718.94
558.346	695.94
558.559	699.94
558.771	703.94
558.984	713.94
559.196	716.94
559.409	679.94
559.621	715.94
559.833	684.94
560.046	675.94
560.258	707.94
560.47	697.94
560.683	691.94
560.895	708.94
561.107	691.94
561.32	708.94
561.532	701.94
561.744	683.94
561.956	695.94
562.168	690.94
562.381	677.94
562.593	686.94
562.805	703.94
563.017	682.94
563.229	684.94
563.441	706.94
563.653	693.94
563.865	693.94
564.077	694.94
564.289	681.94
564.501	688.94
564.713	710.94
564.925	722.94
565.137	727.94
565.349	720.94
565.561	721.94
565.773	724.94
565.985	707.94
566.197	740.94
566.408	758.94
566.62	739.94
566.832	762.94
567.044	780.94
567.255	746.94
567.467	764.94
567.679	753.94
567.891	740.94
568.102	723.94
568.314	726.94
568.526	709.94
568.737	715.94
568.949	700.94
569.161	726.94
569.372	680.94
569.584	677.94
569.795	682.94
570.007	664.94
570.218	678.94
570.43	660.94
570.641	643.94
570.853	645.94
571.064	615.94
571.276	617.94
571.487	625.94
571.698	626.94
571.91	612.94
572.121	608.94
572.333	614.94
572.544	594.94
572.755	591.94
572.966	587.94
573.178	594.94
573.389	579.94
573.6	584.94
573.811	584.94
574.023	539.94
574.234	576.94
574.445	565.94
574.656	568.94
574.867	571.94
575.078	581.94
575.289	553.94
575.501	570.94
575.712	538.94
575.923	542.94
576.134	532.94
576.345	561.94
576.556	540.94
576.767	539.94
576.978	533.94
577.188	522.94
577.399	525.94
577.61	533.94
577.821	553.94
578.032	519.94
578.243	520.94
578.454	499.94
578.665	504.94
578.875	504.94
579.086	511.94
579.297	508.94
579.508	519.94
579.718	505.94
579.929	503.94
580.14	484.94
580.35	486.94
580.561	492.94
580.772	498.94
580.982	494.94
581.193	490.94
581.403	484.94
581.614	523.94
581.825	485.94
582.035	466.94
582.246	472.94
582.456	491.94
582.667	482.94
582.877	492.94
583.087	471.94
583.298	487.94
583.508	479.94
583.719	479.94
583.929	483.94
584.139	482.94
584.35	466.94
584.56	465.94
584.77	453.94
584.981	460.94
585.191	482.94
585.401	477.94
585.611	471.94
585.821	468.94
586.032	472.94
586.242	461.94
586.452	472.94
586.662	451.94
586.872	451.94
587.082	456.94
587.292	457.94
587.502	458.94
587.713	458.94
587.923	462.94
588.133	443.94
588.343	456.94
588.553	439.94
588.762	449.94
588.972	455.94
589.182	461.94
589.392	468.94
589.602	456.94
589.812	476.94
590.022	453.94
590.232	448.94
590.441	458.94
590.651	435.94
590.861	457.94
591.071	447.94
591.281	468.94
591.49	455.94
591.7	448.94
591.91	452.94
592.119	423.94
592.329	450.94
592.539	456.94
592.748	445.94
592.958	442.94
593.167	449.94
593.377	442.94
593.587	462.94
593.796	438.94
594.006	447.94
594.215	424.94
594.424	435.94
594.634	452.94
594.843	441.94
595.053	437.94
595.262	424.94
595.472	425.94
595.681	425.94
595.89	405.94
596.1	415.94
596.309	412.94
596.518	421.94
596.727	418.94
596.937	429.94
597.146	429.94
597.355	413.94
597.564	399.94
597.774	417.94
597.983	395.94
598.192	396.94
598.401	392.94
598.61	394.94
598.819	393.94
599.028	379.94
599.237	378.94
599.446	390.94
599.655	405.94
599.864	391.94
600.073	387.94
600.282	369.94
600.491	387.94
600.7	387.94
600.909	401.94
601.118	376.94
601.327	375.94
601.536	366.94
601.745	376.94
601.953	366.94
602.162	359.94
602.371	369.94
602.58	356.94
602.789	369.94
602.997	355.94
603.206	365.94
603.415	364.94
603.623	360.94
603.832	371.94
604.041	356.94
604.249	359.94
604.458	346.94
604.666	375.94
604.875	375.94
605.084	371.94
605.292	357.94
605.501	340.94
605.709	361.94
605.918	356.94
606.126	363.94
606.334	348.94
606.543	357.94
606.751	343.94
606.96	335.94
607.168	340.94
607.376	334.94
607.585	374.94
607.793	341.94
608.001	350.94
608.21	368.94
608.418	350.94
608.626	361.94
608.834	339.94
609.043	352.94
609.251	331.94
609.459	309.94
609.667	350.94
609.875	338.94
610.083	325.94
610.291	322.94
610.499	333.94
610.707	335.94
610.916	332.94
611.124	341.94
611.332	335.94
611.54	331.94
611.748	344.94
611.955	361.94
612.163	314.94
612.371	339.94
612.579	341.94
612.787	335.94
612.995	343.94
613.203	342.94
613.411	337.94
613.618	328.94
613.826	325.94
614.034	327.94
614.242	326.94
614.449	314.94
614.657	338.94
614.865	338.94
615.072	334.94
615.28	328.94
615.488	332.94
615.695	333.94
615.903	319.94
616.111	329.94
616.318	316.94
616.526	338.94
616.733	333.94
616.941	311.94
617.148	329.94
617.356	327.94
617.563	334.94
617.771	316.94
617.978	313.94
618.185	304.94
618.393	306.94
618.6	309.94
618.807	313.94
619.015	297.94
619.222	294.94
619.429	314.94
619.637	294.94
619.844	298.94
620.051	301.94
620.258	300.94
620.466	302.94
620.673	287.94
620.88	303.94
621.087	281.94
621.294	291.94
621.501	289.94
621.708	299.94
621.915	298.94
622.122	278.94
622.329	296.94
622.536	296.94
622.743	287.94
622.95	307.94
623.157	307.94
623.364	300.94
623.571	325.94
623.778	301.94
623.985	277.94
624.192	283.94
624.399	264.94
624.606	313.94
624.812	294.94
625.019	293.94
625.226	276.94
625.433	283.94
625.639	280.94
625.846	278.94
626.053	283.94
626.259	291.94
626.466	268.94
626.673	277.94
626.879	284.94
627.086	283.94
627.293	289.94
627.499	279.94
627.706	279.94
627.912	281.94
628.119	286.94
628.325	277.94
628.532	258.94
628.738	266.94
628.945	272.94
629.151	258.94
629.357	276.94
629.564	269.94
629.77	267.94
629.976	263.94
630.183	234.94
630.389	264.94
630.595	267.94
630.802	269.94
631.008	265.94
631.214	257.94
631.42	273.94
631.627	254.94
631.833	265.94
632.039	254.94
632.245	265.94
632.451	264.94
632.657	262.94
632.863	258.94
633.069	258.94
633.275	254.94
633.481	256.94
633.688	229.94
633.893	253.94
634.099	265.94
634.305	266.94
634.511	243.94
634.717	229.94
634.923	244.94
635.129	227.94
635.335	247.94
635.541	249.94
635.747	251.94
635.952	222.94
636.158	238.94
636.364	244.94
636.57	249.94
636.775	257.94
636.981	238.94
637.187	236.94
637.392	244.94
637.598	243.94
637.804	248.94
638.009	238.94
638.215	229.94
638.421	243.94
638.626	227.94
638.832	243.94
639.037	248.94
639.243	228.94
639.448	243.94
639.654	241.94
639.859	229.94
640.065	243.94
640.27	241.94
640.475	232.94
640.681	245.94
640.886	243.94
641.091	250.94
641.297	266.94
641.502	242.94
641.707	214.94
641.913	236.94
642.118	226.94
642.323	231.94
642.528	235.94
642.733	225.94
642.939	229.94
643.144	233.94
643.349	237.94
643.554	233.94
643.759	234.94
643.964	231.94
644.169	237.94
644.374	226.94
644.579	244.94
644.784	232.94
644.989	241.94
645.194	211.94
645.399	238.94
645.604	225.94
645.809	223.94
646.014	216.94
646.219	232.94
646.423	229.94
646.628	229.94
646.833	239.94
647.038	236.94
647.243	239.94
647.447	251.94
647.652	229.94
647.857	230.94
648.062	218.94
648.266	233.94
648.471	227.94
648.676	240.94
648.88	230.94
649.085	227.94
649.289	222.94
649.494	235.94
649.698	233.94
649.903	241.94
650.107	233.94
650.312	216.94
650.516	239.94
650.721	225.94
650.925	225.94
651.13	225.94
651.334	229.94
651.539	223.94
651.743	225.94
651.947	204.94
652.152	219.94
652.356	214.94
652.56	219.94
652.764	210.94
652.969	213.94
653.173	208.94
653.377	206.94
653.581	204.94
653.785	198.94
653.99	182.94
654.194	195.94
654.398	200.94
654.602	202.94
654.806	201.94
655.01	202.94
655.214	174.94
655.418	206.94
655.622	203.94
655.826	200.94
656.03	207.94
656.234	203.94
656.438	172.94
656.642	186.94
656.846	181.94
657.049	179.94
657.253	183.94
657.457	180.94
657.661	156.94
657.865	182.94
658.068	156.94
658.272	157.94
658.476	151.94
658.68	139.94
658.883	129.94
659.087	141.94
659.291	125.94
659.494	139.94
659.698	117.94
659.901	118.94
660.105	121.94
660.309	118.94
660.512	82.94
660.716	129.94
660.919	101.94
661.123	117.94
661.326	102.94
661.53	102.94
661.733	110.94
661.936	93.94
662.14	98.94
662.343	99.94
662.546	103.94
662.75	94.94
662.953	97.94
663.156	90.94
663.36	75.94
663.563	92.94
663.766	81.94
663.969	95.94
664.173	95.94
664.376	68.94
664.579	90.94
664.782	93.94
664.985	89.94
665.188	93.94
665.391	83.94
665.594	78.94
665.797	75.94
666	82.94
666.203	89.94
666.406	81.94
666.609	87.94
666.812	83.94
667.015	83.94
667.218	93.94
667.421	110.94
667.624	80.94
667.827	91.94
668.03	90.94
668.232	94.94
668.435	95.94
668.638	86.94
668.841	79.94
669.043	81.94
669.246	77.94
669.449	78.94
669.651	83.94
669.854	86.94
670.057	84.94
670.259	93.94
670.462	100.94
670.665	75.94
670.867	91.94
671.07	83.94
671.272	76.94
671.475	75.94
671.677	69.94
671.88	86.94
672.082	93.94
672.284	94.94
672.487	78.94
672.689	75.94
672.892	82.94
