Data from Fe(NO3)3@0.05M.TitratingCurve.Agarose3%dH2O.NegLispCup.LampEnergy10.LIBS07252019_HRD10591_16-47-26-335.txt Node
Date: Thu Jul 25 16:47:26 EDT 2019
User: cochatt
Spectrometer: HR+D1059
Trigger mode: 1
Integration Time (sec): 1.000000E-1
Scans to average: 1
Electric dark correction enabled: true
Nonlinearity correction enabled: false
Boxcar width: 0
XAxis mode: Wavelengths
Number of Pixels in Spectrum: 2048
>>>>>Begin Spectral Data<<<<<
223.165	2.75
223.4	2.75
223.635	2.75
223.869	-5.25
224.104	-19.25
224.338	-6.25
224.573	-30.25
224.808	-18.25
225.042	-0.25
225.277	-5.25
225.511	2.75
225.746	-5.25
225.98	4.75
226.215	-8.25
226.449	14.75
226.683	6.75
226.918	29.75
227.152	36.75
227.387	35.75
227.621	45.75
227.856	49.75
228.09	39.75
228.324	44.75
228.559	47.75
228.793	52.75
229.027	65.75
229.262	84.75
229.496	96.75
229.73	99.75
229.964	96.75
230.199	78.75
230.433	90.75
230.667	86.75
230.901	103.75
231.136	99.75
231.37	109.75
231.604	110.75
231.838	99.75
232.072	125.75
232.306	99.75
232.541	105.75
232.775	122.75
233.009	97.75
233.243	113.75
233.477	107.75
233.711	108.75
233.945	107.75
234.179	110.75
234.413	98.75
234.647	114.75
234.881	126.75
235.115	111.75
235.349	109.75
235.583	100.75
235.817	102.75
236.051	113.75
236.285	95.75
236.519	117.75
236.753	114.75
236.987	115.75
237.221	102.75
237.455	104.75
237.689	106.75
237.922	117.75
238.156	113.75
238.39	114.75
238.624	122.75
238.858	116.75
239.091	111.75
239.325	133.75
239.559	113.75
239.793	120.75
240.027	132.75
240.26	115.75
240.494	110.75
240.728	120.75
240.961	132.75
241.195	122.75
241.429	99.75
241.662	120.75
241.896	125.75
242.13	125.75
242.363	138.75
242.597	122.75
242.83	117.75
243.064	134.75
243.298	137.75
243.531	105.75
243.765	129.75
243.998	137.75
244.232	118.75
244.465	137.75
244.699	117.75
244.932	117.75
245.166	130.75
245.399	125.75
245.633	115.75
245.866	125.75
246.099	122.75
246.333	141.75
246.566	130.75
246.8	129.75
247.033	130.75
247.266	141.75
247.5	141.75
247.733	162.75
247.966	151.75
248.2	137.75
248.433	143.75
248.666	135.75
248.899	151.75
249.133	157.75
249.366	157.75
249.599	156.75
249.832	143.75
250.066	138.75
250.299	142.75
250.532	140.75
250.765	146.75
250.998	136.75
251.231	127.75
251.465	143.75
251.698	146.75
251.931	147.75
252.164	145.75
252.397	137.75
252.63	158.75
252.863	171.75
253.096	155.75
253.329	146.75
253.562	157.75
253.795	174.75
254.028	174.75
254.261	162.75
254.494	147.75
254.727	159.75
254.96	152.75
255.193	172.75
255.426	145.75
255.659	163.75
255.892	162.75
256.124	157.75
256.357	147.75
256.59	174.75
256.823	168.75
257.056	153.75
257.289	167.75
257.521	160.75
257.754	167.75
257.987	160.75
258.22	167.75
258.452	172.75
258.685	167.75
258.918	191.75
259.151	178.75
259.383	164.75
259.616	178.75
259.849	190.75
260.081	203.75
260.314	210.75
260.547	184.75
260.779	167.75
261.012	197.75
261.244	199.75
261.477	203.75
261.71	211.75
261.942	193.75
262.175	190.75
262.407	190.75
262.64	188.75
262.872	200.75
263.105	202.75
263.337	201.75
263.57	174.75
263.802	172.75
264.035	167.75
264.267	166.75
264.499	179.75
264.732	194.75
264.964	180.75
265.197	191.75
265.429	161.75
265.661	179.75
265.894	170.75
266.126	186.75
266.358	191.75
266.591	201.75
266.823	194.75
267.055	168.75
267.287	180.75
267.52	183.75
267.752	195.75
267.984	187.75
268.216	173.75
268.448	181.75
268.681	185.75
268.913	173.75
269.145	203.75
269.377	185.75
269.609	173.75
269.841	193.75
270.073	189.75
270.306	193.75
270.538	204.75
270.77	181.75
271.002	197.75
271.234	201.75
271.466	200.75
271.698	204.75
271.93	193.75
272.162	181.75
272.394	206.75
272.626	196.75
272.858	197.75
273.09	197.75
273.322	203.75
273.553	198.75
273.785	211.75
274.017	225.75
274.249	241.75
274.481	229.75
274.713	242.75
274.945	247.75
275.176	247.75
275.408	242.75
275.64	245.75
275.872	252.75
276.104	236.75
276.335	215.75
276.567	221.75
276.799	232.75
277.031	223.75
277.262	230.75
277.494	214.75
277.726	205.75
277.957	219.75
278.189	211.75
278.421	217.75
278.652	226.75
278.884	221.75
279.115	225.75
279.347	227.75
279.579	204.75
279.81	223.75
280.042	217.75
280.273	227.75
280.505	219.75
280.736	217.75
280.968	205.75
281.199	217.75
281.431	217.75
281.662	217.75
281.894	234.75
282.125	205.75
282.356	215.75
282.588	238.75
282.819	222.75
283.051	237.75
283.282	231.75
283.513	232.75
283.745	219.75
283.976	216.75
284.207	233.75
284.439	234.75
284.67	234.75
284.901	231.75
285.132	230.75
285.364	246.75
285.595	234.75
285.826	230.75
286.057	245.75
286.288	217.75
286.52	238.75
286.751	251.75
286.982	240.75
287.213	225.75
287.444	239.75
287.675	236.75
287.906	256.75
288.138	248.75
288.369	249.75
288.6	245.75
288.831	260.75
289.062	247.75
289.293	236.75
289.524	244.75
289.755	241.75
289.986	246.75
290.217	261.75
290.448	226.75
290.679	233.75
290.91	247.75
291.141	240.75
291.371	245.75
291.602	242.75
291.833	247.75
292.064	246.75
292.295	265.75
292.526	249.75
292.757	246.75
292.987	255.75
293.218	254.75
293.449	251.75
293.68	239.75
293.91	267.75
294.141	271.75
294.372	237.75
294.603	244.75
294.833	241.75
295.064	248.75
295.295	261.75
295.525	245.75
295.756	251.75
295.987	252.75
296.217	244.75
296.448	246.75
296.679	254.75
296.909	276.75
297.14	266.75
297.37	275.75
297.601	273.75
297.831	268.75
298.062	253.75
298.292	265.75
298.523	286.75
298.753	276.75
298.984	270.75
299.214	248.75
299.445	270.75
299.675	273.75
299.905	271.75
300.136	268.75
300.366	283.75
300.597	283.75
300.827	281.75
301.057	279.75
301.288	277.75
301.518	271.75
301.748	283.75
301.979	284.75
302.209	282.75
302.439	301.75
302.669	283.75
302.9	281.75
303.13	258.75
303.36	263.75
303.59	267.75
303.82	275.75
304.051	270.75
304.281	292.75
304.511	279.75
304.741	286.75
304.971	284.75
305.201	282.75
305.431	287.75
305.661	285.75
305.891	272.75
306.121	304.75
306.352	282.75
306.582	282.75
306.812	263.75
307.042	285.75
307.272	286.75
307.502	257.75
307.731	283.75
307.961	286.75
308.191	285.75
308.421	280.75
308.651	294.75
308.881	282.75
309.111	281.75
309.341	291.75
309.571	298.75
309.8	296.75
310.03	300.75
310.26	300.75
310.49	295.75
310.72	287.75
310.949	287.75
311.179	283.75
311.409	291.75
311.639	293.75
311.868	301.75
312.098	308.75
312.328	289.75
312.557	296.75
312.787	294.75
313.017	310.75
313.246	279.75
313.476	302.75
313.706	317.75
313.935	300.75
314.165	298.75
314.394	302.75
314.624	298.75
314.853	309.75
315.083	294.75
315.312	310.75
315.542	303.75
315.771	289.75
316.001	322.75
316.23	308.75
316.46	293.75
316.689	310.75
316.919	296.75
317.148	287.75
317.377	306.75
317.607	294.75
317.836	301.75
318.065	285.75
318.295	303.75
318.524	306.75
318.753	305.75
318.983	299.75
319.212	276.75
319.441	292.75
319.67	319.75
319.9	303.75
320.129	301.75
320.358	310.75
320.587	304.75
320.816	309.75
321.046	314.75
321.275	297.75
321.504	308.75
321.733	307.75
321.962	298.75
322.191	296.75
322.42	314.75
322.649	317.75
322.878	313.75
323.108	301.75
323.337	303.75
323.566	326.75
323.795	292.75
324.024	305.75
324.253	315.75
324.482	330.75
324.71	297.75
324.939	309.75
325.168	324.75
325.397	328.75
325.626	311.75
325.855	319.75
326.084	320.75
326.313	327.75
326.542	336.75
326.77	322.75
326.999	318.75
327.228	328.75
327.457	330.75
327.686	327.75
327.914	331.75
328.143	329.75
328.372	312.75
328.6	326.75
328.829	341.75
329.058	326.75
329.287	321.75
329.515	333.75
329.744	329.75
329.972	350.75
330.201	323.75
330.43	319.75
330.658	332.75
330.887	340.75
331.115	347.75
331.344	346.75
331.572	326.75
331.801	351.75
332.03	336.75
332.258	358.75
332.486	364.75
332.715	356.75
332.943	375.75
333.172	371.75
333.4	404.75
333.629	395.75
333.857	393.75
334.085	406.75
334.314	398.75
334.542	420.75
334.771	389.75
334.999	390.75
335.227	406.75
335.455	389.75
335.684	367.75
335.912	371.75
336.14	381.75
336.369	382.75
336.597	386.75
336.825	369.75
337.053	387.75
337.281	392.75
337.51	358.75
337.738	377.75
337.966	375.75
338.194	366.75
338.422	353.75
338.65	362.75
338.878	357.75
339.106	362.75
339.334	341.75
339.562	373.75
339.79	344.75
340.018	353.75
340.246	330.75
340.474	341.75
340.702	353.75
340.93	332.75
341.158	338.75
341.386	343.75
341.614	349.75
341.842	334.75
342.07	341.75
342.298	335.75
342.526	333.75
342.754	345.75
342.981	374.75
343.209	357.75
343.437	373.75
343.665	375.75
343.893	391.75
344.12	409.75
344.348	394.75
344.576	375.75
344.804	359.75
345.031	353.75
345.259	352.75
345.487	362.75
345.714	330.75
345.942	339.75
346.17	343.75
346.397	330.75
346.625	328.75
346.853	318.75
347.08	341.75
347.308	332.75
347.535	339.75
347.763	339.75
347.99	347.75
348.218	336.75
348.445	343.75
348.673	335.75
348.9	336.75
349.128	325.75
349.355	335.75
349.583	325.75
349.81	310.75
350.037	337.75
350.265	335.75
350.492	332.75
350.72	309.75
350.947	338.75
351.174	334.75
351.402	341.75
351.629	317.75
351.856	337.75
352.083	339.75
352.311	325.75
352.538	329.75
352.765	335.75
352.992	323.75
353.22	316.75
353.447	333.75
353.674	342.75
353.901	323.75
354.128	334.75
354.355	312.75
354.583	329.75
354.81	309.75
355.037	316.75
355.264	339.75
355.491	314.75
355.718	325.75
355.945	315.75
356.172	334.75
356.399	342.75
356.626	336.75
356.853	356.75
357.08	348.75
357.307	355.75
357.534	339.75
357.761	336.75
357.988	343.75
358.215	355.75
358.441	334.75
358.668	350.75
358.895	327.75
359.122	338.75
359.349	347.75
359.576	337.75
359.802	339.75
360.029	332.75
360.256	349.75
360.483	339.75
360.709	336.75
360.936	330.75
361.163	319.75
361.39	353.75
361.616	351.75
361.843	346.75
362.07	351.75
362.296	343.75
362.523	325.75
362.749	336.75
362.976	346.75
363.203	351.75
363.429	346.75
363.656	319.75
363.882	347.75
364.109	325.75
364.335	336.75
364.562	341.75
364.788	339.75
365.015	336.75
365.241	350.75
365.468	336.75
365.694	348.75
365.92	342.75
366.147	335.75
366.373	340.75
366.599	341.75
366.826	337.75
367.052	345.75
367.278	349.75
367.505	359.75
367.731	339.75
367.957	334.75
368.184	342.75
368.41	333.75
368.636	366.75
368.862	363.75
369.089	357.75
369.315	358.75
369.541	338.75
369.767	344.75
369.993	352.75
370.219	370.75
370.445	348.75
370.672	349.75
370.898	358.75
371.124	369.75
371.35	371.75
371.576	385.75
371.802	347.75
372.028	364.75
372.254	386.75
372.48	372.75
372.706	392.75
372.932	387.75
373.158	383.75
373.384	381.75
373.61	371.75
373.835	393.75
374.061	382.75
374.287	393.75
374.513	380.75
374.739	385.75
374.965	418.75
375.191	408.75
375.416	394.75
375.642	405.75
375.868	381.75
376.094	399.75
376.319	386.75
376.545	391.75
376.771	390.75
376.997	383.75
377.222	391.75
377.448	362.75
377.674	374.75
377.899	377.75
378.125	381.75
378.35	357.75
378.576	366.75
378.802	376.75
379.027	381.75
379.253	373.75
379.478	371.75
379.704	375.75
379.929	366.75
380.155	375.75
380.38	372.75
380.606	380.75
380.831	377.75
381.057	376.75
381.282	389.75
381.507	378.75
381.733	376.75
381.958	379.75
382.184	401.75
382.409	403.75
382.634	405.75
382.86	411.75
383.085	406.75
383.31	395.75
383.535	403.75
383.761	405.75
383.986	410.75
384.211	402.75
384.436	429.75
384.662	434.75
384.887	441.75
385.112	435.75
385.337	458.75
385.562	439.75
385.787	446.75
386.013	452.75
386.238	453.75
386.463	462.75
386.688	458.75
386.913	446.75
387.138	432.75
387.363	456.75
387.588	439.75
387.813	451.75
388.038	445.75
388.263	437.75
388.488	472.75
388.713	465.75
388.938	459.75
389.163	439.75
389.387	426.75
389.612	457.75
389.837	435.75
390.062	431.75
390.287	456.75
390.512	430.75
390.736	455.75
390.961	429.75
391.186	467.75
391.411	460.75
391.636	468.75
391.86	487.75
392.085	487.75
392.31	475.75
392.534	489.75
392.759	473.75
392.984	457.75
393.208	492.75
393.433	487.75
393.658	466.75
393.882	478.75
394.107	461.75
394.331	473.75
394.556	470.75
394.78	461.75
395.005	456.75
395.229	478.75
395.454	492.75
395.678	485.75
395.903	485.75
396.127	490.75
396.352	489.75
396.576	454.75
396.801	507.75
397.025	505.75
397.249	521.75
397.474	505.75
397.698	498.75
397.922	489.75
398.147	516.75
398.371	501.75
398.595	529.75
398.82	534.75
399.044	563.75
399.268	595.75
399.492	682.75
399.717	732.75
399.941	695.75
400.165	681.75
400.389	634.75
400.613	590.75
400.837	602.75
401.062	540.75
401.286	553.75
401.51	561.75
401.734	563.75
401.958	548.75
402.182	552.75
402.406	567.75
402.63	567.75
402.854	574.75
403.078	563.75
403.302	577.75
403.526	578.75
403.75	590.75
403.974	594.75
404.198	577.75
404.422	598.75
404.645	587.75
404.869	611.75
405.093	590.75
405.317	590.75
405.541	604.75
405.765	621.75
405.988	567.75
406.212	593.75
406.436	591.75
406.66	587.75
406.883	591.75
407.107	645.75
407.331	659.75
407.555	655.75
407.778	664.75
408.002	639.75
408.226	645.75
408.449	618.75
408.673	609.75
408.896	613.75
409.12	600.75
409.344	607.75
409.567	583.75
409.791	605.75
410.014	577.75
410.238	569.75
410.461	586.75
410.685	615.75
410.908	591.75
411.132	582.75
411.355	565.75
411.578	581.75
411.802	557.75
412.025	573.75
412.249	611.75
412.472	589.75
412.695	543.75
412.919	557.75
413.142	563.75
413.365	556.75
413.589	555.75
413.812	565.75
414.035	553.75
414.258	551.75
414.482	574.75
414.705	548.75
414.928	570.75
415.151	550.75
415.374	555.75
415.597	560.75
415.821	549.75
416.044	540.75
416.267	532.75
416.49	535.75
416.713	533.75
416.936	539.75
417.159	534.75
417.382	541.75
417.605	532.75
417.828	558.75
418.051	533.75
418.274	545.75
418.497	548.75
418.72	572.75
418.943	553.75
419.166	585.75
419.389	599.75
419.611	573.75
419.834	570.75
420.057	577.75
420.28	553.75
420.503	540.75
420.726	535.75
420.948	536.75
421.171	539.75
421.394	562.75
421.617	535.75
421.839	555.75
422.062	557.75
422.285	540.75
422.507	568.75
422.73	528.75
422.953	534.75
423.175	555.75
423.398	582.75
423.621	551.75
423.843	547.75
424.066	571.75
424.288	551.75
424.511	545.75
424.733	543.75
424.956	549.75
425.178	553.75
425.401	550.75
425.623	557.75
425.846	543.75
426.068	533.75
426.291	538.75
426.513	515.75
426.735	530.75
426.958	522.75
427.18	525.75
427.402	518.75
427.625	515.75
427.847	517.75
428.069	516.75
428.292	513.75
428.514	525.75
428.736	509.75
428.958	516.75
429.181	501.75
429.403	495.75
429.625	499.75
429.847	485.75
430.069	517.75
430.292	502.75
430.514	507.75
430.736	501.75
430.958	505.75
431.18	519.75
431.402	514.75
431.624	501.75
431.846	508.75
432.068	492.75
432.29	536.75
432.512	513.75
432.734	523.75
432.956	517.75
433.178	519.75
433.4	502.75
433.622	513.75
433.844	550.75
434.066	525.75
434.287	542.75
434.509	538.75
434.731	545.75
434.953	542.75
435.175	535.75
435.397	554.75
435.618	539.75
435.84	522.75
436.062	504.75
436.284	525.75
436.505	521.75
436.727	524.75
436.949	528.75
437.17	520.75
437.392	508.75
437.614	502.75
437.835	487.75
438.057	505.75
438.278	521.75
438.5	503.75
438.721	493.75
438.943	507.75
439.165	504.75
439.386	514.75
439.608	513.75
439.829	511.75
440.05	514.75
440.272	503.75
440.493	521.75
440.715	553.75
440.936	535.75
441.158	538.75
441.379	549.75
441.6	575.75
441.822	576.75
442.043	549.75
442.264	563.75
442.486	583.75
442.707	564.75
442.928	554.75
443.149	547.75
443.371	551.75
443.592	530.75
443.813	550.75
444.034	563.75
444.255	588.75
444.476	596.75
444.698	629.75
444.919	614.75
445.14	700.75
445.361	612.75
445.582	577.75
445.803	575.75
446.024	553.75
446.245	550.75
446.466	545.75
446.687	535.75
446.908	531.75
447.129	520.75
447.35	488.75
447.571	511.75
447.792	503.75
448.013	478.75
448.234	502.75
448.455	517.75
448.675	480.75
448.896	485.75
449.117	485.75
449.338	486.75
449.559	493.75
449.779	461.75
450	483.75
450.221	490.75
450.442	498.75
450.662	483.75
450.883	493.75
451.104	485.75
451.324	493.75
451.545	490.75
451.766	491.75
451.986	469.75
452.207	465.75
452.428	467.75
452.648	499.75
452.869	467.75
453.089	469.75
453.31	469.75
453.53	447.75
453.751	457.75
453.971	457.75
454.192	461.75
454.412	462.75
454.633	471.75
454.853	464.75
455.073	444.75
455.294	466.75
455.514	451.75
455.734	473.75
455.955	451.75
456.175	450.75
456.395	461.75
456.616	444.75
456.836	464.75
457.056	477.75
457.276	441.75
457.497	445.75
457.717	465.75
457.937	462.75
458.157	477.75
458.377	446.75
458.598	470.75
458.818	490.75
459.038	475.75
459.258	501.75
459.478	533.75
459.698	532.75
459.918	547.75
460.138	563.75
460.358	568.75
460.578	574.75
460.798	568.75
461.018	589.75
461.238	576.75
461.458	572.75
461.678	579.75
461.898	612.75
462.118	590.75
462.338	622.75
462.558	625.75
462.777	631.75
462.997	668.75
463.217	686.75
463.437	710.75
463.657	700.75
463.876	690.75
464.096	671.75
464.316	669.75
464.536	641.75
464.755	635.75
464.975	616.75
465.195	599.75
465.414	583.75
465.634	547.75
465.854	550.75
466.073	550.75
466.293	527.75
466.512	517.75
466.732	531.75
466.951	541.75
467.171	511.75
467.391	499.75
467.61	511.75
467.829	494.75
468.049	509.75
468.268	485.75
468.488	488.75
468.707	497.75
468.927	507.75
469.146	503.75
469.365	514.75
469.585	524.75
469.804	523.75
470.023	542.75
470.243	503.75
470.462	521.75
470.681	516.75
470.901	517.75
471.12	509.75
471.339	524.75
471.558	515.75
471.777	547.75
471.997	532.75
472.216	527.75
472.435	501.75
472.654	515.75
472.873	489.75
473.092	500.75
473.311	499.75
473.53	490.75
473.749	525.75
473.968	494.75
474.187	521.75
474.406	501.75
474.625	505.75
474.844	499.75
475.063	501.75
475.282	493.75
475.501	509.75
475.72	491.75
475.939	497.75
476.158	491.75
476.377	538.75
476.596	534.75
476.814	517.75
477.033	519.75
477.252	509.75
477.471	539.75
477.69	543.75
477.908	563.75
478.127	597.75
478.346	577.75
478.564	579.75
478.783	578.75
479.002	602.75
479.22	613.75
479.439	612.75
479.658	581.75
479.876	574.75
480.095	613.75
480.313	607.75
480.532	621.75
480.751	592.75
480.969	609.75
481.188	606.75
481.406	605.75
481.624	614.75
481.843	602.75
482.061	562.75
482.28	597.75
482.498	589.75
482.717	553.75
482.935	558.75
483.153	580.75
483.372	584.75
483.59	594.75
483.808	584.75
484.027	573.75
484.245	579.75
484.463	554.75
484.681	581.75
484.9	593.75
485.118	583.75
485.336	605.75
485.554	573.75
485.772	608.75
485.99	604.75
486.209	585.75
486.427	585.75
486.645	570.75
486.863	569.75
487.081	580.75
487.299	591.75
487.517	573.75
487.735	602.75
487.953	601.75
488.171	600.75
488.389	627.75
488.607	582.75
488.825	587.75
489.043	569.75
489.261	585.75
489.479	580.75
489.696	591.75
489.914	631.75
490.132	597.75
490.35	593.75
490.568	614.75
490.786	604.75
491.003	613.75
491.221	599.75
491.439	613.75
491.657	633.75
491.874	631.75
492.092	627.75
492.31	636.75
492.527	635.75
492.745	610.75
492.963	627.75
493.18	614.75
493.398	614.75
493.615	611.75
493.833	624.75
494.05	626.75
494.268	636.75
494.485	632.75
494.703	615.75
494.92	621.75
495.138	637.75
495.355	648.75
495.573	647.75
495.79	623.75
496.008	629.75
496.225	656.75
496.442	646.75
496.66	642.75
496.877	678.75
497.094	700.75
497.312	685.75
497.529	693.75
497.746	709.75
497.963	704.75
498.181	720.75
498.398	756.75
498.615	803.75
498.832	834.75
499.049	889.75
499.267	885.75
499.484	980.75
499.701	1034.75
499.918	1081.75
500.135	1174.75
500.352	1294.75
500.569	1325.75
500.786	1334.75
501.003	1277.75
501.22	1187.75
501.437	1086.75
501.654	1012.75
501.871	957.75
502.088	861.75
502.305	844.75
502.522	805.75
502.739	794.75
502.956	744.75
503.172	733.75
503.389	727.75
503.606	708.75
503.823	664.75
504.04	672.75
504.256	704.75
504.473	660.75
504.69	690.75
504.907	681.75
505.123	667.75
505.34	646.75
505.557	614.75
505.773	590.75
505.99	600.75
506.207	579.75
506.423	559.75
506.64	567.75
506.856	566.75
507.073	569.75
507.289	574.75
507.506	568.75
507.722	544.75
507.939	539.75
508.155	554.75
508.372	555.75
508.588	520.75
508.805	559.75
509.021	515.75
509.238	548.75
509.454	503.75
509.67	539.75
509.887	528.75
510.103	499.75
510.319	533.75
510.536	531.75
510.752	517.75
510.968	505.75
511.184	512.75
511.401	515.75
511.617	504.75
511.833	506.75
512.049	510.75
512.265	519.75
512.481	511.75
512.698	508.75
512.914	519.75
513.13	511.75
513.346	524.75
513.562	518.75
513.778	502.75
513.994	495.75
514.21	497.75
514.426	510.75
514.642	524.75
514.858	518.75
515.074	506.75
515.29	526.75
515.506	512.75
515.721	533.75
515.937	523.75
516.153	551.75
516.369	558.75
516.585	534.75
516.801	561.75
517.016	572.75
517.232	574.75
517.448	594.75
517.664	648.75
517.879	601.75
518.095	616.75
518.311	603.75
518.527	583.75
518.742	559.75
518.958	556.75
519.173	551.75
519.389	569.75
519.605	540.75
519.82	539.75
520.036	551.75
520.251	521.75
520.467	529.75
520.682	509.75
520.898	511.75
521.113	498.75
521.329	487.75
521.544	515.75
521.76	490.75
521.975	497.75
522.19	498.75
522.406	479.75
522.621	491.75
522.836	483.75
523.052	490.75
523.267	483.75
523.482	476.75
523.698	483.75
523.913	472.75
524.128	473.75
524.343	477.75
524.559	468.75
524.774	459.75
524.989	471.75
525.204	471.75
525.419	467.75
525.634	464.75
525.849	482.75
526.064	463.75
526.28	470.75
526.495	454.75
526.71	443.75
526.925	464.75
527.14	469.75
527.355	470.75
527.57	444.75
527.785	441.75
527.999	446.75
528.214	458.75
528.429	474.75
528.644	454.75
528.859	452.75
529.074	474.75
529.289	469.75
529.503	457.75
529.718	466.75
529.933	473.75
530.148	461.75
530.363	459.75
530.577	426.75
530.792	454.75
531.007	452.75
531.221	440.75
531.436	440.75
531.651	440.75
531.865	466.75
532.08	467.75
532.295	462.75
532.509	441.75
532.724	450.75
532.938	463.75
533.153	446.75
533.367	455.75
533.582	473.75
533.796	450.75
534.011	455.75
534.225	454.75
534.44	448.75
534.654	441.75
534.868	447.75
535.083	450.75
535.297	469.75
535.511	471.75
535.726	446.75
535.94	452.75
536.154	450.75
536.369	441.75
536.583	423.75
536.797	422.75
537.011	443.75
537.225	444.75
537.44	441.75
537.654	442.75
537.868	424.75
538.082	423.75
538.296	427.75
538.51	427.75
538.724	429.75
538.938	427.75
539.153	426.75
539.367	431.75
539.581	422.75
539.795	407.75
540.009	473.75
540.222	424.75
540.436	407.75
540.65	443.75
540.864	436.75
541.078	417.75
541.292	437.75
541.506	417.75
541.72	433.75
541.934	418.75
542.147	417.75
542.361	419.75
542.575	437.75
542.789	417.75
543.002	421.75
543.216	438.75
543.43	427.75
543.644	424.75
543.857	418.75
544.071	406.75
544.285	414.75
544.498	424.75
544.712	430.75
544.925	439.75
545.139	443.75
545.352	420.75
545.566	431.75
545.779	429.75
545.993	439.75
546.206	430.75
546.42	419.75
546.633	435.75
546.847	440.75
547.06	412.75
547.274	449.75
547.487	414.75
547.7	421.75
547.914	433.75
548.127	426.75
548.34	443.75
548.554	424.75
548.767	415.75
548.98	425.75
549.193	431.75
549.407	417.75
549.62	433.75
549.833	444.75
550.046	444.75
550.259	423.75
550.473	430.75
550.686	429.75
550.899	417.75
551.112	426.75
551.325	407.75
551.538	426.75
551.751	429.75
551.964	424.75
552.177	403.75
552.39	422.75
552.603	458.75
552.816	421.75
553.029	451.75
553.242	441.75
553.455	450.75
553.667	459.75
553.88	450.75
554.093	426.75
554.306	434.75
554.519	413.75
554.732	417.75
554.944	417.75
555.157	388.75
555.37	401.75
555.583	396.75
555.795	392.75
556.008	392.75
556.221	389.75
556.433	408.75
556.646	387.75
556.859	387.75
557.071	366.75
557.284	377.75
557.496	379.75
557.709	374.75
557.921	388.75
558.134	376.75
558.346	359.75
558.559	381.75
558.771	379.75
558.984	397.75
559.196	387.75
559.409	376.75
559.621	389.75
559.833	355.75
560.046	371.75
560.258	362.75
560.47	366.75
560.683	339.75
560.895	368.75
561.107	383.75
561.32	374.75
561.532	358.75
561.744	361.75
561.956	371.75
562.168	374.75
562.381	367.75
562.593	364.75
562.805	369.75
563.017	356.75
563.229	360.75
563.441	370.75
563.653	374.75
563.865	361.75
564.077	381.75
564.289	373.75
564.501	405.75
564.713	402.75
564.925	395.75
565.137	396.75
565.349	379.75
565.561	433.75
565.773	420.75
565.985	427.75
566.197	439.75
566.408	455.75
566.62	461.75
566.832	488.75
567.044	517.75
567.255	486.75
567.467	501.75
567.679	509.75
567.891	539.75
568.102	532.75
568.314	531.75
568.526	481.75
568.737	475.75
568.949	443.75
569.161	441.75
569.372	405.75
569.584	388.75
569.795	402.75
570.007	390.75
570.218	393.75
570.43	378.75
570.641	374.75
570.853	364.75
571.064	355.75
571.276	360.75
571.487	363.75
571.698	350.75
571.91	338.75
572.121	331.75
572.333	339.75
572.544	329.75
572.755	323.75
572.966	330.75
573.178	328.75
573.389	342.75
573.6	307.75
573.811	310.75
574.023	332.75
574.234	317.75
574.445	303.75
574.656	321.75
574.867	315.75
575.078	300.75
575.289	308.75
575.501	298.75
575.712	291.75
575.923	291.75
576.134	296.75
576.345	285.75
576.556	310.75
576.767	307.75
576.978	301.75
577.188	300.75
577.399	284.75
577.61	292.75
577.821	295.75
578.032	289.75
578.243	291.75
578.454	292.75
578.665	279.75
578.875	265.75
579.086	279.75
579.297	282.75
579.508	280.75
579.718	286.75
579.929	264.75
580.14	265.75
580.35	266.75
580.561	275.75
580.772	273.75
580.982	266.75
581.193	279.75
581.403	277.75
581.614	275.75
581.825	284.75
582.035	264.75
582.246	286.75
582.456	259.75
582.667	271.75
582.877	293.75
583.087	260.75
583.298	259.75
583.508	261.75
583.719	282.75
583.929	279.75
584.139	266.75
584.35	263.75
584.56	264.75
584.77	257.75
584.981	280.75
585.191	260.75
585.401	259.75
585.611	266.75
585.821	254.75
586.032	260.75
586.242	250.75
586.452	253.75
586.662	265.75
586.872	271.75
587.082	254.75
587.292	227.75
587.502	239.75
587.713	261.75
587.923	270.75
588.133	253.75
588.343	245.75
588.553	239.75
588.762	241.75
588.972	260.75
589.182	264.75
589.392	265.75
589.602	251.75
589.812	266.75
590.022	264.75
590.232	251.75
590.441	277.75
590.651	271.75
590.861	269.75
591.071	255.75
591.281	255.75
591.49	252.75
591.7	267.75
591.91	277.75
592.119	265.75
592.329	265.75
592.539	277.75
592.748	270.75
592.958	289.75
593.167	283.75
593.377	292.75
593.587	294.75
593.796	279.75
594.006	294.75
594.215	290.75
594.424	281.75
594.634	291.75
594.843	278.75
595.053	266.75
595.262	269.75
595.472	258.75
595.681	265.75
595.89	274.75
596.1	259.75
596.309	246.75
596.518	263.75
596.727	255.75
596.937	238.75
597.146	242.75
597.355	250.75
597.564	234.75
597.774	239.75
597.983	232.75
598.192	245.75
598.401	217.75
598.61	240.75
598.819	234.75
599.028	222.75
599.237	238.75
599.446	229.75
599.655	232.75
599.864	232.75
600.073	214.75
600.282	219.75
600.491	220.75
600.7	228.75
600.909	236.75
601.118	215.75
601.327	218.75
601.536	212.75
601.745	215.75
601.953	205.75
602.162	224.75
602.371	215.75
602.58	208.75
602.789	212.75
602.997	242.75
603.206	213.75
603.415	213.75
603.623	211.75
603.832	211.75
604.041	214.75
604.249	225.75
604.458	210.75
604.666	211.75
604.875	220.75
605.084	207.75
605.292	208.75
605.501	220.75
605.709	204.75
605.918	205.75
606.126	210.75
606.334	201.75
606.543	218.75
606.751	215.75
606.96	218.75
607.168	199.75
607.376	210.75
607.585	209.75
607.793	214.75
608.001	213.75
608.21	211.75
608.418	218.75
608.626	209.75
608.834	220.75
609.043	211.75
609.251	188.75
609.459	201.75
609.667	224.75
609.875	198.75
610.083	204.75
610.291	197.75
610.499	198.75
610.707	205.75
610.916	220.75
611.124	197.75
611.332	195.75
611.54	182.75
611.748	181.75
611.955	210.75
612.163	210.75
612.371	201.75
612.579	195.75
612.787	199.75
612.995	206.75
613.203	207.75
613.411	182.75
613.618	193.75
613.826	199.75
614.034	213.75
614.242	196.75
614.449	193.75
614.657	199.75
614.865	203.75
615.072	196.75
615.28	193.75
615.488	198.75
615.695	195.75
615.903	181.75
616.111	187.75
616.318	198.75
616.526	196.75
616.733	206.75
616.941	199.75
617.148	203.75
617.356	216.75
617.563	206.75
617.771	190.75
617.978	189.75
618.185	203.75
618.393	194.75
618.6	197.75
618.807	188.75
619.015	193.75
619.222	201.75
619.429	197.75
619.637	193.75
619.844	190.75
620.051	199.75
620.258	189.75
620.466	188.75
620.673	181.75
620.88	183.75
621.087	191.75
621.294	171.75
621.501	198.75
621.708	199.75
621.915	193.75
622.122	192.75
622.329	198.75
622.536	195.75
622.743	190.75
622.95	196.75
623.157	181.75
623.364	171.75
623.571	177.75
623.778	171.75
623.985	197.75
624.192	190.75
624.399	188.75
624.606	183.75
624.812	188.75
625.019	181.75
625.226	189.75
625.433	170.75
625.639	193.75
625.846	170.75
626.053	158.75
626.259	165.75
626.466	186.75
626.673	180.75
626.879	169.75
627.086	181.75
627.293	178.75
627.499	186.75
627.706	181.75
627.912	185.75
628.119	171.75
628.325	170.75
628.532	177.75
628.738	171.75
628.945	172.75
629.151	183.75
629.357	171.75
629.564	187.75
629.77	160.75
629.976	179.75
630.183	153.75
630.389	165.75
630.595	171.75
630.802	164.75
631.008	169.75
631.214	146.75
631.42	170.75
631.627	168.75
631.833	182.75
632.039	171.75
632.245	161.75
632.451	167.75
632.657	178.75
632.863	179.75
633.069	179.75
633.275	174.75
633.481	153.75
633.688	161.75
633.893	165.75
634.099	160.75
634.305	166.75
634.511	171.75
634.717	170.75
634.923	158.75
635.129	167.75
635.335	177.75
635.541	167.75
635.747	154.75
635.952	179.75
636.158	149.75
636.364	159.75
636.57	162.75
636.775	156.75
636.981	162.75
637.187	171.75
637.392	155.75
637.598	171.75
637.804	164.75
638.009	172.75
638.215	153.75
638.421	157.75
638.626	173.75
638.832	160.75
639.037	150.75
639.243	160.75
639.448	173.75
639.654	169.75
639.859	165.75
640.065	168.75
640.27	181.75
640.475	153.75
640.681	164.75
640.886	145.75
641.091	153.75
641.297	151.75
641.502	165.75
641.707	154.75
641.913	163.75
642.118	143.75
642.323	165.75
642.528	163.75
642.733	155.75
642.939	149.75
643.144	159.75
643.349	166.75
643.554	163.75
643.759	157.75
643.964	151.75
644.169	154.75
644.374	166.75
644.579	150.75
644.784	168.75
644.989	137.75
645.194	155.75
645.399	149.75
645.604	149.75
645.809	146.75
646.014	150.75
646.219	147.75
646.423	161.75
646.628	142.75
646.833	155.75
647.038	160.75
647.243	170.75
647.447	169.75
647.652	156.75
647.857	146.75
648.062	159.75
648.266	159.75
648.471	166.75
648.676	164.75
648.88	145.75
649.085	175.75
649.289	163.75
649.494	156.75
649.698	161.75
649.903	157.75
650.107	165.75
650.312	156.75
650.516	153.75
650.721	147.75
650.925	139.75
651.13	143.75
651.334	157.75
651.539	142.75
651.743	139.75
651.947	147.75
652.152	148.75
652.356	142.75
652.56	149.75
652.764	145.75
652.969	150.75
653.173	141.75
653.377	130.75
653.581	133.75
653.785	140.75
653.99	150.75
654.194	153.75
654.398	156.75
654.602	139.75
654.806	137.75
655.01	139.75
655.214	134.75
655.418	143.75
655.622	134.75
655.826	134.75
656.03	138.75
656.234	134.75
656.438	143.75
656.642	135.75
656.846	130.75
657.049	138.75
657.253	119.75
657.457	117.75
657.661	115.75
657.865	126.75
658.068	116.75
658.272	124.75
658.476	107.75
658.68	119.75
658.883	123.75
659.087	122.75
659.291	119.75
659.494	114.75
659.698	107.75
659.901	101.75
660.105	100.75
660.309	102.75
660.512	98.75
660.716	86.75
660.919	105.75
661.123	95.75
661.326	90.75
661.53	87.75
661.733	105.75
661.936	88.75
662.14	89.75
662.343	87.75
662.546	90.75
662.75	91.75
662.953	77.75
663.156	75.75
663.36	83.75
663.563	76.75
663.766	74.75
663.969	84.75
664.173	90.75
664.376	86.75
664.579	94.75
664.782	91.75
664.985	79.75
665.188	79.75
665.391	89.75
665.594	90.75
665.797	81.75
666	85.75
666.203	83.75
666.406	89.75
666.609	89.75
666.812	87.75
667.015	70.75
667.218	93.75
667.421	90.75
667.624	82.75
667.827	94.75
668.03	88.75
668.232	78.75
668.435	88.75
668.638	74.75
668.841	86.75
669.043	85.75
669.246	75.75
669.449	91.75
669.651	72.75
669.854	87.75
670.057	77.75
670.259	79.75
670.462	73.75
670.665	85.75
670.867	86.75
671.07	72.75
671.272	81.75
671.475	84.75
671.677	77.75
671.88	81.75
672.082	81.75
672.284	80.75
672.487	87.75
672.689	89.75
672.892	74.75
