Data from Fe(NO3)3@0.1M.TitratingCurve.Agarose3%dH2O.NegLispCup.LampEnergy10.LIBS07252019_HRD10591_16-41-01-333.txt Node
Date: Thu Jul 25 16:41:01 EDT 2019
User: cochatt
Spectrometer: HR+D1059
Trigger mode: 1
Integration Time (sec): 1.000000E-1
Scans to average: 1
Electric dark correction enabled: true
Nonlinearity correction enabled: false
Boxcar width: 0
XAxis mode: Wavelengths
Number of Pixels in Spectrum: 2048
>>>>>Begin Spectral Data<<<<<
223.165	-18.94
223.4	-18.94
223.635	-18.94
223.869	-24.94
224.104	-19.94
224.338	-22.94
224.573	-10.94
224.808	-13.94
225.042	-4.94
225.277	-1.94
225.511	-0.94
225.746	8.06
225.98	16.06
226.215	14.06
226.449	4.06
226.683	23.06
226.918	22.06
227.152	32.06
227.387	44.06
227.621	29.06
227.856	31.06
228.09	59.06
228.324	45.06
228.559	54.06
228.793	59.06
229.027	69.06
229.262	69.06
229.496	84.06
229.73	88.06
229.964	95.06
230.199	92.06
230.433	94.06
230.667	93.06
230.901	91.06
231.136	99.06
231.37	103.06
231.604	96.06
231.838	87.06
232.072	104.06
232.306	108.06
232.541	107.06
232.775	97.06
233.009	102.06
233.243	93.06
233.477	109.06
233.711	99.06
233.945	106.06
234.179	117.06
234.413	96.06
234.647	114.06
234.881	102.06
235.115	99.06
235.349	109.06
235.583	111.06
235.817	106.06
236.051	96.06
236.285	117.06
236.519	106.06
236.753	112.06
236.987	111.06
237.221	108.06
237.455	93.06
237.689	113.06
237.922	113.06
238.156	95.06
238.39	114.06
238.624	102.06
238.858	102.06
239.091	105.06
239.325	105.06
239.559	116.06
239.793	105.06
240.027	101.06
240.26	96.06
240.494	114.06
240.728	117.06
240.961	103.06
241.195	116.06
241.429	121.06
241.662	107.06
241.896	112.06
242.13	127.06
242.363	115.06
242.597	103.06
242.83	106.06
243.064	121.06
243.298	117.06
243.531	120.06
243.765	114.06
243.998	133.06
244.232	122.06
244.465	129.06
244.699	135.06
244.932	123.06
245.166	116.06
245.399	118.06
245.633	119.06
245.866	122.06
246.099	99.06
246.333	122.06
246.566	131.06
246.8	128.06
247.033	125.06
247.266	131.06
247.5	131.06
247.733	134.06
247.966	134.06
248.2	140.06
248.433	137.06
248.666	129.06
248.899	132.06
249.133	138.06
249.366	125.06
249.599	130.06
249.832	137.06
250.066	133.06
250.299	120.06
250.532	137.06
250.765	135.06
250.998	116.06
251.231	133.06
251.465	137.06
251.698	127.06
251.931	154.06
252.164	124.06
252.397	131.06
252.63	138.06
252.863	126.06
253.096	140.06
253.329	145.06
253.562	141.06
253.795	139.06
254.028	135.06
254.261	127.06
254.494	136.06
254.727	133.06
254.96	142.06
255.193	138.06
255.426	139.06
255.659	153.06
255.892	146.06
256.124	148.06
256.357	146.06
256.59	139.06
256.823	139.06
257.056	150.06
257.289	141.06
257.521	151.06
257.754	147.06
257.987	138.06
258.22	149.06
258.452	156.06
258.685	147.06
258.918	145.06
259.151	151.06
259.383	148.06
259.616	156.06
259.849	134.06
260.081	158.06
260.314	161.06
260.547	147.06
260.779	153.06
261.012	148.06
261.244	154.06
261.477	155.06
261.71	182.06
261.942	163.06
262.175	149.06
262.407	159.06
262.64	157.06
262.872	166.06
263.105	156.06
263.337	170.06
263.57	148.06
263.802	155.06
264.035	153.06
264.267	148.06
264.499	156.06
264.732	166.06
264.964	169.06
265.197	174.06
265.429	168.06
265.661	171.06
265.894	173.06
266.126	168.06
266.358	157.06
266.591	168.06
266.823	183.06
267.055	168.06
267.287	177.06
267.52	179.06
267.752	140.06
267.984	175.06
268.216	165.06
268.448	168.06
268.681	157.06
268.913	175.06
269.145	177.06
269.377	172.06
269.609	162.06
269.841	158.06
270.073	157.06
270.306	181.06
270.538	173.06
270.77	171.06
271.002	167.06
271.234	166.06
271.466	177.06
271.698	193.06
271.93	186.06
272.162	177.06
272.394	176.06
272.626	188.06
272.858	159.06
273.09	168.06
273.322	173.06
273.553	184.06
273.785	163.06
274.017	157.06
274.249	191.06
274.481	179.06
274.713	183.06
274.945	186.06
275.176	189.06
275.408	192.06
275.64	180.06
275.872	183.06
276.104	194.06
276.335	196.06
276.567	188.06
276.799	184.06
277.031	188.06
277.262	197.06
277.494	176.06
277.726	189.06
277.957	191.06
278.189	187.06
278.421	176.06
278.652	187.06
278.884	208.06
279.115	190.06
279.347	196.06
279.579	192.06
279.81	186.06
280.042	182.06
280.273	205.06
280.505	205.06
280.736	201.06
280.968	205.06
281.199	195.06
281.431	200.06
281.662	191.06
281.894	206.06
282.125	212.06
282.356	209.06
282.588	207.06
282.819	200.06
283.051	188.06
283.282	197.06
283.513	193.06
283.745	205.06
283.976	205.06
284.207	205.06
284.439	215.06
284.67	203.06
284.901	202.06
285.132	206.06
285.364	207.06
285.595	205.06
285.826	214.06
286.057	209.06
286.288	203.06
286.52	207.06
286.751	219.06
286.982	215.06
287.213	218.06
287.444	220.06
287.675	224.06
287.906	216.06
288.138	208.06
288.369	230.06
288.6	225.06
288.831	213.06
289.062	219.06
289.293	214.06
289.524	224.06
289.755	212.06
289.986	213.06
290.217	217.06
290.448	229.06
290.679	227.06
290.91	222.06
291.141	212.06
291.371	228.06
291.602	223.06
291.833	208.06
292.064	222.06
292.295	239.06
292.526	211.06
292.757	221.06
292.987	213.06
293.218	210.06
293.449	222.06
293.68	231.06
293.91	215.06
294.141	226.06
294.372	214.06
294.603	219.06
294.833	218.06
295.064	224.06
295.295	217.06
295.525	230.06
295.756	230.06
295.987	217.06
296.217	236.06
296.448	237.06
296.679	219.06
296.909	214.06
297.14	230.06
297.37	228.06
297.601	223.06
297.831	229.06
298.062	231.06
298.292	244.06
298.523	230.06
298.753	256.06
298.984	236.06
299.214	229.06
299.445	247.06
299.675	239.06
299.905	225.06
300.136	240.06
300.366	231.06
300.597	238.06
300.827	231.06
301.057	245.06
301.288	238.06
301.518	248.06
301.748	245.06
301.979	251.06
302.209	251.06
302.439	253.06
302.669	250.06
302.9	246.06
303.13	256.06
303.36	236.06
303.59	237.06
303.82	260.06
304.051	256.06
304.281	246.06
304.511	234.06
304.741	249.06
304.971	252.06
305.201	255.06
305.431	255.06
305.661	251.06
305.891	235.06
306.121	248.06
306.352	243.06
306.582	259.06
306.812	253.06
307.042	260.06
307.272	237.06
307.502	243.06
307.731	224.06
307.961	253.06
308.191	243.06
308.421	250.06
308.651	252.06
308.881	239.06
309.111	260.06
309.341	244.06
309.571	256.06
309.8	257.06
310.03	245.06
310.26	244.06
310.49	225.06
310.72	231.06
310.949	249.06
311.179	234.06
311.409	240.06
311.639	261.06
311.868	263.06
312.098	236.06
312.328	264.06
312.557	263.06
312.787	237.06
313.017	272.06
313.246	243.06
313.476	255.06
313.706	261.06
313.935	264.06
314.165	254.06
314.394	273.06
314.624	290.06
314.853	262.06
315.083	270.06
315.312	281.06
315.542	263.06
315.771	266.06
316.001	269.06
316.23	267.06
316.46	249.06
316.689	239.06
316.919	264.06
317.148	264.06
317.377	268.06
317.607	265.06
317.836	248.06
318.065	258.06
318.295	268.06
318.524	274.06
318.753	249.06
318.983	254.06
319.212	260.06
319.441	271.06
319.67	257.06
319.9	269.06
320.129	245.06
320.358	264.06
320.587	265.06
320.816	253.06
321.046	252.06
321.275	266.06
321.504	250.06
321.733	270.06
321.962	263.06
322.191	275.06
322.42	264.06
322.649	248.06
322.878	252.06
323.108	260.06
323.337	291.06
323.566	265.06
323.795	274.06
324.024	269.06
324.253	281.06
324.482	259.06
324.71	274.06
324.939	279.06
325.168	275.06
325.397	283.06
325.626	284.06
325.855	277.06
326.084	285.06
326.313	301.06
326.542	292.06
326.77	279.06
326.999	291.06
327.228	266.06
327.457	276.06
327.686	277.06
327.914	274.06
328.143	293.06
328.372	289.06
328.6	300.06
328.829	287.06
329.058	291.06
329.287	273.06
329.515	305.06
329.744	301.06
329.972	279.06
330.201	293.06
330.43	304.06
330.658	289.06
330.887	286.06
331.115	290.06
331.344	299.06
331.572	310.06
331.801	320.06
332.03	315.06
332.258	321.06
332.486	319.06
332.715	304.06
332.943	343.06
333.172	359.06
333.4	358.06
333.629	349.06
333.857	371.06
334.085	358.06
334.314	324.06
334.542	338.06
334.771	367.06
334.999	353.06
335.227	344.06
335.455	362.06
335.684	336.06
335.912	342.06
336.14	347.06
336.369	335.06
336.597	349.06
336.825	318.06
337.053	326.06
337.281	354.06
337.51	328.06
337.738	337.06
337.966	304.06
338.194	308.06
338.422	307.06
338.65	312.06
338.878	316.06
339.106	312.06
339.334	313.06
339.562	295.06
339.79	311.06
340.018	305.06
340.246	299.06
340.474	281.06
340.702	308.06
340.93	291.06
341.158	317.06
341.386	294.06
341.614	282.06
341.842	313.06
342.07	317.06
342.298	291.06
342.526	316.06
342.754	308.06
342.981	303.06
343.209	319.06
343.437	309.06
343.665	336.06
343.893	333.06
344.12	352.06
344.348	325.06
344.576	323.06
344.804	320.06
345.031	309.06
345.259	301.06
345.487	311.06
345.714	317.06
345.942	291.06
346.17	309.06
346.397	308.06
346.625	283.06
346.853	279.06
347.08	289.06
347.308	283.06
347.535	271.06
347.763	311.06
347.99	314.06
348.218	272.06
348.445	297.06
348.673	270.06
348.9	297.06
349.128	294.06
349.355	279.06
349.583	279.06
349.81	283.06
350.037	288.06
350.265	288.06
350.492	289.06
350.72	287.06
350.947	290.06
351.174	304.06
351.402	295.06
351.629	272.06
351.856	283.06
352.083	278.06
352.311	281.06
352.538	284.06
352.765	283.06
352.992	291.06
353.22	279.06
353.447	283.06
353.674	281.06
353.901	298.06
354.128	285.06
354.355	272.06
354.583	284.06
354.81	286.06
355.037	288.06
355.264	277.06
355.491	272.06
355.718	280.06
355.945	284.06
356.172	272.06
356.399	272.06
356.626	288.06
356.853	281.06
357.08	309.06
357.307	296.06
357.534	302.06
357.761	301.06
357.988	291.06
358.215	277.06
358.441	293.06
358.668	286.06
358.895	287.06
359.122	294.06
359.349	296.06
359.576	273.06
359.802	280.06
360.029	281.06
360.256	288.06
360.483	293.06
360.709	295.06
360.936	304.06
361.163	286.06
361.39	314.06
361.616	286.06
361.843	287.06
362.07	307.06
362.296	296.06
362.523	283.06
362.749	292.06
362.976	282.06
363.203	298.06
363.429	289.06
363.656	276.06
363.882	297.06
364.109	285.06
364.335	285.06
364.562	288.06
364.788	276.06
365.015	286.06
365.241	275.06
365.468	286.06
365.694	294.06
365.92	307.06
366.147	279.06
366.373	270.06
366.599	287.06
366.826	287.06
367.052	285.06
367.278	290.06
367.505	282.06
367.731	293.06
367.957	284.06
368.184	291.06
368.41	287.06
368.636	303.06
368.862	282.06
369.089	302.06
369.315	307.06
369.541	302.06
369.767	287.06
369.993	301.06
370.219	298.06
370.445	299.06
370.672	305.06
370.898	309.06
371.124	318.06
371.35	333.06
371.576	313.06
371.802	311.06
372.028	315.06
372.254	310.06
372.48	323.06
372.706	327.06
372.932	331.06
373.158	313.06
373.384	315.06
373.61	312.06
373.835	310.06
374.061	308.06
374.287	321.06
374.513	329.06
374.739	321.06
374.965	349.06
375.191	342.06
375.416	342.06
375.642	333.06
375.868	336.06
376.094	324.06
376.319	333.06
376.545	321.06
376.771	305.06
376.997	320.06
377.222	318.06
377.448	308.06
377.674	308.06
377.899	305.06
378.125	301.06
378.35	309.06
378.576	332.06
378.802	307.06
379.027	313.06
379.253	308.06
379.478	299.06
379.704	329.06
379.929	314.06
380.155	323.06
380.38	311.06
380.606	309.06
380.831	326.06
381.057	310.06
381.282	330.06
381.507	311.06
381.733	332.06
381.958	324.06
382.184	314.06
382.409	330.06
382.634	344.06
382.86	335.06
383.085	332.06
383.31	348.06
383.535	337.06
383.761	331.06
383.986	333.06
384.211	355.06
384.436	374.06
384.662	364.06
384.887	357.06
385.112	366.06
385.337	362.06
385.562	369.06
385.787	348.06
386.013	383.06
386.238	377.06
386.463	377.06
386.688	373.06
386.913	376.06
387.138	380.06
387.363	362.06
387.588	385.06
387.813	379.06
388.038	360.06
388.263	352.06
388.488	368.06
388.713	367.06
388.938	333.06
389.163	350.06
389.387	348.06
389.612	360.06
389.837	355.06
390.062	362.06
390.287	381.06
390.512	358.06
390.736	355.06
390.961	365.06
391.186	377.06
391.411	396.06
391.636	384.06
391.86	401.06
392.085	414.06
392.31	399.06
392.534	404.06
392.759	396.06
392.984	380.06
393.208	376.06
393.433	383.06
393.658	373.06
393.882	361.06
394.107	393.06
394.331	391.06
394.556	400.06
394.78	404.06
395.005	383.06
395.229	396.06
395.454	407.06
395.678	408.06
395.903	431.06
396.127	412.06
396.352	383.06
396.576	382.06
396.801	405.06
397.025	401.06
397.249	389.06
397.474	407.06
397.698	409.06
397.922	425.06
398.147	403.06
398.371	418.06
398.595	441.06
398.82	445.06
399.044	467.06
399.268	492.06
399.492	584.06
399.717	627.06
399.941	615.06
400.165	546.06
400.389	496.06
400.613	479.06
400.837	478.06
401.062	477.06
401.286	447.06
401.51	448.06
401.734	437.06
401.958	463.06
402.182	477.06
402.406	448.06
402.63	439.06
402.854	471.06
403.078	460.06
403.302	494.06
403.526	493.06
403.75	521.06
403.974	497.06
404.198	525.06
404.422	496.06
404.645	485.06
404.869	491.06
405.093	495.06
405.317	498.06
405.541	493.06
405.765	486.06
405.988	488.06
406.212	492.06
406.436	476.06
406.66	491.06
406.883	506.06
407.107	513.06
407.331	556.06
407.555	550.06
407.778	564.06
408.002	533.06
408.226	525.06
408.449	525.06
408.673	513.06
408.896	510.06
409.12	503.06
409.344	500.06
409.567	511.06
409.791	513.06
410.014	487.06
410.238	497.06
410.461	490.06
410.685	485.06
410.908	484.06
411.132	464.06
411.355	480.06
411.578	472.06
411.802	466.06
412.025	485.06
412.249	475.06
412.472	470.06
412.695	454.06
412.919	454.06
413.142	463.06
413.365	458.06
413.589	455.06
413.812	471.06
414.035	441.06
414.258	456.06
414.482	457.06
414.705	464.06
414.928	452.06
415.151	449.06
415.374	445.06
415.597	448.06
415.821	440.06
416.044	432.06
416.267	441.06
416.49	443.06
416.713	436.06
416.936	444.06
417.159	463.06
417.382	450.06
417.605	439.06
417.828	446.06
418.051	442.06
418.274	452.06
418.497	454.06
418.72	449.06
418.943	461.06
419.166	496.06
419.389	500.06
419.611	493.06
419.834	474.06
420.057	463.06
420.28	444.06
420.503	438.06
420.726	461.06
420.948	445.06
421.171	446.06
421.394	452.06
421.617	425.06
421.839	442.06
422.062	473.06
422.285	463.06
422.507	476.06
422.73	461.06
422.953	467.06
423.175	457.06
423.398	481.06
423.621	471.06
423.843	481.06
424.066	472.06
424.288	475.06
424.511	493.06
424.733	464.06
424.956	455.06
425.178	467.06
425.401	455.06
425.623	445.06
425.846	428.06
426.068	436.06
426.291	440.06
426.513	424.06
426.735	422.06
426.958	443.06
427.18	414.06
427.402	428.06
427.625	413.06
427.847	419.06
428.069	404.06
428.292	396.06
428.514	431.06
428.736	404.06
428.958	405.06
429.181	413.06
429.403	393.06
429.625	401.06
429.847	417.06
430.069	390.06
430.292	418.06
430.514	398.06
430.736	422.06
430.958	413.06
431.18	397.06
431.402	417.06
431.624	414.06
431.846	426.06
432.068	423.06
432.29	412.06
432.512	411.06
432.734	412.06
432.956	410.06
433.178	415.06
433.4	415.06
433.622	424.06
433.844	445.06
434.066	435.06
434.287	401.06
434.509	439.06
434.731	448.06
434.953	463.06
435.175	426.06
435.397	434.06
435.618	451.06
435.84	441.06
436.062	414.06
436.284	413.06
436.505	430.06
436.727	423.06
436.949	420.06
437.17	427.06
437.392	425.06
437.614	411.06
437.835	412.06
438.057	406.06
438.278	398.06
438.5	405.06
438.721	395.06
438.943	425.06
439.165	406.06
439.386	396.06
439.608	404.06
439.829	420.06
440.05	418.06
440.272	432.06
440.493	437.06
440.715	423.06
440.936	442.06
441.158	439.06
441.379	462.06
441.6	469.06
441.822	470.06
442.043	469.06
442.264	444.06
442.486	459.06
442.707	470.06
442.928	455.06
443.149	478.06
443.371	458.06
443.592	456.06
443.813	482.06
444.034	465.06
444.255	484.06
444.476	493.06
444.698	512.06
444.919	536.06
445.14	611.06
445.361	539.06
445.582	488.06
445.803	471.06
446.024	439.06
446.245	448.06
446.466	453.06
446.687	440.06
446.908	422.06
447.129	442.06
447.35	429.06
447.571	422.06
447.792	396.06
448.013	415.06
448.234	409.06
448.455	400.06
448.675	419.06
448.896	415.06
449.117	385.06
449.338	402.06
449.559	390.06
449.779	380.06
450	392.06
450.221	406.06
450.442	402.06
450.662	414.06
450.883	420.06
451.104	400.06
451.324	387.06
451.545	410.06
451.766	393.06
451.986	385.06
452.207	391.06
452.428	381.06
452.648	393.06
452.869	381.06
453.089	388.06
453.31	393.06
453.53	376.06
453.751	386.06
453.971	365.06
454.192	371.06
454.412	371.06
454.633	372.06
454.853	378.06
455.073	376.06
455.294	382.06
455.514	378.06
455.734	390.06
455.955	359.06
456.175	369.06
456.395	383.06
456.616	370.06
456.836	381.06
457.056	364.06
457.276	358.06
457.497	374.06
457.717	362.06
457.937	368.06
458.157	375.06
458.377	362.06
458.598	369.06
458.818	368.06
459.038	391.06
459.258	399.06
459.478	425.06
459.698	409.06
459.918	449.06
460.138	449.06
460.358	476.06
460.578	477.06
460.798	490.06
461.018	475.06
461.238	454.06
461.458	487.06
461.678	466.06
461.898	480.06
462.118	489.06
462.338	505.06
462.558	503.06
462.777	530.06
462.997	564.06
463.217	599.06
463.437	616.06
463.657	576.06
463.876	532.06
464.096	504.06
464.316	507.06
464.536	555.06
464.755	525.06
464.975	526.06
465.195	480.06
465.414	458.06
465.634	460.06
465.854	449.06
466.073	430.06
466.293	432.06
466.512	424.06
466.732	417.06
466.951	414.06
467.171	423.06
467.391	427.06
467.61	410.06
467.829	389.06
468.049	397.06
468.268	379.06
468.488	398.06
468.707	372.06
468.927	411.06
469.146	414.06
469.365	401.06
469.585	400.06
469.804	389.06
470.023	425.06
470.243	429.06
470.462	423.06
470.681	426.06
470.901	406.06
471.12	404.06
471.339	395.06
471.558	391.06
471.777	388.06
471.997	402.06
472.216	390.06
472.435	381.06
472.654	388.06
472.873	382.06
473.092	367.06
473.311	360.06
473.53	384.06
473.749	383.06
473.968	386.06
474.187	382.06
474.406	361.06
474.625	371.06
474.844	399.06
475.063	363.06
475.282	371.06
475.501	371.06
475.72	362.06
475.939	386.06
476.158	385.06
476.377	383.06
476.596	378.06
476.814	394.06
477.033	375.06
477.252	401.06
477.471	414.06
477.69	408.06
477.908	439.06
478.127	452.06
478.346	441.06
478.564	425.06
478.783	443.06
479.002	453.06
479.22	464.06
479.439	452.06
479.658	452.06
479.876	480.06
480.095	440.06
480.313	464.06
480.532	471.06
480.751	482.06
480.969	467.06
481.188	424.06
481.406	430.06
481.624	409.06
481.843	425.06
482.061	417.06
482.28	429.06
482.498	403.06
482.717	422.06
482.935	423.06
483.153	431.06
483.372	436.06
483.59	423.06
483.808	423.06
484.027	419.06
484.245	404.06
484.463	410.06
484.681	445.06
484.9	430.06
485.118	410.06
485.336	429.06
485.554	429.06
485.772	436.06
485.99	446.06
486.209	424.06
486.427	420.06
486.645	441.06
486.863	445.06
487.081	421.06
487.299	422.06
487.517	411.06
487.735	425.06
487.953	458.06
488.171	446.06
488.389	411.06
488.607	424.06
488.825	428.06
489.043	430.06
489.261	443.06
489.479	455.06
489.696	431.06
489.914	452.06
490.132	443.06
490.35	445.06
490.568	439.06
490.786	437.06
491.003	437.06
491.221	464.06
491.439	452.06
491.657	441.06
491.874	460.06
492.092	474.06
492.31	454.06
492.527	445.06
492.745	471.06
492.963	473.06
493.18	445.06
493.398	449.06
493.615	460.06
493.833	454.06
494.05	468.06
494.268	447.06
494.485	471.06
494.703	470.06
494.92	447.06
495.138	442.06
495.355	470.06
495.573	480.06
495.79	467.06
496.008	485.06
496.225	444.06
496.442	460.06
496.66	464.06
496.877	484.06
497.094	498.06
497.312	507.06
497.529	477.06
497.746	516.06
497.963	505.06
498.181	543.06
498.398	558.06
498.615	588.06
498.832	620.06
499.049	658.06
499.267	720.06
499.484	772.06
499.701	826.06
499.918	902.06
500.135	1020.06
500.352	1129.06
500.569	1175.06
500.786	1149.06
501.003	1089.06
501.22	959.06
501.437	888.06
501.654	805.06
501.871	703.06
502.088	684.06
502.305	641.06
502.522	608.06
502.739	590.06
502.956	554.06
503.172	553.06
503.389	512.06
503.606	518.06
503.823	512.06
504.04	499.06
504.256	509.06
504.473	522.06
504.69	537.06
504.907	536.06
505.123	499.06
505.34	475.06
505.557	444.06
505.773	432.06
505.99	420.06
506.207	424.06
506.423	432.06
506.64	428.06
506.856	408.06
507.073	422.06
507.289	428.06
507.506	403.06
507.722	409.06
507.939	409.06
508.155	391.06
508.372	405.06
508.588	383.06
508.805	391.06
509.021	389.06
509.238	393.06
509.454	374.06
509.67	371.06
509.887	362.06
510.103	387.06
510.319	389.06
510.536	385.06
510.752	381.06
510.968	380.06
511.184	354.06
511.401	372.06
511.617	368.06
511.833	366.06
512.049	374.06
512.265	366.06
512.481	375.06
512.698	360.06
512.914	375.06
513.13	357.06
513.346	363.06
513.562	373.06
513.778	353.06
513.994	373.06
514.21	363.06
514.426	365.06
514.642	373.06
514.858	378.06
515.074	388.06
515.29	375.06
515.506	402.06
515.721	417.06
515.937	398.06
516.153	413.06
516.369	409.06
516.585	400.06
516.801	439.06
517.016	461.06
517.232	451.06
517.448	482.06
517.664	477.06
517.879	499.06
518.095	511.06
518.311	478.06
518.527	456.06
518.742	438.06
518.958	433.06
519.173	429.06
519.389	409.06
519.605	431.06
519.82	392.06
520.036	394.06
520.251	373.06
520.467	389.06
520.682	371.06
520.898	368.06
521.113	362.06
521.329	366.06
521.544	364.06
521.76	357.06
521.975	366.06
522.19	359.06
522.406	355.06
522.621	351.06
522.836	336.06
523.052	345.06
523.267	347.06
523.482	357.06
523.698	340.06
523.913	349.06
524.128	352.06
524.343	347.06
524.559	356.06
524.774	330.06
524.989	349.06
525.204	365.06
525.419	353.06
525.634	362.06
525.849	342.06
526.064	352.06
526.28	333.06
526.495	336.06
526.71	337.06
526.925	342.06
527.14	337.06
527.355	335.06
527.57	350.06
527.785	320.06
527.999	339.06
528.214	347.06
528.429	353.06
528.644	350.06
528.859	333.06
529.074	350.06
529.289	350.06
529.503	352.06
529.718	325.06
529.933	336.06
530.148	336.06
530.363	336.06
530.577	344.06
530.792	337.06
531.007	335.06
531.221	347.06
531.436	356.06
531.651	337.06
531.865	344.06
532.08	349.06
532.295	359.06
532.509	333.06
532.724	337.06
532.938	338.06
533.153	323.06
533.367	343.06
533.582	334.06
533.796	343.06
534.011	331.06
534.225	336.06
534.44	321.06
534.654	322.06
534.868	320.06
535.083	347.06
535.297	327.06
535.511	326.06
535.726	346.06
535.94	349.06
536.154	316.06
536.369	322.06
536.583	339.06
536.797	330.06
537.011	327.06
537.225	340.06
537.44	335.06
537.654	319.06
537.868	318.06
538.082	292.06
538.296	312.06
538.51	309.06
538.724	307.06
538.938	310.06
539.153	313.06
539.367	317.06
539.581	303.06
539.795	324.06
540.009	312.06
540.222	309.06
540.436	313.06
540.65	300.06
540.864	324.06
541.078	325.06
541.292	332.06
541.506	321.06
541.72	331.06
541.934	311.06
542.147	326.06
542.361	317.06
542.575	318.06
542.789	311.06
543.002	316.06
543.216	311.06
543.43	325.06
543.644	326.06
543.857	313.06
544.071	313.06
544.285	325.06
544.498	307.06
544.712	326.06
544.925	318.06
545.139	323.06
545.352	330.06
545.566	307.06
545.779	316.06
545.993	317.06
546.206	324.06
546.42	317.06
546.633	335.06
546.847	317.06
547.06	309.06
547.274	316.06
547.487	337.06
547.7	320.06
547.914	311.06
548.127	330.06
548.34	322.06
548.554	327.06
548.767	329.06
548.98	321.06
549.193	325.06
549.407	324.06
549.62	311.06
549.833	315.06
550.046	315.06
550.259	320.06
550.473	325.06
550.686	318.06
550.899	316.06
551.112	328.06
551.325	319.06
551.538	303.06
551.751	334.06
551.964	319.06
552.177	328.06
552.39	331.06
552.603	337.06
552.816	340.06
553.029	331.06
553.242	336.06
553.455	335.06
553.667	361.06
553.88	337.06
554.093	339.06
554.306	325.06
554.519	350.06
554.732	317.06
554.944	309.06
555.157	286.06
555.37	317.06
555.583	294.06
555.795	298.06
556.008	287.06
556.221	291.06
556.433	300.06
556.646	279.06
556.859	273.06
557.071	296.06
557.284	287.06
557.496	287.06
557.709	291.06
557.921	294.06
558.134	281.06
558.346	301.06
558.559	284.06
558.771	269.06
558.984	275.06
559.196	280.06
559.409	247.06
559.621	263.06
559.833	270.06
560.046	271.06
560.258	268.06
560.47	274.06
560.683	283.06
560.895	272.06
561.107	284.06
561.32	271.06
561.532	277.06
561.744	269.06
561.956	271.06
562.168	279.06
562.381	282.06
562.593	259.06
562.805	268.06
563.017	286.06
563.229	283.06
563.441	285.06
563.653	270.06
563.865	267.06
564.077	291.06
564.289	294.06
564.501	299.06
564.713	316.06
564.925	279.06
565.137	285.06
565.349	304.06
565.561	305.06
565.773	314.06
565.985	310.06
566.197	336.06
566.408	351.06
566.62	366.06
566.832	385.06
567.044	411.06
567.255	405.06
567.467	417.06
567.679	436.06
567.891	444.06
568.102	453.06
568.314	436.06
568.526	406.06
568.737	381.06
568.949	364.06
569.161	331.06
569.372	292.06
569.584	319.06
569.795	294.06
570.007	284.06
570.218	272.06
570.43	268.06
570.641	273.06
570.853	273.06
571.064	274.06
571.276	273.06
571.487	276.06
571.698	256.06
571.91	244.06
572.121	264.06
572.333	240.06
572.544	244.06
572.755	253.06
572.966	240.06
573.178	235.06
573.389	229.06
573.6	234.06
573.811	216.06
574.023	224.06
574.234	232.06
574.445	236.06
574.656	211.06
574.867	236.06
575.078	255.06
575.289	240.06
575.501	245.06
575.712	241.06
575.923	219.06
576.134	236.06
576.345	233.06
576.556	219.06
576.767	230.06
576.978	235.06
577.188	225.06
577.399	207.06
577.61	215.06
577.821	208.06
578.032	208.06
578.243	219.06
578.454	213.06
578.665	209.06
578.875	222.06
579.086	208.06
579.297	214.06
579.508	215.06
579.718	191.06
579.929	214.06
580.14	216.06
580.35	214.06
580.561	209.06
580.772	212.06
580.982	196.06
581.193	200.06
581.403	217.06
581.614	212.06
581.825	202.06
582.035	205.06
582.246	207.06
582.456	190.06
582.667	208.06
582.877	207.06
583.087	214.06
583.298	205.06
583.508	199.06
583.719	202.06
583.929	198.06
584.139	196.06
584.35	184.06
584.56	220.06
584.77	210.06
584.981	181.06
585.191	205.06
585.401	191.06
585.611	197.06
585.821	215.06
586.032	203.06
586.242	197.06
586.452	199.06
586.662	197.06
586.872	214.06
587.082	191.06
587.292	187.06
587.502	202.06
587.713	182.06
587.923	190.06
588.133	201.06
588.343	182.06
588.553	204.06
588.762	199.06
588.972	182.06
589.182	220.06
589.392	203.06
589.602	206.06
589.812	207.06
590.022	200.06
590.232	198.06
590.441	200.06
590.651	205.06
590.861	190.06
591.071	193.06
591.281	197.06
591.49	200.06
591.7	202.06
591.91	207.06
592.119	208.06
592.329	216.06
592.539	216.06
592.748	212.06
592.958	227.06
593.167	217.06
593.377	243.06
593.587	235.06
593.796	250.06
594.006	230.06
594.215	234.06
594.424	230.06
594.634	231.06
594.843	220.06
595.053	217.06
595.262	202.06
595.472	209.06
595.681	199.06
595.89	198.06
596.1	197.06
596.309	188.06
596.518	205.06
596.727	190.06
596.937	195.06
597.146	171.06
597.355	199.06
597.564	177.06
597.774	167.06
597.983	192.06
598.192	194.06
598.401	182.06
598.61	177.06
598.819	192.06
599.028	193.06
599.237	200.06
599.446	161.06
599.655	185.06
599.864	174.06
600.073	176.06
600.282	169.06
600.491	176.06
600.7	188.06
600.909	175.06
601.118	169.06
601.327	169.06
601.536	177.06
601.745	171.06
601.953	179.06
602.162	167.06
602.371	165.06
602.58	178.06
602.789	184.06
602.997	184.06
603.206	155.06
603.415	159.06
603.623	187.06
603.832	175.06
604.041	174.06
604.249	174.06
604.458	170.06
604.666	166.06
604.875	151.06
605.084	168.06
605.292	159.06
605.501	165.06
605.709	175.06
605.918	151.06
606.126	168.06
606.334	166.06
606.543	163.06
606.751	182.06
606.96	176.06
607.168	164.06
607.376	165.06
607.585	174.06
607.793	171.06
608.001	172.06
608.21	168.06
608.418	155.06
608.626	161.06
608.834	159.06
609.043	154.06
609.251	158.06
609.459	168.06
609.667	159.06
609.875	173.06
610.083	175.06
610.291	169.06
610.499	161.06
610.707	161.06
610.916	145.06
611.124	159.06
611.332	166.06
611.54	159.06
611.748	178.06
611.955	165.06
612.163	166.06
612.371	170.06
612.579	164.06
612.787	160.06
612.995	163.06
613.203	165.06
613.411	157.06
613.618	157.06
613.826	157.06
614.034	162.06
614.242	141.06
614.449	150.06
614.657	157.06
614.865	167.06
615.072	167.06
615.28	160.06
615.488	152.06
615.695	160.06
615.903	152.06
616.111	168.06
616.318	165.06
616.526	169.06
616.733	158.06
616.941	148.06
617.148	166.06
617.356	165.06
617.563	164.06
617.771	158.06
617.978	161.06
618.185	171.06
618.393	151.06
618.6	143.06
618.807	166.06
619.015	167.06
619.222	165.06
619.429	153.06
619.637	163.06
619.844	162.06
620.051	139.06
620.258	146.06
620.466	169.06
620.673	161.06
620.88	156.06
621.087	165.06
621.294	150.06
621.501	141.06
621.708	142.06
621.915	141.06
622.122	144.06
622.329	145.06
622.536	143.06
622.743	152.06
622.95	164.06
623.157	156.06
623.364	146.06
623.571	161.06
623.778	148.06
623.985	148.06
624.192	154.06
624.399	148.06
624.606	155.06
624.812	145.06
625.019	127.06
625.226	135.06
625.433	155.06
625.639	148.06
625.846	151.06
626.053	149.06
626.259	154.06
626.466	141.06
626.673	145.06
626.879	158.06
627.086	140.06
627.293	143.06
627.499	135.06
627.706	154.06
627.912	151.06
628.119	141.06
628.325	141.06
628.532	154.06
628.738	151.06
628.945	148.06
629.151	146.06
629.357	140.06
629.564	145.06
629.77	130.06
629.976	139.06
630.183	140.06
630.389	161.06
630.595	127.06
630.802	132.06
631.008	143.06
631.214	141.06
631.42	131.06
631.627	145.06
631.833	131.06
632.039	141.06
632.245	151.06
632.451	131.06
632.657	139.06
632.863	130.06
633.069	141.06
633.275	135.06
633.481	135.06
633.688	136.06
633.893	145.06
634.099	139.06
634.305	126.06
634.511	143.06
634.717	138.06
634.923	123.06
635.129	144.06
635.335	138.06
635.541	122.06
635.747	127.06
635.952	151.06
636.158	139.06
636.364	136.06
636.57	132.06
636.775	132.06
636.981	120.06
637.187	128.06
637.392	132.06
637.598	127.06
637.804	127.06
638.009	124.06
638.215	146.06
638.421	132.06
638.626	133.06
638.832	136.06
639.037	134.06
639.243	133.06
639.448	135.06
639.654	139.06
639.859	141.06
640.065	133.06
640.27	128.06
640.475	122.06
640.681	120.06
640.886	112.06
641.091	125.06
641.297	135.06
641.502	135.06
641.707	136.06
641.913	135.06
642.118	129.06
642.323	133.06
642.528	143.06
642.733	136.06
642.939	135.06
643.144	123.06
643.349	133.06
643.554	135.06
643.759	137.06
643.964	123.06
644.169	136.06
644.374	141.06
644.579	135.06
644.784	140.06
644.989	125.06
645.194	112.06
645.399	132.06
645.604	135.06
645.809	124.06
646.014	134.06
646.219	148.06
646.423	126.06
646.628	123.06
646.833	125.06
647.038	123.06
647.243	151.06
647.447	140.06
647.652	121.06
647.857	137.06
648.062	126.06
648.266	136.06
648.471	140.06
648.676	128.06
648.88	128.06
649.085	140.06
649.289	135.06
649.494	126.06
649.698	143.06
649.903	127.06
650.107	121.06
650.312	131.06
650.516	136.06
650.721	134.06
650.925	121.06
651.13	132.06
651.334	119.06
651.539	112.06
651.743	111.06
651.947	119.06
652.152	102.06
652.356	122.06
652.56	112.06
652.764	124.06
652.969	112.06
653.173	120.06
653.377	120.06
653.581	113.06
653.785	125.06
653.99	116.06
654.194	119.06
654.398	110.06
654.602	107.06
654.806	115.06
655.01	121.06
655.214	115.06
655.418	131.06
655.622	130.06
655.826	116.06
656.03	130.06
656.234	116.06
656.438	110.06
656.642	115.06
656.846	106.06
657.049	117.06
657.253	134.06
657.457	103.06
657.661	98.06
657.865	96.06
658.068	101.06
658.272	107.06
658.476	89.06
658.68	100.06
658.883	108.06
659.087	113.06
659.291	101.06
659.494	102.06
659.698	81.06
659.901	88.06
660.105	101.06
660.309	97.06
660.512	105.06
660.716	99.06
660.919	90.06
661.123	94.06
661.326	85.06
661.53	99.06
661.733	87.06
661.936	76.06
662.14	92.06
662.343	90.06
662.546	96.06
662.75	91.06
662.953	102.06
663.156	81.06
663.36	89.06
663.563	79.06
663.766	87.06
663.969	80.06
664.173	86.06
664.376	79.06
664.579	84.06
664.782	96.06
664.985	95.06
665.188	83.06
665.391	100.06
665.594	82.06
665.797	91.06
666	94.06
666.203	92.06
666.406	100.06
666.609	75.06
666.812	90.06
667.015	77.06
667.218	101.06
667.421	76.06
667.624	88.06
667.827	95.06
668.03	85.06
668.232	81.06
668.435	87.06
668.638	81.06
668.841	91.06
669.043	87.06
669.246	91.06
669.449	85.06
669.651	81.06
669.854	97.06
670.057	91.06
670.259	91.06
670.462	96.06
670.665	82.06
670.867	82.06
671.07	81.06
671.272	79.06
671.475	91.06
671.677	80.06
671.88	79.06
672.082	86.06
672.284	92.06
672.487	92.06
672.689	86.06
672.892	94.06
