Data from Fe(NO3)3@0.1M.TitratingCurve.Agarose3%dH2O.NegLispCup.LampEnergy10.LIBS07252019_HRD10591_16-39-29-332.txt Node
Date: Thu Jul 25 16:39:29 EDT 2019
User: cochatt
Spectrometer: HR+D1059
Trigger mode: 1
Integration Time (sec): 1.000000E-1
Scans to average: 1
Electric dark correction enabled: true
Nonlinearity correction enabled: false
Boxcar width: 0
XAxis mode: Wavelengths
Number of Pixels in Spectrum: 2048
>>>>>Begin Spectral Data<<<<<
223.165	-6.94
223.4	-6.94
223.635	-6.94
223.869	-16.94
224.104	-24.94
224.338	-21.94
224.573	-21.94
224.808	-2.94
225.042	-5.94
225.277	-1.94
225.511	-9.94
225.746	-0.94
225.98	16.06
226.215	11.06
226.449	12.06
226.683	20.06
226.918	22.06
227.152	33.06
227.387	40.06
227.621	42.06
227.856	36.06
228.09	44.06
228.324	40.06
228.559	59.06
228.793	51.06
229.027	71.06
229.262	71.06
229.496	79.06
229.73	81.06
229.964	83.06
230.199	84.06
230.433	81.06
230.667	90.06
230.901	88.06
231.136	81.06
231.37	94.06
231.604	85.06
231.838	93.06
232.072	101.06
232.306	109.06
232.541	97.06
232.775	92.06
233.009	113.06
233.243	98.06
233.477	97.06
233.711	104.06
233.945	100.06
234.179	95.06
234.413	92.06
234.647	110.06
234.881	106.06
235.115	105.06
235.349	83.06
235.583	107.06
235.817	90.06
236.051	96.06
236.285	104.06
236.519	107.06
236.753	96.06
236.987	109.06
237.221	97.06
237.455	122.06
237.689	100.06
237.922	102.06
238.156	107.06
238.39	101.06
238.624	105.06
238.858	107.06
239.091	92.06
239.325	104.06
239.559	98.06
239.793	108.06
240.027	106.06
240.26	106.06
240.494	103.06
240.728	115.06
240.961	107.06
241.195	109.06
241.429	115.06
241.662	100.06
241.896	93.06
242.13	103.06
242.363	96.06
242.597	84.06
242.83	111.06
243.064	106.06
243.298	113.06
243.531	97.06
243.765	102.06
243.998	99.06
244.232	107.06
244.465	114.06
244.699	106.06
244.932	108.06
245.166	105.06
245.399	119.06
245.633	113.06
245.866	105.06
246.099	99.06
246.333	103.06
246.566	115.06
246.8	112.06
247.033	121.06
247.266	109.06
247.5	115.06
247.733	108.06
247.966	111.06
248.2	110.06
248.433	108.06
248.666	113.06
248.899	133.06
249.133	118.06
249.366	126.06
249.599	119.06
249.832	117.06
250.066	122.06
250.299	119.06
250.532	117.06
250.765	120.06
250.998	129.06
251.231	118.06
251.465	136.06
251.698	135.06
251.931	122.06
252.164	131.06
252.397	121.06
252.63	136.06
252.863	129.06
253.096	115.06
253.329	131.06
253.562	120.06
253.795	136.06
254.028	124.06
254.261	130.06
254.494	129.06
254.727	124.06
254.96	130.06
255.193	124.06
255.426	132.06
255.659	114.06
255.892	136.06
256.124	125.06
256.357	119.06
256.59	129.06
256.823	123.06
257.056	133.06
257.289	124.06
257.521	136.06
257.754	127.06
257.987	142.06
258.22	138.06
258.452	129.06
258.685	127.06
258.918	116.06
259.151	130.06
259.383	135.06
259.616	123.06
259.849	130.06
260.081	123.06
260.314	137.06
260.547	149.06
260.779	147.06
261.012	133.06
261.244	129.06
261.477	143.06
261.71	144.06
261.942	124.06
262.175	129.06
262.407	135.06
262.64	133.06
262.872	130.06
263.105	146.06
263.337	136.06
263.57	131.06
263.802	136.06
264.035	151.06
264.267	135.06
264.499	137.06
264.732	151.06
264.964	142.06
265.197	138.06
265.429	140.06
265.661	143.06
265.894	140.06
266.126	147.06
266.358	155.06
266.591	138.06
266.823	142.06
267.055	141.06
267.287	144.06
267.52	142.06
267.752	146.06
267.984	149.06
268.216	132.06
268.448	147.06
268.681	135.06
268.913	147.06
269.145	149.06
269.377	152.06
269.609	151.06
269.841	151.06
270.073	157.06
270.306	151.06
270.538	148.06
270.77	142.06
271.002	161.06
271.234	150.06
271.466	179.06
271.698	154.06
271.93	144.06
272.162	154.06
272.394	165.06
272.626	156.06
272.858	153.06
273.09	178.06
273.322	149.06
273.553	149.06
273.785	171.06
274.017	168.06
274.249	167.06
274.481	170.06
274.713	151.06
274.945	152.06
275.176	163.06
275.408	167.06
275.64	152.06
275.872	160.06
276.104	165.06
276.335	161.06
276.567	168.06
276.799	165.06
277.031	154.06
277.262	161.06
277.494	146.06
277.726	175.06
277.957	160.06
278.189	151.06
278.421	160.06
278.652	156.06
278.884	170.06
279.115	149.06
279.347	177.06
279.579	173.06
279.81	172.06
280.042	182.06
280.273	176.06
280.505	183.06
280.736	159.06
280.968	178.06
281.199	172.06
281.431	181.06
281.662	170.06
281.894	188.06
282.125	181.06
282.356	174.06
282.588	180.06
282.819	163.06
283.051	177.06
283.282	170.06
283.513	191.06
283.745	191.06
283.976	187.06
284.207	180.06
284.439	184.06
284.67	186.06
284.901	190.06
285.132	181.06
285.364	173.06
285.595	188.06
285.826	188.06
286.057	177.06
286.288	173.06
286.52	178.06
286.751	196.06
286.982	165.06
287.213	187.06
287.444	185.06
287.675	196.06
287.906	183.06
288.138	184.06
288.369	179.06
288.6	187.06
288.831	172.06
289.062	200.06
289.293	188.06
289.524	172.06
289.755	182.06
289.986	197.06
290.217	193.06
290.448	193.06
290.679	197.06
290.91	191.06
291.141	194.06
291.371	194.06
291.602	197.06
291.833	198.06
292.064	198.06
292.295	216.06
292.526	180.06
292.757	213.06
292.987	201.06
293.218	205.06
293.449	200.06
293.68	191.06
293.91	190.06
294.141	179.06
294.372	201.06
294.603	203.06
294.833	200.06
295.064	200.06
295.295	205.06
295.525	200.06
295.756	180.06
295.987	202.06
296.217	213.06
296.448	201.06
296.679	207.06
296.909	209.06
297.14	206.06
297.37	204.06
297.601	206.06
297.831	210.06
298.062	193.06
298.292	225.06
298.523	223.06
298.753	227.06
298.984	207.06
299.214	212.06
299.445	210.06
299.675	196.06
299.905	207.06
300.136	202.06
300.366	211.06
300.597	210.06
300.827	227.06
301.057	207.06
301.288	210.06
301.518	195.06
301.748	214.06
301.979	229.06
302.209	220.06
302.439	219.06
302.669	218.06
302.9	227.06
303.13	207.06
303.36	228.06
303.59	216.06
303.82	219.06
304.051	207.06
304.281	210.06
304.511	208.06
304.741	201.06
304.971	220.06
305.201	219.06
305.431	211.06
305.661	220.06
305.891	214.06
306.121	224.06
306.352	208.06
306.582	201.06
306.812	205.06
307.042	222.06
307.272	228.06
307.502	237.06
307.731	196.06
307.961	195.06
308.191	236.06
308.421	219.06
308.651	215.06
308.881	233.06
309.111	245.06
309.341	206.06
309.571	220.06
309.8	228.06
310.03	246.06
310.26	220.06
310.49	220.06
310.72	224.06
310.949	215.06
311.179	208.06
311.409	217.06
311.639	227.06
311.868	239.06
312.098	233.06
312.328	220.06
312.557	229.06
312.787	219.06
313.017	231.06
313.246	228.06
313.476	216.06
313.706	235.06
313.935	250.06
314.165	228.06
314.394	229.06
314.624	232.06
314.853	232.06
315.083	235.06
315.312	244.06
315.542	244.06
315.771	234.06
316.001	228.06
316.23	229.06
316.46	233.06
316.689	250.06
316.919	235.06
317.148	230.06
317.377	225.06
317.607	227.06
317.836	228.06
318.065	247.06
318.295	228.06
318.524	223.06
318.753	210.06
318.983	227.06
319.212	235.06
319.441	246.06
319.67	222.06
319.9	226.06
320.129	233.06
320.358	241.06
320.587	223.06
320.816	246.06
321.046	232.06
321.275	256.06
321.504	224.06
321.733	229.06
321.962	247.06
322.191	241.06
322.42	220.06
322.649	253.06
322.878	247.06
323.108	222.06
323.337	241.06
323.566	221.06
323.795	242.06
324.024	234.06
324.253	233.06
324.482	230.06
324.71	240.06
324.939	216.06
325.168	241.06
325.397	252.06
325.626	241.06
325.855	257.06
326.084	243.06
326.313	268.06
326.542	282.06
326.77	263.06
326.999	245.06
327.228	239.06
327.457	256.06
327.686	259.06
327.914	245.06
328.143	247.06
328.372	276.06
328.6	264.06
328.829	256.06
329.058	270.06
329.287	258.06
329.515	255.06
329.744	273.06
329.972	263.06
330.201	242.06
330.43	255.06
330.658	262.06
330.887	255.06
331.115	263.06
331.344	265.06
331.572	261.06
331.801	271.06
332.03	296.06
332.258	288.06
332.486	290.06
332.715	283.06
332.943	304.06
333.172	302.06
333.4	321.06
333.629	330.06
333.857	329.06
334.085	325.06
334.314	320.06
334.542	304.06
334.771	301.06
334.999	304.06
335.227	309.06
335.455	308.06
335.684	291.06
335.912	302.06
336.14	299.06
336.369	309.06
336.597	291.06
336.825	320.06
337.053	291.06
337.281	301.06
337.51	293.06
337.738	305.06
337.966	292.06
338.194	291.06
338.422	280.06
338.65	283.06
338.878	290.06
339.106	299.06
339.334	255.06
339.562	280.06
339.79	268.06
340.018	270.06
340.246	258.06
340.474	261.06
340.702	285.06
340.93	277.06
341.158	288.06
341.386	272.06
341.614	271.06
341.842	273.06
342.07	263.06
342.298	259.06
342.526	252.06
342.754	262.06
342.981	260.06
343.209	274.06
343.437	290.06
343.665	329.06
343.893	300.06
344.12	308.06
344.348	319.06
344.576	288.06
344.804	300.06
345.031	298.06
345.259	255.06
345.487	275.06
345.714	258.06
345.942	259.06
346.17	278.06
346.397	265.06
346.625	248.06
346.853	262.06
347.08	276.06
347.308	261.06
347.535	270.06
347.763	269.06
347.99	253.06
348.218	266.06
348.445	256.06
348.673	273.06
348.9	258.06
349.128	285.06
349.355	248.06
349.583	248.06
349.81	258.06
350.037	256.06
350.265	240.06
350.492	269.06
350.72	250.06
350.947	262.06
351.174	260.06
351.402	265.06
351.629	246.06
351.856	262.06
352.083	281.06
352.311	236.06
352.538	267.06
352.765	247.06
352.992	240.06
353.22	243.06
353.447	257.06
353.674	261.06
353.901	259.06
354.128	256.06
354.355	252.06
354.583	261.06
354.81	266.06
355.037	262.06
355.264	263.06
355.491	264.06
355.718	244.06
355.945	264.06
356.172	259.06
356.399	268.06
356.626	259.06
356.853	257.06
357.08	265.06
357.307	261.06
357.534	247.06
357.761	253.06
357.988	273.06
358.215	250.06
358.441	260.06
358.668	287.06
358.895	273.06
359.122	266.06
359.349	267.06
359.576	264.06
359.802	255.06
360.029	263.06
360.256	268.06
360.483	248.06
360.709	257.06
360.936	259.06
361.163	249.06
361.39	246.06
361.616	245.06
361.843	265.06
362.07	265.06
362.296	262.06
362.523	255.06
362.749	262.06
362.976	261.06
363.203	259.06
363.429	260.06
363.656	265.06
363.882	268.06
364.109	249.06
364.335	264.06
364.562	274.06
364.788	255.06
365.015	259.06
365.241	255.06
365.468	258.06
365.694	265.06
365.92	287.06
366.147	249.06
366.373	242.06
366.599	263.06
366.826	275.06
367.052	260.06
367.278	263.06
367.505	268.06
367.731	268.06
367.957	255.06
368.184	273.06
368.41	259.06
368.636	266.06
368.862	269.06
369.089	271.06
369.315	260.06
369.541	256.06
369.767	280.06
369.993	266.06
370.219	281.06
370.445	269.06
370.672	283.06
370.898	283.06
371.124	275.06
371.35	266.06
371.576	284.06
371.802	285.06
372.028	276.06
372.254	294.06
372.48	315.06
372.706	305.06
372.932	285.06
373.158	298.06
373.384	297.06
373.61	284.06
373.835	289.06
374.061	289.06
374.287	291.06
374.513	288.06
374.739	292.06
374.965	304.06
375.191	301.06
375.416	306.06
375.642	293.06
375.868	295.06
376.094	278.06
376.319	296.06
376.545	295.06
376.771	297.06
376.997	293.06
377.222	276.06
377.448	275.06
377.674	278.06
377.899	288.06
378.125	295.06
378.35	285.06
378.576	292.06
378.802	291.06
379.027	275.06
379.253	292.06
379.478	277.06
379.704	277.06
379.929	297.06
380.155	291.06
380.38	304.06
380.606	285.06
380.831	298.06
381.057	305.06
381.282	300.06
381.507	303.06
381.733	315.06
381.958	309.06
382.184	297.06
382.409	295.06
382.634	320.06
382.86	306.06
383.085	303.06
383.31	309.06
383.535	313.06
383.761	321.06
383.986	321.06
384.211	319.06
384.436	347.06
384.662	339.06
384.887	325.06
385.112	336.06
385.337	353.06
385.562	346.06
385.787	333.06
386.013	360.06
386.238	334.06
386.463	333.06
386.688	338.06
386.913	336.06
387.138	355.06
387.363	343.06
387.588	345.06
387.813	343.06
388.038	335.06
388.263	332.06
388.488	331.06
388.713	346.06
388.938	338.06
389.163	324.06
389.387	335.06
389.612	331.06
389.837	336.06
390.062	359.06
390.287	325.06
390.512	360.06
390.736	335.06
390.961	363.06
391.186	355.06
391.411	347.06
391.636	353.06
391.86	383.06
392.085	367.06
392.31	379.06
392.534	376.06
392.759	374.06
392.984	375.06
393.208	368.06
393.433	375.06
393.658	353.06
393.882	356.06
394.107	370.06
394.331	367.06
394.556	371.06
394.78	380.06
395.005	362.06
395.229	373.06
395.454	381.06
395.678	387.06
395.903	393.06
396.127	373.06
396.352	364.06
396.576	367.06
396.801	372.06
397.025	382.06
397.249	385.06
397.474	376.06
397.698	390.06
397.922	392.06
398.147	394.06
398.371	414.06
398.595	416.06
398.82	426.06
399.044	474.06
399.268	495.06
399.492	547.06
399.717	601.06
399.941	599.06
400.165	537.06
400.389	488.06
400.613	471.06
400.837	439.06
401.062	448.06
401.286	427.06
401.51	417.06
401.734	413.06
401.958	424.06
402.182	427.06
402.406	428.06
402.63	430.06
402.854	437.06
403.078	461.06
403.302	458.06
403.526	478.06
403.75	479.06
403.974	458.06
404.198	467.06
404.422	483.06
404.645	489.06
404.869	465.06
405.093	464.06
405.317	453.06
405.541	458.06
405.765	439.06
405.988	442.06
406.212	451.06
406.436	451.06
406.66	479.06
406.883	460.06
407.107	491.06
407.331	504.06
407.555	522.06
407.778	517.06
408.002	506.06
408.226	500.06
408.449	465.06
408.673	463.06
408.896	475.06
409.12	476.06
409.344	487.06
409.567	453.06
409.791	485.06
410.014	484.06
410.238	471.06
410.461	479.06
410.685	461.06
410.908	460.06
411.132	443.06
411.355	435.06
411.578	447.06
411.802	457.06
412.025	467.06
412.249	433.06
412.472	436.06
412.695	440.06
412.919	443.06
413.142	409.06
413.365	437.06
413.589	452.06
413.812	436.06
414.035	425.06
414.258	437.06
414.482	417.06
414.705	431.06
414.928	445.06
415.151	450.06
415.374	433.06
415.597	418.06
415.821	431.06
416.044	434.06
416.267	434.06
416.49	421.06
416.713	431.06
416.936	442.06
417.159	427.06
417.382	443.06
417.605	411.06
417.828	434.06
418.051	432.06
418.274	434.06
418.497	419.06
418.72	428.06
418.943	447.06
419.166	453.06
419.389	468.06
419.611	450.06
419.834	441.06
420.057	446.06
420.28	418.06
420.503	417.06
420.726	425.06
420.948	436.06
421.171	405.06
421.394	423.06
421.617	420.06
421.839	438.06
422.062	451.06
422.285	403.06
422.507	428.06
422.73	453.06
422.953	445.06
423.175	421.06
423.398	454.06
423.621	450.06
423.843	455.06
424.066	457.06
424.288	453.06
424.511	436.06
424.733	445.06
424.956	421.06
425.178	433.06
425.401	421.06
425.623	410.06
425.846	419.06
426.068	404.06
426.291	426.06
426.513	414.06
426.735	423.06
426.958	404.06
427.18	383.06
427.402	398.06
427.625	383.06
427.847	406.06
428.069	395.06
428.292	397.06
428.514	409.06
428.736	388.06
428.958	399.06
429.181	389.06
429.403	378.06
429.625	379.06
429.847	363.06
430.069	383.06
430.292	369.06
430.514	388.06
430.736	382.06
430.958	378.06
431.18	375.06
431.402	383.06
431.624	388.06
431.846	403.06
432.068	390.06
432.29	379.06
432.512	384.06
432.734	404.06
432.956	378.06
433.178	412.06
433.4	412.06
433.622	391.06
433.844	396.06
434.066	398.06
434.287	393.06
434.509	398.06
434.731	422.06
434.953	434.06
435.175	459.06
435.397	427.06
435.618	397.06
435.84	401.06
436.062	395.06
436.284	413.06
436.505	401.06
436.727	419.06
436.949	400.06
437.17	387.06
437.392	373.06
437.614	374.06
437.835	377.06
438.057	361.06
438.278	377.06
438.5	380.06
438.721	388.06
438.943	383.06
439.165	394.06
439.386	412.06
439.608	403.06
439.829	418.06
440.05	387.06
440.272	401.06
440.493	398.06
440.715	406.06
440.936	409.06
441.158	437.06
441.379	426.06
441.6	423.06
441.822	468.06
442.043	441.06
442.264	462.06
442.486	439.06
442.707	423.06
442.928	434.06
443.149	452.06
443.371	427.06
443.592	427.06
443.813	447.06
444.034	441.06
444.255	453.06
444.476	480.06
444.698	488.06
444.919	510.06
445.14	584.06
445.361	514.06
445.582	451.06
445.803	432.06
446.024	413.06
446.245	423.06
446.466	425.06
446.687	395.06
446.908	391.06
447.129	402.06
447.35	402.06
447.571	408.06
447.792	396.06
448.013	400.06
448.234	396.06
448.455	379.06
448.675	379.06
448.896	384.06
449.117	364.06
449.338	348.06
449.559	372.06
449.779	377.06
450	365.06
450.221	376.06
450.442	391.06
450.662	371.06
450.883	379.06
451.104	397.06
451.324	388.06
451.545	392.06
451.766	375.06
451.986	373.06
452.207	377.06
452.428	365.06
452.648	360.06
452.869	367.06
453.089	347.06
453.31	381.06
453.53	352.06
453.751	367.06
453.971	343.06
454.192	344.06
454.412	354.06
454.633	352.06
454.853	362.06
455.073	374.06
455.294	359.06
455.514	359.06
455.734	370.06
455.955	352.06
456.175	347.06
456.395	353.06
456.616	332.06
456.836	346.06
457.056	340.06
457.276	329.06
457.497	365.06
457.717	355.06
457.937	347.06
458.157	355.06
458.377	357.06
458.598	364.06
458.818	358.06
459.038	373.06
459.258	379.06
459.478	401.06
459.698	411.06
459.918	415.06
460.138	439.06
460.358	435.06
460.578	438.06
460.798	437.06
461.018	447.06
461.238	460.06
461.458	464.06
461.678	449.06
461.898	449.06
462.118	468.06
462.338	486.06
462.558	470.06
462.777	496.06
462.997	537.06
463.217	575.06
463.437	570.06
463.657	531.06
463.876	525.06
464.096	522.06
464.316	521.06
464.536	519.06
464.755	510.06
464.975	495.06
465.195	481.06
465.414	459.06
465.634	429.06
465.854	416.06
466.073	395.06
466.293	416.06
466.512	413.06
466.732	379.06
466.951	387.06
467.171	396.06
467.391	373.06
467.61	382.06
467.829	389.06
468.049	401.06
468.268	367.06
468.488	374.06
468.707	375.06
468.927	367.06
469.146	388.06
469.365	377.06
469.585	382.06
469.804	397.06
470.023	403.06
470.243	397.06
470.462	400.06
470.681	406.06
470.901	379.06
471.12	388.06
471.339	399.06
471.558	387.06
471.777	389.06
471.997	377.06
472.216	372.06
472.435	371.06
472.654	359.06
472.873	373.06
473.092	371.06
473.311	376.06
473.53	358.06
473.749	361.06
473.968	364.06
474.187	337.06
474.406	358.06
474.625	363.06
474.844	363.06
475.063	364.06
475.282	363.06
475.501	380.06
475.72	356.06
475.939	354.06
476.158	385.06
476.377	369.06
476.596	378.06
476.814	377.06
477.033	364.06
477.252	389.06
477.471	393.06
477.69	400.06
477.908	410.06
478.127	409.06
478.346	428.06
478.564	411.06
478.783	448.06
479.002	472.06
479.22	437.06
479.439	430.06
479.658	429.06
479.876	436.06
480.095	433.06
480.313	435.06
480.532	443.06
480.751	436.06
480.969	426.06
481.188	422.06
481.406	421.06
481.624	401.06
481.843	391.06
482.061	418.06
482.28	417.06
482.498	386.06
482.717	386.06
482.935	403.06
483.153	388.06
483.372	418.06
483.59	395.06
483.808	401.06
484.027	401.06
484.245	402.06
484.463	401.06
484.681	406.06
484.9	399.06
485.118	410.06
485.336	395.06
485.554	404.06
485.772	433.06
485.99	417.06
486.209	417.06
486.427	404.06
486.645	427.06
486.863	438.06
487.081	402.06
487.299	417.06
487.517	419.06
487.735	422.06
487.953	421.06
488.171	444.06
488.389	395.06
488.607	411.06
488.825	403.06
489.043	395.06
489.261	392.06
489.479	432.06
489.696	410.06
489.914	411.06
490.132	421.06
490.35	405.06
490.568	400.06
490.786	406.06
491.003	407.06
491.221	404.06
491.439	418.06
491.657	419.06
491.874	437.06
492.092	438.06
492.31	431.06
492.527	433.06
492.745	447.06
492.963	425.06
493.18	417.06
493.398	430.06
493.615	409.06
493.833	436.06
494.05	439.06
494.268	427.06
494.485	458.06
494.703	431.06
494.92	445.06
495.138	434.06
495.355	435.06
495.573	432.06
495.79	444.06
496.008	456.06
496.225	464.06
496.442	458.06
496.66	475.06
496.877	466.06
497.094	488.06
497.312	468.06
497.529	497.06
497.746	478.06
497.963	533.06
498.181	528.06
498.398	552.06
498.615	567.06
498.832	606.06
499.049	667.06
499.267	695.06
499.484	756.06
499.701	839.06
499.918	911.06
500.135	1004.06
500.352	1117.06
500.569	1114.06
500.786	1126.06
501.003	1031.06
501.22	948.06
501.437	878.06
501.654	771.06
501.871	697.06
502.088	657.06
502.305	634.06
502.522	614.06
502.739	577.06
502.956	537.06
503.172	532.06
503.389	499.06
503.606	510.06
503.823	493.06
504.04	500.06
504.256	513.06
504.473	504.06
504.69	487.06
504.907	483.06
505.123	473.06
505.34	435.06
505.557	420.06
505.773	420.06
505.99	405.06
506.207	395.06
506.423	418.06
506.64	413.06
506.856	390.06
507.073	383.06
507.289	391.06
507.506	388.06
507.722	392.06
507.939	399.06
508.155	395.06
508.372	384.06
508.588	353.06
508.805	367.06
509.021	373.06
509.238	358.06
509.454	368.06
509.67	367.06
509.887	365.06
510.103	369.06
510.319	359.06
510.536	360.06
510.752	356.06
510.968	371.06
511.184	363.06
511.401	346.06
511.617	368.06
511.833	366.06
512.049	355.06
512.265	363.06
512.481	370.06
512.698	371.06
512.914	374.06
513.13	360.06
513.346	376.06
513.562	362.06
513.778	365.06
513.994	354.06
514.21	369.06
514.426	362.06
514.642	344.06
514.858	376.06
515.074	357.06
515.29	391.06
515.506	375.06
515.721	361.06
515.937	391.06
516.153	403.06
516.369	417.06
516.585	407.06
516.801	414.06
517.016	411.06
517.232	422.06
517.448	453.06
517.664	467.06
517.879	490.06
518.095	465.06
518.311	452.06
518.527	427.06
518.742	426.06
518.958	447.06
519.173	419.06
519.389	384.06
519.605	400.06
519.82	379.06
520.036	391.06
520.251	378.06
520.467	357.06
520.682	350.06
520.898	373.06
521.113	351.06
521.329	346.06
521.544	363.06
521.76	348.06
521.975	338.06
522.19	350.06
522.406	359.06
522.621	342.06
522.836	346.06
523.052	356.06
523.267	359.06
523.482	345.06
523.698	333.06
523.913	331.06
524.128	345.06
524.343	341.06
524.559	327.06
524.774	364.06
524.989	353.06
525.204	318.06
525.419	346.06
525.634	344.06
525.849	342.06
526.064	351.06
526.28	327.06
526.495	322.06
526.71	324.06
526.925	324.06
527.14	309.06
527.355	312.06
527.57	323.06
527.785	339.06
527.999	334.06
528.214	305.06
528.429	327.06
528.644	332.06
528.859	332.06
529.074	326.06
529.289	339.06
529.503	337.06
529.718	336.06
529.933	318.06
530.148	321.06
530.363	322.06
530.577	310.06
530.792	306.06
531.007	323.06
531.221	332.06
531.436	324.06
531.651	316.06
531.865	318.06
532.08	323.06
532.295	327.06
532.509	317.06
532.724	333.06
532.938	331.06
533.153	333.06
533.367	322.06
533.582	319.06
533.796	336.06
534.011	338.06
534.225	327.06
534.44	314.06
534.654	338.06
534.868	330.06
535.083	313.06
535.297	329.06
535.511	312.06
535.726	330.06
535.94	321.06
536.154	304.06
536.369	325.06
536.583	308.06
536.797	296.06
537.011	307.06
537.225	287.06
537.44	314.06
537.654	307.06
537.868	290.06
538.082	284.06
538.296	300.06
538.51	301.06
538.724	306.06
538.938	308.06
539.153	292.06
539.367	308.06
539.581	309.06
539.795	299.06
540.009	307.06
540.222	309.06
540.436	310.06
540.65	281.06
540.864	298.06
541.078	316.06
541.292	312.06
541.506	310.06
541.72	305.06
541.934	311.06
542.147	278.06
542.361	300.06
542.575	302.06
542.789	309.06
543.002	310.06
543.216	285.06
543.43	303.06
543.644	303.06
543.857	311.06
544.071	293.06
544.285	323.06
544.498	309.06
544.712	299.06
544.925	297.06
545.139	301.06
545.352	298.06
545.566	306.06
545.779	315.06
545.993	306.06
546.206	322.06
546.42	311.06
546.633	320.06
546.847	312.06
547.06	300.06
547.274	312.06
547.487	312.06
547.7	321.06
547.914	316.06
548.127	309.06
548.34	304.06
548.554	300.06
548.767	317.06
548.98	317.06
549.193	307.06
549.407	310.06
549.62	307.06
549.833	318.06
550.046	311.06
550.259	310.06
550.473	314.06
550.686	302.06
550.899	298.06
551.112	299.06
551.325	301.06
551.538	309.06
551.751	309.06
551.964	322.06
552.177	303.06
552.39	322.06
552.603	345.06
552.816	330.06
553.029	299.06
553.242	325.06
553.455	331.06
553.667	348.06
553.88	309.06
554.093	320.06
554.306	325.06
554.519	325.06
554.732	303.06
554.944	312.06
555.157	310.06
555.37	296.06
555.583	295.06
555.795	294.06
556.008	263.06
556.221	284.06
556.433	279.06
556.646	274.06
556.859	267.06
557.071	271.06
557.284	287.06
557.496	288.06
557.709	276.06
557.921	272.06
558.134	272.06
558.346	269.06
558.559	269.06
558.771	275.06
558.984	275.06
559.196	262.06
559.409	266.06
559.621	271.06
559.833	259.06
560.046	251.06
560.258	265.06
560.47	263.06
560.683	273.06
560.895	287.06
561.107	276.06
561.32	253.06
561.532	263.06
561.744	249.06
561.956	267.06
562.168	244.06
562.381	254.06
562.593	274.06
562.805	266.06
563.017	261.06
563.229	254.06
563.441	276.06
563.653	284.06
563.865	271.06
564.077	278.06
564.289	276.06
564.501	270.06
564.713	290.06
564.925	293.06
565.137	285.06
565.349	291.06
565.561	281.06
565.773	313.06
565.985	310.06
566.197	340.06
566.408	362.06
566.62	364.06
566.832	390.06
567.044	417.06
567.255	386.06
567.467	419.06
567.679	423.06
567.891	437.06
568.102	439.06
568.314	417.06
568.526	387.06
568.737	399.06
568.949	337.06
569.161	311.06
569.372	296.06
569.584	305.06
569.795	284.06
570.007	283.06
570.218	282.06
570.43	255.06
570.641	260.06
570.853	276.06
571.064	265.06
571.276	269.06
571.487	263.06
571.698	227.06
571.91	244.06
572.121	264.06
572.333	247.06
572.544	261.06
572.755	225.06
572.966	226.06
573.178	228.06
573.389	220.06
573.6	244.06
573.811	231.06
574.023	220.06
574.234	209.06
574.445	241.06
574.656	228.06
574.867	201.06
575.078	221.06
575.289	220.06
575.501	229.06
575.712	217.06
575.923	233.06
576.134	213.06
576.345	218.06
576.556	218.06
576.767	202.06
576.978	193.06
577.188	213.06
577.399	212.06
577.61	212.06
577.821	205.06
578.032	209.06
578.243	212.06
578.454	212.06
578.665	194.06
578.875	195.06
579.086	205.06
579.297	189.06
579.508	215.06
579.718	188.06
579.929	193.06
580.14	203.06
580.35	211.06
580.561	197.06
580.772	188.06
580.982	198.06
581.193	192.06
581.403	195.06
581.614	199.06
581.825	191.06
582.035	193.06
582.246	207.06
582.456	208.06
582.667	190.06
582.877	201.06
583.087	201.06
583.298	201.06
583.508	194.06
583.719	193.06
583.929	194.06
584.139	204.06
584.35	191.06
584.56	181.06
584.77	194.06
584.981	193.06
585.191	185.06
585.401	191.06
585.611	183.06
585.821	203.06
586.032	197.06
586.242	189.06
586.452	186.06
586.662	198.06
586.872	194.06
587.082	188.06
587.292	195.06
587.502	194.06
587.713	214.06
587.923	191.06
588.133	207.06
588.343	187.06
588.553	184.06
588.762	201.06
588.972	208.06
589.182	195.06
589.392	195.06
589.602	200.06
589.812	193.06
590.022	200.06
590.232	202.06
590.441	194.06
590.651	197.06
590.861	201.06
591.071	187.06
591.281	195.06
591.49	194.06
591.7	172.06
591.91	192.06
592.119	191.06
592.329	212.06
592.539	200.06
592.748	211.06
592.958	214.06
593.167	207.06
593.377	215.06
593.587	238.06
593.796	244.06
594.006	222.06
594.215	225.06
594.424	216.06
594.634	223.06
594.843	209.06
595.053	203.06
595.262	202.06
595.472	199.06
595.681	199.06
595.89	201.06
596.1	196.06
596.309	183.06
596.518	188.06
596.727	181.06
596.937	185.06
597.146	170.06
597.355	200.06
597.564	173.06
597.774	177.06
597.983	167.06
598.192	177.06
598.401	178.06
598.61	164.06
598.819	188.06
599.028	157.06
599.237	164.06
599.446	177.06
599.655	160.06
599.864	168.06
600.073	158.06
600.282	153.06
600.491	171.06
600.7	165.06
600.909	160.06
601.118	169.06
601.327	168.06
601.536	177.06
601.745	172.06
601.953	155.06
602.162	170.06
602.371	164.06
602.58	176.06
602.789	173.06
602.997	177.06
603.206	182.06
603.415	172.06
603.623	154.06
603.832	156.06
604.041	164.06
604.249	154.06
604.458	162.06
604.666	168.06
604.875	152.06
605.084	157.06
605.292	158.06
605.501	152.06
605.709	170.06
605.918	161.06
606.126	160.06
606.334	166.06
606.543	160.06
606.751	162.06
606.96	165.06
607.168	179.06
607.376	167.06
607.585	165.06
607.793	167.06
608.001	164.06
608.21	165.06
608.418	185.06
608.626	153.06
608.834	151.06
609.043	150.06
609.251	149.06
609.459	156.06
609.667	154.06
609.875	165.06
610.083	171.06
610.291	159.06
610.499	165.06
610.707	167.06
610.916	150.06
611.124	168.06
611.332	165.06
611.54	164.06
611.748	149.06
611.955	165.06
612.163	169.06
612.371	164.06
612.579	170.06
612.787	153.06
612.995	144.06
613.203	158.06
613.411	157.06
613.618	156.06
613.826	143.06
614.034	145.06
614.242	164.06
614.449	145.06
614.657	155.06
614.865	157.06
615.072	147.06
615.28	160.06
615.488	151.06
615.695	159.06
615.903	164.06
616.111	180.06
616.318	166.06
616.526	146.06
616.733	167.06
616.941	165.06
617.148	156.06
617.356	145.06
617.563	155.06
617.771	141.06
617.978	153.06
618.185	148.06
618.393	154.06
618.6	133.06
618.807	163.06
619.015	133.06
619.222	151.06
619.429	156.06
619.637	152.06
619.844	162.06
620.051	159.06
620.258	138.06
620.466	149.06
620.673	137.06
620.88	144.06
621.087	137.06
621.294	136.06
621.501	133.06
621.708	167.06
621.915	161.06
622.122	152.06
622.329	161.06
622.536	144.06
622.743	138.06
622.95	157.06
623.157	142.06
623.364	136.06
623.571	131.06
623.778	137.06
623.985	153.06
624.192	152.06
624.399	128.06
624.606	150.06
624.812	137.06
625.019	147.06
625.226	143.06
625.433	145.06
625.639	149.06
625.846	147.06
626.053	153.06
626.259	129.06
626.466	144.06
626.673	133.06
626.879	139.06
627.086	163.06
627.293	132.06
627.499	138.06
627.706	146.06
627.912	128.06
628.119	151.06
628.325	134.06
628.532	136.06
628.738	136.06
628.945	152.06
629.151	132.06
629.357	140.06
629.564	122.06
629.77	137.06
629.976	152.06
630.183	147.06
630.389	149.06
630.595	113.06
630.802	136.06
631.008	129.06
631.214	141.06
631.42	134.06
631.627	137.06
631.833	145.06
632.039	136.06
632.245	132.06
632.451	139.06
632.657	141.06
632.863	137.06
633.069	133.06
633.275	137.06
633.481	141.06
633.688	115.06
633.893	135.06
634.099	137.06
634.305	136.06
634.511	146.06
634.717	130.06
634.923	151.06
635.129	131.06
635.335	118.06
635.541	131.06
635.747	150.06
635.952	137.06
636.158	151.06
636.364	134.06
636.57	135.06
636.775	131.06
636.981	131.06
637.187	137.06
637.392	115.06
637.598	126.06
637.804	127.06
638.009	124.06
638.215	131.06
638.421	115.06
638.626	132.06
638.832	126.06
639.037	136.06
639.243	127.06
639.448	119.06
639.654	123.06
639.859	127.06
640.065	130.06
640.27	128.06
640.475	131.06
640.681	105.06
640.886	131.06
641.091	132.06
641.297	141.06
641.502	139.06
641.707	139.06
641.913	116.06
642.118	116.06
642.323	126.06
642.528	119.06
642.733	127.06
642.939	121.06
643.144	120.06
643.349	127.06
643.554	117.06
643.759	119.06
643.964	131.06
644.169	134.06
644.374	117.06
644.579	125.06
644.784	137.06
644.989	127.06
645.194	124.06
645.399	108.06
645.604	125.06
645.809	127.06
646.014	134.06
646.219	113.06
646.423	129.06
646.628	138.06
646.833	129.06
647.038	132.06
647.243	129.06
647.447	123.06
647.652	123.06
647.857	105.06
648.062	144.06
648.266	135.06
648.471	123.06
648.676	123.06
648.88	137.06
649.085	126.06
649.289	129.06
649.494	128.06
649.698	128.06
649.903	126.06
650.107	108.06
650.312	108.06
650.516	120.06
650.721	129.06
650.925	120.06
651.13	108.06
651.334	120.06
651.539	115.06
651.743	115.06
651.947	122.06
652.152	119.06
652.356	120.06
652.56	124.06
652.764	121.06
652.969	128.06
653.173	119.06
653.377	123.06
653.581	111.06
653.785	120.06
653.99	101.06
654.194	105.06
654.398	96.06
654.602	118.06
654.806	120.06
655.01	108.06
655.214	112.06
655.418	104.06
655.622	110.06
655.826	125.06
656.03	103.06
656.234	114.06
656.438	117.06
656.642	107.06
656.846	97.06
657.049	96.06
657.253	80.06
657.457	113.06
657.661	103.06
657.865	100.06
658.068	100.06
658.272	104.06
658.476	85.06
658.68	111.06
658.883	97.06
659.087	105.06
659.291	106.06
659.494	91.06
659.698	93.06
659.901	87.06
660.105	75.06
660.309	78.06
660.512	89.06
660.716	93.06
660.919	84.06
661.123	98.06
661.326	72.06
661.53	92.06
661.733	95.06
661.936	90.06
662.14	93.06
662.343	91.06
662.546	98.06
662.75	90.06
662.953	96.06
663.156	92.06
663.36	85.06
663.563	66.06
663.766	86.06
663.969	77.06
664.173	89.06
664.376	87.06
664.579	76.06
664.782	82.06
664.985	81.06
665.188	83.06
665.391	76.06
665.594	69.06
665.797	78.06
666	89.06
666.203	78.06
666.406	81.06
666.609	82.06
666.812	83.06
667.015	76.06
667.218	87.06
667.421	75.06
667.624	80.06
667.827	78.06
668.03	88.06
668.232	76.06
668.435	74.06
668.638	77.06
668.841	81.06
669.043	72.06
669.246	84.06
669.449	83.06
669.651	81.06
669.854	81.06
670.057	73.06
670.259	89.06
670.462	82.06
670.665	73.06
670.867	89.06
671.07	81.06
671.272	89.06
671.475	88.06
671.677	86.06
671.88	86.06
672.082	95.06
672.284	86.06
672.487	82.06
672.689	77.06
672.892	76.06
