Data from Fe(NO3)3@0.05M.TitratingCurve.Agarose3%dH2O.NegLispCup.LampEnergy10.LIBS07252019_HRD10591_16-47-07-333.txt Node
Date: Thu Jul 25 16:47:07 EDT 2019
User: cochatt
Spectrometer: HR+D1059
Trigger mode: 1
Integration Time (sec): 1.000000E-1
Scans to average: 1
Electric dark correction enabled: true
Nonlinearity correction enabled: false
Boxcar width: 0
XAxis mode: Wavelengths
Number of Pixels in Spectrum: 2048
>>>>>Begin Spectral Data<<<<<
223.165	-18.5
223.4	-18.5
223.635	-18.5
223.869	-30.5
224.104	-14.5
224.338	-18.5
224.573	-20.5
224.808	-10.5
225.042	-14.5
225.277	-12.5
225.511	-12.5
225.746	11.5
225.98	11.5
226.215	21.5
226.449	29.5
226.683	22.5
226.918	21.5
227.152	34.5
227.387	49.5
227.621	26.5
227.856	37.5
228.09	53.5
228.324	42.5
228.559	61.5
228.793	63.5
229.027	76.5
229.262	89.5
229.496	89.5
229.73	97.5
229.964	100.5
230.199	109.5
230.433	99.5
230.667	120.5
230.901	118.5
231.136	115.5
231.37	113.5
231.604	117.5
231.838	116.5
232.072	112.5
232.306	117.5
232.541	119.5
232.775	113.5
233.009	132.5
233.243	106.5
233.477	129.5
233.711	117.5
233.945	114.5
234.179	123.5
234.413	139.5
234.647	124.5
234.881	123.5
235.115	131.5
235.349	131.5
235.583	129.5
235.817	116.5
236.051	131.5
236.285	129.5
236.519	135.5
236.753	139.5
236.987	138.5
237.221	127.5
237.455	126.5
237.689	137.5
237.922	138.5
238.156	123.5
238.39	129.5
238.624	157.5
238.858	141.5
239.091	130.5
239.325	146.5
239.559	134.5
239.793	139.5
240.027	149.5
240.26	140.5
240.494	131.5
240.728	141.5
240.961	151.5
241.195	166.5
241.429	169.5
241.662	157.5
241.896	157.5
242.13	156.5
242.363	148.5
242.597	148.5
242.83	166.5
243.064	137.5
243.298	146.5
243.531	168.5
243.765	154.5
243.998	158.5
244.232	166.5
244.465	170.5
244.699	167.5
244.932	171.5
245.166	176.5
245.399	179.5
245.633	188.5
245.866	168.5
246.099	174.5
246.333	175.5
246.566	174.5
246.8	180.5
247.033	168.5
247.266	171.5
247.5	174.5
247.733	188.5
247.966	191.5
248.2	175.5
248.433	195.5
248.666	190.5
248.899	178.5
249.133	180.5
249.366	197.5
249.599	190.5
249.832	187.5
250.066	201.5
250.299	190.5
250.532	196.5
250.765	203.5
250.998	194.5
251.231	194.5
251.465	208.5
251.698	204.5
251.931	195.5
252.164	194.5
252.397	202.5
252.63	202.5
252.863	215.5
253.096	221.5
253.329	209.5
253.562	223.5
253.795	209.5
254.028	218.5
254.261	215.5
254.494	211.5
254.727	227.5
254.96	198.5
255.193	223.5
255.426	221.5
255.659	203.5
255.892	216.5
256.124	205.5
256.357	215.5
256.59	224.5
256.823	223.5
257.056	205.5
257.289	228.5
257.521	211.5
257.754	234.5
257.987	219.5
258.22	226.5
258.452	221.5
258.685	216.5
258.918	239.5
259.151	231.5
259.383	238.5
259.616	241.5
259.849	217.5
260.081	269.5
260.314	295.5
260.547	264.5
260.779	257.5
261.012	250.5
261.244	254.5
261.477	253.5
261.71	253.5
261.942	251.5
262.175	256.5
262.407	271.5
262.64	265.5
262.872	247.5
263.105	267.5
263.337	266.5
263.57	291.5
263.802	262.5
264.035	238.5
264.267	261.5
264.499	248.5
264.732	253.5
264.964	238.5
265.197	252.5
265.429	255.5
265.661	267.5
265.894	242.5
266.126	253.5
266.358	266.5
266.591	266.5
266.823	259.5
267.055	258.5
267.287	264.5
267.52	267.5
267.752	259.5
267.984	267.5
268.216	270.5
268.448	255.5
268.681	262.5
268.913	275.5
269.145	253.5
269.377	268.5
269.609	249.5
269.841	269.5
270.073	291.5
270.306	264.5
270.538	296.5
270.77	260.5
271.002	258.5
271.234	281.5
271.466	264.5
271.698	270.5
271.93	280.5
272.162	288.5
272.394	309.5
272.626	278.5
272.858	271.5
273.09	289.5
273.322	288.5
273.553	302.5
273.785	319.5
274.017	332.5
274.249	329.5
274.481	331.5
274.713	342.5
274.945	334.5
275.176	371.5
275.408	349.5
275.64	335.5
275.872	335.5
276.104	310.5
276.335	303.5
276.567	323.5
276.799	302.5
277.031	292.5
277.262	321.5
277.494	322.5
277.726	321.5
277.957	297.5
278.189	305.5
278.421	321.5
278.652	322.5
278.884	310.5
279.115	323.5
279.347	321.5
279.579	320.5
279.81	325.5
280.042	315.5
280.273	346.5
280.505	344.5
280.736	327.5
280.968	291.5
281.199	335.5
281.431	342.5
281.662	331.5
281.894	329.5
282.125	349.5
282.356	353.5
282.588	327.5
282.819	349.5
283.051	342.5
283.282	323.5
283.513	341.5
283.745	347.5
283.976	340.5
284.207	341.5
284.439	338.5
284.67	365.5
284.901	343.5
285.132	342.5
285.364	340.5
285.595	347.5
285.826	342.5
286.057	329.5
286.288	351.5
286.52	358.5
286.751	336.5
286.982	357.5
287.213	373.5
287.444	369.5
287.675	365.5
287.906	383.5
288.138	373.5
288.369	367.5
288.6	362.5
288.831	357.5
289.062	357.5
289.293	366.5
289.524	365.5
289.755	374.5
289.986	362.5
290.217	362.5
290.448	370.5
290.679	386.5
290.91	375.5
291.141	363.5
291.371	367.5
291.602	361.5
291.833	367.5
292.064	379.5
292.295	374.5
292.526	379.5
292.757	386.5
292.987	366.5
293.218	349.5
293.449	375.5
293.68	355.5
293.91	365.5
294.141	369.5
294.372	382.5
294.603	367.5
294.833	403.5
295.064	385.5
295.295	396.5
295.525	381.5
295.756	378.5
295.987	377.5
296.217	361.5
296.448	373.5
296.679	385.5
296.909	399.5
297.14	391.5
297.37	383.5
297.601	391.5
297.831	374.5
298.062	385.5
298.292	385.5
298.523	414.5
298.753	404.5
298.984	415.5
299.214	409.5
299.445	414.5
299.675	403.5
299.905	418.5
300.136	388.5
300.366	413.5
300.597	431.5
300.827	420.5
301.057	407.5
301.288	408.5
301.518	423.5
301.748	409.5
301.979	401.5
302.209	425.5
302.439	429.5
302.669	403.5
302.9	423.5
303.13	403.5
303.36	414.5
303.59	413.5
303.82	399.5
304.051	413.5
304.281	446.5
304.511	401.5
304.741	416.5
304.971	427.5
305.201	415.5
305.431	435.5
305.661	413.5
305.891	423.5
306.121	424.5
306.352	406.5
306.582	417.5
306.812	439.5
307.042	426.5
307.272	428.5
307.502	417.5
307.731	415.5
307.961	419.5
308.191	411.5
308.421	425.5
308.651	416.5
308.881	420.5
309.111	410.5
309.341	421.5
309.571	414.5
309.8	415.5
310.03	434.5
310.26	429.5
310.49	434.5
310.72	431.5
310.949	434.5
311.179	435.5
311.409	442.5
311.639	445.5
311.868	432.5
312.098	428.5
312.328	446.5
312.557	454.5
312.787	429.5
313.017	441.5
313.246	452.5
313.476	421.5
313.706	442.5
313.935	452.5
314.165	458.5
314.394	486.5
314.624	467.5
314.853	470.5
315.083	449.5
315.312	460.5
315.542	455.5
315.771	437.5
316.001	434.5
316.23	439.5
316.46	443.5
316.689	475.5
316.919	459.5
317.148	458.5
317.377	456.5
317.607	460.5
317.836	442.5
318.065	464.5
318.295	443.5
318.524	446.5
318.753	446.5
318.983	466.5
319.212	461.5
319.441	471.5
319.67	458.5
319.9	469.5
320.129	449.5
320.358	464.5
320.587	430.5
320.816	442.5
321.046	450.5
321.275	449.5
321.504	467.5
321.733	456.5
321.962	451.5
322.191	483.5
322.42	457.5
322.649	472.5
322.878	475.5
323.108	459.5
323.337	467.5
323.566	452.5
323.795	482.5
324.024	467.5
324.253	457.5
324.482	459.5
324.71	472.5
324.939	474.5
325.168	475.5
325.397	472.5
325.626	485.5
325.855	482.5
326.084	512.5
326.313	499.5
326.542	478.5
326.77	499.5
326.999	495.5
327.228	514.5
327.457	489.5
327.686	491.5
327.914	516.5
328.143	496.5
328.372	474.5
328.6	494.5
328.829	494.5
329.058	487.5
329.287	507.5
329.515	517.5
329.744	478.5
329.972	497.5
330.201	493.5
330.43	526.5
330.658	522.5
330.887	520.5
331.115	515.5
331.344	542.5
331.572	531.5
331.801	530.5
332.03	537.5
332.258	532.5
332.486	530.5
332.715	541.5
332.943	546.5
333.172	551.5
333.4	560.5
333.629	594.5
333.857	633.5
334.085	612.5
334.314	596.5
334.542	596.5
334.771	588.5
334.999	605.5
335.227	580.5
335.455	595.5
335.684	621.5
335.912	566.5
336.14	579.5
336.369	579.5
336.597	610.5
336.825	590.5
337.053	577.5
337.281	567.5
337.51	549.5
337.738	558.5
337.966	549.5
338.194	551.5
338.422	542.5
338.65	541.5
338.878	568.5
339.106	563.5
339.334	554.5
339.562	538.5
339.79	543.5
340.018	551.5
340.246	534.5
340.474	535.5
340.702	530.5
340.93	520.5
341.158	516.5
341.386	527.5
341.614	519.5
341.842	537.5
342.07	524.5
342.298	520.5
342.526	510.5
342.754	525.5
342.981	536.5
343.209	541.5
343.437	566.5
343.665	580.5
343.893	594.5
344.12	609.5
344.348	607.5
344.576	587.5
344.804	592.5
345.031	564.5
345.259	553.5
345.487	557.5
345.714	539.5
345.942	542.5
346.17	520.5
346.397	534.5
346.625	521.5
346.853	499.5
347.08	510.5
347.308	518.5
347.535	524.5
347.763	527.5
347.99	525.5
348.218	499.5
348.445	536.5
348.673	520.5
348.9	498.5
349.128	515.5
349.355	519.5
349.583	517.5
349.81	489.5
350.037	493.5
350.265	507.5
350.492	478.5
350.72	507.5
350.947	513.5
351.174	497.5
351.402	484.5
351.629	507.5
351.856	489.5
352.083	505.5
352.311	516.5
352.538	509.5
352.765	515.5
352.992	510.5
353.22	526.5
353.447	505.5
353.674	520.5
353.901	524.5
354.128	497.5
354.355	501.5
354.583	502.5
354.81	500.5
355.037	495.5
355.264	518.5
355.491	504.5
355.718	489.5
355.945	498.5
356.172	493.5
356.399	498.5
356.626	512.5
356.853	511.5
357.08	515.5
357.307	515.5
357.534	519.5
357.761	501.5
357.988	527.5
358.215	513.5
358.441	535.5
358.668	516.5
358.895	501.5
359.122	535.5
359.349	520.5
359.576	519.5
359.802	512.5
360.029	521.5
360.256	515.5
360.483	503.5
360.709	511.5
360.936	519.5
361.163	519.5
361.39	528.5
361.616	501.5
361.843	511.5
362.07	515.5
362.296	520.5
362.523	517.5
362.749	495.5
362.976	500.5
363.203	498.5
363.429	520.5
363.656	526.5
363.882	497.5
364.109	525.5
364.335	531.5
364.562	495.5
364.788	521.5
365.015	522.5
365.241	497.5
365.468	509.5
365.694	522.5
365.92	523.5
366.147	529.5
366.373	503.5
366.599	517.5
366.826	490.5
367.052	530.5
367.278	531.5
367.505	511.5
367.731	514.5
367.957	521.5
368.184	535.5
368.41	525.5
368.636	543.5
368.862	541.5
369.089	534.5
369.315	541.5
369.541	542.5
369.767	551.5
369.993	553.5
370.219	549.5
370.445	557.5
370.672	560.5
370.898	546.5
371.124	564.5
371.35	561.5
371.576	579.5
371.802	591.5
372.028	582.5
372.254	588.5
372.48	553.5
372.706	591.5
372.932	564.5
373.158	584.5
373.384	590.5
373.61	584.5
373.835	598.5
374.061	603.5
374.287	591.5
374.513	568.5
374.739	594.5
374.965	642.5
375.191	635.5
375.416	605.5
375.642	564.5
375.868	575.5
376.094	604.5
376.319	590.5
376.545	598.5
376.771	594.5
376.997	581.5
377.222	591.5
377.448	581.5
377.674	569.5
377.899	583.5
378.125	581.5
378.35	576.5
378.576	574.5
378.802	562.5
379.027	575.5
379.253	568.5
379.478	573.5
379.704	592.5
379.929	583.5
380.155	587.5
380.38	560.5
380.606	566.5
380.831	567.5
381.057	591.5
381.282	587.5
381.507	568.5
381.733	604.5
381.958	590.5
382.184	609.5
382.409	616.5
382.634	610.5
382.86	597.5
383.085	586.5
383.31	611.5
383.535	628.5
383.761	622.5
383.986	625.5
384.211	648.5
384.436	639.5
384.662	629.5
384.887	633.5
385.112	631.5
385.337	665.5
385.562	643.5
385.787	695.5
386.013	678.5
386.238	687.5
386.463	669.5
386.688	689.5
386.913	655.5
387.138	671.5
387.363	673.5
387.588	657.5
387.813	681.5
388.038	652.5
388.263	665.5
388.488	652.5
388.713	649.5
388.938	690.5
389.163	707.5
389.387	693.5
389.612	646.5
389.837	671.5
390.062	682.5
390.287	660.5
390.512	680.5
390.736	702.5
390.961	682.5
391.186	698.5
391.411	709.5
391.636	711.5
391.86	731.5
392.085	747.5
392.31	738.5
392.534	739.5
392.759	705.5
392.984	721.5
393.208	715.5
393.433	734.5
393.658	719.5
393.882	689.5
394.107	730.5
394.331	709.5
394.556	682.5
394.78	701.5
395.005	716.5
395.229	722.5
395.454	746.5
395.678	734.5
395.903	752.5
396.127	746.5
396.352	719.5
396.576	728.5
396.801	730.5
397.025	738.5
397.249	758.5
397.474	733.5
397.698	767.5
397.922	781.5
398.147	787.5
398.371	774.5
398.595	793.5
398.82	839.5
399.044	853.5
399.268	881.5
399.492	999.5
399.717	1057.5
399.941	1063.5
400.165	991.5
400.389	974.5
400.613	925.5
400.837	891.5
401.062	875.5
401.286	852.5
401.51	864.5
401.734	824.5
401.958	846.5
402.182	826.5
402.406	844.5
402.63	852.5
402.854	847.5
403.078	836.5
403.302	845.5
403.526	861.5
403.75	874.5
403.974	873.5
404.198	851.5
404.422	854.5
404.645	893.5
404.869	881.5
405.093	894.5
405.317	870.5
405.541	908.5
405.765	872.5
405.988	862.5
406.212	898.5
406.436	885.5
406.66	934.5
406.883	919.5
407.107	972.5
407.331	978.5
407.555	954.5
407.778	984.5
408.002	974.5
408.226	959.5
408.449	946.5
408.673	960.5
408.896	909.5
409.12	914.5
409.344	906.5
409.567	880.5
409.791	906.5
410.014	895.5
410.238	884.5
410.461	877.5
410.685	899.5
410.908	875.5
411.132	856.5
411.355	838.5
411.578	880.5
411.802	865.5
412.025	844.5
412.249	880.5
412.472	879.5
412.695	849.5
412.919	853.5
413.142	847.5
413.365	834.5
413.589	842.5
413.812	823.5
414.035	839.5
414.258	816.5
414.482	840.5
414.705	836.5
414.928	822.5
415.151	853.5
415.374	853.5
415.597	819.5
415.821	799.5
416.044	820.5
416.267	802.5
416.49	801.5
416.713	801.5
416.936	813.5
417.159	825.5
417.382	791.5
417.605	794.5
417.828	800.5
418.051	827.5
418.274	813.5
418.497	791.5
418.72	813.5
418.943	818.5
419.166	850.5
419.389	918.5
419.611	889.5
419.834	873.5
420.057	862.5
420.28	814.5
420.503	795.5
420.726	797.5
420.948	796.5
421.171	829.5
421.394	807.5
421.617	791.5
421.839	811.5
422.062	806.5
422.285	828.5
422.507	794.5
422.73	834.5
422.953	835.5
423.175	788.5
423.398	815.5
423.621	806.5
423.843	815.5
424.066	815.5
424.288	832.5
424.511	793.5
424.733	825.5
424.956	816.5
425.178	808.5
425.401	826.5
425.623	827.5
425.846	787.5
426.068	791.5
426.291	777.5
426.513	797.5
426.735	761.5
426.958	777.5
427.18	785.5
427.402	817.5
427.625	785.5
427.847	761.5
428.069	745.5
428.292	766.5
428.514	767.5
428.736	729.5
428.958	783.5
429.181	735.5
429.403	745.5
429.625	732.5
429.847	737.5
430.069	713.5
430.292	765.5
430.514	730.5
430.736	773.5
430.958	769.5
431.18	725.5
431.402	749.5
431.624	762.5
431.846	776.5
432.068	730.5
432.29	760.5
432.512	760.5
432.734	797.5
432.956	735.5
433.178	767.5
433.4	775.5
433.622	797.5
433.844	765.5
434.066	791.5
434.287	765.5
434.509	773.5
434.731	797.5
434.953	797.5
435.175	797.5
435.397	794.5
435.618	793.5
435.84	772.5
436.062	785.5
436.284	769.5
436.505	777.5
436.727	774.5
436.949	745.5
437.17	772.5
437.392	743.5
437.614	745.5
437.835	738.5
438.057	717.5
438.278	706.5
438.5	755.5
438.721	763.5
438.943	734.5
439.165	714.5
439.386	737.5
439.608	766.5
439.829	750.5
440.05	770.5
440.272	768.5
440.493	775.5
440.715	785.5
440.936	770.5
441.158	789.5
441.379	779.5
441.6	827.5
441.822	804.5
442.043	811.5
442.264	801.5
442.486	786.5
442.707	824.5
442.928	769.5
443.149	816.5
443.371	805.5
443.592	794.5
443.813	815.5
444.034	827.5
444.255	838.5
444.476	868.5
444.698	868.5
444.919	885.5
445.14	927.5
445.361	864.5
445.582	851.5
445.803	807.5
446.024	813.5
446.245	815.5
446.466	795.5
446.687	753.5
446.908	770.5
447.129	749.5
447.35	759.5
447.571	752.5
447.792	742.5
448.013	714.5
448.234	713.5
448.455	724.5
448.675	715.5
448.896	687.5
449.117	698.5
449.338	728.5
449.559	709.5
449.779	711.5
450	700.5
450.221	706.5
450.442	713.5
450.662	712.5
450.883	697.5
451.104	698.5
451.324	704.5
451.545	713.5
451.766	726.5
451.986	696.5
452.207	669.5
452.428	679.5
452.648	685.5
452.869	687.5
453.089	702.5
453.31	679.5
453.53	689.5
453.751	685.5
453.971	656.5
454.192	668.5
454.412	666.5
454.633	633.5
454.853	670.5
455.073	654.5
455.294	670.5
455.514	663.5
455.734	653.5
455.955	653.5
456.175	640.5
456.395	650.5
456.616	661.5
456.836	683.5
457.056	679.5
457.276	654.5
457.497	701.5
457.717	679.5
457.937	673.5
458.157	668.5
458.377	678.5
458.598	698.5
458.818	710.5
459.038	727.5
459.258	712.5
459.478	742.5
459.698	763.5
459.918	765.5
460.138	803.5
460.358	827.5
460.578	852.5
460.798	840.5
461.018	816.5
461.238	854.5
461.458	838.5
461.678	866.5
461.898	874.5
462.118	873.5
462.338	923.5
462.558	925.5
462.777	924.5
462.997	992.5
463.217	1000.5
463.437	1004.5
463.657	975.5
463.876	939.5
464.096	958.5
464.316	953.5
464.536	893.5
464.755	889.5
464.975	894.5
465.195	860.5
465.414	857.5
465.634	828.5
465.854	815.5
466.073	770.5
466.293	773.5
466.512	776.5
466.732	772.5
466.951	770.5
467.171	729.5
467.391	736.5
467.61	737.5
467.829	751.5
468.049	742.5
468.268	715.5
468.488	730.5
468.707	714.5
468.927	736.5
469.146	734.5
469.365	730.5
469.585	716.5
469.804	734.5
470.023	752.5
470.243	746.5
470.462	753.5
470.681	765.5
470.901	759.5
471.12	728.5
471.339	766.5
471.558	743.5
471.777	755.5
471.997	736.5
472.216	737.5
472.435	739.5
472.654	723.5
472.873	738.5
473.092	709.5
473.311	719.5
473.53	733.5
473.749	697.5
473.968	718.5
474.187	705.5
474.406	716.5
474.625	725.5
474.844	707.5
475.063	722.5
475.282	726.5
475.501	725.5
475.72	722.5
475.939	739.5
476.158	730.5
476.377	760.5
476.596	786.5
476.814	793.5
477.033	795.5
477.252	769.5
477.471	757.5
477.69	792.5
477.908	844.5
478.127	827.5
478.346	815.5
478.564	826.5
478.783	832.5
479.002	868.5
479.22	867.5
479.439	868.5
479.658	865.5
479.876	854.5
480.095	883.5
480.313	889.5
480.532	897.5
480.751	915.5
480.969	864.5
481.188	872.5
481.406	867.5
481.624	841.5
481.843	830.5
482.061	834.5
482.28	833.5
482.498	827.5
482.717	825.5
482.935	831.5
483.153	837.5
483.372	815.5
483.59	839.5
483.808	801.5
484.027	835.5
484.245	847.5
484.463	843.5
484.681	835.5
484.9	834.5
485.118	841.5
485.336	818.5
485.554	841.5
485.772	849.5
485.99	837.5
486.209	850.5
486.427	849.5
486.645	866.5
486.863	856.5
487.081	825.5
487.299	805.5
487.517	843.5
487.735	849.5
487.953	870.5
488.171	889.5
488.389	853.5
488.607	842.5
488.825	838.5
489.043	807.5
489.261	847.5
489.479	834.5
489.696	835.5
489.914	849.5
490.132	845.5
490.35	873.5
490.568	855.5
490.786	870.5
491.003	849.5
491.221	873.5
491.439	841.5
491.657	887.5
491.874	890.5
492.092	899.5
492.31	872.5
492.527	894.5
492.745	881.5
492.963	858.5
493.18	894.5
493.398	891.5
493.615	909.5
493.833	890.5
494.05	878.5
494.268	886.5
494.485	917.5
494.703	902.5
494.92	932.5
495.138	910.5
495.355	911.5
495.573	919.5
495.79	920.5
496.008	952.5
496.225	943.5
496.442	968.5
496.66	966.5
496.877	970.5
497.094	1007.5
497.312	1031.5
497.529	989.5
497.746	1034.5
497.963	1060.5
498.181	1083.5
498.398	1117.5
498.615	1147.5
498.832	1214.5
499.049	1281.5
499.267	1339.5
499.484	1394.5
499.701	1473.5
499.918	1598.5
500.135	1690.5
500.352	1817.5
500.569	1847.5
500.786	1821.5
501.003	1803.5
501.22	1653.5
501.437	1591.5
501.654	1470.5
501.871	1405.5
502.088	1302.5
502.305	1267.5
502.522	1209.5
502.739	1157.5
502.956	1114.5
503.172	1089.5
503.389	1073.5
503.606	1043.5
503.823	1028.5
504.04	978.5
504.256	1021.5
504.473	1033.5
504.69	991.5
504.907	983.5
505.123	960.5
505.34	954.5
505.557	930.5
505.773	898.5
505.99	883.5
506.207	857.5
506.423	853.5
506.64	850.5
506.856	823.5
507.073	827.5
507.289	821.5
507.506	831.5
507.722	792.5
507.939	822.5
508.155	801.5
508.372	783.5
508.588	790.5
508.805	771.5
509.021	754.5
509.238	765.5
509.454	731.5
509.67	745.5
509.887	762.5
510.103	765.5
510.319	735.5
510.536	718.5
510.752	720.5
510.968	757.5
511.184	757.5
511.401	743.5
511.617	733.5
511.833	721.5
512.049	719.5
512.265	734.5
512.481	748.5
512.698	724.5
512.914	733.5
513.13	728.5
513.346	736.5
513.562	753.5
513.778	713.5
513.994	733.5
514.21	752.5
514.426	729.5
514.642	722.5
514.858	751.5
515.074	746.5
515.29	750.5
515.506	783.5
515.721	759.5
515.937	751.5
516.153	798.5
516.369	776.5
516.585	807.5
516.801	785.5
517.016	832.5
517.232	852.5
517.448	882.5
517.664	884.5
517.879	850.5
518.095	858.5
518.311	878.5
518.527	841.5
518.742	809.5
518.958	824.5
519.173	821.5
519.389	799.5
519.605	786.5
519.82	776.5
520.036	783.5
520.251	776.5
520.467	738.5
520.682	731.5
520.898	741.5
521.113	699.5
521.329	692.5
521.544	699.5
521.76	734.5
521.975	734.5
522.19	745.5
522.406	718.5
522.621	721.5
522.836	695.5
523.052	693.5
523.267	678.5
523.482	690.5
523.698	682.5
523.913	690.5
524.128	686.5
524.343	674.5
524.559	649.5
524.774	677.5
524.989	683.5
525.204	686.5
525.419	665.5
525.634	646.5
525.849	658.5
526.064	651.5
526.28	671.5
526.495	689.5
526.71	658.5
526.925	666.5
527.14	644.5
527.355	665.5
527.57	662.5
527.785	649.5
527.999	672.5
528.214	649.5
528.429	659.5
528.644	672.5
528.859	670.5
529.074	662.5
529.289	678.5
529.503	659.5
529.718	649.5
529.933	646.5
530.148	659.5
530.363	645.5
530.577	623.5
530.792	655.5
531.007	629.5
531.221	637.5
531.436	633.5
531.651	643.5
531.865	642.5
532.08	637.5
532.295	647.5
532.509	633.5
532.724	651.5
532.938	658.5
533.153	659.5
533.367	635.5
533.582	654.5
533.796	639.5
534.011	651.5
534.225	632.5
534.44	626.5
534.654	622.5
534.868	637.5
535.083	626.5
535.297	652.5
535.511	602.5
535.726	627.5
535.94	626.5
536.154	619.5
536.369	625.5
536.583	591.5
536.797	586.5
537.011	615.5
537.225	575.5
537.44	593.5
537.654	592.5
537.868	601.5
538.082	590.5
538.296	609.5
538.51	569.5
538.724	588.5
538.938	602.5
539.153	584.5
539.367	605.5
539.581	584.5
539.795	614.5
540.009	586.5
540.222	603.5
540.436	591.5
540.65	583.5
540.864	609.5
541.078	582.5
541.292	611.5
541.506	617.5
541.72	593.5
541.934	580.5
542.147	618.5
542.361	614.5
542.575	614.5
542.789	597.5
543.002	595.5
543.216	596.5
543.43	585.5
543.644	599.5
543.857	571.5
544.071	588.5
544.285	590.5
544.498	586.5
544.712	565.5
544.925	606.5
545.139	597.5
545.352	603.5
545.566	591.5
545.779	592.5
545.993	601.5
546.206	586.5
546.42	595.5
546.633	606.5
546.847	604.5
547.06	614.5
547.274	614.5
547.487	597.5
547.7	587.5
547.914	587.5
548.127	623.5
548.34	624.5
548.554	593.5
548.767	591.5
548.98	622.5
549.193	617.5
549.407	603.5
549.62	623.5
549.833	601.5
550.046	619.5
550.259	613.5
550.473	607.5
550.686	615.5
550.899	575.5
551.112	579.5
551.325	593.5
551.538	594.5
551.751	592.5
551.964	599.5
552.177	589.5
552.39	590.5
552.603	598.5
552.816	614.5
553.029	615.5
553.242	602.5
553.455	626.5
553.667	623.5
553.88	609.5
554.093	591.5
554.306	591.5
554.519	613.5
554.732	590.5
554.944	565.5
555.157	579.5
555.37	547.5
555.583	534.5
555.795	542.5
556.008	558.5
556.221	541.5
556.433	553.5
556.646	535.5
556.859	510.5
557.071	537.5
557.284	543.5
557.496	522.5
557.709	533.5
557.921	516.5
558.134	513.5
558.346	500.5
558.559	509.5
558.771	499.5
558.984	511.5
559.196	503.5
559.409	491.5
559.621	503.5
559.833	490.5
560.046	490.5
560.258	511.5
560.47	503.5
560.683	499.5
560.895	485.5
561.107	509.5
561.32	503.5
561.532	522.5
561.744	499.5
561.956	496.5
562.168	500.5
562.381	529.5
562.593	507.5
562.805	528.5
563.017	496.5
563.229	511.5
563.441	509.5
563.653	520.5
563.865	507.5
564.077	513.5
564.289	515.5
564.501	532.5
564.713	535.5
564.925	537.5
565.137	535.5
565.349	541.5
565.561	566.5
565.773	549.5
565.985	611.5
566.197	637.5
566.408	631.5
566.62	657.5
566.832	690.5
567.044	696.5
567.255	683.5
567.467	721.5
567.679	715.5
567.891	709.5
568.102	702.5
568.314	682.5
568.526	667.5
568.737	650.5
568.949	607.5
569.161	583.5
569.372	569.5
569.584	541.5
569.795	533.5
570.007	530.5
570.218	490.5
570.43	490.5
570.641	502.5
570.853	497.5
571.064	488.5
571.276	475.5
571.487	486.5
571.698	452.5
571.91	446.5
572.121	442.5
572.333	451.5
572.544	441.5
572.755	423.5
572.966	446.5
573.178	442.5
573.389	405.5
573.6	416.5
573.811	427.5
574.023	420.5
574.234	409.5
574.445	415.5
574.656	432.5
574.867	434.5
575.078	392.5
575.289	391.5
575.501	419.5
575.712	401.5
575.923	398.5
576.134	392.5
576.345	413.5
576.556	389.5
576.767	391.5
576.978	391.5
577.188	396.5
577.399	391.5
577.61	388.5
577.821	396.5
578.032	382.5
578.243	375.5
578.454	370.5
578.665	394.5
578.875	371.5
579.086	369.5
579.297	366.5
579.508	367.5
579.718	377.5
579.929	398.5
580.14	356.5
580.35	346.5
580.561	365.5
580.772	363.5
580.982	358.5
581.193	372.5
581.403	362.5
581.614	364.5
581.825	374.5
582.035	338.5
582.246	352.5
582.456	365.5
582.667	365.5
582.877	354.5
583.087	351.5
583.298	345.5
583.508	359.5
583.719	355.5
583.929	354.5
584.139	335.5
584.35	342.5
584.56	334.5
584.77	337.5
584.981	331.5
585.191	339.5
585.401	349.5
585.611	342.5
585.821	367.5
586.032	341.5
586.242	339.5
586.452	330.5
586.662	343.5
586.872	334.5
587.082	338.5
587.292	357.5
587.502	343.5
587.713	334.5
587.923	330.5
588.133	341.5
588.343	341.5
588.553	326.5
588.762	345.5
588.972	349.5
589.182	347.5
589.392	360.5
589.602	360.5
589.812	359.5
590.022	358.5
590.232	346.5
590.441	320.5
590.651	338.5
590.861	324.5
591.071	322.5
591.281	330.5
591.49	349.5
591.7	336.5
591.91	352.5
592.119	347.5
592.329	357.5
592.539	369.5
592.748	363.5
592.958	372.5
593.167	355.5
593.377	369.5
593.587	379.5
593.796	379.5
594.006	371.5
594.215	372.5
594.424	381.5
594.634	375.5
594.843	360.5
595.053	355.5
595.262	346.5
595.472	345.5
595.681	342.5
595.89	346.5
596.1	343.5
596.309	319.5
596.518	316.5
596.727	336.5
596.937	325.5
597.146	318.5
597.355	326.5
597.564	299.5
597.774	303.5
597.983	318.5
598.192	311.5
598.401	304.5
598.61	301.5
598.819	297.5
599.028	287.5
599.237	295.5
599.446	309.5
599.655	295.5
599.864	287.5
600.073	285.5
600.282	302.5
600.491	281.5
600.7	273.5
600.909	278.5
601.118	282.5
601.327	294.5
601.536	276.5
601.745	281.5
601.953	281.5
602.162	281.5
602.371	275.5
602.58	286.5
602.789	266.5
602.997	291.5
603.206	279.5
603.415	270.5
603.623	292.5
603.832	258.5
604.041	276.5
604.249	279.5
604.458	274.5
604.666	261.5
604.875	266.5
605.084	259.5
605.292	274.5
605.501	286.5
605.709	264.5
605.918	279.5
606.126	266.5
606.334	294.5
606.543	286.5
606.751	257.5
606.96	272.5
607.168	258.5
607.376	262.5
607.585	276.5
607.793	252.5
608.001	265.5
608.21	254.5
608.418	272.5
608.626	267.5
608.834	258.5
609.043	268.5
609.251	264.5
609.459	270.5
609.667	256.5
609.875	257.5
610.083	281.5
610.291	270.5
610.499	265.5
610.707	258.5
610.916	253.5
611.124	255.5
611.332	239.5
611.54	255.5
611.748	251.5
611.955	255.5
612.163	246.5
612.371	247.5
612.579	257.5
612.787	239.5
612.995	266.5
613.203	235.5
613.411	234.5
613.618	257.5
613.826	252.5
614.034	252.5
614.242	241.5
614.449	239.5
614.657	240.5
614.865	253.5
615.072	259.5
615.28	241.5
615.488	245.5
615.695	246.5
615.903	241.5
616.111	259.5
616.318	250.5
616.526	247.5
616.733	256.5
616.941	249.5
617.148	257.5
617.356	246.5
617.563	249.5
617.771	224.5
617.978	242.5
618.185	249.5
618.393	242.5
618.6	251.5
618.807	239.5
619.015	224.5
619.222	230.5
619.429	234.5
619.637	245.5
619.844	226.5
620.051	225.5
620.258	250.5
620.466	250.5
620.673	228.5
620.88	225.5
621.087	235.5
621.294	220.5
621.501	226.5
621.708	226.5
621.915	219.5
622.122	243.5
622.329	232.5
622.536	219.5
622.743	225.5
622.95	237.5
623.157	216.5
623.364	224.5
623.571	219.5
623.778	235.5
623.985	229.5
624.192	212.5
624.399	224.5
624.606	237.5
624.812	227.5
625.019	205.5
625.226	227.5
625.433	214.5
625.639	230.5
625.846	218.5
626.053	231.5
626.259	222.5
626.466	194.5
626.673	199.5
626.879	206.5
627.086	219.5
627.293	203.5
627.499	210.5
627.706	215.5
627.912	225.5
628.119	208.5
628.325	200.5
628.532	204.5
628.738	214.5
628.945	228.5
629.151	212.5
629.357	218.5
629.564	198.5
629.77	225.5
629.976	206.5
630.183	207.5
630.389	203.5
630.595	205.5
630.802	196.5
631.008	203.5
631.214	201.5
631.42	219.5
631.627	211.5
631.833	207.5
632.039	195.5
632.245	187.5
632.451	209.5
632.657	210.5
632.863	202.5
633.069	192.5
633.275	195.5
633.481	192.5
633.688	178.5
633.893	197.5
634.099	205.5
634.305	178.5
634.511	209.5
634.717	200.5
634.923	198.5
635.129	197.5
635.335	182.5
635.541	197.5
635.747	185.5
635.952	190.5
636.158	194.5
636.364	206.5
636.57	201.5
636.775	202.5
636.981	190.5
637.187	179.5
637.392	194.5
637.598	182.5
637.804	195.5
638.009	194.5
638.215	185.5
638.421	193.5
638.626	187.5
638.832	185.5
639.037	181.5
639.243	194.5
639.448	181.5
639.654	175.5
639.859	193.5
640.065	185.5
640.27	179.5
640.475	202.5
640.681	180.5
640.886	179.5
641.091	180.5
641.297	177.5
641.502	184.5
641.707	164.5
641.913	185.5
642.118	173.5
642.323	184.5
642.528	177.5
642.733	185.5
642.939	186.5
643.144	176.5
643.349	178.5
643.554	182.5
643.759	176.5
643.964	184.5
644.169	173.5
644.374	189.5
644.579	178.5
644.784	163.5
644.989	177.5
645.194	175.5
645.399	169.5
645.604	165.5
645.809	177.5
646.014	179.5
646.219	179.5
646.423	193.5
646.628	207.5
646.833	181.5
647.038	166.5
647.243	179.5
647.447	182.5
647.652	194.5
647.857	172.5
648.062	184.5
648.266	175.5
648.471	177.5
648.676	164.5
648.88	170.5
649.085	179.5
649.289	178.5
649.494	185.5
649.698	184.5
649.903	178.5
650.107	156.5
650.312	159.5
650.516	182.5
650.721	173.5
650.925	165.5
651.13	161.5
651.334	181.5
651.539	180.5
651.743	161.5
651.947	151.5
652.152	174.5
652.356	159.5
652.56	167.5
652.764	159.5
652.969	162.5
653.173	149.5
653.377	149.5
653.581	147.5
653.785	161.5
653.99	161.5
654.194	152.5
654.398	156.5
654.602	155.5
654.806	141.5
655.01	144.5
655.214	167.5
655.418	149.5
655.622	150.5
655.826	133.5
656.03	148.5
656.234	152.5
656.438	147.5
656.642	144.5
656.846	131.5
657.049	157.5
657.253	138.5
657.457	125.5
657.661	133.5
657.865	116.5
658.068	122.5
658.272	133.5
658.476	119.5
658.68	115.5
658.883	98.5
659.087	104.5
659.291	115.5
659.494	99.5
659.698	96.5
659.901	110.5
660.105	95.5
660.309	102.5
660.512	102.5
660.716	87.5
660.919	92.5
661.123	98.5
661.326	101.5
661.53	79.5
661.733	72.5
661.936	93.5
662.14	79.5
662.343	94.5
662.546	97.5
662.75	88.5
662.953	78.5
663.156	84.5
663.36	81.5
663.563	90.5
663.766	79.5
663.969	81.5
664.173	86.5
664.376	93.5
664.579	85.5
664.782	81.5
664.985	82.5
665.188	69.5
665.391	93.5
665.594	78.5
665.797	82.5
666	77.5
666.203	82.5
666.406	71.5
666.609	72.5
666.812	74.5
667.015	79.5
667.218	71.5
667.421	85.5
667.624	87.5
667.827	83.5
668.03	75.5
668.232	86.5
668.435	87.5
668.638	76.5
668.841	75.5
669.043	66.5
669.246	91.5
669.449	76.5
669.651	78.5
669.854	83.5
670.057	74.5
670.259	78.5
670.462	79.5
670.665	65.5
670.867	84.5
671.07	83.5
671.272	90.5
671.475	65.5
671.677	68.5
671.88	74.5
672.082	79.5
672.284	75.5
672.487	70.5
672.689	64.5
672.892	78.5
