Data from Fe(NO3)3@0.025M.TitratingCurve.Agarose3%dH2O.NegLispCup.LampEnergy10.LIBS07252019_HRD10591_16-55-01-336.txt Node
Date: Thu Jul 25 16:55:01 EDT 2019
User: cochatt
Spectrometer: HR+D1059
Trigger mode: 1
Integration Time (sec): 1.000000E-1
Scans to average: 1
Electric dark correction enabled: true
Nonlinearity correction enabled: false
Boxcar width: 0
XAxis mode: Wavelengths
Number of Pixels in Spectrum: 2048
>>>>>Begin Spectral Data<<<<<
223.165	-26.94
223.4	-26.94
223.635	-26.94
223.869	-15.94
224.104	-20.94
224.338	-6.94
224.573	-8.94
224.808	-12.94
225.042	-10.94
225.277	-0.94
225.511	2.06
225.746	-1.94
225.98	1.06
226.215	8.06
226.449	3.06
226.683	29.06
226.918	23.06
227.152	40.06
227.387	43.06
227.621	36.06
227.856	30.06
228.09	57.06
228.324	41.06
228.559	48.06
228.793	51.06
229.027	71.06
229.262	66.06
229.496	72.06
229.73	77.06
229.964	81.06
230.199	75.06
230.433	74.06
230.667	91.06
230.901	81.06
231.136	88.06
231.37	93.06
231.604	98.06
231.838	99.06
232.072	95.06
232.306	94.06
232.541	91.06
232.775	101.06
233.009	90.06
233.243	94.06
233.477	80.06
233.711	95.06
233.945	100.06
234.179	97.06
234.413	89.06
234.647	110.06
234.881	101.06
235.115	94.06
235.349	88.06
235.583	101.06
235.817	95.06
236.051	89.06
236.285	102.06
236.519	86.06
236.753	84.06
236.987	94.06
237.221	95.06
237.455	96.06
237.689	101.06
237.922	97.06
238.156	102.06
238.39	92.06
238.624	100.06
238.858	86.06
239.091	102.06
239.325	87.06
239.559	91.06
239.793	100.06
240.027	96.06
240.26	106.06
240.494	93.06
240.728	93.06
240.961	106.06
241.195	92.06
241.429	101.06
241.662	110.06
241.896	99.06
242.13	92.06
242.363	103.06
242.597	96.06
242.83	100.06
243.064	94.06
243.298	92.06
243.531	90.06
243.765	108.06
243.998	103.06
244.232	111.06
244.465	96.06
244.699	100.06
244.932	89.06
245.166	99.06
245.399	107.06
245.633	112.06
245.866	97.06
246.099	108.06
246.333	100.06
246.566	96.06
246.8	112.06
247.033	103.06
247.266	103.06
247.5	114.06
247.733	101.06
247.966	116.06
248.2	106.06
248.433	111.06
248.666	93.06
248.899	99.06
249.133	105.06
249.366	94.06
249.599	105.06
249.832	117.06
250.066	106.06
250.299	117.06
250.532	111.06
250.765	114.06
250.998	122.06
251.231	114.06
251.465	98.06
251.698	120.06
251.931	106.06
252.164	113.06
252.397	112.06
252.63	123.06
252.863	106.06
253.096	113.06
253.329	109.06
253.562	119.06
253.795	116.06
254.028	119.06
254.261	122.06
254.494	123.06
254.727	129.06
254.96	118.06
255.193	103.06
255.426	109.06
255.659	102.06
255.892	122.06
256.124	109.06
256.357	114.06
256.59	121.06
256.823	117.06
257.056	119.06
257.289	129.06
257.521	117.06
257.754	123.06
257.987	111.06
258.22	120.06
258.452	119.06
258.685	137.06
258.918	126.06
259.151	115.06
259.383	137.06
259.616	136.06
259.849	131.06
260.081	133.06
260.314	115.06
260.547	123.06
260.779	129.06
261.012	133.06
261.244	129.06
261.477	127.06
261.71	101.06
261.942	124.06
262.175	111.06
262.407	135.06
262.64	122.06
262.872	129.06
263.105	126.06
263.337	117.06
263.57	121.06
263.802	127.06
264.035	132.06
264.267	145.06
264.499	131.06
264.732	131.06
264.964	124.06
265.197	131.06
265.429	129.06
265.661	138.06
265.894	140.06
266.126	145.06
266.358	135.06
266.591	137.06
266.823	133.06
267.055	127.06
267.287	136.06
267.52	133.06
267.752	116.06
267.984	135.06
268.216	137.06
268.448	149.06
268.681	132.06
268.913	116.06
269.145	134.06
269.377	140.06
269.609	145.06
269.841	145.06
270.073	147.06
270.306	135.06
270.538	122.06
270.77	153.06
271.002	129.06
271.234	138.06
271.466	132.06
271.698	129.06
271.93	162.06
272.162	133.06
272.394	141.06
272.626	138.06
272.858	141.06
273.09	146.06
273.322	145.06
273.553	151.06
273.785	133.06
274.017	140.06
274.249	130.06
274.481	147.06
274.713	155.06
274.945	161.06
275.176	160.06
275.408	152.06
275.64	151.06
275.872	144.06
276.104	146.06
276.335	155.06
276.567	134.06
276.799	155.06
277.031	161.06
277.262	160.06
277.494	159.06
277.726	157.06
277.957	159.06
278.189	146.06
278.421	164.06
278.652	155.06
278.884	157.06
279.115	150.06
279.347	145.06
279.579	163.06
279.81	145.06
280.042	154.06
280.273	152.06
280.505	146.06
280.736	163.06
280.968	166.06
281.199	150.06
281.431	169.06
281.662	162.06
281.894	173.06
282.125	143.06
282.356	165.06
282.588	173.06
282.819	169.06
283.051	170.06
283.282	177.06
283.513	175.06
283.745	184.06
283.976	166.06
284.207	162.06
284.439	166.06
284.67	160.06
284.901	180.06
285.132	163.06
285.364	167.06
285.595	170.06
285.826	170.06
286.057	176.06
286.288	159.06
286.52	173.06
286.751	170.06
286.982	167.06
287.213	176.06
287.444	173.06
287.675	175.06
287.906	182.06
288.138	187.06
288.369	181.06
288.6	170.06
288.831	166.06
289.062	190.06
289.293	180.06
289.524	176.06
289.755	174.06
289.986	188.06
290.217	190.06
290.448	174.06
290.679	188.06
290.91	170.06
291.141	176.06
291.371	164.06
291.602	189.06
291.833	173.06
292.064	178.06
292.295	173.06
292.526	176.06
292.757	181.06
292.987	178.06
293.218	173.06
293.449	187.06
293.68	189.06
293.91	175.06
294.141	176.06
294.372	165.06
294.603	203.06
294.833	192.06
295.064	186.06
295.295	189.06
295.525	183.06
295.756	190.06
295.987	184.06
296.217	189.06
296.448	187.06
296.679	195.06
296.909	193.06
297.14	199.06
297.37	200.06
297.601	202.06
297.831	191.06
298.062	195.06
298.292	175.06
298.523	173.06
298.753	192.06
298.984	185.06
299.214	196.06
299.445	194.06
299.675	192.06
299.905	191.06
300.136	202.06
300.366	195.06
300.597	193.06
300.827	199.06
301.057	210.06
301.288	197.06
301.518	197.06
301.748	214.06
301.979	200.06
302.209	223.06
302.439	203.06
302.669	193.06
302.9	219.06
303.13	207.06
303.36	200.06
303.59	204.06
303.82	209.06
304.051	206.06
304.281	198.06
304.511	186.06
304.741	204.06
304.971	196.06
305.201	194.06
305.431	199.06
305.661	202.06
305.891	214.06
306.121	201.06
306.352	211.06
306.582	195.06
306.812	214.06
307.042	202.06
307.272	206.06
307.502	200.06
307.731	198.06
307.961	210.06
308.191	205.06
308.421	197.06
308.651	210.06
308.881	189.06
309.111	194.06
309.341	202.06
309.571	199.06
309.8	211.06
310.03	215.06
310.26	212.06
310.49	218.06
310.72	215.06
310.949	220.06
311.179	206.06
311.409	208.06
311.639	218.06
311.868	222.06
312.098	217.06
312.328	188.06
312.557	201.06
312.787	205.06
313.017	199.06
313.246	219.06
313.476	207.06
313.706	207.06
313.935	218.06
314.165	218.06
314.394	217.06
314.624	207.06
314.853	212.06
315.083	203.06
315.312	214.06
315.542	211.06
315.771	221.06
316.001	213.06
316.23	198.06
316.46	224.06
316.689	223.06
316.919	222.06
317.148	206.06
317.377	232.06
317.607	207.06
317.836	196.06
318.065	211.06
318.295	202.06
318.524	222.06
318.753	212.06
318.983	221.06
319.212	193.06
319.441	208.06
319.67	228.06
319.9	208.06
320.129	216.06
320.358	209.06
320.587	198.06
320.816	211.06
321.046	224.06
321.275	239.06
321.504	217.06
321.733	214.06
321.962	214.06
322.191	227.06
322.42	210.06
322.649	231.06
322.878	212.06
323.108	223.06
323.337	215.06
323.566	218.06
323.795	241.06
324.024	226.06
324.253	232.06
324.482	220.06
324.71	214.06
324.939	219.06
325.168	213.06
325.397	224.06
325.626	248.06
325.855	227.06
326.084	232.06
326.313	242.06
326.542	222.06
326.77	226.06
326.999	228.06
327.228	247.06
327.457	234.06
327.686	246.06
327.914	232.06
328.143	250.06
328.372	246.06
328.6	239.06
328.829	218.06
329.058	235.06
329.287	225.06
329.515	239.06
329.744	233.06
329.972	244.06
330.201	237.06
330.43	258.06
330.658	242.06
330.887	239.06
331.115	268.06
331.344	259.06
331.572	248.06
331.801	258.06
332.03	256.06
332.258	248.06
332.486	258.06
332.715	276.06
332.943	257.06
333.172	282.06
333.4	296.06
333.629	291.06
333.857	292.06
334.085	296.06
334.314	271.06
334.542	275.06
334.771	286.06
334.999	269.06
335.227	271.06
335.455	281.06
335.684	279.06
335.912	277.06
336.14	274.06
336.369	246.06
336.597	253.06
336.825	260.06
337.053	267.06
337.281	259.06
337.51	263.06
337.738	258.06
337.966	256.06
338.194	277.06
338.422	263.06
338.65	266.06
338.878	283.06
339.106	251.06
339.334	245.06
339.562	259.06
339.79	255.06
340.018	245.06
340.246	222.06
340.474	241.06
340.702	251.06
340.93	258.06
341.158	242.06
341.386	267.06
341.614	248.06
341.842	253.06
342.07	249.06
342.298	257.06
342.526	238.06
342.754	253.06
342.981	236.06
343.209	245.06
343.437	258.06
343.665	267.06
343.893	269.06
344.12	288.06
344.348	266.06
344.576	266.06
344.804	268.06
345.031	257.06
345.259	234.06
345.487	245.06
345.714	251.06
345.942	242.06
346.17	230.06
346.397	218.06
346.625	232.06
346.853	232.06
347.08	246.06
347.308	241.06
347.535	253.06
347.763	257.06
347.99	231.06
348.218	231.06
348.445	253.06
348.673	250.06
348.9	235.06
349.128	256.06
349.355	242.06
349.583	239.06
349.81	249.06
350.037	264.06
350.265	246.06
350.492	230.06
350.72	226.06
350.947	221.06
351.174	228.06
351.402	232.06
351.629	237.06
351.856	255.06
352.083	242.06
352.311	241.06
352.538	229.06
352.765	232.06
352.992	226.06
353.22	215.06
353.447	230.06
353.674	231.06
353.901	245.06
354.128	234.06
354.355	245.06
354.583	231.06
354.81	222.06
355.037	249.06
355.264	228.06
355.491	237.06
355.718	226.06
355.945	221.06
356.172	240.06
356.399	227.06
356.626	238.06
356.853	230.06
357.08	241.06
357.307	241.06
357.534	258.06
357.761	239.06
357.988	224.06
358.215	221.06
358.441	244.06
358.668	238.06
358.895	259.06
359.122	241.06
359.349	232.06
359.576	237.06
359.802	261.06
360.029	255.06
360.256	242.06
360.483	242.06
360.709	240.06
360.936	243.06
361.163	234.06
361.39	240.06
361.616	254.06
361.843	224.06
362.07	227.06
362.296	241.06
362.523	249.06
362.749	234.06
362.976	261.06
363.203	242.06
363.429	250.06
363.656	246.06
363.882	239.06
364.109	230.06
364.335	223.06
364.562	229.06
364.788	231.06
365.015	246.06
365.241	221.06
365.468	237.06
365.694	224.06
365.92	242.06
366.147	236.06
366.373	255.06
366.599	229.06
366.826	239.06
367.052	239.06
367.278	244.06
367.505	242.06
367.731	247.06
367.957	245.06
368.184	258.06
368.41	256.06
368.636	257.06
368.862	264.06
369.089	248.06
369.315	262.06
369.541	241.06
369.767	238.06
369.993	228.06
370.219	237.06
370.445	237.06
370.672	261.06
370.898	237.06
371.124	242.06
371.35	263.06
371.576	278.06
371.802	233.06
372.028	253.06
372.254	269.06
372.48	266.06
372.706	267.06
372.932	277.06
373.158	272.06
373.384	265.06
373.61	249.06
373.835	263.06
374.061	271.06
374.287	270.06
374.513	260.06
374.739	281.06
374.965	277.06
375.191	259.06
375.416	267.06
375.642	270.06
375.868	270.06
376.094	261.06
376.319	259.06
376.545	262.06
376.771	254.06
376.997	267.06
377.222	234.06
377.448	244.06
377.674	251.06
377.899	237.06
378.125	259.06
378.35	267.06
378.576	259.06
378.802	251.06
379.027	255.06
379.253	271.06
379.478	254.06
379.704	269.06
379.929	258.06
380.155	249.06
380.38	253.06
380.606	277.06
380.831	257.06
381.057	266.06
381.282	249.06
381.507	243.06
381.733	251.06
381.958	254.06
382.184	276.06
382.409	263.06
382.634	266.06
382.86	274.06
383.085	272.06
383.31	278.06
383.535	277.06
383.761	254.06
383.986	285.06
384.211	267.06
384.436	289.06
384.662	298.06
384.887	305.06
385.112	292.06
385.337	291.06
385.562	295.06
385.787	314.06
386.013	315.06
386.238	312.06
386.463	286.06
386.688	307.06
386.913	292.06
387.138	301.06
387.363	285.06
387.588	314.06
387.813	302.06
388.038	301.06
388.263	295.06
388.488	303.06
388.713	297.06
388.938	297.06
389.163	298.06
389.387	303.06
389.612	284.06
389.837	309.06
390.062	295.06
390.287	307.06
390.512	314.06
390.736	310.06
390.961	311.06
391.186	307.06
391.411	294.06
391.636	310.06
391.86	327.06
392.085	328.06
392.31	349.06
392.534	317.06
392.759	318.06
392.984	324.06
393.208	297.06
393.433	300.06
393.658	315.06
393.882	307.06
394.107	303.06
394.331	319.06
394.556	311.06
394.78	322.06
395.005	334.06
395.229	329.06
395.454	330.06
395.678	343.06
395.903	337.06
396.127	324.06
396.352	335.06
396.576	320.06
396.801	328.06
397.025	330.06
397.249	335.06
397.474	336.06
397.698	326.06
397.922	342.06
398.147	338.06
398.371	367.06
398.595	358.06
398.82	357.06
399.044	384.06
399.268	401.06
399.492	453.06
399.717	473.06
399.941	473.06
400.165	442.06
400.389	410.06
400.613	386.06
400.837	361.06
401.062	377.06
401.286	368.06
401.51	359.06
401.734	367.06
401.958	372.06
402.182	378.06
402.406	372.06
402.63	376.06
402.854	360.06
403.078	371.06
403.302	390.06
403.526	380.06
403.75	403.06
403.974	393.06
404.198	391.06
404.422	384.06
404.645	384.06
404.869	397.06
405.093	385.06
405.317	381.06
405.541	392.06
405.765	394.06
405.988	379.06
406.212	389.06
406.436	401.06
406.66	390.06
406.883	399.06
407.107	402.06
407.331	424.06
407.555	443.06
407.778	410.06
408.002	404.06
408.226	427.06
408.449	399.06
408.673	387.06
408.896	383.06
409.12	389.06
409.344	395.06
409.567	401.06
409.791	365.06
410.014	386.06
410.238	383.06
410.461	393.06
410.685	385.06
410.908	359.06
411.132	380.06
411.355	361.06
411.578	355.06
411.802	377.06
412.025	366.06
412.249	369.06
412.472	371.06
412.695	370.06
412.919	349.06
413.142	356.06
413.365	365.06
413.589	359.06
413.812	365.06
414.035	359.06
414.258	360.06
414.482	341.06
414.705	356.06
414.928	369.06
415.151	331.06
415.374	375.06
415.597	346.06
415.821	360.06
416.044	341.06
416.267	341.06
416.49	365.06
416.713	351.06
416.936	369.06
417.159	337.06
417.382	343.06
417.605	352.06
417.828	337.06
418.051	342.06
418.274	350.06
418.497	344.06
418.72	347.06
418.943	383.06
419.166	356.06
419.389	409.06
419.611	377.06
419.834	382.06
420.057	367.06
420.28	352.06
420.503	342.06
420.726	353.06
420.948	347.06
421.171	336.06
421.394	348.06
421.617	341.06
421.839	343.06
422.062	338.06
422.285	347.06
422.507	340.06
422.73	352.06
422.953	361.06
423.175	344.06
423.398	358.06
423.621	331.06
423.843	341.06
424.066	365.06
424.288	343.06
424.511	365.06
424.733	343.06
424.956	349.06
425.178	349.06
425.401	350.06
425.623	335.06
425.846	343.06
426.068	341.06
426.291	337.06
426.513	357.06
426.735	331.06
426.958	323.06
427.18	327.06
427.402	320.06
427.625	324.06
427.847	312.06
428.069	315.06
428.292	337.06
428.514	296.06
428.736	309.06
428.958	314.06
429.181	301.06
429.403	301.06
429.625	330.06
429.847	293.06
430.069	311.06
430.292	317.06
430.514	316.06
430.736	296.06
430.958	319.06
431.18	315.06
431.402	306.06
431.624	312.06
431.846	321.06
432.068	335.06
432.29	307.06
432.512	320.06
432.734	303.06
432.956	304.06
433.178	330.06
433.4	326.06
433.622	336.06
433.844	317.06
434.066	311.06
434.287	313.06
434.509	324.06
434.731	337.06
434.953	341.06
435.175	337.06
435.397	337.06
435.618	348.06
435.84	330.06
436.062	309.06
436.284	315.06
436.505	305.06
436.727	317.06
436.949	322.06
437.17	311.06
437.392	311.06
437.614	321.06
437.835	305.06
438.057	301.06
438.278	299.06
438.5	310.06
438.721	305.06
438.943	309.06
439.165	290.06
439.386	300.06
439.608	319.06
439.829	319.06
440.05	306.06
440.272	315.06
440.493	314.06
440.715	317.06
440.936	291.06
441.158	329.06
441.379	341.06
441.6	343.06
441.822	343.06
442.043	343.06
442.264	336.06
442.486	339.06
442.707	338.06
442.928	336.06
443.149	339.06
443.371	336.06
443.592	334.06
443.813	371.06
444.034	340.06
444.255	362.06
444.476	365.06
444.698	351.06
444.919	393.06
445.14	457.06
445.361	383.06
445.582	360.06
445.803	343.06
446.024	330.06
446.245	317.06
446.466	333.06
446.687	335.06
446.908	311.06
447.129	316.06
447.35	316.06
447.571	301.06
447.792	311.06
448.013	286.06
448.234	308.06
448.455	288.06
448.675	304.06
448.896	299.06
449.117	291.06
449.338	271.06
449.559	304.06
449.779	289.06
450	277.06
450.221	289.06
450.442	293.06
450.662	288.06
450.883	302.06
451.104	307.06
451.324	299.06
451.545	295.06
451.766	284.06
451.986	283.06
452.207	286.06
452.428	293.06
452.648	271.06
452.869	289.06
453.089	281.06
453.31	288.06
453.53	281.06
453.751	276.06
453.971	282.06
454.192	277.06
454.412	267.06
454.633	282.06
454.853	283.06
455.073	303.06
455.294	296.06
455.514	293.06
455.734	281.06
455.955	261.06
456.175	283.06
456.395	277.06
456.616	281.06
456.836	268.06
457.056	281.06
457.276	279.06
457.497	288.06
457.717	279.06
457.937	294.06
458.157	295.06
458.377	288.06
458.598	288.06
458.818	299.06
459.038	338.06
459.258	303.06
459.478	313.06
459.698	323.06
459.918	337.06
460.138	329.06
460.358	355.06
460.578	346.06
460.798	356.06
461.018	360.06
461.238	376.06
461.458	349.06
461.678	359.06
461.898	374.06
462.118	362.06
462.338	405.06
462.558	385.06
462.777	400.06
462.997	431.06
463.217	437.06
463.437	431.06
463.657	407.06
463.876	378.06
464.096	396.06
464.316	409.06
464.536	409.06
464.755	382.06
464.975	380.06
465.195	354.06
465.414	361.06
465.634	353.06
465.854	334.06
466.073	326.06
466.293	311.06
466.512	310.06
466.732	314.06
466.951	308.06
467.171	311.06
467.391	302.06
467.61	303.06
467.829	307.06
468.049	296.06
468.268	309.06
468.488	304.06
468.707	294.06
468.927	303.06
469.146	281.06
469.365	307.06
469.585	306.06
469.804	308.06
470.023	317.06
470.243	307.06
470.462	331.06
470.681	314.06
470.901	334.06
471.12	312.06
471.339	316.06
471.558	299.06
471.777	311.06
471.997	305.06
472.216	312.06
472.435	290.06
472.654	294.06
472.873	296.06
473.092	310.06
473.311	314.06
473.53	293.06
473.749	282.06
473.968	326.06
474.187	303.06
474.406	298.06
474.625	306.06
474.844	303.06
475.063	307.06
475.282	283.06
475.501	298.06
475.72	302.06
475.939	312.06
476.158	294.06
476.377	314.06
476.596	307.06
476.814	330.06
477.033	314.06
477.252	324.06
477.471	336.06
477.69	331.06
477.908	330.06
478.127	342.06
478.346	361.06
478.564	324.06
478.783	349.06
479.002	338.06
479.22	362.06
479.439	347.06
479.658	347.06
479.876	352.06
480.095	331.06
480.313	369.06
480.532	381.06
480.751	368.06
480.969	363.06
481.188	352.06
481.406	339.06
481.624	318.06
481.843	327.06
482.061	339.06
482.28	335.06
482.498	325.06
482.717	332.06
482.935	335.06
483.153	329.06
483.372	329.06
483.59	311.06
483.808	340.06
484.027	350.06
484.245	343.06
484.463	332.06
484.681	332.06
484.9	331.06
485.118	325.06
485.336	349.06
485.554	345.06
485.772	343.06
485.99	350.06
486.209	359.06
486.427	341.06
486.645	340.06
486.863	347.06
487.081	359.06
487.299	352.06
487.517	335.06
487.735	350.06
487.953	357.06
488.171	346.06
488.389	330.06
488.607	311.06
488.825	335.06
489.043	343.06
489.261	340.06
489.479	351.06
489.696	327.06
489.914	345.06
490.132	328.06
490.35	351.06
490.568	339.06
490.786	346.06
491.003	350.06
491.221	342.06
491.439	344.06
491.657	353.06
491.874	345.06
492.092	361.06
492.31	357.06
492.527	356.06
492.745	349.06
492.963	352.06
493.18	349.06
493.398	353.06
493.615	362.06
493.833	362.06
494.05	350.06
494.268	353.06
494.485	356.06
494.703	381.06
494.92	367.06
495.138	367.06
495.355	374.06
495.573	366.06
495.79	349.06
496.008	365.06
496.225	367.06
496.442	364.06
496.66	379.06
496.877	399.06
497.094	385.06
497.312	407.06
497.529	411.06
497.746	414.06
497.963	441.06
498.181	441.06
498.398	453.06
498.615	486.06
498.832	511.06
499.049	541.06
499.267	567.06
499.484	585.06
499.701	642.06
499.918	713.06
500.135	783.06
500.352	823.06
500.569	861.06
500.786	857.06
501.003	811.06
501.22	758.06
501.437	662.06
501.654	607.06
501.871	561.06
502.088	523.06
502.305	496.06
502.522	475.06
502.739	472.06
502.956	449.06
503.172	441.06
503.389	418.06
503.606	419.06
503.823	410.06
504.04	411.06
504.256	434.06
504.473	418.06
504.69	438.06
504.907	409.06
505.123	399.06
505.34	393.06
505.557	379.06
505.773	358.06
505.99	355.06
506.207	366.06
506.423	346.06
506.64	358.06
506.856	335.06
507.073	321.06
507.289	346.06
507.506	346.06
507.722	355.06
507.939	315.06
508.155	309.06
508.372	309.06
508.588	317.06
508.805	331.06
509.021	323.06
509.238	315.06
509.454	305.06
509.67	314.06
509.887	328.06
510.103	318.06
510.319	303.06
510.536	306.06
510.752	321.06
510.968	308.06
511.184	296.06
511.401	309.06
511.617	326.06
511.833	309.06
512.049	297.06
512.265	325.06
512.481	306.06
512.698	304.06
512.914	333.06
513.13	322.06
513.346	317.06
513.562	294.06
513.778	308.06
513.994	315.06
514.21	287.06
514.426	311.06
514.642	323.06
514.858	314.06
515.074	313.06
515.29	333.06
515.506	320.06
515.721	342.06
515.937	339.06
516.153	335.06
516.369	327.06
516.585	362.06
516.801	338.06
517.016	345.06
517.232	367.06
517.448	384.06
517.664	403.06
517.879	381.06
518.095	394.06
518.311	399.06
518.527	365.06
518.742	365.06
518.958	336.06
519.173	315.06
519.389	337.06
519.605	338.06
519.82	304.06
520.036	323.06
520.251	296.06
520.467	331.06
520.682	323.06
520.898	309.06
521.113	313.06
521.329	303.06
521.544	312.06
521.76	303.06
521.975	314.06
522.19	291.06
522.406	290.06
522.621	287.06
522.836	303.06
523.052	306.06
523.267	301.06
523.482	310.06
523.698	289.06
523.913	300.06
524.128	298.06
524.343	295.06
524.559	292.06
524.774	280.06
524.989	298.06
525.204	281.06
525.419	292.06
525.634	273.06
525.849	287.06
526.064	288.06
526.28	305.06
526.495	278.06
526.71	285.06
526.925	277.06
527.14	288.06
527.355	289.06
527.57	294.06
527.785	304.06
527.999	282.06
528.214	275.06
528.429	272.06
528.644	286.06
528.859	294.06
529.074	281.06
529.289	289.06
529.503	284.06
529.718	281.06
529.933	274.06
530.148	266.06
530.363	290.06
530.577	292.06
530.792	293.06
531.007	281.06
531.221	295.06
531.436	271.06
531.651	307.06
531.865	289.06
532.08	283.06
532.295	282.06
532.509	277.06
532.724	282.06
532.938	271.06
533.153	273.06
533.367	275.06
533.582	278.06
533.796	274.06
534.011	277.06
534.225	279.06
534.44	281.06
534.654	294.06
534.868	269.06
535.083	268.06
535.297	284.06
535.511	289.06
535.726	258.06
535.94	260.06
536.154	282.06
536.369	269.06
536.583	282.06
536.797	271.06
537.011	269.06
537.225	271.06
537.44	286.06
537.654	275.06
537.868	262.06
538.082	257.06
538.296	251.06
538.51	270.06
538.724	272.06
538.938	267.06
539.153	262.06
539.367	270.06
539.581	268.06
539.795	252.06
540.009	257.06
540.222	265.06
540.436	266.06
540.65	258.06
540.864	261.06
541.078	246.06
541.292	269.06
541.506	267.06
541.72	269.06
541.934	278.06
542.147	281.06
542.361	255.06
542.575	259.06
542.789	258.06
543.002	266.06
543.216	268.06
543.43	259.06
543.644	281.06
543.857	268.06
544.071	247.06
544.285	272.06
544.498	251.06
544.712	254.06
544.925	284.06
545.139	269.06
545.352	276.06
545.566	272.06
545.779	268.06
545.993	272.06
546.206	283.06
546.42	266.06
546.633	266.06
546.847	265.06
547.06	277.06
547.274	278.06
547.487	268.06
547.7	278.06
547.914	275.06
548.127	282.06
548.34	269.06
548.554	284.06
548.767	268.06
548.98	277.06
549.193	287.06
549.407	272.06
549.62	270.06
549.833	277.06
550.046	272.06
550.259	277.06
550.473	270.06
550.686	267.06
550.899	275.06
551.112	267.06
551.325	275.06
551.538	263.06
551.751	267.06
551.964	273.06
552.177	281.06
552.39	269.06
552.603	287.06
552.816	299.06
553.029	293.06
553.242	283.06
553.455	281.06
553.667	286.06
553.88	294.06
554.093	269.06
554.306	268.06
554.519	274.06
554.732	282.06
554.944	255.06
555.157	251.06
555.37	266.06
555.583	254.06
555.795	247.06
556.008	259.06
556.221	243.06
556.433	257.06
556.646	248.06
556.859	241.06
557.071	235.06
557.284	238.06
557.496	238.06
557.709	241.06
557.921	238.06
558.134	220.06
558.346	237.06
558.559	232.06
558.771	232.06
558.984	216.06
559.196	235.06
559.409	232.06
559.621	238.06
559.833	234.06
560.046	230.06
560.258	230.06
560.47	224.06
560.683	232.06
560.895	240.06
561.107	238.06
561.32	239.06
561.532	228.06
561.744	256.06
561.956	247.06
562.168	236.06
562.381	242.06
562.593	234.06
562.805	235.06
563.017	225.06
563.229	217.06
563.441	233.06
563.653	241.06
563.865	247.06
564.077	226.06
564.289	245.06
564.501	247.06
564.713	266.06
564.925	233.06
565.137	261.06
565.349	269.06
565.561	259.06
565.773	278.06
565.985	268.06
566.197	291.06
566.408	305.06
566.62	313.06
566.832	339.06
567.044	309.06
567.255	325.06
567.467	345.06
567.679	365.06
567.891	360.06
568.102	362.06
568.314	347.06
568.526	335.06
568.737	310.06
568.949	305.06
569.161	273.06
569.372	267.06
569.584	268.06
569.795	250.06
570.007	228.06
570.218	249.06
570.43	243.06
570.641	250.06
570.853	256.06
571.064	221.06
571.276	231.06
571.487	230.06
571.698	232.06
571.91	228.06
572.121	213.06
572.333	206.06
572.544	228.06
572.755	197.06
572.966	207.06
573.178	209.06
573.389	205.06
573.6	203.06
573.811	210.06
574.023	197.06
574.234	203.06
574.445	183.06
574.656	201.06
574.867	200.06
575.078	205.06
575.289	196.06
575.501	187.06
575.712	196.06
575.923	170.06
576.134	188.06
576.345	185.06
576.556	182.06
576.767	204.06
576.978	191.06
577.188	188.06
577.399	192.06
577.61	177.06
577.821	203.06
578.032	186.06
578.243	185.06
578.454	189.06
578.665	194.06
578.875	203.06
579.086	178.06
579.297	185.06
579.508	180.06
579.718	188.06
579.929	185.06
580.14	184.06
580.35	202.06
580.561	186.06
580.772	191.06
580.982	182.06
581.193	187.06
581.403	172.06
581.614	187.06
581.825	183.06
582.035	188.06
582.246	191.06
582.456	182.06
582.667	193.06
582.877	184.06
583.087	182.06
583.298	168.06
583.508	197.06
583.719	171.06
583.929	186.06
584.139	175.06
584.35	182.06
584.56	184.06
584.77	192.06
584.981	191.06
585.191	181.06
585.401	175.06
585.611	176.06
585.821	174.06
586.032	176.06
586.242	169.06
586.452	166.06
586.662	168.06
586.872	166.06
587.082	161.06
587.292	167.06
587.502	179.06
587.713	181.06
587.923	184.06
588.133	175.06
588.343	171.06
588.553	185.06
588.762	196.06
588.972	167.06
589.182	186.06
589.392	169.06
589.602	176.06
589.812	193.06
590.022	195.06
590.232	171.06
590.441	155.06
590.651	178.06
590.861	183.06
591.071	193.06
591.281	197.06
591.49	196.06
591.7	202.06
591.91	185.06
592.119	183.06
592.329	186.06
592.539	191.06
592.748	196.06
592.958	179.06
593.167	184.06
593.377	189.06
593.587	211.06
593.796	196.06
594.006	201.06
594.215	201.06
594.424	208.06
594.634	207.06
594.843	176.06
595.053	169.06
595.262	179.06
595.472	187.06
595.681	181.06
595.89	179.06
596.1	179.06
596.309	167.06
596.518	178.06
596.727	171.06
596.937	168.06
597.146	170.06
597.355	180.06
597.564	164.06
597.774	175.06
597.983	175.06
598.192	150.06
598.401	173.06
598.61	159.06
598.819	166.06
599.028	167.06
599.237	142.06
599.446	171.06
599.655	157.06
599.864	150.06
600.073	159.06
600.282	158.06
600.491	157.06
600.7	165.06
600.909	151.06
601.118	161.06
601.327	162.06
601.536	153.06
601.745	161.06
601.953	148.06
602.162	140.06
602.371	153.06
602.58	161.06
602.789	168.06
602.997	156.06
603.206	164.06
603.415	145.06
603.623	175.06
603.832	155.06
604.041	148.06
604.249	157.06
604.458	162.06
604.666	157.06
604.875	151.06
605.084	153.06
605.292	142.06
605.501	147.06
605.709	156.06
605.918	135.06
606.126	142.06
606.334	160.06
606.543	145.06
606.751	151.06
606.96	155.06
607.168	147.06
607.376	143.06
607.585	148.06
607.793	150.06
608.001	140.06
608.21	151.06
608.418	155.06
608.626	142.06
608.834	141.06
609.043	164.06
609.251	147.06
609.459	130.06
609.667	144.06
609.875	160.06
610.083	151.06
610.291	157.06
610.499	135.06
610.707	164.06
610.916	147.06
611.124	149.06
611.332	137.06
611.54	123.06
611.748	162.06
611.955	154.06
612.163	153.06
612.371	148.06
612.579	158.06
612.787	153.06
612.995	153.06
613.203	151.06
613.411	143.06
613.618	158.06
613.826	140.06
614.034	140.06
614.242	154.06
614.449	138.06
614.657	139.06
614.865	142.06
615.072	153.06
615.28	144.06
615.488	154.06
615.695	141.06
615.903	131.06
616.111	155.06
616.318	133.06
616.526	140.06
616.733	155.06
616.941	143.06
617.148	159.06
617.356	133.06
617.563	140.06
617.771	146.06
617.978	148.06
618.185	133.06
618.393	137.06
618.6	146.06
618.807	142.06
619.015	144.06
619.222	147.06
619.429	150.06
619.637	135.06
619.844	148.06
620.051	145.06
620.258	136.06
620.466	138.06
620.673	144.06
620.88	147.06
621.087	127.06
621.294	150.06
621.501	121.06
621.708	134.06
621.915	153.06
622.122	146.06
622.329	123.06
622.536	138.06
622.743	138.06
622.95	135.06
623.157	138.06
623.364	136.06
623.571	147.06
623.778	128.06
623.985	129.06
624.192	136.06
624.399	127.06
624.606	149.06
624.812	131.06
625.019	137.06
625.226	138.06
625.433	130.06
625.639	133.06
625.846	123.06
626.053	130.06
626.259	125.06
626.466	129.06
626.673	141.06
626.879	125.06
627.086	137.06
627.293	134.06
627.499	139.06
627.706	132.06
627.912	147.06
628.119	131.06
628.325	133.06
628.532	125.06
628.738	138.06
628.945	127.06
629.151	117.06
629.357	114.06
629.564	126.06
629.77	137.06
629.976	131.06
630.183	120.06
630.389	125.06
630.595	118.06
630.802	127.06
631.008	133.06
631.214	134.06
631.42	118.06
631.627	128.06
631.833	125.06
632.039	141.06
632.245	127.06
632.451	131.06
632.657	120.06
632.863	126.06
633.069	121.06
633.275	119.06
633.481	127.06
633.688	127.06
633.893	134.06
634.099	116.06
634.305	122.06
634.511	126.06
634.717	120.06
634.923	101.06
635.129	125.06
635.335	117.06
635.541	123.06
635.747	117.06
635.952	122.06
636.158	113.06
636.364	126.06
636.57	117.06
636.775	115.06
636.981	130.06
637.187	121.06
637.392	131.06
637.598	134.06
637.804	122.06
638.009	123.06
638.215	121.06
638.421	118.06
638.626	112.06
638.832	137.06
639.037	120.06
639.243	104.06
639.448	115.06
639.654	121.06
639.859	122.06
640.065	122.06
640.27	110.06
640.475	104.06
640.681	129.06
640.886	125.06
641.091	126.06
641.297	116.06
641.502	115.06
641.707	117.06
641.913	126.06
642.118	106.06
642.323	115.06
642.528	123.06
642.733	127.06
642.939	119.06
643.144	98.06
643.349	117.06
643.554	126.06
643.759	105.06
643.964	134.06
644.169	100.06
644.374	136.06
644.579	126.06
644.784	127.06
644.989	125.06
645.194	115.06
645.399	117.06
645.604	118.06
645.809	130.06
646.014	101.06
646.219	111.06
646.423	115.06
646.628	113.06
646.833	121.06
647.038	123.06
647.243	110.06
647.447	118.06
647.652	117.06
647.857	131.06
648.062	131.06
648.266	134.06
648.471	104.06
648.676	112.06
648.88	119.06
649.085	125.06
649.289	121.06
649.494	127.06
649.698	126.06
649.903	111.06
650.107	116.06
650.312	114.06
650.516	117.06
650.721	128.06
650.925	111.06
651.13	116.06
651.334	118.06
651.539	105.06
651.743	117.06
651.947	121.06
652.152	128.06
652.356	116.06
652.56	103.06
652.764	121.06
652.969	122.06
653.173	115.06
653.377	100.06
653.581	109.06
653.785	99.06
653.99	104.06
654.194	114.06
654.398	103.06
654.602	113.06
654.806	88.06
655.01	110.06
655.214	101.06
655.418	107.06
655.622	113.06
655.826	112.06
656.03	103.06
656.234	104.06
656.438	104.06
656.642	115.06
656.846	119.06
657.049	106.06
657.253	100.06
657.457	105.06
657.661	106.06
657.865	79.06
658.068	95.06
658.272	95.06
658.476	96.06
658.68	92.06
658.883	98.06
659.087	98.06
659.291	92.06
659.494	111.06
659.698	90.06
659.901	91.06
660.105	93.06
660.309	89.06
660.512	78.06
660.716	82.06
660.919	75.06
661.123	79.06
661.326	82.06
661.53	93.06
661.733	81.06
661.936	82.06
662.14	81.06
662.343	91.06
662.546	87.06
662.75	81.06
662.953	75.06
663.156	88.06
663.36	87.06
663.563	72.06
663.766	81.06
663.969	77.06
664.173	82.06
664.376	77.06
664.579	91.06
664.782	87.06
664.985	85.06
665.188	75.06
665.391	95.06
665.594	67.06
665.797	93.06
666	89.06
666.203	73.06
666.406	86.06
666.609	69.06
666.812	81.06
667.015	82.06
667.218	80.06
667.421	86.06
667.624	71.06
667.827	80.06
668.03	70.06
668.232	86.06
668.435	86.06
668.638	75.06
668.841	79.06
669.043	79.06
669.246	71.06
669.449	69.06
669.651	73.06
669.854	91.06
670.057	62.06
670.259	67.06
670.462	85.06
670.665	72.06
670.867	92.06
671.07	90.06
671.272	67.06
671.475	86.06
671.677	82.06
671.88	78.06
672.082	88.06
672.284	73.06
672.487	86.06
672.689	85.06
672.892	81.06
