Data from Fe(NO3)3@0.05M.TitratingCurve.Agarose3%dH2O.NegLispCup.LampEnergy10.LIBS07252019_HRD10591_16-46-47-334.txt Node
Date: Thu Jul 25 16:46:47 EDT 2019
User: cochatt
Spectrometer: HR+D1059
Trigger mode: 1
Integration Time (sec): 1.000000E-1
Scans to average: 1
Electric dark correction enabled: true
Nonlinearity correction enabled: false
Boxcar width: 0
XAxis mode: Wavelengths
Number of Pixels in Spectrum: 2048
>>>>>Begin Spectral Data<<<<<
223.165	-26.38
223.4	-26.38
223.635	-26.38
223.869	-22.38
224.104	-19.38
224.338	-13.38
224.573	-16.38
224.808	-26.38
225.042	4.62
225.277	-8.38
225.511	2.62
225.746	11.62
225.98	7.62
226.215	26.62
226.449	21.62
226.683	6.62
226.918	19.62
227.152	31.62
227.387	29.62
227.621	48.62
227.856	41.62
228.09	62.62
228.324	52.62
228.559	52.62
228.793	79.62
229.027	133.62
229.262	134.62
229.496	123.62
229.73	136.62
229.964	135.62
230.199	139.62
230.433	146.62
230.667	150.62
230.901	148.62
231.136	153.62
231.37	154.62
231.604	163.62
231.838	168.62
232.072	180.62
232.306	181.62
232.541	174.62
232.775	174.62
233.009	155.62
233.243	170.62
233.477	163.62
233.711	185.62
233.945	174.62
234.179	175.62
234.413	205.62
234.647	201.62
234.881	194.62
235.115	195.62
235.349	198.62
235.583	204.62
235.817	198.62
236.051	190.62
236.285	192.62
236.519	208.62
236.753	211.62
236.987	216.62
237.221	203.62
237.455	199.62
237.689	224.62
237.922	222.62
238.156	219.62
238.39	227.62
238.624	243.62
238.858	244.62
239.091	231.62
239.325	224.62
239.559	225.62
239.793	241.62
240.027	255.62
240.26	242.62
240.494	250.62
240.728	257.62
240.961	255.62
241.195	244.62
241.429	256.62
241.662	244.62
241.896	238.62
242.13	242.62
242.363	259.62
242.597	259.62
242.83	252.62
243.064	254.62
243.298	261.62
243.531	278.62
243.765	283.62
243.998	277.62
244.232	270.62
244.465	275.62
244.699	264.62
244.932	280.62
245.166	280.62
245.399	273.62
245.633	278.62
245.866	299.62
246.099	286.62
246.333	290.62
246.566	299.62
246.8	302.62
247.033	283.62
247.266	302.62
247.5	310.62
247.733	302.62
247.966	298.62
248.2	312.62
248.433	317.62
248.666	331.62
248.899	324.62
249.133	326.62
249.366	345.62
249.599	357.62
249.832	345.62
250.066	327.62
250.299	338.62
250.532	328.62
250.765	329.62
250.998	346.62
251.231	343.62
251.465	334.62
251.698	348.62
251.931	331.62
252.164	342.62
252.397	364.62
252.63	380.62
252.863	380.62
253.096	382.62
253.329	386.62
253.562	391.62
253.795	391.62
254.028	385.62
254.261	418.62
254.494	400.62
254.727	383.62
254.96	386.62
255.193	391.62
255.426	406.62
255.659	393.62
255.892	357.62
256.124	397.62
256.357	406.62
256.59	418.62
256.823	409.62
257.056	400.62
257.289	397.62
257.521	406.62
257.754	417.62
257.987	428.62
258.22	410.62
258.452	402.62
258.685	417.62
258.918	443.62
259.151	447.62
259.383	425.62
259.616	426.62
259.849	458.62
260.081	519.62
260.314	561.62
260.547	448.62
260.779	464.62
261.012	470.62
261.244	452.62
261.477	465.62
261.71	469.62
261.942	433.62
262.175	459.62
262.407	483.62
262.64	445.62
262.872	480.62
263.105	502.62
263.337	499.62
263.57	500.62
263.802	452.62
264.035	449.62
264.267	464.62
264.499	458.62
264.732	440.62
264.964	442.62
265.197	447.62
265.429	454.62
265.661	440.62
265.894	453.62
266.126	478.62
266.358	479.62
266.591	469.62
266.823	495.62
267.055	484.62
267.287	467.62
267.52	487.62
267.752	499.62
267.984	474.62
268.216	489.62
268.448	499.62
268.681	500.62
268.913	497.62
269.145	510.62
269.377	488.62
269.609	516.62
269.841	516.62
270.073	502.62
270.306	531.62
270.538	526.62
270.77	500.62
271.002	519.62
271.234	534.62
271.466	558.62
271.698	532.62
271.93	535.62
272.162	562.62
272.394	536.62
272.626	567.62
272.858	558.62
273.09	558.62
273.322	554.62
273.553	570.62
273.785	600.62
274.017	622.62
274.249	638.62
274.481	636.62
274.713	651.62
274.945	702.62
275.176	706.62
275.408	673.62
275.64	649.62
275.872	647.62
276.104	636.62
276.335	612.62
276.567	578.62
276.799	596.62
277.031	626.62
277.262	593.62
277.494	604.62
277.726	582.62
277.957	608.62
278.189	613.62
278.421	596.62
278.652	627.62
278.884	602.62
279.115	611.62
279.347	608.62
279.579	619.62
279.81	582.62
280.042	616.62
280.273	617.62
280.505	630.62
280.736	596.62
280.968	634.62
281.199	629.62
281.431	604.62
281.662	611.62
281.894	641.62
282.125	636.62
282.356	636.62
282.588	616.62
282.819	614.62
283.051	654.62
283.282	634.62
283.513	641.62
283.745	650.62
283.976	659.62
284.207	655.62
284.439	679.62
284.67	674.62
284.901	666.62
285.132	635.62
285.364	683.62
285.595	670.62
285.826	671.62
286.057	665.62
286.288	656.62
286.52	684.62
286.751	675.62
286.982	670.62
287.213	677.62
287.444	679.62
287.675	698.62
287.906	682.62
288.138	688.62
288.369	670.62
288.6	694.62
288.831	678.62
289.062	699.62
289.293	689.62
289.524	713.62
289.755	703.62
289.986	703.62
290.217	692.62
290.448	705.62
290.679	700.62
290.91	687.62
291.141	697.62
291.371	674.62
291.602	674.62
291.833	690.62
292.064	700.62
292.295	678.62
292.526	697.62
292.757	689.62
292.987	684.62
293.218	692.62
293.449	736.62
293.68	706.62
293.91	724.62
294.141	722.62
294.372	702.62
294.603	698.62
294.833	719.62
295.064	727.62
295.295	721.62
295.525	718.62
295.756	704.62
295.987	687.62
296.217	717.62
296.448	710.62
296.679	733.62
296.909	708.62
297.14	770.62
297.37	758.62
297.601	760.62
297.831	756.62
298.062	739.62
298.292	754.62
298.523	797.62
298.753	782.62
298.984	748.62
299.214	780.62
299.445	754.62
299.675	755.62
299.905	755.62
300.136	778.62
300.366	776.62
300.597	778.62
300.827	795.62
301.057	758.62
301.288	784.62
301.518	795.62
301.748	796.62
301.979	804.62
302.209	827.62
302.439	806.62
302.669	795.62
302.9	828.62
303.13	826.62
303.36	803.62
303.59	818.62
303.82	807.62
304.051	792.62
304.281	804.62
304.511	820.62
304.741	800.62
304.971	784.62
305.201	815.62
305.431	801.62
305.661	811.62
305.891	817.62
306.121	831.62
306.352	814.62
306.582	826.62
306.812	802.62
307.042	785.62
307.272	825.62
307.502	838.62
307.731	848.62
307.961	800.62
308.191	815.62
308.421	843.62
308.651	851.62
308.881	807.62
309.111	820.62
309.341	792.62
309.571	797.62
309.8	807.62
310.03	837.62
310.26	814.62
310.49	815.62
310.72	851.62
310.949	828.62
311.179	841.62
311.409	828.62
311.639	815.62
311.868	870.62
312.098	861.62
312.328	854.62
312.557	839.62
312.787	843.62
313.017	844.62
313.246	868.62
313.476	862.62
313.706	864.62
313.935	868.62
314.165	861.62
314.394	867.62
314.624	881.62
314.853	880.62
315.083	907.62
315.312	910.62
315.542	894.62
315.771	893.62
316.001	898.62
316.23	904.62
316.46	874.62
316.689	913.62
316.919	882.62
317.148	897.62
317.377	923.62
317.607	907.62
317.836	874.62
318.065	885.62
318.295	924.62
318.524	870.62
318.753	903.62
318.983	902.62
319.212	871.62
319.441	895.62
319.67	910.62
319.9	898.62
320.129	905.62
320.358	906.62
320.587	910.62
320.816	916.62
321.046	912.62
321.275	877.62
321.504	908.62
321.733	883.62
321.962	912.62
322.191	936.62
322.42	938.62
322.649	919.62
322.878	944.62
323.108	927.62
323.337	919.62
323.566	919.62
323.795	948.62
324.024	913.62
324.253	904.62
324.482	935.62
324.71	925.62
324.939	914.62
325.168	929.62
325.397	920.62
325.626	934.62
325.855	964.62
326.084	971.62
326.313	987.62
326.542	991.62
326.77	1000.62
326.999	1027.62
327.228	967.62
327.457	974.62
327.686	967.62
327.914	969.62
328.143	983.62
328.372	984.62
328.6	991.62
328.829	971.62
329.058	985.62
329.287	972.62
329.515	980.62
329.744	966.62
329.972	968.62
330.201	1020.62
330.43	1031.62
330.658	1026.62
330.887	1003.62
331.115	1006.62
331.344	1000.62
331.572	1006.62
331.801	1022.62
332.03	1027.62
332.258	1030.62
332.486	1063.62
332.715	1096.62
332.943	1062.62
333.172	1090.62
333.4	1118.62
333.629	1114.62
333.857	1130.62
334.085	1131.62
334.314	1145.62
334.542	1160.62
334.771	1168.62
334.999	1143.62
335.227	1161.62
335.455	1180.62
335.684	1169.62
335.912	1182.62
336.14	1158.62
336.369	1143.62
336.597	1138.62
336.825	1137.62
337.053	1114.62
337.281	1119.62
337.51	1109.62
337.738	1112.62
337.966	1096.62
338.194	1072.62
338.422	1094.62
338.65	1075.62
338.878	1117.62
339.106	1114.62
339.334	1091.62
339.562	1043.62
339.79	1082.62
340.018	1042.62
340.246	1030.62
340.474	1050.62
340.702	1034.62
340.93	1079.62
341.158	1078.62
341.386	1043.62
341.614	1052.62
341.842	1043.62
342.07	1073.62
342.298	1030.62
342.526	1050.62
342.754	1035.62
342.981	1063.62
343.209	1065.62
343.437	1073.62
343.665	1080.62
343.893	1120.62
344.12	1140.62
344.348	1136.62
344.576	1096.62
344.804	1109.62
345.031	1079.62
345.259	1098.62
345.487	1072.62
345.714	1072.62
345.942	1051.62
346.17	1039.62
346.397	1052.62
346.625	1039.62
346.853	1042.62
347.08	999.62
347.308	1020.62
347.535	1003.62
347.763	1035.62
347.99	979.62
348.218	1010.62
348.445	999.62
348.673	980.62
348.9	992.62
349.128	991.62
349.355	1016.62
349.583	997.62
349.81	987.62
350.037	991.62
350.265	1003.62
350.492	1024.62
350.72	1006.62
350.947	1029.62
351.174	997.62
351.402	988.62
351.629	982.62
351.856	994.62
352.083	989.62
352.311	958.62
352.538	992.62
352.765	991.62
352.992	953.62
353.22	964.62
353.447	998.62
353.674	998.62
353.901	998.62
354.128	1006.62
354.355	991.62
354.583	998.62
354.81	967.62
355.037	989.62
355.264	977.62
355.491	972.62
355.718	986.62
355.945	1008.62
356.172	1006.62
356.399	981.62
356.626	1028.62
356.853	1030.62
357.08	991.62
357.307	1038.62
357.534	996.62
357.761	1004.62
357.988	979.62
358.215	1014.62
358.441	1033.62
358.668	1038.62
358.895	1030.62
359.122	999.62
359.349	995.62
359.576	1009.62
359.802	999.62
360.029	1014.62
360.256	989.62
360.483	994.62
360.709	1023.62
360.936	1029.62
361.163	1036.62
361.39	1002.62
361.616	1004.62
361.843	1050.62
362.07	1032.62
362.296	1033.62
362.523	1005.62
362.749	1014.62
362.976	994.62
363.203	1023.62
363.429	1041.62
363.656	1029.62
363.882	1020.62
364.109	1044.62
364.335	1022.62
364.562	1022.62
364.788	1035.62
365.015	1048.62
365.241	1045.62
365.468	1033.62
365.694	1021.62
365.92	1048.62
366.147	1003.62
366.373	1031.62
366.599	1000.62
366.826	1029.62
367.052	1051.62
367.278	1023.62
367.505	1032.62
367.731	1028.62
367.957	1031.62
368.184	1022.62
368.41	1065.62
368.636	1044.62
368.862	1066.62
369.089	1076.62
369.315	1056.62
369.541	1059.62
369.767	1079.62
369.993	1064.62
370.219	1064.62
370.445	1067.62
370.672	1082.62
370.898	1080.62
371.124	1102.62
371.35	1115.62
371.576	1102.62
371.802	1095.62
372.028	1127.62
372.254	1166.62
372.48	1131.62
372.706	1152.62
372.932	1139.62
373.158	1157.62
373.384	1142.62
373.61	1151.62
373.835	1142.62
374.061	1149.62
374.287	1147.62
374.513	1177.62
374.739	1178.62
374.965	1189.62
375.191	1186.62
375.416	1178.62
375.642	1167.62
375.868	1185.62
376.094	1157.62
376.319	1159.62
376.545	1159.62
376.771	1166.62
376.997	1136.62
377.222	1097.62
377.448	1101.62
377.674	1107.62
377.899	1132.62
378.125	1082.62
378.35	1083.62
378.576	1106.62
378.802	1086.62
379.027	1146.62
379.253	1117.62
379.478	1089.62
379.704	1134.62
379.929	1111.62
380.155	1128.62
380.38	1131.62
380.606	1135.62
380.831	1140.62
381.057	1162.62
381.282	1134.62
381.507	1144.62
381.733	1168.62
381.958	1173.62
382.184	1203.62
382.409	1226.62
382.634	1208.62
382.86	1219.62
383.085	1195.62
383.31	1178.62
383.535	1248.62
383.761	1205.62
383.986	1199.62
384.211	1207.62
384.436	1243.62
384.662	1234.62
384.887	1233.62
385.112	1249.62
385.337	1300.62
385.562	1297.62
385.787	1295.62
386.013	1327.62
386.238	1306.62
386.463	1299.62
386.688	1295.62
386.913	1302.62
387.138	1276.62
387.363	1336.62
387.588	1319.62
387.813	1308.62
388.038	1296.62
388.263	1333.62
388.488	1346.62
388.713	1326.62
388.938	1354.62
389.163	1330.62
389.387	1340.62
389.612	1336.62
389.837	1332.62
390.062	1310.62
390.287	1349.62
390.512	1350.62
390.736	1306.62
390.961	1359.62
391.186	1348.62
391.411	1389.62
391.636	1379.62
391.86	1362.62
392.085	1397.62
392.31	1412.62
392.534	1418.62
392.759	1424.62
392.984	1426.62
393.208	1368.62
393.433	1412.62
393.658	1408.62
393.882	1440.62
394.107	1387.62
394.331	1379.62
394.556	1377.62
394.78	1415.62
395.005	1424.62
395.229	1436.62
395.454	1424.62
395.678	1448.62
395.903	1420.62
396.127	1490.62
396.352	1433.62
396.576	1441.62
396.801	1419.62
397.025	1470.62
397.249	1473.62
397.474	1480.62
397.698	1466.62
397.922	1509.62
398.147	1519.62
398.371	1511.62
398.595	1576.62
398.82	1605.62
399.044	1665.62
399.268	1727.62
399.492	1775.62
399.717	1854.62
399.941	1877.62
400.165	1866.62
400.389	1845.62
400.613	1737.62
400.837	1731.62
401.062	1675.62
401.286	1635.62
401.51	1632.62
401.734	1610.62
401.958	1590.62
402.182	1603.62
402.406	1618.62
402.63	1575.62
402.854	1618.62
403.078	1617.62
403.302	1596.62
403.526	1624.62
403.75	1653.62
403.974	1641.62
404.198	1607.62
404.422	1697.62
404.645	1650.62
404.869	1704.62
405.093	1641.62
405.317	1651.62
405.541	1680.62
405.765	1708.62
405.988	1679.62
406.212	1726.62
406.436	1730.62
406.66	1753.62
406.883	1733.62
407.107	1825.62
407.331	1811.62
407.555	1854.62
407.778	1860.62
408.002	1862.62
408.226	1834.62
408.449	1864.62
408.673	1794.62
408.896	1769.62
409.12	1726.62
409.344	1746.62
409.567	1698.62
409.791	1702.62
410.014	1712.62
410.238	1705.62
410.461	1700.62
410.685	1716.62
410.908	1692.62
411.132	1706.62
411.355	1660.62
411.578	1664.62
411.802	1663.62
412.025	1659.62
412.249	1680.62
412.472	1663.62
412.695	1662.62
412.919	1643.62
413.142	1652.62
413.365	1646.62
413.589	1657.62
413.812	1620.62
414.035	1616.62
414.258	1630.62
414.482	1598.62
414.705	1596.62
414.928	1630.62
415.151	1604.62
415.374	1618.62
415.597	1583.62
415.821	1546.62
416.044	1560.62
416.267	1537.62
416.49	1557.62
416.713	1550.62
416.936	1529.62
417.159	1519.62
417.382	1502.62
417.605	1526.62
417.828	1525.62
418.051	1543.62
418.274	1554.62
418.497	1565.62
418.72	1573.62
418.943	1561.62
419.166	1626.62
419.389	1741.62
419.611	1675.62
419.834	1660.62
420.057	1601.62
420.28	1539.62
420.503	1520.62
420.726	1536.62
420.948	1540.62
421.171	1510.62
421.394	1517.62
421.617	1518.62
421.839	1499.62
422.062	1541.62
422.285	1495.62
422.507	1558.62
422.73	1541.62
422.953	1542.62
423.175	1549.62
423.398	1531.62
423.621	1494.62
423.843	1526.62
424.066	1523.62
424.288	1531.62
424.511	1501.62
424.733	1518.62
424.956	1545.62
425.178	1533.62
425.401	1500.62
425.623	1486.62
425.846	1472.62
426.068	1498.62
426.291	1488.62
426.513	1525.62
426.735	1521.62
426.958	1482.62
427.18	1492.62
427.402	1499.62
427.625	1494.62
427.847	1444.62
428.069	1488.62
428.292	1472.62
428.514	1442.62
428.736	1430.62
428.958	1469.62
429.181	1412.62
429.403	1417.62
429.625	1474.62
429.847	1483.62
430.069	1457.62
430.292	1433.62
430.514	1460.62
430.736	1462.62
430.958	1461.62
431.18	1468.62
431.402	1459.62
431.624	1445.62
431.846	1434.62
432.068	1429.62
432.29	1472.62
432.512	1458.62
432.734	1491.62
432.956	1454.62
433.178	1494.62
433.4	1454.62
433.622	1464.62
433.844	1488.62
434.066	1490.62
434.287	1474.62
434.509	1478.62
434.731	1488.62
434.953	1530.62
435.175	1545.62
435.397	1550.62
435.618	1518.62
435.84	1481.62
436.062	1441.62
436.284	1492.62
436.505	1456.62
436.727	1460.62
436.949	1428.62
437.17	1458.62
437.392	1433.62
437.614	1423.62
437.835	1410.62
438.057	1414.62
438.278	1394.62
438.5	1428.62
438.721	1418.62
438.943	1402.62
439.165	1392.62
439.386	1401.62
439.608	1406.62
439.829	1420.62
440.05	1436.62
440.272	1426.62
440.493	1417.62
440.715	1468.62
440.936	1464.62
441.158	1465.62
441.379	1471.62
441.6	1544.62
441.822	1505.62
442.043	1500.62
442.264	1495.62
442.486	1480.62
442.707	1500.62
442.928	1484.62
443.149	1500.62
443.371	1485.62
443.592	1490.62
443.813	1521.62
444.034	1484.62
444.255	1536.62
444.476	1568.62
444.698	1586.62
444.919	1624.62
445.14	1645.62
445.361	1584.62
445.582	1544.62
445.803	1490.62
446.024	1492.62
446.245	1478.62
446.466	1472.62
446.687	1414.62
446.908	1470.62
447.129	1393.62
447.35	1398.62
447.571	1380.62
447.792	1355.62
448.013	1359.62
448.234	1342.62
448.455	1306.62
448.675	1339.62
448.896	1312.62
449.117	1307.62
449.338	1318.62
449.559	1315.62
449.779	1296.62
450	1323.62
450.221	1301.62
450.442	1303.62
450.662	1300.62
450.883	1345.62
451.104	1332.62
451.324	1296.62
451.545	1319.62
451.766	1307.62
451.986	1300.62
452.207	1295.62
452.428	1286.62
452.648	1287.62
452.869	1265.62
453.089	1234.62
453.31	1291.62
453.53	1234.62
453.751	1268.62
453.971	1267.62
454.192	1248.62
454.412	1237.62
454.633	1234.62
454.853	1280.62
455.073	1244.62
455.294	1250.62
455.514	1250.62
455.734	1236.62
455.955	1227.62
456.175	1244.62
456.395	1243.62
456.616	1272.62
456.836	1297.62
457.056	1266.62
457.276	1218.62
457.497	1273.62
457.717	1259.62
457.937	1270.62
458.157	1301.62
458.377	1257.62
458.598	1319.62
458.818	1330.62
459.038	1369.62
459.258	1381.62
459.478	1428.62
459.698	1458.62
459.918	1445.62
460.138	1480.62
460.358	1514.62
460.578	1512.62
460.798	1538.62
461.018	1547.62
461.238	1554.62
461.458	1561.62
461.678	1556.62
461.898	1611.62
462.118	1573.62
462.338	1675.62
462.558	1712.62
462.777	1699.62
462.997	1736.62
463.217	1774.62
463.437	1782.62
463.657	1730.62
463.876	1723.62
464.096	1759.62
464.316	1679.62
464.536	1709.62
464.755	1698.62
464.975	1643.62
465.195	1613.62
465.414	1525.62
465.634	1475.62
465.854	1496.62
466.073	1460.62
466.293	1458.62
466.512	1459.62
466.732	1477.62
466.951	1446.62
467.171	1391.62
467.391	1413.62
467.61	1374.62
467.829	1379.62
468.049	1387.62
468.268	1384.62
468.488	1354.62
468.707	1354.62
468.927	1394.62
469.146	1391.62
469.365	1390.62
469.585	1388.62
469.804	1403.62
470.023	1418.62
470.243	1392.62
470.462	1421.62
470.681	1414.62
470.901	1410.62
471.12	1426.62
471.339	1407.62
471.558	1402.62
471.777	1415.62
471.997	1429.62
472.216	1423.62
472.435	1406.62
472.654	1393.62
472.873	1366.62
473.092	1404.62
473.311	1374.62
473.53	1380.62
473.749	1391.62
473.968	1367.62
474.187	1374.62
474.406	1394.62
474.625	1414.62
474.844	1390.62
475.063	1400.62
475.282	1441.62
475.501	1408.62
475.72	1416.62
475.939	1413.62
476.158	1488.62
476.377	1474.62
476.596	1495.62
476.814	1539.62
477.033	1484.62
477.252	1475.62
477.471	1543.62
477.69	1561.62
477.908	1601.62
478.127	1583.62
478.346	1595.62
478.564	1646.62
478.783	1576.62
479.002	1659.62
479.22	1663.62
479.439	1702.62
479.658	1714.62
479.876	1672.62
480.095	1701.62
480.313	1751.62
480.532	1719.62
480.751	1707.62
480.969	1721.62
481.188	1756.62
481.406	1756.62
481.624	1705.62
481.843	1658.62
482.061	1666.62
482.28	1696.62
482.498	1735.62
482.717	1674.62
482.935	1682.62
483.153	1702.62
483.372	1655.62
483.59	1659.62
483.808	1667.62
484.027	1663.62
484.245	1690.62
484.463	1672.62
484.681	1676.62
484.9	1688.62
485.118	1729.62
485.336	1722.62
485.554	1697.62
485.772	1732.62
485.99	1729.62
486.209	1724.62
486.427	1740.62
486.645	1725.62
486.863	1707.62
487.081	1718.62
487.299	1746.62
487.517	1749.62
487.735	1720.62
487.953	1734.62
488.171	1776.62
488.389	1722.62
488.607	1722.62
488.825	1696.62
489.043	1736.62
489.261	1719.62
489.479	1714.62
489.696	1693.62
489.914	1736.62
490.132	1710.62
490.35	1696.62
490.568	1725.62
490.786	1774.62
491.003	1739.62
491.221	1730.62
491.439	1742.62
491.657	1723.62
491.874	1765.62
492.092	1806.62
492.31	1795.62
492.527	1769.62
492.745	1762.62
492.963	1737.62
493.18	1788.62
493.398	1774.62
493.615	1758.62
493.833	1794.62
494.05	1783.62
494.268	1802.62
494.485	1796.62
494.703	1766.62
494.92	1796.62
495.138	1804.62
495.355	1816.62
495.573	1826.62
495.79	1858.62
496.008	1849.62
496.225	1912.62
496.442	1892.62
496.66	1916.62
496.877	1924.62
497.094	1966.62
497.312	1993.62
497.529	2002.62
497.746	2038.62
497.963	2106.62
498.181	2178.62
498.398	2185.62
498.615	2232.62
498.832	2354.62
499.049	2427.62
499.267	2480.62
499.484	2583.62
499.701	2703.62
499.918	2832.62
500.135	2884.62
500.352	3023.62
500.569	3064.62
500.786	3093.62
501.003	3015.62
501.22	2979.62
501.437	2778.62
501.654	2698.62
501.871	2590.62
502.088	2504.62
502.305	2384.62
502.522	2277.62
502.739	2274.62
502.956	2184.62
503.172	2129.62
503.389	2071.62
503.606	2024.62
503.823	2019.62
504.04	1978.62
504.256	1957.62
504.473	1916.62
504.69	1928.62
504.907	1884.62
505.123	1820.62
505.34	1785.62
505.557	1791.62
505.773	1712.62
505.99	1698.62
506.207	1651.62
506.423	1621.62
506.64	1655.62
506.856	1635.62
507.073	1602.62
507.289	1606.62
507.506	1557.62
507.722	1572.62
507.939	1553.62
508.155	1540.62
508.372	1540.62
508.588	1516.62
508.805	1491.62
509.021	1494.62
509.238	1432.62
509.454	1490.62
509.67	1443.62
509.887	1412.62
510.103	1461.62
510.319	1419.62
510.536	1426.62
510.752	1446.62
510.968	1361.62
511.184	1372.62
511.401	1402.62
511.617	1408.62
511.833	1366.62
512.049	1418.62
512.265	1416.62
512.481	1399.62
512.698	1374.62
512.914	1408.62
513.13	1385.62
513.346	1440.62
513.562	1417.62
513.778	1385.62
513.994	1412.62
514.21	1441.62
514.426	1404.62
514.642	1400.62
514.858	1431.62
515.074	1449.62
515.29	1447.62
515.506	1421.62
515.721	1444.62
515.937	1464.62
516.153	1502.62
516.369	1483.62
516.585	1496.62
516.801	1524.62
517.016	1596.62
517.232	1584.62
517.448	1630.62
517.664	1612.62
517.879	1604.62
518.095	1615.62
518.311	1583.62
518.527	1582.62
518.742	1566.62
518.958	1521.62
519.173	1499.62
519.389	1467.62
519.605	1473.62
519.82	1463.62
520.036	1465.62
520.251	1509.62
520.467	1422.62
520.682	1368.62
520.898	1350.62
521.113	1419.62
521.329	1320.62
521.544	1370.62
521.76	1347.62
521.975	1348.62
522.19	1354.62
522.406	1317.62
522.621	1326.62
522.836	1296.62
523.052	1314.62
523.267	1330.62
523.482	1282.62
523.698	1291.62
523.913	1282.62
524.128	1284.62
524.343	1293.62
524.559	1284.62
524.774	1258.62
524.989	1265.62
525.204	1310.62
525.419	1270.62
525.634	1263.62
525.849	1266.62
526.064	1280.62
526.28	1205.62
526.495	1269.62
526.71	1274.62
526.925	1258.62
527.14	1247.62
527.355	1220.62
527.57	1190.62
527.785	1222.62
527.999	1247.62
528.214	1213.62
528.429	1204.62
528.644	1210.62
528.859	1210.62
529.074	1194.62
529.289	1231.62
529.503	1235.62
529.718	1241.62
529.933	1211.62
530.148	1204.62
530.363	1210.62
530.577	1191.62
530.792	1214.62
531.007	1222.62
531.221	1212.62
531.436	1195.62
531.651	1189.62
531.865	1193.62
532.08	1190.62
532.295	1191.62
532.509	1200.62
532.724	1192.62
532.938	1193.62
533.153	1175.62
533.367	1191.62
533.582	1192.62
533.796	1185.62
534.011	1168.62
534.225	1155.62
534.44	1147.62
534.654	1188.62
534.868	1175.62
535.083	1159.62
535.297	1150.62
535.511	1183.62
535.726	1157.62
535.94	1160.62
536.154	1143.62
536.369	1097.62
536.583	1108.62
536.797	1119.62
537.011	1146.62
537.225	1144.62
537.44	1141.62
537.654	1150.62
537.868	1121.62
538.082	1116.62
538.296	1113.62
538.51	1104.62
538.724	1117.62
538.938	1087.62
539.153	1092.62
539.367	1094.62
539.581	1105.62
539.795	1083.62
540.009	1076.62
540.222	1090.62
540.436	1094.62
540.65	1103.62
540.864	1090.62
541.078	1098.62
541.292	1111.62
541.506	1107.62
541.72	1095.62
541.934	1066.62
542.147	1062.62
542.361	1061.62
542.575	1076.62
542.789	1094.62
543.002	1076.62
543.216	1064.62
543.43	1028.62
543.644	1083.62
543.857	1059.62
544.071	1066.62
544.285	1063.62
544.498	1077.62
544.712	1066.62
544.925	1083.62
545.139	1086.62
545.352	1060.62
545.566	1041.62
545.779	1060.62
545.993	1090.62
546.206	1134.62
546.42	1102.62
546.633	1079.62
546.847	1081.62
547.06	1062.62
547.274	1058.62
547.487	1066.62
547.7	1058.62
547.914	1067.62
548.127	1083.62
548.34	1101.62
548.554	1071.62
548.767	1084.62
548.98	1054.62
549.193	1057.62
549.407	1078.62
549.62	1090.62
549.833	1127.62
550.046	1093.62
550.259	1080.62
550.473	1064.62
550.686	1063.62
550.899	1078.62
551.112	1064.62
551.325	1091.62
551.538	1125.62
551.751	1038.62
551.964	1045.62
552.177	1068.62
552.39	1066.62
552.603	1068.62
552.816	1097.62
553.029	1104.62
553.242	1086.62
553.455	1085.62
553.667	1120.62
553.88	1063.62
554.093	1048.62
554.306	1044.62
554.519	1035.62
554.732	1015.62
554.944	1042.62
555.157	1000.62
555.37	998.62
555.583	1001.62
555.795	986.62
556.008	952.62
556.221	963.62
556.433	952.62
556.646	990.62
556.859	956.62
557.071	949.62
557.284	912.62
557.496	939.62
557.709	937.62
557.921	925.62
558.134	928.62
558.346	921.62
558.559	918.62
558.771	908.62
558.984	890.62
559.196	926.62
559.409	907.62
559.621	901.62
559.833	905.62
560.046	910.62
560.258	916.62
560.47	906.62
560.683	897.62
560.895	881.62
561.107	895.62
561.32	905.62
561.532	877.62
561.744	901.62
561.956	883.62
562.168	884.62
562.381	900.62
562.593	903.62
562.805	903.62
563.017	910.62
563.229	898.62
563.441	918.62
563.653	934.62
563.865	930.62
564.077	936.62
564.289	936.62
564.501	966.62
564.713	983.62
564.925	982.62
565.137	1009.62
565.349	994.62
565.561	1031.62
565.773	1018.62
565.985	1001.62
566.197	1052.62
566.408	1095.62
566.62	1113.62
566.832	1124.62
567.044	1146.62
567.255	1169.62
567.467	1156.62
567.679	1184.62
567.891	1204.62
568.102	1171.62
568.314	1147.62
568.526	1129.62
568.737	1117.62
568.949	1051.62
569.161	985.62
569.372	984.62
569.584	982.62
569.795	969.62
570.007	942.62
570.218	916.62
570.43	901.62
570.641	891.62
570.853	890.62
571.064	854.62
571.276	888.62
571.487	840.62
571.698	834.62
571.91	788.62
572.121	789.62
572.333	768.62
572.544	752.62
572.755	795.62
572.966	770.62
573.178	778.62
573.389	752.62
573.6	747.62
573.811	751.62
574.023	754.62
574.234	745.62
574.445	727.62
574.656	719.62
574.867	729.62
575.078	728.62
575.289	731.62
575.501	710.62
575.712	688.62
575.923	721.62
576.134	689.62
576.345	693.62
576.556	704.62
576.767	686.62
576.978	675.62
577.188	682.62
577.399	677.62
577.61	648.62
577.821	656.62
578.032	658.62
578.243	643.62
578.454	651.62
578.665	658.62
578.875	652.62
579.086	634.62
579.297	630.62
579.508	642.62
579.718	630.62
579.929	625.62
580.14	641.62
580.35	637.62
580.561	642.62
580.772	613.62
580.982	615.62
581.193	629.62
581.403	619.62
581.614	640.62
581.825	638.62
582.035	629.62
582.246	614.62
582.456	626.62
582.667	614.62
582.877	602.62
583.087	609.62
583.298	593.62
583.508	609.62
583.719	614.62
583.929	622.62
584.139	608.62
584.35	582.62
584.56	618.62
584.77	608.62
584.981	623.62
585.191	628.62
585.401	595.62
585.611	600.62
585.821	591.62
586.032	596.62
586.242	596.62
586.452	594.62
586.662	584.62
586.872	585.62
587.082	594.62
587.292	598.62
587.502	588.62
587.713	570.62
587.923	583.62
588.133	580.62
588.343	567.62
588.553	583.62
588.762	581.62
588.972	592.62
589.182	632.62
589.392	593.62
589.602	606.62
589.812	608.62
590.022	607.62
590.232	565.62
590.441	583.62
590.651	567.62
590.861	586.62
591.071	597.62
591.281	574.62
591.49	574.62
591.7	596.62
591.91	595.62
592.119	608.62
592.329	596.62
592.539	602.62
592.748	598.62
592.958	610.62
593.167	624.62
593.377	594.62
593.587	612.62
593.796	631.62
594.006	615.62
594.215	607.62
594.424	601.62
594.634	592.62
594.843	593.62
595.053	594.62
595.262	603.62
595.472	604.62
595.681	582.62
595.89	567.62
596.1	561.62
596.309	543.62
596.518	544.62
596.727	539.62
596.937	547.62
597.146	516.62
597.355	536.62
597.564	515.62
597.774	518.62
597.983	498.62
598.192	500.62
598.401	498.62
598.61	516.62
598.819	520.62
599.028	494.62
599.237	474.62
599.446	480.62
599.655	482.62
599.864	482.62
600.073	500.62
600.282	477.62
600.491	477.62
600.7	467.62
600.909	467.62
601.118	472.62
601.327	474.62
601.536	470.62
601.745	473.62
601.953	469.62
602.162	471.62
602.371	477.62
602.58	457.62
602.789	473.62
602.997	453.62
603.206	460.62
603.415	467.62
603.623	458.62
603.832	458.62
604.041	456.62
604.249	455.62
604.458	460.62
604.666	453.62
604.875	444.62
605.084	460.62
605.292	443.62
605.501	439.62
605.709	435.62
605.918	432.62
606.126	447.62
606.334	417.62
606.543	415.62
606.751	443.62
606.96	440.62
607.168	446.62
607.376	424.62
607.585	432.62
607.793	434.62
608.001	425.62
608.21	427.62
608.418	415.62
608.626	402.62
608.834	432.62
609.043	418.62
609.251	413.62
609.459	427.62
609.667	427.62
609.875	443.62
610.083	440.62
610.291	433.62
610.499	426.62
610.707	419.62
610.916	423.62
611.124	383.62
611.332	418.62
611.54	410.62
611.748	416.62
611.955	408.62
612.163	402.62
612.371	407.62
612.579	392.62
612.787	401.62
612.995	414.62
613.203	409.62
613.411	405.62
613.618	421.62
613.826	389.62
614.034	415.62
614.242	418.62
614.449	409.62
614.657	407.62
614.865	374.62
615.072	412.62
615.28	389.62
615.488	408.62
615.695	397.62
615.903	406.62
616.111	384.62
616.318	404.62
616.526	394.62
616.733	408.62
616.941	378.62
617.148	402.62
617.356	393.62
617.563	393.62
617.771	405.62
617.978	379.62
618.185	400.62
618.393	380.62
618.6	392.62
618.807	376.62
619.015	381.62
619.222	391.62
619.429	376.62
619.637	382.62
619.844	380.62
620.051	380.62
620.258	386.62
620.466	379.62
620.673	361.62
620.88	352.62
621.087	370.62
621.294	369.62
621.501	387.62
621.708	373.62
621.915	352.62
622.122	369.62
622.329	379.62
622.536	360.62
622.743	350.62
622.95	374.62
623.157	348.62
623.364	347.62
623.571	341.62
623.778	370.62
623.985	369.62
624.192	355.62
624.399	348.62
624.606	378.62
624.812	360.62
625.019	370.62
625.226	352.62
625.433	332.62
625.639	336.62
625.846	347.62
626.053	337.62
626.259	347.62
626.466	342.62
626.673	337.62
626.879	337.62
627.086	346.62
627.293	357.62
627.499	346.62
627.706	330.62
627.912	324.62
628.119	338.62
628.325	313.62
628.532	337.62
628.738	327.62
628.945	338.62
629.151	329.62
629.357	324.62
629.564	332.62
629.77	314.62
629.976	331.62
630.183	311.62
630.389	338.62
630.595	321.62
630.802	320.62
631.008	323.62
631.214	316.62
631.42	319.62
631.627	331.62
631.833	313.62
632.039	294.62
632.245	306.62
632.451	315.62
632.657	299.62
632.863	296.62
633.069	322.62
633.275	303.62
633.481	312.62
633.688	285.62
633.893	293.62
634.099	314.62
634.305	311.62
634.511	300.62
634.717	311.62
634.923	311.62
635.129	294.62
635.335	299.62
635.541	294.62
635.747	304.62
635.952	318.62
636.158	308.62
636.364	294.62
636.57	302.62
636.775	288.62
636.981	296.62
637.187	279.62
637.392	302.62
637.598	291.62
637.804	276.62
638.009	288.62
638.215	299.62
638.421	284.62
638.626	275.62
638.832	283.62
639.037	278.62
639.243	299.62
639.448	290.62
639.654	296.62
639.859	294.62
640.065	287.62
640.27	290.62
640.475	290.62
640.681	282.62
640.886	291.62
641.091	286.62
641.297	286.62
641.502	291.62
641.707	270.62
641.913	301.62
642.118	286.62
642.323	279.62
642.528	275.62
642.733	275.62
642.939	296.62
643.144	265.62
643.349	287.62
643.554	293.62
643.759	267.62
643.964	281.62
644.169	296.62
644.374	290.62
644.579	280.62
644.784	289.62
644.989	284.62
645.194	283.62
645.399	303.62
645.604	280.62
645.809	288.62
646.014	286.62
646.219	291.62
646.423	283.62
646.628	267.62
646.833	277.62
647.038	280.62
647.243	294.62
647.447	302.62
647.652	284.62
647.857	300.62
648.062	273.62
648.266	284.62
648.471	276.62
648.676	312.62
648.88	310.62
649.085	281.62
649.289	295.62
649.494	295.62
649.698	271.62
649.903	295.62
650.107	290.62
650.312	297.62
650.516	299.62
650.721	285.62
650.925	300.62
651.13	287.62
651.334	298.62
651.539	268.62
651.743	267.62
651.947	286.62
652.152	282.62
652.356	289.62
652.56	275.62
652.764	278.62
652.969	269.62
653.173	283.62
653.377	268.62
653.581	261.62
653.785	258.62
653.99	271.62
654.194	276.62
654.398	272.62
654.602	280.62
654.806	262.62
655.01	265.62
655.214	277.62
655.418	262.62
655.622	273.62
655.826	276.62
656.03	289.62
656.234	283.62
656.438	275.62
656.642	289.62
656.846	281.62
657.049	262.62
657.253	246.62
657.457	246.62
657.661	219.62
657.865	200.62
658.068	194.62
658.272	198.62
658.476	187.62
658.68	185.62
658.883	161.62
659.087	150.62
659.291	140.62
659.494	139.62
659.698	141.62
659.901	141.62
660.105	135.62
660.309	134.62
660.512	130.62
660.716	123.62
660.919	118.62
661.123	99.62
661.326	97.62
661.53	110.62
661.733	97.62
661.936	97.62
662.14	98.62
662.343	86.62
662.546	101.62
662.75	87.62
662.953	87.62
663.156	100.62
663.36	83.62
663.563	103.62
663.766	83.62
663.969	99.62
664.173	91.62
664.376	76.62
664.579	73.62
664.782	79.62
664.985	105.62
665.188	75.62
665.391	87.62
665.594	87.62
665.797	69.62
666	66.62
666.203	76.62
666.406	81.62
666.609	87.62
666.812	82.62
667.015	64.62
667.218	81.62
667.421	82.62
667.624	91.62
667.827	65.62
668.03	69.62
668.232	81.62
668.435	95.62
668.638	79.62
668.841	97.62
669.043	86.62
669.246	72.62
669.449	69.62
669.651	89.62
669.854	90.62
670.057	86.62
670.259	89.62
670.462	87.62
670.665	79.62
670.867	69.62
671.07	68.62
671.272	70.62
671.475	87.62
671.677	78.62
671.88	82.62
672.082	78.62
672.284	74.62
672.487	89.62
672.689	82.62
672.892	69.62
