Data from Fe(NO3)3@0.05M.TitratingCurve.Agarose3%dH2O.NegLispCup.LampEnergy10.LIBS07252019_HRD10591_16-46-27-334.txt Node
Date: Thu Jul 25 16:46:27 EDT 2019
User: cochatt
Spectrometer: HR+D1059
Trigger mode: 1
Integration Time (sec): 1.000000E-1
Scans to average: 1
Electric dark correction enabled: true
Nonlinearity correction enabled: false
Boxcar width: 0
XAxis mode: Wavelengths
Number of Pixels in Spectrum: 2048
>>>>>Begin Spectral Data<<<<<
223.165	-16.5
223.4	-16.5
223.635	-16.5
223.869	-23.5
224.104	-12.5
224.338	-17.5
224.573	-16.5
224.808	-10.5
225.042	6.5
225.277	-24.5
225.511	-8.5
225.746	4.5
225.98	14.5
226.215	15.5
226.449	23.5
226.683	18.5
226.918	8.5
227.152	38.5
227.387	26.5
227.621	30.5
227.856	40.5
228.09	33.5
228.324	50.5
228.559	63.5
228.793	78.5
229.027	125.5
229.262	121.5
229.496	132.5
229.73	136.5
229.964	135.5
230.199	144.5
230.433	142.5
230.667	137.5
230.901	145.5
231.136	137.5
231.37	132.5
231.604	162.5
231.838	149.5
232.072	140.5
232.306	151.5
232.541	148.5
232.775	170.5
233.009	166.5
233.243	174.5
233.477	173.5
233.711	171.5
233.945	175.5
234.179	180.5
234.413	173.5
234.647	191.5
234.881	195.5
235.115	200.5
235.349	169.5
235.583	180.5
235.817	164.5
236.051	180.5
236.285	176.5
236.519	190.5
236.753	182.5
236.987	179.5
237.221	190.5
237.455	188.5
237.689	190.5
237.922	203.5
238.156	204.5
238.39	219.5
238.624	246.5
238.858	225.5
239.091	222.5
239.325	217.5
239.559	206.5
239.793	211.5
240.027	246.5
240.26	218.5
240.494	238.5
240.728	222.5
240.961	235.5
241.195	246.5
241.429	219.5
241.662	246.5
241.896	222.5
242.13	233.5
242.363	226.5
242.597	235.5
242.83	243.5
243.064	239.5
243.298	249.5
243.531	244.5
243.765	247.5
243.998	248.5
244.232	247.5
244.465	249.5
244.699	258.5
244.932	268.5
245.166	268.5
245.399	258.5
245.633	255.5
245.866	264.5
246.099	255.5
246.333	274.5
246.566	274.5
246.8	273.5
247.033	263.5
247.266	262.5
247.5	292.5
247.733	276.5
247.966	282.5
248.2	294.5
248.433	307.5
248.666	298.5
248.899	308.5
249.133	312.5
249.366	309.5
249.599	319.5
249.832	310.5
250.066	299.5
250.299	302.5
250.532	324.5
250.765	318.5
250.998	306.5
251.231	304.5
251.465	315.5
251.698	330.5
251.931	306.5
252.164	308.5
252.397	332.5
252.63	337.5
252.863	352.5
253.096	340.5
253.329	348.5
253.562	354.5
253.795	368.5
254.028	356.5
254.261	369.5
254.494	358.5
254.727	340.5
254.96	352.5
255.193	345.5
255.426	373.5
255.659	342.5
255.892	353.5
256.124	349.5
256.357	371.5
256.59	385.5
256.823	381.5
257.056	373.5
257.289	341.5
257.521	361.5
257.754	376.5
257.987	367.5
258.22	369.5
258.452	374.5
258.685	377.5
258.918	389.5
259.151	379.5
259.383	386.5
259.616	379.5
259.849	413.5
260.081	455.5
260.314	475.5
260.547	414.5
260.779	422.5
261.012	445.5
261.244	440.5
261.477	438.5
261.71	448.5
261.942	423.5
262.175	397.5
262.407	443.5
262.64	422.5
262.872	442.5
263.105	427.5
263.337	454.5
263.57	468.5
263.802	397.5
264.035	420.5
264.267	414.5
264.499	391.5
264.732	432.5
264.964	407.5
265.197	410.5
265.429	400.5
265.661	415.5
265.894	422.5
266.126	433.5
266.358	427.5
266.591	431.5
266.823	444.5
267.055	456.5
267.287	437.5
267.52	440.5
267.752	442.5
267.984	448.5
268.216	450.5
268.448	462.5
268.681	454.5
268.913	456.5
269.145	439.5
269.377	440.5
269.609	464.5
269.841	464.5
270.073	450.5
270.306	459.5
270.538	459.5
270.77	463.5
271.002	447.5
271.234	463.5
271.466	468.5
271.698	472.5
271.93	487.5
272.162	491.5
272.394	482.5
272.626	498.5
272.858	490.5
273.09	497.5
273.322	504.5
273.553	488.5
273.785	530.5
274.017	546.5
274.249	562.5
274.481	555.5
274.713	580.5
274.945	608.5
275.176	625.5
275.408	604.5
275.64	572.5
275.872	594.5
276.104	543.5
276.335	531.5
276.567	520.5
276.799	543.5
277.031	530.5
277.262	540.5
277.494	520.5
277.726	546.5
277.957	515.5
278.189	547.5
278.421	550.5
278.652	531.5
278.884	555.5
279.115	551.5
279.347	562.5
279.579	548.5
279.81	558.5
280.042	540.5
280.273	545.5
280.505	526.5
280.736	534.5
280.968	536.5
281.199	569.5
281.431	552.5
281.662	545.5
281.894	535.5
282.125	549.5
282.356	583.5
282.588	575.5
282.819	566.5
283.051	582.5
283.282	565.5
283.513	568.5
283.745	570.5
283.976	593.5
284.207	587.5
284.439	594.5
284.67	611.5
284.901	606.5
285.132	595.5
285.364	598.5
285.595	585.5
285.826	600.5
286.057	603.5
286.288	593.5
286.52	594.5
286.751	593.5
286.982	582.5
287.213	603.5
287.444	583.5
287.675	600.5
287.906	600.5
288.138	594.5
288.369	634.5
288.6	600.5
288.831	599.5
289.062	633.5
289.293	630.5
289.524	615.5
289.755	619.5
289.986	610.5
290.217	641.5
290.448	625.5
290.679	627.5
290.91	612.5
291.141	602.5
291.371	640.5
291.602	616.5
291.833	618.5
292.064	616.5
292.295	631.5
292.526	619.5
292.757	585.5
292.987	615.5
293.218	619.5
293.449	628.5
293.68	628.5
293.91	615.5
294.141	630.5
294.372	621.5
294.603	636.5
294.833	631.5
295.064	631.5
295.295	623.5
295.525	636.5
295.756	636.5
295.987	630.5
296.217	647.5
296.448	672.5
296.679	674.5
296.909	680.5
297.14	642.5
297.37	651.5
297.601	672.5
297.831	642.5
298.062	678.5
298.292	668.5
298.523	656.5
298.753	674.5
298.984	668.5
299.214	663.5
299.445	675.5
299.675	676.5
299.905	682.5
300.136	680.5
300.366	683.5
300.597	689.5
300.827	688.5
301.057	679.5
301.288	679.5
301.518	682.5
301.748	683.5
301.979	691.5
302.209	699.5
302.439	731.5
302.669	730.5
302.9	702.5
303.13	705.5
303.36	704.5
303.59	706.5
303.82	736.5
304.051	730.5
304.281	723.5
304.511	693.5
304.741	712.5
304.971	703.5
305.201	743.5
305.431	735.5
305.661	702.5
305.891	711.5
306.121	726.5
306.352	736.5
306.582	710.5
306.812	712.5
307.042	710.5
307.272	713.5
307.502	708.5
307.731	716.5
307.961	730.5
308.191	723.5
308.421	713.5
308.651	711.5
308.881	705.5
309.111	741.5
309.341	716.5
309.571	729.5
309.8	718.5
310.03	707.5
310.26	722.5
310.49	723.5
310.72	763.5
310.949	730.5
311.179	734.5
311.409	764.5
311.639	731.5
311.868	739.5
312.098	751.5
312.328	750.5
312.557	763.5
312.787	735.5
313.017	748.5
313.246	768.5
313.476	769.5
313.706	779.5
313.935	782.5
314.165	775.5
314.394	775.5
314.624	775.5
314.853	769.5
315.083	776.5
315.312	782.5
315.542	792.5
315.771	784.5
316.001	789.5
316.23	774.5
316.46	752.5
316.689	778.5
316.919	794.5
317.148	777.5
317.377	771.5
317.607	793.5
317.836	796.5
318.065	784.5
318.295	791.5
318.524	785.5
318.753	796.5
318.983	774.5
319.212	804.5
319.441	798.5
319.67	794.5
319.9	782.5
320.129	774.5
320.358	784.5
320.587	784.5
320.816	780.5
321.046	815.5
321.275	804.5
321.504	824.5
321.733	818.5
321.962	790.5
322.191	798.5
322.42	850.5
322.649	836.5
322.878	792.5
323.108	830.5
323.337	847.5
323.566	810.5
323.795	798.5
324.024	826.5
324.253	820.5
324.482	832.5
324.71	843.5
324.939	843.5
325.168	820.5
325.397	839.5
325.626	844.5
325.855	841.5
326.084	831.5
326.313	866.5
326.542	856.5
326.77	868.5
326.999	865.5
327.228	838.5
327.457	853.5
327.686	881.5
327.914	838.5
328.143	855.5
328.372	839.5
328.6	846.5
328.829	856.5
329.058	852.5
329.287	883.5
329.515	878.5
329.744	854.5
329.972	897.5
330.201	889.5
330.43	882.5
330.658	887.5
330.887	889.5
331.115	890.5
331.344	892.5
331.572	899.5
331.801	895.5
332.03	895.5
332.258	919.5
332.486	901.5
332.715	932.5
332.943	944.5
333.172	955.5
333.4	962.5
333.629	980.5
333.857	999.5
334.085	999.5
334.314	1024.5
334.542	1001.5
334.771	1025.5
334.999	1004.5
335.227	1021.5
335.455	973.5
335.684	965.5
335.912	1049.5
336.14	994.5
336.369	1019.5
336.597	1048.5
336.825	1000.5
337.053	982.5
337.281	968.5
337.51	970.5
337.738	978.5
337.966	964.5
338.194	925.5
338.422	947.5
338.65	916.5
338.878	956.5
339.106	936.5
339.334	966.5
339.562	939.5
339.79	925.5
340.018	930.5
340.246	930.5
340.474	923.5
340.702	913.5
340.93	934.5
341.158	912.5
341.386	914.5
341.614	923.5
341.842	896.5
342.07	903.5
342.298	916.5
342.526	900.5
342.754	902.5
342.981	906.5
343.209	947.5
343.437	956.5
343.665	970.5
343.893	1001.5
344.12	982.5
344.348	994.5
344.576	981.5
344.804	978.5
345.031	973.5
345.259	955.5
345.487	943.5
345.714	927.5
345.942	924.5
346.17	928.5
346.397	879.5
346.625	889.5
346.853	899.5
347.08	883.5
347.308	889.5
347.535	904.5
347.763	882.5
347.99	859.5
348.218	868.5
348.445	882.5
348.673	864.5
348.9	881.5
349.128	904.5
349.355	898.5
349.583	877.5
349.81	881.5
350.037	866.5
350.265	871.5
350.492	863.5
350.72	859.5
350.947	868.5
351.174	874.5
351.402	878.5
351.629	856.5
351.856	858.5
352.083	881.5
352.311	888.5
352.538	861.5
352.765	877.5
352.992	886.5
353.22	868.5
353.447	843.5
353.674	861.5
353.901	873.5
354.128	868.5
354.355	860.5
354.583	834.5
354.81	845.5
355.037	854.5
355.264	875.5
355.491	863.5
355.718	848.5
355.945	877.5
356.172	883.5
356.399	866.5
356.626	852.5
356.853	880.5
357.08	888.5
357.307	904.5
357.534	886.5
357.761	888.5
357.988	878.5
358.215	894.5
358.441	908.5
358.668	866.5
358.895	876.5
359.122	870.5
359.349	869.5
359.576	885.5
359.802	900.5
360.029	870.5
360.256	882.5
360.483	882.5
360.709	892.5
360.936	889.5
361.163	889.5
361.39	883.5
361.616	866.5
361.843	892.5
362.07	902.5
362.296	884.5
362.523	883.5
362.749	875.5
362.976	888.5
363.203	896.5
363.429	902.5
363.656	899.5
363.882	900.5
364.109	915.5
364.335	861.5
364.562	888.5
364.788	906.5
365.015	920.5
365.241	890.5
365.468	901.5
365.694	873.5
365.92	878.5
366.147	868.5
366.373	899.5
366.599	883.5
366.826	900.5
367.052	888.5
367.278	899.5
367.505	915.5
367.731	890.5
367.957	878.5
368.184	935.5
368.41	937.5
368.636	943.5
368.862	933.5
369.089	938.5
369.315	928.5
369.541	942.5
369.767	964.5
369.993	929.5
370.219	933.5
370.445	954.5
370.672	952.5
370.898	948.5
371.124	977.5
371.35	989.5
371.576	943.5
371.802	950.5
372.028	984.5
372.254	979.5
372.48	980.5
372.706	973.5
372.932	978.5
373.158	1010.5
373.384	1009.5
373.61	1032.5
373.835	1007.5
374.061	976.5
374.287	972.5
374.513	1009.5
374.739	1042.5
374.965	1039.5
375.191	1062.5
375.416	1030.5
375.642	1019.5
375.868	1024.5
376.094	1029.5
376.319	978.5
376.545	992.5
376.771	979.5
376.997	1001.5
377.222	979.5
377.448	985.5
377.674	976.5
377.899	984.5
378.125	978.5
378.35	971.5
378.576	979.5
378.802	981.5
379.027	997.5
379.253	980.5
379.478	976.5
379.704	973.5
379.929	977.5
380.155	977.5
380.38	945.5
380.606	988.5
380.831	999.5
381.057	978.5
381.282	969.5
381.507	1004.5
381.733	989.5
381.958	1044.5
382.184	1044.5
382.409	1046.5
382.634	1037.5
382.86	1058.5
383.085	1049.5
383.31	1048.5
383.535	1069.5
383.761	1060.5
383.986	1056.5
384.211	1058.5
384.436	1082.5
384.662	1123.5
384.887	1092.5
385.112	1087.5
385.337	1076.5
385.562	1102.5
385.787	1129.5
386.013	1150.5
386.238	1097.5
386.463	1147.5
386.688	1148.5
386.913	1150.5
387.138	1141.5
387.363	1140.5
387.588	1179.5
387.813	1164.5
388.038	1146.5
388.263	1151.5
388.488	1150.5
388.713	1174.5
388.938	1202.5
389.163	1156.5
389.387	1184.5
389.612	1156.5
389.837	1159.5
390.062	1167.5
390.287	1163.5
390.512	1168.5
390.736	1182.5
390.961	1178.5
391.186	1189.5
391.411	1224.5
391.636	1210.5
391.86	1234.5
392.085	1262.5
392.31	1240.5
392.534	1211.5
392.759	1234.5
392.984	1227.5
393.208	1247.5
393.433	1202.5
393.658	1209.5
393.882	1199.5
394.107	1217.5
394.331	1214.5
394.556	1251.5
394.78	1243.5
395.005	1244.5
395.229	1250.5
395.454	1286.5
395.678	1277.5
395.903	1249.5
396.127	1268.5
396.352	1249.5
396.576	1278.5
396.801	1272.5
397.025	1290.5
397.249	1285.5
397.474	1315.5
397.698	1312.5
397.922	1331.5
398.147	1321.5
398.371	1344.5
398.595	1385.5
398.82	1404.5
399.044	1442.5
399.268	1448.5
399.492	1560.5
399.717	1615.5
399.941	1696.5
400.165	1608.5
400.389	1595.5
400.613	1522.5
400.837	1510.5
401.062	1447.5
401.286	1424.5
401.51	1387.5
401.734	1418.5
401.958	1416.5
402.182	1400.5
402.406	1408.5
402.63	1387.5
402.854	1386.5
403.078	1434.5
403.302	1387.5
403.526	1385.5
403.75	1426.5
403.974	1436.5
404.198	1425.5
404.422	1455.5
404.645	1444.5
404.869	1440.5
405.093	1446.5
405.317	1473.5
405.541	1466.5
405.765	1486.5
405.988	1460.5
406.212	1499.5
406.436	1539.5
406.66	1540.5
406.883	1535.5
407.107	1572.5
407.331	1657.5
407.555	1674.5
407.778	1643.5
408.002	1632.5
408.226	1619.5
408.449	1611.5
408.673	1606.5
408.896	1566.5
409.12	1534.5
409.344	1571.5
409.567	1536.5
409.791	1549.5
410.014	1516.5
410.238	1502.5
410.461	1535.5
410.685	1513.5
410.908	1524.5
411.132	1459.5
411.355	1441.5
411.578	1459.5
411.802	1494.5
412.025	1512.5
412.249	1473.5
412.472	1501.5
412.695	1462.5
412.919	1443.5
413.142	1442.5
413.365	1437.5
413.589	1475.5
413.812	1443.5
414.035	1446.5
414.258	1430.5
414.482	1439.5
414.705	1420.5
414.928	1418.5
415.151	1445.5
415.374	1391.5
415.597	1364.5
415.821	1394.5
416.044	1361.5
416.267	1361.5
416.49	1387.5
416.713	1395.5
416.936	1385.5
417.159	1342.5
417.382	1362.5
417.605	1347.5
417.828	1362.5
418.051	1385.5
418.274	1357.5
418.497	1348.5
418.72	1396.5
418.943	1350.5
419.166	1430.5
419.389	1532.5
419.611	1504.5
419.834	1458.5
420.057	1399.5
420.28	1376.5
420.503	1358.5
420.726	1332.5
420.948	1325.5
421.171	1302.5
421.394	1344.5
421.617	1350.5
421.839	1318.5
422.062	1321.5
422.285	1327.5
422.507	1364.5
422.73	1340.5
422.953	1340.5
423.175	1351.5
423.398	1380.5
423.621	1346.5
423.843	1365.5
424.066	1375.5
424.288	1354.5
424.511	1372.5
424.733	1384.5
424.956	1352.5
425.178	1332.5
425.401	1363.5
425.623	1346.5
425.846	1321.5
426.068	1292.5
426.291	1348.5
426.513	1326.5
426.735	1312.5
426.958	1320.5
427.18	1301.5
427.402	1319.5
427.625	1305.5
427.847	1241.5
428.069	1283.5
428.292	1319.5
428.514	1297.5
428.736	1271.5
428.958	1315.5
429.181	1264.5
429.403	1236.5
429.625	1269.5
429.847	1275.5
430.069	1296.5
430.292	1298.5
430.514	1248.5
430.736	1291.5
430.958	1272.5
431.18	1276.5
431.402	1292.5
431.624	1270.5
431.846	1279.5
432.068	1300.5
432.29	1338.5
432.512	1263.5
432.734	1330.5
432.956	1312.5
433.178	1307.5
433.4	1301.5
433.622	1335.5
433.844	1334.5
434.066	1300.5
434.287	1297.5
434.509	1339.5
434.731	1346.5
434.953	1320.5
435.175	1344.5
435.397	1354.5
435.618	1343.5
435.84	1316.5
436.062	1267.5
436.284	1278.5
436.505	1280.5
436.727	1290.5
436.949	1279.5
437.17	1291.5
437.392	1249.5
437.614	1220.5
437.835	1250.5
438.057	1264.5
438.278	1278.5
438.5	1271.5
438.721	1249.5
438.943	1300.5
439.165	1257.5
439.386	1259.5
439.608	1247.5
439.829	1271.5
440.05	1252.5
440.272	1240.5
440.493	1299.5
440.715	1319.5
440.936	1332.5
441.158	1330.5
441.379	1343.5
441.6	1335.5
441.822	1351.5
442.043	1362.5
442.264	1349.5
442.486	1325.5
442.707	1354.5
442.928	1337.5
443.149	1346.5
443.371	1330.5
443.592	1326.5
443.813	1368.5
444.034	1348.5
444.255	1340.5
444.476	1393.5
444.698	1412.5
444.919	1405.5
445.14	1530.5
445.361	1424.5
445.582	1390.5
445.803	1331.5
446.024	1317.5
446.245	1305.5
446.466	1316.5
446.687	1264.5
446.908	1314.5
447.129	1241.5
447.35	1254.5
447.571	1196.5
447.792	1211.5
448.013	1231.5
448.234	1233.5
448.455	1223.5
448.675	1173.5
448.896	1184.5
449.117	1185.5
449.338	1192.5
449.559	1184.5
449.779	1184.5
450	1175.5
450.221	1195.5
450.442	1146.5
450.662	1180.5
450.883	1186.5
451.104	1180.5
451.324	1164.5
451.545	1176.5
451.766	1161.5
451.986	1187.5
452.207	1146.5
452.428	1142.5
452.648	1168.5
452.869	1115.5
453.089	1140.5
453.31	1184.5
453.53	1115.5
453.751	1140.5
453.971	1139.5
454.192	1154.5
454.412	1112.5
454.633	1148.5
454.853	1134.5
455.073	1128.5
455.294	1144.5
455.514	1134.5
455.734	1107.5
455.955	1099.5
456.175	1128.5
456.395	1136.5
456.616	1117.5
456.836	1148.5
457.056	1117.5
457.276	1141.5
457.497	1162.5
457.717	1131.5
457.937	1149.5
458.157	1162.5
458.377	1173.5
458.598	1168.5
458.818	1181.5
459.038	1183.5
459.258	1236.5
459.478	1268.5
459.698	1242.5
459.918	1237.5
460.138	1319.5
460.358	1337.5
460.578	1323.5
460.798	1377.5
461.018	1383.5
461.238	1401.5
461.458	1398.5
461.678	1403.5
461.898	1421.5
462.118	1415.5
462.338	1466.5
462.558	1509.5
462.777	1490.5
462.997	1539.5
463.217	1566.5
463.437	1564.5
463.657	1542.5
463.876	1562.5
464.096	1495.5
464.316	1489.5
464.536	1529.5
464.755	1489.5
464.975	1464.5
465.195	1451.5
465.414	1418.5
465.634	1349.5
465.854	1314.5
466.073	1321.5
466.293	1299.5
466.512	1301.5
466.732	1283.5
466.951	1270.5
467.171	1255.5
467.391	1236.5
467.61	1225.5
467.829	1230.5
468.049	1210.5
468.268	1213.5
468.488	1194.5
468.707	1212.5
468.927	1238.5
469.146	1238.5
469.365	1211.5
469.585	1168.5
469.804	1236.5
470.023	1242.5
470.243	1269.5
470.462	1251.5
470.681	1257.5
470.901	1265.5
471.12	1236.5
471.339	1224.5
471.558	1254.5
471.777	1244.5
471.997	1249.5
472.216	1240.5
472.435	1227.5
472.654	1239.5
472.873	1232.5
473.092	1236.5
473.311	1216.5
473.53	1224.5
473.749	1229.5
473.968	1231.5
474.187	1239.5
474.406	1206.5
474.625	1250.5
474.844	1218.5
475.063	1249.5
475.282	1228.5
475.501	1215.5
475.72	1251.5
475.939	1278.5
476.158	1284.5
476.377	1286.5
476.596	1314.5
476.814	1371.5
477.033	1322.5
477.252	1329.5
477.471	1348.5
477.69	1366.5
477.908	1383.5
478.127	1453.5
478.346	1375.5
478.564	1394.5
478.783	1424.5
479.002	1437.5
479.22	1472.5
479.439	1515.5
479.658	1495.5
479.876	1463.5
480.095	1492.5
480.313	1511.5
480.532	1473.5
480.751	1491.5
480.969	1451.5
481.188	1538.5
481.406	1507.5
481.624	1475.5
481.843	1447.5
482.061	1468.5
482.28	1464.5
482.498	1487.5
482.717	1463.5
482.935	1461.5
483.153	1500.5
483.372	1426.5
483.59	1483.5
483.808	1433.5
484.027	1466.5
484.245	1480.5
484.463	1450.5
484.681	1479.5
484.9	1464.5
485.118	1501.5
485.336	1475.5
485.554	1483.5
485.772	1472.5
485.99	1463.5
486.209	1503.5
486.427	1496.5
486.645	1487.5
486.863	1507.5
487.081	1529.5
487.299	1501.5
487.517	1498.5
487.735	1493.5
487.953	1503.5
488.171	1492.5
488.389	1512.5
488.607	1536.5
488.825	1489.5
489.043	1518.5
489.261	1468.5
489.479	1479.5
489.696	1483.5
489.914	1482.5
490.132	1503.5
490.35	1518.5
490.568	1505.5
490.786	1524.5
491.003	1472.5
491.221	1532.5
491.439	1500.5
491.657	1511.5
491.874	1519.5
492.092	1580.5
492.31	1501.5
492.527	1560.5
492.745	1522.5
492.963	1527.5
493.18	1571.5
493.398	1555.5
493.615	1557.5
493.833	1533.5
494.05	1548.5
494.268	1602.5
494.485	1555.5
494.703	1589.5
494.92	1565.5
495.138	1601.5
495.355	1582.5
495.573	1650.5
495.79	1595.5
496.008	1644.5
496.225	1658.5
496.442	1666.5
496.66	1697.5
496.877	1702.5
497.094	1698.5
497.312	1730.5
497.529	1754.5
497.746	1760.5
497.963	1786.5
498.181	1848.5
498.398	1928.5
498.615	1984.5
498.832	2066.5
499.049	2153.5
499.267	2209.5
499.484	2302.5
499.701	2420.5
499.918	2467.5
500.135	2640.5
500.352	2696.5
500.569	2726.5
500.786	2792.5
501.003	2709.5
501.22	2587.5
501.437	2517.5
501.654	2372.5
501.871	2302.5
502.088	2206.5
502.305	2118.5
502.522	2063.5
502.739	1985.5
502.956	1883.5
503.172	1879.5
503.389	1810.5
503.606	1790.5
503.823	1741.5
504.04	1686.5
504.256	1646.5
504.473	1665.5
504.69	1652.5
504.907	1629.5
505.123	1639.5
505.34	1601.5
505.557	1542.5
505.773	1512.5
505.99	1530.5
506.207	1476.5
506.423	1440.5
506.64	1430.5
506.856	1381.5
507.073	1390.5
507.289	1375.5
507.506	1390.5
507.722	1360.5
507.939	1368.5
508.155	1341.5
508.372	1337.5
508.588	1339.5
508.805	1337.5
509.021	1334.5
509.238	1313.5
509.454	1284.5
509.67	1242.5
509.887	1254.5
510.103	1275.5
510.319	1247.5
510.536	1270.5
510.752	1241.5
510.968	1282.5
511.184	1241.5
511.401	1232.5
511.617	1250.5
511.833	1238.5
512.049	1212.5
512.265	1208.5
512.481	1225.5
512.698	1264.5
512.914	1264.5
513.13	1254.5
513.346	1227.5
513.562	1228.5
513.778	1249.5
513.994	1237.5
514.21	1265.5
514.426	1266.5
514.642	1243.5
514.858	1284.5
515.074	1280.5
515.29	1272.5
515.506	1257.5
515.721	1294.5
515.937	1324.5
516.153	1305.5
516.369	1310.5
516.585	1348.5
516.801	1367.5
517.016	1395.5
517.232	1409.5
517.448	1435.5
517.664	1430.5
517.879	1434.5
518.095	1419.5
518.311	1422.5
518.527	1410.5
518.742	1344.5
518.958	1339.5
519.173	1308.5
519.389	1270.5
519.605	1285.5
519.82	1309.5
520.036	1311.5
520.251	1295.5
520.467	1306.5
520.682	1222.5
520.898	1238.5
521.113	1205.5
521.329	1226.5
521.544	1208.5
521.76	1227.5
521.975	1181.5
522.19	1169.5
522.406	1176.5
522.621	1174.5
522.836	1179.5
523.052	1192.5
523.267	1152.5
523.482	1149.5
523.698	1129.5
523.913	1135.5
524.128	1139.5
524.343	1120.5
524.559	1126.5
524.774	1123.5
524.989	1113.5
525.204	1106.5
525.419	1157.5
525.634	1083.5
525.849	1127.5
526.064	1114.5
526.28	1082.5
526.495	1104.5
526.71	1112.5
526.925	1074.5
527.14	1092.5
527.355	1097.5
527.57	1104.5
527.785	1089.5
527.999	1067.5
528.214	1084.5
528.429	1110.5
528.644	1090.5
528.859	1126.5
529.074	1078.5
529.289	1078.5
529.503	1083.5
529.718	1092.5
529.933	1092.5
530.148	1075.5
530.363	1072.5
530.577	1065.5
530.792	1044.5
531.007	1068.5
531.221	1047.5
531.436	1074.5
531.651	1067.5
531.865	1049.5
532.08	1035.5
532.295	1058.5
532.509	1039.5
532.724	1061.5
532.938	1056.5
533.153	1075.5
533.367	1045.5
533.582	1026.5
533.796	1034.5
534.011	1067.5
534.225	1056.5
534.44	1043.5
534.654	1030.5
534.868	1018.5
535.083	1044.5
535.297	1026.5
535.511	1008.5
535.726	1040.5
535.94	1011.5
536.154	1029.5
536.369	1000.5
536.583	999.5
536.797	970.5
537.011	978.5
537.225	985.5
537.44	995.5
537.654	998.5
537.868	976.5
538.082	951.5
538.296	990.5
538.51	978.5
538.724	986.5
538.938	980.5
539.153	950.5
539.367	975.5
539.581	964.5
539.795	984.5
540.009	968.5
540.222	964.5
540.436	925.5
540.65	948.5
540.864	950.5
541.078	953.5
541.292	944.5
541.506	975.5
541.72	966.5
541.934	961.5
542.147	961.5
542.361	939.5
542.575	962.5
542.789	954.5
543.002	938.5
543.216	950.5
543.43	939.5
543.644	950.5
543.857	943.5
544.071	952.5
544.285	962.5
544.498	948.5
544.712	947.5
544.925	946.5
545.139	940.5
545.352	937.5
545.566	975.5
545.779	963.5
545.993	974.5
546.206	954.5
546.42	945.5
546.633	922.5
546.847	953.5
547.06	944.5
547.274	967.5
547.487	970.5
547.7	936.5
547.914	958.5
548.127	937.5
548.34	955.5
548.554	938.5
548.767	966.5
548.98	967.5
549.193	980.5
549.407	956.5
549.62	952.5
549.833	1004.5
550.046	975.5
550.259	954.5
550.473	993.5
550.686	958.5
550.899	989.5
551.112	940.5
551.325	966.5
551.538	936.5
551.751	950.5
551.964	923.5
552.177	949.5
552.39	951.5
552.603	975.5
552.816	938.5
553.029	958.5
553.242	967.5
553.455	951.5
553.667	963.5
553.88	939.5
554.093	963.5
554.306	938.5
554.519	947.5
554.732	917.5
554.944	932.5
555.157	899.5
555.37	868.5
555.583	836.5
555.795	883.5
556.008	856.5
556.221	880.5
556.433	875.5
556.646	848.5
556.859	833.5
557.071	860.5
557.284	825.5
557.496	818.5
557.709	816.5
557.921	815.5
558.134	829.5
558.346	803.5
558.559	820.5
558.771	799.5
558.984	830.5
559.196	816.5
559.409	817.5
559.621	792.5
559.833	804.5
560.046	812.5
560.258	803.5
560.47	786.5
560.683	802.5
560.895	813.5
561.107	803.5
561.32	777.5
561.532	822.5
561.744	800.5
561.956	794.5
562.168	810.5
562.381	799.5
562.593	810.5
562.805	792.5
563.017	795.5
563.229	805.5
563.441	805.5
563.653	816.5
563.865	847.5
564.077	828.5
564.289	821.5
564.501	858.5
564.713	845.5
564.925	862.5
565.137	866.5
565.349	888.5
565.561	880.5
565.773	901.5
565.985	902.5
566.197	941.5
566.408	945.5
566.62	968.5
566.832	985.5
567.044	1013.5
567.255	1036.5
567.467	1022.5
567.679	1054.5
567.891	1036.5
568.102	1020.5
568.314	1023.5
568.526	990.5
568.737	953.5
568.949	938.5
569.161	898.5
569.372	874.5
569.584	860.5
569.795	832.5
570.007	815.5
570.218	791.5
570.43	778.5
570.641	796.5
570.853	776.5
571.064	762.5
571.276	773.5
571.487	736.5
571.698	722.5
571.91	721.5
572.121	696.5
572.333	710.5
572.544	724.5
572.755	676.5
572.966	675.5
573.178	679.5
573.389	666.5
573.6	665.5
573.811	663.5
574.023	644.5
574.234	641.5
574.445	659.5
574.656	667.5
574.867	642.5
575.078	662.5
575.289	644.5
575.501	650.5
575.712	623.5
575.923	626.5
576.134	629.5
576.345	613.5
576.556	626.5
576.767	614.5
576.978	605.5
577.188	601.5
577.399	593.5
577.61	594.5
577.821	574.5
578.032	593.5
578.243	621.5
578.454	581.5
578.665	569.5
578.875	574.5
579.086	556.5
579.297	577.5
579.508	568.5
579.718	581.5
579.929	571.5
580.14	577.5
580.35	550.5
580.561	549.5
580.772	569.5
580.982	558.5
581.193	552.5
581.403	556.5
581.614	569.5
581.825	546.5
582.035	526.5
582.246	532.5
582.456	553.5
582.667	553.5
582.877	569.5
583.087	527.5
583.298	551.5
583.508	547.5
583.719	541.5
583.929	548.5
584.139	535.5
584.35	521.5
584.56	532.5
584.77	537.5
584.981	544.5
585.191	531.5
585.401	518.5
585.611	532.5
585.821	548.5
586.032	520.5
586.242	532.5
586.452	534.5
586.662	525.5
586.872	523.5
587.082	536.5
587.292	534.5
587.502	530.5
587.713	536.5
587.923	510.5
588.133	504.5
588.343	520.5
588.553	517.5
588.762	520.5
588.972	519.5
589.182	542.5
589.392	549.5
589.602	519.5
589.812	517.5
590.022	513.5
590.232	522.5
590.441	522.5
590.651	517.5
590.861	517.5
591.071	519.5
591.281	527.5
591.49	545.5
591.7	532.5
591.91	525.5
592.119	504.5
592.329	541.5
592.539	550.5
592.748	566.5
592.958	564.5
593.167	543.5
593.377	536.5
593.587	553.5
593.796	564.5
594.006	555.5
594.215	554.5
594.424	534.5
594.634	544.5
594.843	544.5
595.053	521.5
595.262	532.5
595.472	506.5
595.681	486.5
595.89	508.5
596.1	465.5
596.309	471.5
596.518	462.5
596.727	478.5
596.937	480.5
597.146	499.5
597.355	480.5
597.564	487.5
597.774	471.5
597.983	456.5
598.192	462.5
598.401	462.5
598.61	459.5
598.819	446.5
599.028	443.5
599.237	447.5
599.446	436.5
599.655	424.5
599.864	442.5
600.073	446.5
600.282	445.5
600.491	451.5
600.7	418.5
600.909	443.5
601.118	418.5
601.327	424.5
601.536	433.5
601.745	427.5
601.953	414.5
602.162	425.5
602.371	420.5
602.58	417.5
602.789	396.5
602.997	404.5
603.206	427.5
603.415	401.5
603.623	425.5
603.832	421.5
604.041	396.5
604.249	406.5
604.458	395.5
604.666	402.5
604.875	399.5
605.084	392.5
605.292	395.5
605.501	390.5
605.709	412.5
605.918	407.5
606.126	394.5
606.334	386.5
606.543	395.5
606.751	400.5
606.96	410.5
607.168	375.5
607.376	391.5
607.585	393.5
607.793	397.5
608.001	394.5
608.21	380.5
608.418	389.5
608.626	406.5
608.834	388.5
609.043	392.5
609.251	391.5
609.459	380.5
609.667	391.5
609.875	368.5
610.083	360.5
610.291	386.5
610.499	406.5
610.707	401.5
610.916	376.5
611.124	385.5
611.332	372.5
611.54	366.5
611.748	368.5
611.955	371.5
612.163	343.5
612.371	363.5
612.579	359.5
612.787	374.5
612.995	363.5
613.203	373.5
613.411	371.5
613.618	374.5
613.826	356.5
614.034	370.5
614.242	364.5
614.449	363.5
614.657	375.5
614.865	348.5
615.072	354.5
615.28	347.5
615.488	366.5
615.695	369.5
615.903	352.5
616.111	366.5
616.318	362.5
616.526	366.5
616.733	366.5
616.941	358.5
617.148	340.5
617.356	353.5
617.563	362.5
617.771	376.5
617.978	351.5
618.185	339.5
618.393	365.5
618.6	337.5
618.807	332.5
619.015	332.5
619.222	341.5
619.429	359.5
619.637	356.5
619.844	355.5
620.051	338.5
620.258	328.5
620.466	323.5
620.673	330.5
620.88	338.5
621.087	335.5
621.294	329.5
621.501	338.5
621.708	340.5
621.915	342.5
622.122	338.5
622.329	344.5
622.536	333.5
622.743	332.5
622.95	349.5
623.157	330.5
623.364	310.5
623.571	322.5
623.778	341.5
623.985	343.5
624.192	332.5
624.399	331.5
624.606	337.5
624.812	323.5
625.019	321.5
625.226	317.5
625.433	312.5
625.639	324.5
625.846	311.5
626.053	312.5
626.259	303.5
626.466	302.5
626.673	326.5
626.879	310.5
627.086	319.5
627.293	320.5
627.499	319.5
627.706	292.5
627.912	316.5
628.119	298.5
628.325	287.5
628.532	289.5
628.738	290.5
628.945	310.5
629.151	293.5
629.357	293.5
629.564	293.5
629.77	300.5
629.976	289.5
630.183	294.5
630.389	294.5
630.595	281.5
630.802	283.5
631.008	292.5
631.214	281.5
631.42	297.5
631.627	274.5
631.833	283.5
632.039	297.5
632.245	298.5
632.451	288.5
632.657	274.5
632.863	286.5
633.069	282.5
633.275	253.5
633.481	285.5
633.688	272.5
633.893	272.5
634.099	272.5
634.305	261.5
634.511	289.5
634.717	286.5
634.923	255.5
635.129	278.5
635.335	268.5
635.541	269.5
635.747	275.5
635.952	266.5
636.158	268.5
636.364	271.5
636.57	250.5
636.775	256.5
636.981	281.5
637.187	291.5
637.392	278.5
637.598	272.5
637.804	280.5
638.009	271.5
638.215	240.5
638.421	278.5
638.626	272.5
638.832	271.5
639.037	262.5
639.243	250.5
639.448	266.5
639.654	255.5
639.859	249.5
640.065	247.5
640.27	255.5
640.475	241.5
640.681	234.5
640.886	261.5
641.091	242.5
641.297	249.5
641.502	260.5
641.707	263.5
641.913	254.5
642.118	251.5
642.323	244.5
642.528	257.5
642.733	253.5
642.939	236.5
643.144	252.5
643.349	233.5
643.554	251.5
643.759	262.5
643.964	254.5
644.169	253.5
644.374	258.5
644.579	238.5
644.784	244.5
644.989	244.5
645.194	245.5
645.399	244.5
645.604	258.5
645.809	265.5
646.014	264.5
646.219	242.5
646.423	244.5
646.628	259.5
646.833	254.5
647.038	253.5
647.243	264.5
647.447	259.5
647.652	257.5
647.857	258.5
648.062	266.5
648.266	270.5
648.471	252.5
648.676	262.5
648.88	251.5
649.085	264.5
649.289	266.5
649.494	259.5
649.698	250.5
649.903	258.5
650.107	235.5
650.312	246.5
650.516	242.5
650.721	248.5
650.925	256.5
651.13	239.5
651.334	241.5
651.539	246.5
651.743	233.5
651.947	232.5
652.152	244.5
652.356	252.5
652.56	236.5
652.764	242.5
652.969	217.5
653.173	235.5
653.377	229.5
653.581	243.5
653.785	222.5
653.99	250.5
654.194	213.5
654.398	238.5
654.602	236.5
654.806	218.5
655.01	240.5
655.214	223.5
655.418	230.5
655.622	216.5
655.826	215.5
656.03	235.5
656.234	242.5
656.438	221.5
656.642	227.5
656.846	224.5
657.049	215.5
657.253	196.5
657.457	202.5
657.661	177.5
657.865	180.5
658.068	171.5
658.272	190.5
658.476	171.5
658.68	152.5
658.883	150.5
659.087	128.5
659.291	135.5
659.494	132.5
659.698	130.5
659.901	122.5
660.105	122.5
660.309	117.5
660.512	99.5
660.716	115.5
660.919	115.5
661.123	97.5
661.326	105.5
661.53	109.5
661.733	103.5
661.936	97.5
662.14	92.5
662.343	95.5
662.546	75.5
662.75	92.5
662.953	75.5
663.156	74.5
663.36	87.5
663.563	81.5
663.766	71.5
663.969	73.5
664.173	70.5
664.376	82.5
664.579	100.5
664.782	82.5
664.985	71.5
665.188	81.5
665.391	77.5
665.594	82.5
665.797	88.5
666	82.5
666.203	76.5
666.406	75.5
666.609	85.5
666.812	84.5
667.015	95.5
667.218	93.5
667.421	94.5
667.624	95.5
667.827	72.5
668.03	80.5
668.232	76.5
668.435	75.5
668.638	85.5
668.841	80.5
669.043	68.5
669.246	95.5
669.449	81.5
669.651	77.5
669.854	69.5
670.057	77.5
670.259	78.5
670.462	91.5
670.665	82.5
670.867	87.5
671.07	78.5
671.272	82.5
671.475	93.5
671.677	84.5
671.88	81.5
672.082	78.5
672.284	89.5
672.487	80.5
672.689	89.5
672.892	85.5
