Data from Fe(NO3)3@0.05M.TitratingCurve.Agarose3%dH2O.NegLispCup.LampEnergy10.LIBS07252019_HRD10591_16-48-07-333.txt Node
Date: Thu Jul 25 16:48:07 EDT 2019
User: cochatt
Spectrometer: HR+D1059
Trigger mode: 1
Integration Time (sec): 1.000000E-1
Scans to average: 1
Electric dark correction enabled: true
Nonlinearity correction enabled: false
Boxcar width: 0
XAxis mode: Wavelengths
Number of Pixels in Spectrum: 2048
>>>>>Begin Spectral Data<<<<<
223.165	-20.94
223.4	-20.94
223.635	-20.94
223.869	-13.94
224.104	-14.94
224.338	-24.94
224.573	-15.94
224.808	-1.94
225.042	-14.94
225.277	-8.94
225.511	2.06
225.746	1.06
225.98	12.06
226.215	7.06
226.449	16.06
226.683	10.06
226.918	30.06
227.152	38.06
227.387	37.06
227.621	46.06
227.856	38.06
228.09	41.06
228.324	54.06
228.559	70.06
228.793	58.06
229.027	72.06
229.262	95.06
229.496	80.06
229.73	82.06
229.964	92.06
230.199	87.06
230.433	104.06
230.667	107.06
230.901	119.06
231.136	106.06
231.37	107.06
231.604	93.06
231.838	98.06
232.072	107.06
232.306	117.06
232.541	98.06
232.775	113.06
233.009	103.06
233.243	111.06
233.477	117.06
233.711	116.06
233.945	95.06
234.179	109.06
234.413	116.06
234.647	118.06
234.881	103.06
235.115	128.06
235.349	120.06
235.583	113.06
235.817	118.06
236.051	107.06
236.285	102.06
236.519	109.06
236.753	118.06
236.987	114.06
237.221	116.06
237.455	102.06
237.689	113.06
237.922	118.06
238.156	122.06
238.39	127.06
238.624	126.06
238.858	123.06
239.091	115.06
239.325	121.06
239.559	127.06
239.793	121.06
240.027	133.06
240.26	128.06
240.494	139.06
240.728	130.06
240.961	121.06
241.195	107.06
241.429	133.06
241.662	129.06
241.896	126.06
242.13	122.06
242.363	129.06
242.597	138.06
242.83	119.06
243.064	126.06
243.298	136.06
243.531	118.06
243.765	127.06
243.998	142.06
244.232	140.06
244.465	133.06
244.699	143.06
244.932	132.06
245.166	134.06
245.399	140.06
245.633	145.06
245.866	136.06
246.099	133.06
246.333	141.06
246.566	135.06
246.8	123.06
247.033	134.06
247.266	143.06
247.5	131.06
247.733	156.06
247.966	150.06
248.2	150.06
248.433	148.06
248.666	142.06
248.899	150.06
249.133	160.06
249.366	168.06
249.599	153.06
249.832	146.06
250.066	146.06
250.299	142.06
250.532	140.06
250.765	158.06
250.998	148.06
251.231	167.06
251.465	163.06
251.698	158.06
251.931	146.06
252.164	163.06
252.397	169.06
252.63	158.06
252.863	171.06
253.096	177.06
253.329	158.06
253.562	152.06
253.795	152.06
254.028	176.06
254.261	166.06
254.494	181.06
254.727	163.06
254.96	172.06
255.193	156.06
255.426	182.06
255.659	164.06
255.892	163.06
256.124	165.06
256.357	182.06
256.59	159.06
256.823	174.06
257.056	180.06
257.289	154.06
257.521	184.06
257.754	182.06
257.987	179.06
258.22	184.06
258.452	170.06
258.685	178.06
258.918	170.06
259.151	180.06
259.383	178.06
259.616	168.06
259.849	182.06
260.081	198.06
260.314	204.06
260.547	175.06
260.779	178.06
261.012	204.06
261.244	187.06
261.477	198.06
261.71	198.06
261.942	202.06
262.175	183.06
262.407	176.06
262.64	206.06
262.872	195.06
263.105	191.06
263.337	189.06
263.57	203.06
263.802	203.06
264.035	195.06
264.267	191.06
264.499	201.06
264.732	184.06
264.964	181.06
265.197	209.06
265.429	210.06
265.661	194.06
265.894	201.06
266.126	200.06
266.358	198.06
266.591	204.06
266.823	197.06
267.055	200.06
267.287	196.06
267.52	201.06
267.752	194.06
267.984	202.06
268.216	198.06
268.448	213.06
268.681	203.06
268.913	214.06
269.145	212.06
269.377	203.06
269.609	210.06
269.841	212.06
270.073	214.06
270.306	217.06
270.538	209.06
270.77	214.06
271.002	215.06
271.234	210.06
271.466	212.06
271.698	230.06
271.93	240.06
272.162	234.06
272.394	219.06
272.626	223.06
272.858	228.06
273.09	226.06
273.322	219.06
273.553	229.06
273.785	213.06
274.017	230.06
274.249	223.06
274.481	235.06
274.713	238.06
274.945	222.06
275.176	237.06
275.408	242.06
275.64	228.06
275.872	252.06
276.104	230.06
276.335	223.06
276.567	232.06
276.799	236.06
277.031	247.06
277.262	237.06
277.494	241.06
277.726	236.06
277.957	243.06
278.189	236.06
278.421	239.06
278.652	250.06
278.884	230.06
279.115	258.06
279.347	242.06
279.579	252.06
279.81	240.06
280.042	240.06
280.273	261.06
280.505	250.06
280.736	251.06
280.968	256.06
281.199	234.06
281.431	239.06
281.662	250.06
281.894	254.06
282.125	245.06
282.356	250.06
282.588	255.06
282.819	264.06
283.051	261.06
283.282	252.06
283.513	278.06
283.745	252.06
283.976	250.06
284.207	250.06
284.439	263.06
284.67	267.06
284.901	250.06
285.132	257.06
285.364	274.06
285.595	259.06
285.826	268.06
286.057	262.06
286.288	282.06
286.52	262.06
286.751	278.06
286.982	278.06
287.213	268.06
287.444	291.06
287.675	279.06
287.906	279.06
288.138	270.06
288.369	286.06
288.6	284.06
288.831	276.06
289.062	289.06
289.293	294.06
289.524	284.06
289.755	248.06
289.986	265.06
290.217	288.06
290.448	287.06
290.679	268.06
290.91	268.06
291.141	275.06
291.371	289.06
291.602	288.06
291.833	281.06
292.064	266.06
292.295	279.06
292.526	302.06
292.757	278.06
292.987	271.06
293.218	293.06
293.449	281.06
293.68	266.06
293.91	281.06
294.141	282.06
294.372	293.06
294.603	286.06
294.833	279.06
295.064	278.06
295.295	287.06
295.525	281.06
295.756	285.06
295.987	286.06
296.217	286.06
296.448	283.06
296.679	290.06
296.909	294.06
297.14	303.06
297.37	291.06
297.601	306.06
297.831	286.06
298.062	307.06
298.292	304.06
298.523	305.06
298.753	305.06
298.984	318.06
299.214	293.06
299.445	303.06
299.675	306.06
299.905	312.06
300.136	303.06
300.366	293.06
300.597	294.06
300.827	302.06
301.057	315.06
301.288	314.06
301.518	316.06
301.748	320.06
301.979	310.06
302.209	326.06
302.439	322.06
302.669	312.06
302.9	309.06
303.13	309.06
303.36	313.06
303.59	304.06
303.82	308.06
304.051	311.06
304.281	319.06
304.511	318.06
304.741	342.06
304.971	316.06
305.201	318.06
305.431	293.06
305.661	315.06
305.891	317.06
306.121	314.06
306.352	304.06
306.582	313.06
306.812	308.06
307.042	308.06
307.272	317.06
307.502	308.06
307.731	311.06
307.961	318.06
308.191	307.06
308.421	290.06
308.651	318.06
308.881	321.06
309.111	315.06
309.341	316.06
309.571	319.06
309.8	318.06
310.03	327.06
310.26	318.06
310.49	315.06
310.72	326.06
310.949	304.06
311.179	330.06
311.409	314.06
311.639	306.06
311.868	319.06
312.098	318.06
312.328	345.06
312.557	343.06
312.787	335.06
313.017	312.06
313.246	331.06
313.476	343.06
313.706	331.06
313.935	343.06
314.165	343.06
314.394	345.06
314.624	319.06
314.853	340.06
315.083	335.06
315.312	329.06
315.542	338.06
315.771	327.06
316.001	346.06
316.23	336.06
316.46	335.06
316.689	313.06
316.919	319.06
317.148	318.06
317.377	339.06
317.607	327.06
317.836	321.06
318.065	340.06
318.295	343.06
318.524	329.06
318.753	344.06
318.983	352.06
319.212	327.06
319.441	327.06
319.67	342.06
319.9	343.06
320.129	354.06
320.358	320.06
320.587	325.06
320.816	337.06
321.046	343.06
321.275	341.06
321.504	339.06
321.733	333.06
321.962	340.06
322.191	341.06
322.42	360.06
322.649	354.06
322.878	334.06
323.108	336.06
323.337	356.06
323.566	351.06
323.795	338.06
324.024	356.06
324.253	353.06
324.482	359.06
324.71	349.06
324.939	361.06
325.168	368.06
325.397	350.06
325.626	352.06
325.855	360.06
326.084	368.06
326.313	376.06
326.542	368.06
326.77	366.06
326.999	354.06
327.228	356.06
327.457	352.06
327.686	362.06
327.914	375.06
328.143	374.06
328.372	369.06
328.6	361.06
328.829	366.06
329.058	376.06
329.287	366.06
329.515	355.06
329.744	365.06
329.972	392.06
330.201	370.06
330.43	374.06
330.658	375.06
330.887	383.06
331.115	380.06
331.344	384.06
331.572	387.06
331.801	394.06
332.03	410.06
332.258	401.06
332.486	412.06
332.715	424.06
332.943	427.06
333.172	455.06
333.4	460.06
333.629	468.06
333.857	463.06
334.085	462.06
334.314	454.06
334.542	458.06
334.771	477.06
334.999	446.06
335.227	427.06
335.455	465.06
335.684	439.06
335.912	422.06
336.14	406.06
336.369	428.06
336.597	453.06
336.825	419.06
337.053	464.06
337.281	442.06
337.51	410.06
337.738	401.06
337.966	415.06
338.194	395.06
338.422	415.06
338.65	385.06
338.878	378.06
339.106	384.06
339.334	399.06
339.562	401.06
339.79	374.06
340.018	378.06
340.246	384.06
340.474	381.06
340.702	376.06
340.93	376.06
341.158	375.06
341.386	378.06
341.614	398.06
341.842	390.06
342.07	374.06
342.298	395.06
342.526	382.06
342.754	380.06
342.981	376.06
343.209	379.06
343.437	414.06
343.665	440.06
343.893	464.06
344.12	453.06
344.348	436.06
344.576	411.06
344.804	401.06
345.031	394.06
345.259	399.06
345.487	395.06
345.714	392.06
345.942	376.06
346.17	382.06
346.397	380.06
346.625	368.06
346.853	359.06
347.08	366.06
347.308	355.06
347.535	378.06
347.763	374.06
347.99	380.06
348.218	371.06
348.445	376.06
348.673	375.06
348.9	359.06
349.128	377.06
349.355	382.06
349.583	384.06
349.81	372.06
350.037	359.06
350.265	353.06
350.492	350.06
350.72	357.06
350.947	350.06
351.174	371.06
351.402	337.06
351.629	360.06
351.856	368.06
352.083	352.06
352.311	370.06
352.538	373.06
352.765	339.06
352.992	359.06
353.22	338.06
353.447	358.06
353.674	345.06
353.901	362.06
354.128	354.06
354.355	357.06
354.583	360.06
354.81	363.06
355.037	349.06
355.264	370.06
355.491	339.06
355.718	359.06
355.945	376.06
356.172	369.06
356.399	376.06
356.626	342.06
356.853	352.06
357.08	380.06
357.307	378.06
357.534	356.06
357.761	371.06
357.988	358.06
358.215	370.06
358.441	366.06
358.668	374.06
358.895	355.06
359.122	355.06
359.349	356.06
359.576	363.06
359.802	353.06
360.029	353.06
360.256	376.06
360.483	362.06
360.709	373.06
360.936	390.06
361.163	344.06
361.39	366.06
361.616	379.06
361.843	360.06
362.07	355.06
362.296	358.06
362.523	373.06
362.749	354.06
362.976	362.06
363.203	378.06
363.429	382.06
363.656	392.06
363.882	374.06
364.109	359.06
364.335	372.06
364.562	396.06
364.788	373.06
365.015	372.06
365.241	376.06
365.468	366.06
365.694	377.06
365.92	354.06
366.147	364.06
366.373	370.06
366.599	374.06
366.826	356.06
367.052	362.06
367.278	351.06
367.505	385.06
367.731	374.06
367.957	373.06
368.184	354.06
368.41	384.06
368.636	377.06
368.862	393.06
369.089	378.06
369.315	391.06
369.541	399.06
369.767	378.06
369.993	377.06
370.219	363.06
370.445	382.06
370.672	389.06
370.898	402.06
371.124	393.06
371.35	398.06
371.576	418.06
371.802	412.06
372.028	408.06
372.254	393.06
372.48	407.06
372.706	407.06
372.932	417.06
373.158	418.06
373.384	424.06
373.61	389.06
373.835	405.06
374.061	401.06
374.287	405.06
374.513	418.06
374.739	420.06
374.965	443.06
375.191	443.06
375.416	432.06
375.642	444.06
375.868	411.06
376.094	410.06
376.319	420.06
376.545	401.06
376.771	394.06
376.997	395.06
377.222	411.06
377.448	415.06
377.674	391.06
377.899	419.06
378.125	400.06
378.35	399.06
378.576	406.06
378.802	418.06
379.027	400.06
379.253	391.06
379.478	385.06
379.704	407.06
379.929	408.06
380.155	382.06
380.38	405.06
380.606	402.06
380.831	394.06
381.057	423.06
381.282	399.06
381.507	427.06
381.733	422.06
381.958	412.06
382.184	411.06
382.409	416.06
382.634	430.06
382.86	428.06
383.085	432.06
383.31	427.06
383.535	442.06
383.761	431.06
383.986	437.06
384.211	456.06
384.436	451.06
384.662	473.06
384.887	470.06
385.112	485.06
385.337	473.06
385.562	490.06
385.787	497.06
386.013	518.06
386.238	491.06
386.463	500.06
386.688	487.06
386.913	482.06
387.138	491.06
387.363	490.06
387.588	473.06
387.813	483.06
388.038	486.06
388.263	469.06
388.488	461.06
388.713	481.06
388.938	474.06
389.163	470.06
389.387	455.06
389.612	475.06
389.837	472.06
390.062	469.06
390.287	483.06
390.512	506.06
390.736	495.06
390.961	506.06
391.186	506.06
391.411	498.06
391.636	518.06
391.86	553.06
392.085	530.06
392.31	538.06
392.534	539.06
392.759	531.06
392.984	510.06
393.208	508.06
393.433	512.06
393.658	516.06
393.882	499.06
394.107	510.06
394.331	522.06
394.556	529.06
394.78	536.06
395.005	535.06
395.229	543.06
395.454	538.06
395.678	557.06
395.903	566.06
396.127	556.06
396.352	545.06
396.576	507.06
396.801	534.06
397.025	537.06
397.249	533.06
397.474	541.06
397.698	547.06
397.922	554.06
398.147	547.06
398.371	547.06
398.595	583.06
398.82	597.06
399.044	624.06
399.268	681.06
399.492	790.06
399.717	852.06
399.941	840.06
400.165	759.06
400.389	708.06
400.613	652.06
400.837	616.06
401.062	638.06
401.286	584.06
401.51	603.06
401.734	620.06
401.958	634.06
402.182	617.06
402.406	603.06
402.63	616.06
402.854	663.06
403.078	633.06
403.302	663.06
403.526	660.06
403.75	681.06
403.974	692.06
404.198	675.06
404.422	663.06
404.645	676.06
404.869	658.06
405.093	658.06
405.317	660.06
405.541	673.06
405.765	653.06
405.988	652.06
406.212	636.06
406.436	667.06
406.66	669.06
406.883	683.06
407.107	704.06
407.331	747.06
407.555	787.06
407.778	776.06
408.002	751.06
408.226	711.06
408.449	722.06
408.673	710.06
408.896	703.06
409.12	691.06
409.344	693.06
409.567	665.06
409.791	663.06
410.014	672.06
410.238	700.06
410.461	680.06
410.685	658.06
410.908	659.06
411.132	652.06
411.355	624.06
411.578	637.06
411.802	625.06
412.025	659.06
412.249	651.06
412.472	632.06
412.695	631.06
412.919	629.06
413.142	596.06
413.365	620.06
413.589	622.06
413.812	612.06
414.035	610.06
414.258	615.06
414.482	601.06
414.705	634.06
414.928	634.06
415.151	629.06
415.374	608.06
415.597	604.06
415.821	624.06
416.044	608.06
416.267	589.06
416.49	605.06
416.713	604.06
416.936	606.06
417.159	608.06
417.382	610.06
417.605	617.06
417.828	584.06
418.051	609.06
418.274	585.06
418.497	604.06
418.72	588.06
418.943	614.06
419.166	627.06
419.389	674.06
419.611	656.06
419.834	648.06
420.057	631.06
420.28	598.06
420.503	622.06
420.726	624.06
420.948	606.06
421.171	614.06
421.394	601.06
421.617	605.06
421.839	632.06
422.062	621.06
422.285	609.06
422.507	624.06
422.73	616.06
422.953	620.06
423.175	632.06
423.398	662.06
423.621	646.06
423.843	656.06
424.066	640.06
424.288	645.06
424.511	634.06
424.733	650.06
424.956	621.06
425.178	604.06
425.401	631.06
425.623	628.06
425.846	593.06
426.068	594.06
426.291	594.06
426.513	581.06
426.735	568.06
426.958	572.06
427.18	570.06
427.402	581.06
427.625	578.06
427.847	569.06
428.069	579.06
428.292	548.06
428.514	548.06
428.736	556.06
428.958	565.06
429.181	525.06
429.403	558.06
429.625	546.06
429.847	564.06
430.069	531.06
430.292	552.06
430.514	549.06
430.736	533.06
430.958	554.06
431.18	546.06
431.402	548.06
431.624	543.06
431.846	555.06
432.068	544.06
432.29	547.06
432.512	533.06
432.734	562.06
432.956	562.06
433.178	564.06
433.4	569.06
433.622	576.06
433.844	549.06
434.066	572.06
434.287	568.06
434.509	577.06
434.731	606.06
434.953	611.06
435.175	615.06
435.397	613.06
435.618	576.06
435.84	569.06
436.062	560.06
436.284	569.06
436.505	570.06
436.727	572.06
436.949	565.06
437.17	560.06
437.392	546.06
437.614	545.06
437.835	552.06
438.057	524.06
438.278	518.06
438.5	551.06
438.721	554.06
438.943	564.06
439.165	536.06
439.386	547.06
439.608	564.06
439.829	555.06
440.05	571.06
440.272	584.06
440.493	563.06
440.715	574.06
440.936	580.06
441.158	574.06
441.379	593.06
441.6	602.06
441.822	640.06
442.043	618.06
442.264	642.06
442.486	602.06
442.707	617.06
442.928	606.06
443.149	618.06
443.371	623.06
443.592	626.06
443.813	604.06
444.034	634.06
444.255	657.06
444.476	674.06
444.698	704.06
444.919	709.06
445.14	821.06
445.361	728.06
445.582	638.06
445.803	612.06
446.024	599.06
446.245	592.06
446.466	592.06
446.687	580.06
446.908	587.06
447.129	546.06
447.35	566.06
447.571	537.06
447.792	532.06
448.013	540.06
448.234	512.06
448.455	526.06
448.675	544.06
448.896	526.06
449.117	514.06
449.338	531.06
449.559	516.06
449.779	513.06
450	532.06
450.221	534.06
450.442	555.06
450.662	530.06
450.883	527.06
451.104	530.06
451.324	520.06
451.545	513.06
451.766	522.06
451.986	524.06
452.207	522.06
452.428	511.06
452.648	494.06
452.869	498.06
453.089	522.06
453.31	530.06
453.53	515.06
453.751	501.06
453.971	496.06
454.192	520.06
454.412	502.06
454.633	510.06
454.853	500.06
455.073	503.06
455.294	493.06
455.514	473.06
455.734	470.06
455.955	499.06
456.175	507.06
456.395	495.06
456.616	461.06
456.836	500.06
457.056	508.06
457.276	468.06
457.497	483.06
457.717	483.06
457.937	497.06
458.157	468.06
458.377	500.06
458.598	498.06
458.818	508.06
459.038	513.06
459.258	555.06
459.478	569.06
459.698	548.06
459.918	578.06
460.138	624.06
460.358	643.06
460.578	644.06
460.798	635.06
461.018	648.06
461.238	623.06
461.458	638.06
461.678	632.06
461.898	637.06
462.118	634.06
462.338	670.06
462.558	676.06
462.777	731.06
462.997	755.06
463.217	848.06
463.437	841.06
463.657	750.06
463.876	729.06
464.096	743.06
464.316	708.06
464.536	724.06
464.755	723.06
464.975	666.06
465.195	654.06
465.414	615.06
465.634	606.06
465.854	601.06
466.073	569.06
466.293	553.06
466.512	566.06
466.732	536.06
466.951	538.06
467.171	548.06
467.391	540.06
467.61	534.06
467.829	555.06
468.049	532.06
468.268	517.06
468.488	496.06
468.707	525.06
468.927	526.06
469.146	530.06
469.365	518.06
469.585	528.06
469.804	575.06
470.023	547.06
470.243	535.06
470.462	568.06
470.681	550.06
470.901	573.06
471.12	552.06
471.339	552.06
471.558	551.06
471.777	529.06
471.997	522.06
472.216	528.06
472.435	534.06
472.654	517.06
472.873	508.06
473.092	498.06
473.311	522.06
473.53	507.06
473.749	506.06
473.968	528.06
474.187	527.06
474.406	491.06
474.625	524.06
474.844	519.06
475.063	532.06
475.282	524.06
475.501	522.06
475.72	527.06
475.939	518.06
476.158	530.06
476.377	519.06
476.596	534.06
476.814	514.06
477.033	523.06
477.252	537.06
477.471	548.06
477.69	556.06
477.908	575.06
478.127	593.06
478.346	606.06
478.564	605.06
478.783	603.06
479.002	633.06
479.22	607.06
479.439	611.06
479.658	616.06
479.876	608.06
480.095	607.06
480.313	617.06
480.532	644.06
480.751	636.06
480.969	626.06
481.188	605.06
481.406	598.06
481.624	589.06
481.843	574.06
482.061	578.06
482.28	567.06
482.498	565.06
482.717	570.06
482.935	563.06
483.153	544.06
483.372	568.06
483.59	571.06
483.808	570.06
484.027	582.06
484.245	571.06
484.463	579.06
484.681	600.06
484.9	571.06
485.118	608.06
485.336	594.06
485.554	585.06
485.772	597.06
485.99	580.06
486.209	599.06
486.427	592.06
486.645	563.06
486.863	619.06
487.081	586.06
487.299	601.06
487.517	596.06
487.735	590.06
487.953	602.06
488.171	599.06
488.389	574.06
488.607	579.06
488.825	579.06
489.043	575.06
489.261	582.06
489.479	603.06
489.696	607.06
489.914	580.06
490.132	564.06
490.35	594.06
490.568	592.06
490.786	591.06
491.003	609.06
491.221	608.06
491.439	606.06
491.657	604.06
491.874	631.06
492.092	634.06
492.31	627.06
492.527	607.06
492.745	615.06
492.963	629.06
493.18	617.06
493.398	628.06
493.615	617.06
493.833	634.06
494.05	650.06
494.268	630.06
494.485	641.06
494.703	626.06
494.92	639.06
495.138	636.06
495.355	627.06
495.573	638.06
495.79	640.06
496.008	662.06
496.225	663.06
496.442	657.06
496.66	656.06
496.877	654.06
497.094	668.06
497.312	706.06
497.529	689.06
497.746	730.06
497.963	704.06
498.181	772.06
498.398	787.06
498.615	808.06
498.832	897.06
499.049	930.06
499.267	958.06
499.484	1075.06
499.701	1178.06
499.918	1272.06
500.135	1435.06
500.352	1600.06
500.569	1656.06
500.786	1641.06
501.003	1542.06
501.22	1411.06
501.437	1247.06
501.654	1135.06
501.871	1016.06
502.088	961.06
502.305	888.06
502.522	858.06
502.739	816.06
502.956	805.06
503.172	742.06
503.389	725.06
503.606	721.06
503.823	704.06
504.04	690.06
504.256	697.06
504.473	747.06
504.69	714.06
504.907	726.06
505.123	688.06
505.34	649.06
505.557	610.06
505.773	626.06
505.99	602.06
506.207	556.06
506.423	577.06
506.64	579.06
506.856	575.06
507.073	586.06
507.289	554.06
507.506	586.06
507.722	567.06
507.939	543.06
508.155	546.06
508.372	542.06
508.588	528.06
508.805	562.06
509.021	524.06
509.238	530.06
509.454	542.06
509.67	536.06
509.887	514.06
510.103	514.06
510.319	540.06
510.536	522.06
510.752	510.06
510.968	506.06
511.184	516.06
511.401	459.06
511.617	483.06
511.833	505.06
512.049	516.06
512.265	524.06
512.481	497.06
512.698	502.06
512.914	507.06
513.13	517.06
513.346	495.06
513.562	510.06
513.778	502.06
513.994	507.06
514.21	528.06
514.426	496.06
514.642	522.06
514.858	531.06
515.074	525.06
515.29	532.06
515.506	513.06
515.721	547.06
515.937	546.06
516.153	528.06
516.369	571.06
516.585	572.06
516.801	588.06
517.016	585.06
517.232	635.06
517.448	658.06
517.664	681.06
517.879	667.06
518.095	676.06
518.311	680.06
518.527	649.06
518.742	611.06
518.958	569.06
519.173	575.06
519.389	562.06
519.605	546.06
519.82	567.06
520.036	556.06
520.251	543.06
520.467	533.06
520.682	528.06
520.898	501.06
521.113	514.06
521.329	497.06
521.544	478.06
521.76	474.06
521.975	480.06
522.19	474.06
522.406	490.06
522.621	490.06
522.836	490.06
523.052	479.06
523.267	473.06
523.482	474.06
523.698	480.06
523.913	468.06
524.128	486.06
524.343	456.06
524.559	476.06
524.774	463.06
524.989	475.06
525.204	481.06
525.419	473.06
525.634	460.06
525.849	476.06
526.064	472.06
526.28	472.06
526.495	449.06
526.71	449.06
526.925	460.06
527.14	456.06
527.355	466.06
527.57	453.06
527.785	444.06
527.999	445.06
528.214	486.06
528.429	478.06
528.644	475.06
528.859	466.06
529.074	456.06
529.289	478.06
529.503	482.06
529.718	446.06
529.933	486.06
530.148	474.06
530.363	438.06
530.577	427.06
530.792	451.06
531.007	448.06
531.221	451.06
531.436	449.06
531.651	465.06
531.865	471.06
532.08	454.06
532.295	459.06
532.509	450.06
532.724	452.06
532.938	459.06
533.153	465.06
533.367	465.06
533.582	465.06
533.796	459.06
534.011	452.06
534.225	432.06
534.44	458.06
534.654	447.06
534.868	454.06
535.083	452.06
535.297	435.06
535.511	463.06
535.726	434.06
535.94	458.06
536.154	432.06
536.369	426.06
536.583	436.06
536.797	436.06
537.011	439.06
537.225	424.06
537.44	410.06
537.654	422.06
537.868	412.06
538.082	438.06
538.296	430.06
538.51	423.06
538.724	430.06
538.938	439.06
539.153	410.06
539.367	438.06
539.581	428.06
539.795	429.06
540.009	422.06
540.222	425.06
540.436	417.06
540.65	407.06
540.864	422.06
541.078	408.06
541.292	424.06
541.506	426.06
541.72	420.06
541.934	418.06
542.147	443.06
542.361	428.06
542.575	411.06
542.789	409.06
543.002	416.06
543.216	426.06
543.43	387.06
543.644	425.06
543.857	416.06
544.071	428.06
544.285	428.06
544.498	418.06
544.712	446.06
544.925	426.06
545.139	411.06
545.352	428.06
545.566	409.06
545.779	430.06
545.993	448.06
546.206	452.06
546.42	439.06
546.633	434.06
546.847	436.06
547.06	423.06
547.274	417.06
547.487	409.06
547.7	442.06
547.914	434.06
548.127	425.06
548.34	459.06
548.554	443.06
548.767	427.06
548.98	434.06
549.193	427.06
549.407	434.06
549.62	448.06
549.833	439.06
550.046	436.06
550.259	423.06
550.473	427.06
550.686	415.06
550.899	440.06
551.112	432.06
551.325	425.06
551.538	412.06
551.751	426.06
551.964	427.06
552.177	428.06
552.39	447.06
552.603	439.06
552.816	455.06
553.029	476.06
553.242	463.06
553.455	456.06
553.667	482.06
553.88	459.06
554.093	435.06
554.306	434.06
554.519	448.06
554.732	428.06
554.944	429.06
555.157	417.06
555.37	404.06
555.583	408.06
555.795	402.06
556.008	403.06
556.221	378.06
556.433	390.06
556.646	400.06
556.859	382.06
557.071	386.06
557.284	370.06
557.496	375.06
557.709	360.06
557.921	371.06
558.134	390.06
558.346	374.06
558.559	371.06
558.771	377.06
558.984	361.06
559.196	370.06
559.409	378.06
559.621	385.06
559.833	377.06
560.046	351.06
560.258	366.06
560.47	370.06
560.683	364.06
560.895	363.06
561.107	355.06
561.32	366.06
561.532	350.06
561.744	368.06
561.956	382.06
562.168	371.06
562.381	373.06
562.593	345.06
562.805	366.06
563.017	369.06
563.229	364.06
563.441	374.06
563.653	370.06
563.865	371.06
564.077	379.06
564.289	388.06
564.501	381.06
564.713	388.06
564.925	386.06
565.137	391.06
565.349	400.06
565.561	411.06
565.773	392.06
565.985	446.06
566.197	454.06
566.408	469.06
566.62	520.06
566.832	570.06
567.044	551.06
567.255	544.06
567.467	563.06
567.679	584.06
567.891	604.06
568.102	625.06
568.314	600.06
568.526	542.06
568.737	499.06
568.949	468.06
569.161	438.06
569.372	405.06
569.584	407.06
569.795	392.06
570.007	356.06
570.218	363.06
570.43	344.06
570.641	361.06
570.853	370.06
571.064	372.06
571.276	376.06
571.487	369.06
571.698	357.06
571.91	357.06
572.121	338.06
572.333	330.06
572.544	309.06
572.755	327.06
572.966	339.06
573.178	314.06
573.389	322.06
573.6	307.06
573.811	324.06
574.023	307.06
574.234	314.06
574.445	296.06
574.656	296.06
574.867	304.06
575.078	306.06
575.289	305.06
575.501	299.06
575.712	279.06
575.923	294.06
576.134	281.06
576.345	277.06
576.556	286.06
576.767	303.06
576.978	293.06
577.188	295.06
577.399	279.06
577.61	281.06
577.821	286.06
578.032	288.06
578.243	279.06
578.454	283.06
578.665	268.06
578.875	275.06
579.086	281.06
579.297	274.06
579.508	280.06
579.718	265.06
579.929	256.06
580.14	254.06
580.35	265.06
580.561	271.06
580.772	270.06
580.982	279.06
581.193	264.06
581.403	242.06
581.614	268.06
581.825	291.06
582.035	252.06
582.246	277.06
582.456	262.06
582.667	257.06
582.877	266.06
583.087	274.06
583.298	246.06
583.508	260.06
583.719	264.06
583.929	255.06
584.139	261.06
584.35	262.06
584.56	236.06
584.77	242.06
584.981	256.06
585.191	259.06
585.401	249.06
585.611	243.06
585.821	254.06
586.032	248.06
586.242	241.06
586.452	259.06
586.662	235.06
586.872	278.06
587.082	250.06
587.292	263.06
587.502	270.06
587.713	260.06
587.923	254.06
588.133	242.06
588.343	238.06
588.553	226.06
588.762	244.06
588.972	257.06
589.182	280.06
589.392	250.06
589.602	246.06
589.812	226.06
590.022	248.06
590.232	242.06
590.441	241.06
590.651	253.06
590.861	266.06
591.071	262.06
591.281	266.06
591.49	256.06
591.7	248.06
591.91	264.06
592.119	270.06
592.329	272.06
592.539	273.06
592.748	292.06
592.958	291.06
593.167	304.06
593.377	291.06
593.587	311.06
593.796	290.06
594.006	299.06
594.215	309.06
594.424	299.06
594.634	306.06
594.843	299.06
595.053	274.06
595.262	263.06
595.472	275.06
595.681	262.06
595.89	254.06
596.1	274.06
596.309	253.06
596.518	250.06
596.727	242.06
596.937	234.06
597.146	232.06
597.355	225.06
597.564	234.06
597.774	228.06
597.983	235.06
598.192	210.06
598.401	222.06
598.61	219.06
598.819	211.06
599.028	223.06
599.237	218.06
599.446	210.06
599.655	218.06
599.864	219.06
600.073	220.06
600.282	211.06
600.491	214.06
600.7	206.06
600.909	204.06
601.118	202.06
601.327	213.06
601.536	215.06
601.745	228.06
601.953	198.06
602.162	216.06
602.371	200.06
602.58	205.06
602.789	207.06
602.997	227.06
603.206	215.06
603.415	212.06
603.623	215.06
603.832	212.06
604.041	215.06
604.249	211.06
604.458	204.06
604.666	212.06
604.875	193.06
605.084	210.06
605.292	200.06
605.501	212.06
605.709	211.06
605.918	241.06
606.126	211.06
606.334	211.06
606.543	199.06
606.751	206.06
606.96	208.06
607.168	210.06
607.376	204.06
607.585	198.06
607.793	211.06
608.001	200.06
608.21	211.06
608.418	198.06
608.626	196.06
608.834	202.06
609.043	195.06
609.251	204.06
609.459	194.06
609.667	207.06
609.875	186.06
610.083	192.06
610.291	168.06
610.499	191.06
610.707	182.06
610.916	193.06
611.124	199.06
611.332	194.06
611.54	178.06
611.748	198.06
611.955	190.06
612.163	201.06
612.371	200.06
612.579	182.06
612.787	206.06
612.995	203.06
613.203	205.06
613.411	200.06
613.618	193.06
613.826	205.06
614.034	198.06
614.242	186.06
614.449	200.06
614.657	191.06
614.865	198.06
615.072	186.06
615.28	195.06
615.488	203.06
615.695	186.06
615.903	197.06
616.111	210.06
616.318	195.06
616.526	192.06
616.733	192.06
616.941	184.06
617.148	198.06
617.356	166.06
617.563	189.06
617.771	176.06
617.978	194.06
618.185	211.06
618.393	207.06
618.6	191.06
618.807	178.06
619.015	197.06
619.222	203.06
619.429	182.06
619.637	182.06
619.844	191.06
620.051	181.06
620.258	179.06
620.466	179.06
620.673	171.06
620.88	171.06
621.087	180.06
621.294	199.06
621.501	192.06
621.708	176.06
621.915	195.06
622.122	185.06
622.329	195.06
622.536	179.06
622.743	187.06
622.95	185.06
623.157	187.06
623.364	174.06
623.571	182.06
623.778	178.06
623.985	181.06
624.192	178.06
624.399	174.06
624.606	188.06
624.812	167.06
625.019	162.06
625.226	186.06
625.433	175.06
625.639	164.06
625.846	163.06
626.053	159.06
626.259	162.06
626.466	162.06
626.673	176.06
626.879	169.06
627.086	176.06
627.293	180.06
627.499	170.06
627.706	174.06
627.912	174.06
628.119	167.06
628.325	171.06
628.532	170.06
628.738	163.06
628.945	167.06
629.151	177.06
629.357	168.06
629.564	161.06
629.77	171.06
629.976	174.06
630.183	155.06
630.389	162.06
630.595	160.06
630.802	156.06
631.008	176.06
631.214	139.06
631.42	150.06
631.627	168.06
631.833	146.06
632.039	161.06
632.245	152.06
632.451	153.06
632.657	165.06
632.863	146.06
633.069	164.06
633.275	161.06
633.481	170.06
633.688	145.06
633.893	167.06
634.099	162.06
634.305	155.06
634.511	143.06
634.717	156.06
634.923	162.06
635.129	153.06
635.335	154.06
635.541	150.06
635.747	166.06
635.952	167.06
636.158	155.06
636.364	156.06
636.57	145.06
636.775	161.06
636.981	157.06
637.187	139.06
637.392	142.06
637.598	158.06
637.804	150.06
638.009	148.06
638.215	147.06
638.421	157.06
638.626	157.06
638.832	146.06
639.037	144.06
639.243	144.06
639.448	157.06
639.654	150.06
639.859	138.06
640.065	142.06
640.27	146.06
640.475	160.06
640.681	143.06
640.886	148.06
641.091	139.06
641.297	150.06
641.502	150.06
641.707	142.06
641.913	151.06
642.118	136.06
642.323	150.06
642.528	136.06
642.733	150.06
642.939	154.06
643.144	144.06
643.349	138.06
643.554	146.06
643.759	152.06
643.964	135.06
644.169	137.06
644.374	124.06
644.579	148.06
644.784	151.06
644.989	134.06
645.194	140.06
645.399	144.06
645.604	142.06
645.809	148.06
646.014	132.06
646.219	148.06
646.423	140.06
646.628	120.06
646.833	139.06
647.038	146.06
647.243	144.06
647.447	155.06
647.652	130.06
647.857	139.06
648.062	140.06
648.266	146.06
648.471	136.06
648.676	146.06
648.88	150.06
649.085	132.06
649.289	144.06
649.494	134.06
649.698	142.06
649.903	136.06
650.107	130.06
650.312	130.06
650.516	136.06
650.721	136.06
650.925	139.06
651.13	128.06
651.334	127.06
651.539	128.06
651.743	134.06
651.947	126.06
652.152	119.06
652.356	131.06
652.56	134.06
652.764	142.06
652.969	124.06
653.173	117.06
653.377	113.06
653.581	122.06
653.785	132.06
653.99	126.06
654.194	122.06
654.398	113.06
654.602	118.06
654.806	95.06
655.01	112.06
655.214	110.06
655.418	123.06
655.622	116.06
655.826	98.06
656.03	124.06
656.234	111.06
656.438	120.06
656.642	117.06
656.846	105.06
657.049	104.06
657.253	115.06
657.457	103.06
657.661	106.06
657.865	103.06
658.068	104.06
658.272	105.06
658.476	103.06
658.68	113.06
658.883	99.06
659.087	103.06
659.291	82.06
659.494	91.06
659.698	88.06
659.901	106.06
660.105	89.06
660.309	91.06
660.512	97.06
660.716	92.06
660.919	78.06
661.123	89.06
661.326	95.06
661.53	83.06
661.733	82.06
661.936	92.06
662.14	77.06
662.343	91.06
662.546	81.06
662.75	88.06
662.953	95.06
663.156	82.06
663.36	88.06
663.563	91.06
663.766	83.06
663.969	89.06
664.173	97.06
664.376	91.06
664.579	78.06
664.782	82.06
664.985	69.06
665.188	76.06
665.391	87.06
665.594	67.06
665.797	77.06
666	78.06
666.203	72.06
666.406	80.06
666.609	82.06
666.812	89.06
667.015	75.06
667.218	78.06
667.421	86.06
667.624	85.06
667.827	78.06
668.03	82.06
668.232	74.06
668.435	78.06
668.638	88.06
668.841	92.06
669.043	83.06
669.246	74.06
669.449	71.06
669.651	67.06
669.854	72.06
670.057	87.06
670.259	79.06
670.462	74.06
670.665	82.06
670.867	86.06
671.07	95.06
671.272	78.06
671.475	79.06
671.677	79.06
671.88	63.06
672.082	82.06
672.284	66.06
672.487	82.06
672.689	94.06
672.892	77.06
