Data from Fe(NO3)3@0.0125M.TitratingCurve.Agarose3%dH2O.NegLispCup.LampEnergy10.LIBS07252019_HRD10591_16-59-13-336.txt Node
Date: Thu Jul 25 16:59:13 EDT 2019
User: cochatt
Spectrometer: HR+D1059
Trigger mode: 1
Integration Time (sec): 1.000000E-1
Scans to average: 1
Electric dark correction enabled: true
Nonlinearity correction enabled: false
Boxcar width: 0
XAxis mode: Wavelengths
Number of Pixels in Spectrum: 2048
>>>>>Begin Spectral Data<<<<<
223.165	-12.94
223.4	-12.94
223.635	-12.94
223.869	-9.94
224.104	-20.94
224.338	-7.94
224.573	-19.94
224.808	-18.94
225.042	0.06
225.277	-10.94
225.511	-0.94
225.746	5.06
225.98	-4.94
226.215	6.06
226.449	13.06
226.683	22.06
226.918	36.06
227.152	25.06
227.387	40.06
227.621	53.06
227.856	51.06
228.09	51.06
228.324	59.06
228.559	54.06
228.793	56.06
229.027	92.06
229.262	101.06
229.496	97.06
229.73	88.06
229.964	104.06
230.199	103.06
230.433	94.06
230.667	107.06
230.901	98.06
231.136	119.06
231.37	112.06
231.604	127.06
231.838	109.06
232.072	122.06
232.306	119.06
232.541	121.06
232.775	119.06
233.009	120.06
233.243	118.06
233.477	113.06
233.711	123.06
233.945	117.06
234.179	131.06
234.413	115.06
234.647	122.06
234.881	134.06
235.115	120.06
235.349	125.06
235.583	125.06
235.817	123.06
236.051	118.06
236.285	113.06
236.519	123.06
236.753	125.06
236.987	125.06
237.221	126.06
237.455	128.06
237.689	132.06
237.922	129.06
238.156	104.06
238.39	135.06
238.624	135.06
238.858	131.06
239.091	145.06
239.325	137.06
239.559	142.06
239.793	132.06
240.027	119.06
240.26	135.06
240.494	134.06
240.728	130.06
240.961	152.06
241.195	143.06
241.429	134.06
241.662	140.06
241.896	135.06
242.13	147.06
242.363	137.06
242.597	150.06
242.83	148.06
243.064	160.06
243.298	149.06
243.531	136.06
243.765	156.06
243.998	149.06
244.232	135.06
244.465	156.06
244.699	149.06
244.932	162.06
245.166	156.06
245.399	151.06
245.633	167.06
245.866	158.06
246.099	162.06
246.333	152.06
246.566	171.06
246.8	148.06
247.033	152.06
247.266	153.06
247.5	144.06
247.733	165.06
247.966	169.06
248.2	167.06
248.433	151.06
248.666	160.06
248.899	164.06
249.133	171.06
249.366	166.06
249.599	172.06
249.832	173.06
250.066	156.06
250.299	182.06
250.532	177.06
250.765	177.06
250.998	197.06
251.231	175.06
251.465	183.06
251.698	164.06
251.931	168.06
252.164	192.06
252.397	179.06
252.63	182.06
252.863	173.06
253.096	193.06
253.329	199.06
253.562	175.06
253.795	179.06
254.028	198.06
254.261	186.06
254.494	188.06
254.727	202.06
254.96	205.06
255.193	198.06
255.426	199.06
255.659	193.06
255.892	190.06
256.124	195.06
256.357	207.06
256.59	199.06
256.823	213.06
257.056	194.06
257.289	212.06
257.521	213.06
257.754	203.06
257.987	213.06
258.22	209.06
258.452	208.06
258.685	214.06
258.918	216.06
259.151	228.06
259.383	210.06
259.616	198.06
259.849	235.06
260.081	230.06
260.314	216.06
260.547	228.06
260.779	207.06
261.012	236.06
261.244	214.06
261.477	236.06
261.71	233.06
261.942	216.06
262.175	217.06
262.407	229.06
262.64	253.06
262.872	232.06
263.105	238.06
263.337	249.06
263.57	233.06
263.802	206.06
264.035	234.06
264.267	243.06
264.499	250.06
264.732	241.06
264.964	226.06
265.197	237.06
265.429	224.06
265.661	226.06
265.894	228.06
266.126	227.06
266.358	256.06
266.591	224.06
266.823	238.06
267.055	239.06
267.287	260.06
267.52	235.06
267.752	239.06
267.984	260.06
268.216	242.06
268.448	252.06
268.681	267.06
268.913	263.06
269.145	247.06
269.377	262.06
269.609	251.06
269.841	253.06
270.073	268.06
270.306	262.06
270.538	264.06
270.77	271.06
271.002	275.06
271.234	255.06
271.466	259.06
271.698	260.06
271.93	264.06
272.162	278.06
272.394	276.06
272.626	260.06
272.858	275.06
273.09	287.06
273.322	267.06
273.553	286.06
273.785	292.06
274.017	279.06
274.249	307.06
274.481	305.06
274.713	299.06
274.945	309.06
275.176	299.06
275.408	305.06
275.64	311.06
275.872	302.06
276.104	296.06
276.335	295.06
276.567	291.06
276.799	275.06
277.031	295.06
277.262	286.06
277.494	309.06
277.726	291.06
277.957	311.06
278.189	308.06
278.421	289.06
278.652	323.06
278.884	319.06
279.115	295.06
279.347	307.06
279.579	329.06
279.81	304.06
280.042	291.06
280.273	314.06
280.505	315.06
280.736	310.06
280.968	334.06
281.199	304.06
281.431	329.06
281.662	325.06
281.894	344.06
282.125	329.06
282.356	349.06
282.588	325.06
282.819	334.06
283.051	335.06
283.282	346.06
283.513	334.06
283.745	337.06
283.976	344.06
284.207	339.06
284.439	328.06
284.67	339.06
284.901	341.06
285.132	337.06
285.364	340.06
285.595	348.06
285.826	343.06
286.057	330.06
286.288	333.06
286.52	358.06
286.751	359.06
286.982	343.06
287.213	349.06
287.444	378.06
287.675	363.06
287.906	373.06
288.138	361.06
288.369	342.06
288.6	362.06
288.831	364.06
289.062	359.06
289.293	375.06
289.524	377.06
289.755	343.06
289.986	368.06
290.217	382.06
290.448	377.06
290.679	378.06
290.91	377.06
291.141	381.06
291.371	384.06
291.602	385.06
291.833	371.06
292.064	379.06
292.295	374.06
292.526	363.06
292.757	374.06
292.987	366.06
293.218	383.06
293.449	381.06
293.68	389.06
293.91	390.06
294.141	389.06
294.372	380.06
294.603	399.06
294.833	384.06
295.064	383.06
295.295	386.06
295.525	378.06
295.756	378.06
295.987	399.06
296.217	391.06
296.448	390.06
296.679	391.06
296.909	398.06
297.14	392.06
297.37	399.06
297.601	411.06
297.831	401.06
298.062	407.06
298.292	388.06
298.523	416.06
298.753	428.06
298.984	409.06
299.214	405.06
299.445	410.06
299.675	425.06
299.905	419.06
300.136	406.06
300.366	427.06
300.597	405.06
300.827	412.06
301.057	408.06
301.288	419.06
301.518	412.06
301.748	427.06
301.979	438.06
302.209	435.06
302.439	429.06
302.669	425.06
302.9	442.06
303.13	422.06
303.36	440.06
303.59	423.06
303.82	425.06
304.051	441.06
304.281	415.06
304.511	448.06
304.741	431.06
304.971	455.06
305.201	455.06
305.431	453.06
305.661	436.06
305.891	443.06
306.121	441.06
306.352	437.06
306.582	437.06
306.812	444.06
307.042	444.06
307.272	432.06
307.502	452.06
307.731	447.06
307.961	453.06
308.191	437.06
308.421	480.06
308.651	456.06
308.881	465.06
309.111	463.06
309.341	463.06
309.571	472.06
309.8	465.06
310.03	458.06
310.26	474.06
310.49	467.06
310.72	484.06
310.949	487.06
311.179	466.06
311.409	475.06
311.639	477.06
311.868	458.06
312.098	472.06
312.328	477.06
312.557	466.06
312.787	469.06
313.017	461.06
313.246	472.06
313.476	481.06
313.706	476.06
313.935	460.06
314.165	493.06
314.394	484.06
314.624	511.06
314.853	469.06
315.083	492.06
315.312	504.06
315.542	493.06
315.771	485.06
316.001	501.06
316.23	496.06
316.46	515.06
316.689	517.06
316.919	509.06
317.148	494.06
317.377	505.06
317.607	499.06
317.836	510.06
318.065	495.06
318.295	539.06
318.524	500.06
318.753	540.06
318.983	522.06
319.212	522.06
319.441	514.06
319.67	521.06
319.9	504.06
320.129	519.06
320.358	538.06
320.587	510.06
320.816	509.06
321.046	534.06
321.275	531.06
321.504	516.06
321.733	539.06
321.962	516.06
322.191	539.06
322.42	537.06
322.649	528.06
322.878	518.06
323.108	527.06
323.337	527.06
323.566	559.06
323.795	548.06
324.024	541.06
324.253	561.06
324.482	543.06
324.71	544.06
324.939	537.06
325.168	538.06
325.397	532.06
325.626	567.06
325.855	520.06
326.084	568.06
326.313	590.06
326.542	557.06
326.77	544.06
326.999	561.06
327.228	573.06
327.457	575.06
327.686	571.06
327.914	567.06
328.143	576.06
328.372	559.06
328.6	573.06
328.829	569.06
329.058	566.06
329.287	558.06
329.515	549.06
329.744	565.06
329.972	576.06
330.201	577.06
330.43	571.06
330.658	561.06
330.887	588.06
331.115	580.06
331.344	592.06
331.572	573.06
331.801	565.06
332.03	581.06
332.258	579.06
332.486	587.06
332.715	570.06
332.943	566.06
333.172	603.06
333.4	590.06
333.629	601.06
333.857	590.06
334.085	613.06
334.314	575.06
334.542	595.06
334.771	608.06
334.999	607.06
335.227	596.06
335.455	641.06
335.684	605.06
335.912	609.06
336.14	596.06
336.369	605.06
336.597	592.06
336.825	619.06
337.053	643.06
337.281	604.06
337.51	620.06
337.738	628.06
337.966	603.06
338.194	613.06
338.422	604.06
338.65	610.06
338.878	602.06
339.106	597.06
339.334	597.06
339.562	620.06
339.79	602.06
340.018	592.06
340.246	605.06
340.474	597.06
340.702	610.06
340.93	600.06
341.158	589.06
341.386	596.06
341.614	594.06
341.842	611.06
342.07	613.06
342.298	613.06
342.526	611.06
342.754	604.06
342.981	593.06
343.209	595.06
343.437	604.06
343.665	608.06
343.893	608.06
344.12	621.06
344.348	627.06
344.576	616.06
344.804	611.06
345.031	610.06
345.259	624.06
345.487	592.06
345.714	597.06
345.942	604.06
346.17	579.06
346.397	602.06
346.625	593.06
346.853	627.06
347.08	593.06
347.308	597.06
347.535	591.06
347.763	593.06
347.99	600.06
348.218	592.06
348.445	585.06
348.673	585.06
348.9	596.06
349.128	601.06
349.355	581.06
349.583	608.06
349.81	597.06
350.037	588.06
350.265	594.06
350.492	603.06
350.72	589.06
350.947	597.06
351.174	594.06
351.402	590.06
351.629	591.06
351.856	590.06
352.083	593.06
352.311	603.06
352.538	588.06
352.765	593.06
352.992	588.06
353.22	565.06
353.447	577.06
353.674	593.06
353.901	597.06
354.128	594.06
354.355	577.06
354.583	569.06
354.81	568.06
355.037	590.06
355.264	592.06
355.491	592.06
355.718	593.06
355.945	613.06
356.172	602.06
356.399	611.06
356.626	599.06
356.853	607.06
357.08	599.06
357.307	595.06
357.534	575.06
357.761	576.06
357.988	593.06
358.215	589.06
358.441	582.06
358.668	614.06
358.895	585.06
359.122	611.06
359.349	571.06
359.576	590.06
359.802	597.06
360.029	607.06
360.256	574.06
360.483	598.06
360.709	608.06
360.936	610.06
361.163	606.06
361.39	588.06
361.616	591.06
361.843	610.06
362.07	608.06
362.296	593.06
362.523	607.06
362.749	612.06
362.976	613.06
363.203	620.06
363.429	620.06
363.656	640.06
363.882	613.06
364.109	635.06
364.335	622.06
364.562	613.06
364.788	637.06
365.015	613.06
365.241	608.06
365.468	617.06
365.694	632.06
365.92	636.06
366.147	603.06
366.373	619.06
366.599	607.06
366.826	620.06
367.052	610.06
367.278	620.06
367.505	631.06
367.731	633.06
367.957	609.06
368.184	638.06
368.41	630.06
368.636	615.06
368.862	624.06
369.089	615.06
369.315	623.06
369.541	637.06
369.767	643.06
369.993	629.06
370.219	629.06
370.445	639.06
370.672	643.06
370.898	651.06
371.124	654.06
371.35	633.06
371.576	651.06
371.802	643.06
372.028	673.06
372.254	632.06
372.48	648.06
372.706	630.06
372.932	651.06
373.158	643.06
373.384	654.06
373.61	652.06
373.835	655.06
374.061	647.06
374.287	642.06
374.513	663.06
374.739	661.06
374.965	655.06
375.191	675.06
375.416	651.06
375.642	649.06
375.868	648.06
376.094	660.06
376.319	663.06
376.545	638.06
376.771	629.06
376.997	645.06
377.222	622.06
377.448	646.06
377.674	641.06
377.899	645.06
378.125	633.06
378.35	649.06
378.576	644.06
378.802	647.06
379.027	637.06
379.253	657.06
379.478	650.06
379.704	661.06
379.929	646.06
380.155	646.06
380.38	684.06
380.606	657.06
380.831	615.06
381.057	642.06
381.282	645.06
381.507	669.06
381.733	668.06
381.958	652.06
382.184	684.06
382.409	654.06
382.634	665.06
382.86	649.06
383.085	672.06
383.31	655.06
383.535	661.06
383.761	663.06
383.986	691.06
384.211	673.06
384.436	681.06
384.662	651.06
384.887	670.06
385.112	664.06
385.337	684.06
385.562	707.06
385.787	685.06
386.013	707.06
386.238	700.06
386.463	692.06
386.688	699.06
386.913	675.06
387.138	694.06
387.363	693.06
387.588	697.06
387.813	725.06
388.038	704.06
388.263	693.06
388.488	705.06
388.713	695.06
388.938	679.06
389.163	726.06
389.387	707.06
389.612	737.06
389.837	688.06
390.062	695.06
390.287	719.06
390.512	712.06
390.736	697.06
390.961	724.06
391.186	718.06
391.411	715.06
391.636	711.06
391.86	707.06
392.085	718.06
392.31	711.06
392.534	702.06
392.759	732.06
392.984	727.06
393.208	736.06
393.433	746.06
393.658	724.06
393.882	710.06
394.107	731.06
394.331	717.06
394.556	726.06
394.78	707.06
395.005	713.06
395.229	712.06
395.454	736.06
395.678	729.06
395.903	736.06
396.127	740.06
396.352	719.06
396.576	722.06
396.801	707.06
397.025	756.06
397.249	747.06
397.474	758.06
397.698	757.06
397.922	745.06
398.147	751.06
398.371	736.06
398.595	768.06
398.82	731.06
399.044	764.06
399.268	771.06
399.492	797.06
399.717	799.06
399.941	804.06
400.165	793.06
400.389	793.06
400.613	803.06
400.837	801.06
401.062	788.06
401.286	773.06
401.51	781.06
401.734	766.06
401.958	795.06
402.182	786.06
402.406	772.06
402.63	785.06
402.854	789.06
403.078	750.06
403.302	780.06
403.526	785.06
403.75	763.06
403.974	771.06
404.198	796.06
404.422	744.06
404.645	799.06
404.869	771.06
405.093	765.06
405.317	782.06
405.541	789.06
405.765	785.06
405.988	771.06
406.212	762.06
406.436	776.06
406.66	803.06
406.883	791.06
407.107	812.06
407.331	811.06
407.555	820.06
407.778	844.06
408.002	830.06
408.226	846.06
408.449	841.06
408.673	797.06
408.896	830.06
409.12	812.06
409.344	827.06
409.567	840.06
409.791	833.06
410.014	825.06
410.238	801.06
410.461	811.06
410.685	808.06
410.908	793.06
411.132	819.06
411.355	784.06
411.578	797.06
411.802	785.06
412.025	771.06
412.249	788.06
412.472	795.06
412.695	774.06
412.919	757.06
413.142	773.06
413.365	797.06
413.589	750.06
413.812	798.06
414.035	766.06
414.258	776.06
414.482	780.06
414.705	787.06
414.928	740.06
415.151	724.06
415.374	789.06
415.597	779.06
415.821	761.06
416.044	756.06
416.267	760.06
416.49	748.06
416.713	759.06
416.936	757.06
417.159	786.06
417.382	718.06
417.605	741.06
417.828	735.06
418.051	735.06
418.274	737.06
418.497	719.06
418.72	728.06
418.943	729.06
419.166	731.06
419.389	786.06
419.611	785.06
419.834	766.06
420.057	776.06
420.28	745.06
420.503	734.06
420.726	744.06
420.948	729.06
421.171	745.06
421.394	736.06
421.617	727.06
421.839	721.06
422.062	737.06
422.285	717.06
422.507	752.06
422.73	728.06
422.953	736.06
423.175	740.06
423.398	741.06
423.621	719.06
423.843	715.06
424.066	731.06
424.288	734.06
424.511	730.06
424.733	700.06
424.956	731.06
425.178	729.06
425.401	732.06
425.623	743.06
425.846	731.06
426.068	729.06
426.291	728.06
426.513	708.06
426.735	727.06
426.958	711.06
427.18	718.06
427.402	719.06
427.625	760.06
427.847	717.06
428.069	715.06
428.292	717.06
428.514	732.06
428.736	711.06
428.958	731.06
429.181	716.06
429.403	729.06
429.625	729.06
429.847	692.06
430.069	742.06
430.292	756.06
430.514	715.06
430.736	733.06
430.958	751.06
431.18	712.06
431.402	725.06
431.624	706.06
431.846	713.06
432.068	723.06
432.29	703.06
432.512	695.06
432.734	714.06
432.956	728.06
433.178	715.06
433.4	733.06
433.622	750.06
433.844	741.06
434.066	737.06
434.287	718.06
434.509	727.06
434.731	729.06
434.953	746.06
435.175	725.06
435.397	748.06
435.618	700.06
435.84	731.06
436.062	740.06
436.284	728.06
436.505	736.06
436.727	713.06
436.949	705.06
437.17	707.06
437.392	715.06
437.614	709.06
437.835	703.06
438.057	697.06
438.278	687.06
438.5	686.06
438.721	700.06
438.943	730.06
439.165	731.06
439.386	688.06
439.608	707.06
439.829	708.06
440.05	717.06
440.272	692.06
440.493	714.06
440.715	713.06
440.936	704.06
441.158	691.06
441.379	706.06
441.6	709.06
441.822	704.06
442.043	703.06
442.264	720.06
442.486	725.06
442.707	709.06
442.928	705.06
443.149	716.06
443.371	723.06
443.592	709.06
443.813	716.06
444.034	716.06
444.255	711.06
444.476	675.06
444.698	707.06
444.919	704.06
445.14	847.06
445.361	769.06
445.582	691.06
445.803	725.06
446.024	711.06
446.245	708.06
446.466	714.06
446.687	687.06
446.908	703.06
447.129	686.06
447.35	701.06
447.571	699.06
447.792	696.06
448.013	680.06
448.234	681.06
448.455	681.06
448.675	681.06
448.896	670.06
449.117	703.06
449.338	680.06
449.559	691.06
449.779	673.06
450	664.06
450.221	676.06
450.442	664.06
450.662	658.06
450.883	682.06
451.104	666.06
451.324	675.06
451.545	660.06
451.766	664.06
451.986	649.06
452.207	647.06
452.428	668.06
452.648	668.06
452.869	641.06
453.089	652.06
453.31	669.06
453.53	658.06
453.751	638.06
453.971	678.06
454.192	652.06
454.412	636.06
454.633	652.06
454.853	647.06
455.073	647.06
455.294	652.06
455.514	632.06
455.734	647.06
455.955	646.06
456.175	629.06
456.395	647.06
456.616	661.06
456.836	651.06
457.056	653.06
457.276	654.06
457.497	657.06
457.717	639.06
457.937	638.06
458.157	652.06
458.377	657.06
458.598	665.06
458.818	662.06
459.038	668.06
459.258	652.06
459.478	680.06
459.698	672.06
459.918	672.06
460.138	682.06
460.358	717.06
460.578	705.06
460.798	705.06
461.018	700.06
461.238	712.06
461.458	707.06
461.678	723.06
461.898	691.06
462.118	736.06
462.338	708.06
462.558	694.06
462.777	715.06
462.997	721.06
463.217	758.06
463.437	740.06
463.657	741.06
463.876	733.06
464.096	746.06
464.316	730.06
464.536	726.06
464.755	741.06
464.975	729.06
465.195	722.06
465.414	714.06
465.634	714.06
465.854	702.06
466.073	703.06
466.293	726.06
466.512	727.06
466.732	692.06
466.951	711.06
467.171	707.06
467.391	710.06
467.61	687.06
467.829	679.06
468.049	704.06
468.268	712.06
468.488	708.06
468.707	683.06
468.927	691.06
469.146	690.06
469.365	713.06
469.585	718.06
469.804	709.06
470.023	700.06
470.243	728.06
470.462	705.06
470.681	703.06
470.901	716.06
471.12	726.06
471.339	694.06
471.558	689.06
471.777	723.06
471.997	707.06
472.216	706.06
472.435	717.06
472.654	744.06
472.873	720.06
473.092	717.06
473.311	715.06
473.53	721.06
473.749	717.06
473.968	734.06
474.187	713.06
474.406	708.06
474.625	766.06
474.844	748.06
475.063	729.06
475.282	721.06
475.501	732.06
475.72	742.06
475.939	752.06
476.158	764.06
476.377	769.06
476.596	769.06
476.814	772.06
477.033	770.06
477.252	777.06
477.471	788.06
477.69	775.06
477.908	795.06
478.127	795.06
478.346	800.06
478.564	828.06
478.783	807.06
479.002	827.06
479.22	831.06
479.439	814.06
479.658	838.06
479.876	810.06
480.095	831.06
480.313	843.06
480.532	827.06
480.751	820.06
480.969	836.06
481.188	843.06
481.406	856.06
481.624	855.06
481.843	830.06
482.061	855.06
482.28	840.06
482.498	851.06
482.717	835.06
482.935	864.06
483.153	845.06
483.372	875.06
483.59	872.06
483.808	866.06
484.027	857.06
484.245	873.06
484.463	839.06
484.681	876.06
484.9	869.06
485.118	871.06
485.336	848.06
485.554	879.06
485.772	879.06
485.99	873.06
486.209	853.06
486.427	869.06
486.645	884.06
486.863	872.06
487.081	872.06
487.299	887.06
487.517	891.06
487.735	891.06
487.953	896.06
488.171	885.06
488.389	891.06
488.607	890.06
488.825	890.06
489.043	891.06
489.261	907.06
489.479	864.06
489.696	895.06
489.914	881.06
490.132	880.06
490.35	885.06
490.568	905.06
490.786	911.06
491.003	873.06
491.221	913.06
491.439	896.06
491.657	904.06
491.874	917.06
492.092	936.06
492.31	915.06
492.527	896.06
492.745	901.06
492.963	889.06
493.18	907.06
493.398	919.06
493.615	930.06
493.833	926.06
494.05	912.06
494.268	908.06
494.485	917.06
494.703	928.06
494.92	918.06
495.138	927.06
495.355	953.06
495.573	925.06
495.79	960.06
496.008	947.06
496.225	933.06
496.442	934.06
496.66	955.06
496.877	967.06
497.094	974.06
497.312	979.06
497.529	951.06
497.746	975.06
497.963	996.06
498.181	998.06
498.398	1003.06
498.615	1036.06
498.832	1001.06
499.049	1042.06
499.267	1051.06
499.484	1067.06
499.701	1084.06
499.918	1109.06
500.135	1081.06
500.352	1104.06
500.569	1108.06
500.786	1149.06
501.003	1113.06
501.22	1101.06
501.437	1099.06
501.654	1076.06
501.871	1084.06
502.088	1064.06
502.305	1039.06
502.522	1011.06
502.739	1003.06
502.956	969.06
503.172	964.06
503.389	968.06
503.606	989.06
503.823	962.06
504.04	944.06
504.256	937.06
504.473	916.06
504.69	930.06
504.907	934.06
505.123	895.06
505.34	913.06
505.557	899.06
505.773	913.06
505.99	901.06
506.207	877.06
506.423	870.06
506.64	888.06
506.856	857.06
507.073	867.06
507.289	857.06
507.506	855.06
507.722	842.06
507.939	830.06
508.155	836.06
508.372	831.06
508.588	838.06
508.805	832.06
509.021	821.06
509.238	798.06
509.454	805.06
509.67	796.06
509.887	781.06
510.103	819.06
510.319	800.06
510.536	788.06
510.752	819.06
510.968	799.06
511.184	783.06
511.401	776.06
511.617	822.06
511.833	769.06
512.049	784.06
512.265	774.06
512.481	795.06
512.698	783.06
512.914	794.06
513.13	789.06
513.346	790.06
513.562	763.06
513.778	789.06
513.994	783.06
514.21	792.06
514.426	785.06
514.642	786.06
514.858	784.06
515.074	778.06
515.29	782.06
515.506	772.06
515.721	799.06
515.937	813.06
516.153	792.06
516.369	783.06
516.585	816.06
516.801	803.06
517.016	801.06
517.232	822.06
517.448	806.06
517.664	817.06
517.879	806.06
518.095	797.06
518.311	788.06
518.527	797.06
518.742	809.06
518.958	807.06
519.173	796.06
519.389	793.06
519.605	773.06
519.82	788.06
520.036	761.06
520.251	784.06
520.467	767.06
520.682	773.06
520.898	774.06
521.113	747.06
521.329	771.06
521.544	717.06
521.76	738.06
521.975	751.06
522.19	735.06
522.406	760.06
522.621	743.06
522.836	751.06
523.052	757.06
523.267	776.06
523.482	744.06
523.698	757.06
523.913	720.06
524.128	694.06
524.343	740.06
524.559	757.06
524.774	733.06
524.989	729.06
525.204	725.06
525.419	732.06
525.634	731.06
525.849	741.06
526.064	744.06
526.28	718.06
526.495	712.06
526.71	690.06
526.925	666.06
527.14	711.06
527.355	728.06
527.57	700.06
527.785	711.06
527.999	724.06
528.214	707.06
528.429	729.06
528.644	718.06
528.859	715.06
529.074	708.06
529.289	711.06
529.503	721.06
529.718	711.06
529.933	694.06
530.148	732.06
530.363	724.06
530.577	684.06
530.792	704.06
531.007	696.06
531.221	679.06
531.436	725.06
531.651	693.06
531.865	686.06
532.08	698.06
532.295	687.06
532.509	693.06
532.724	675.06
532.938	685.06
533.153	686.06
533.367	694.06
533.582	677.06
533.796	669.06
534.011	683.06
534.225	704.06
534.44	660.06
534.654	667.06
534.868	698.06
535.083	684.06
535.297	676.06
535.511	672.06
535.726	677.06
535.94	661.06
536.154	677.06
536.369	671.06
536.583	681.06
536.797	677.06
537.011	659.06
537.225	656.06
537.44	691.06
537.654	698.06
537.868	654.06
538.082	647.06
538.296	656.06
538.51	665.06
538.724	652.06
538.938	643.06
539.153	651.06
539.367	647.06
539.581	649.06
539.795	648.06
540.009	664.06
540.222	638.06
540.436	654.06
540.65	665.06
540.864	655.06
541.078	654.06
541.292	640.06
541.506	664.06
541.72	676.06
541.934	650.06
542.147	656.06
542.361	645.06
542.575	631.06
542.789	651.06
543.002	644.06
543.216	646.06
543.43	628.06
543.644	631.06
543.857	641.06
544.071	625.06
544.285	629.06
544.498	627.06
544.712	623.06
544.925	627.06
545.139	623.06
545.352	637.06
545.566	631.06
545.779	636.06
545.993	622.06
546.206	639.06
546.42	639.06
546.633	638.06
546.847	640.06
547.06	616.06
547.274	622.06
547.487	610.06
547.7	643.06
547.914	638.06
548.127	624.06
548.34	638.06
548.554	642.06
548.767	627.06
548.98	627.06
549.193	637.06
549.407	612.06
549.62	605.06
549.833	611.06
550.046	624.06
550.259	621.06
550.473	603.06
550.686	630.06
550.899	616.06
551.112	612.06
551.325	608.06
551.538	621.06
551.751	599.06
551.964	588.06
552.177	597.06
552.39	601.06
552.603	597.06
552.816	609.06
553.029	599.06
553.242	594.06
553.455	598.06
553.667	623.06
553.88	629.06
554.093	597.06
554.306	613.06
554.519	587.06
554.732	576.06
554.944	601.06
555.157	585.06
555.37	576.06
555.583	574.06
555.795	585.06
556.008	560.06
556.221	571.06
556.433	590.06
556.646	560.06
556.859	567.06
557.071	567.06
557.284	571.06
557.496	570.06
557.709	555.06
557.921	575.06
558.134	561.06
558.346	541.06
558.559	581.06
558.771	587.06
558.984	545.06
559.196	548.06
559.409	556.06
559.621	550.06
559.833	539.06
560.046	530.06
560.258	543.06
560.47	556.06
560.683	569.06
560.895	554.06
561.107	569.06
561.32	540.06
561.532	552.06
561.744	536.06
561.956	541.06
562.168	544.06
562.381	545.06
562.593	560.06
562.805	537.06
563.017	566.06
563.229	528.06
563.441	533.06
563.653	551.06
563.865	529.06
564.077	545.06
564.289	532.06
564.501	537.06
564.713	574.06
564.925	558.06
565.137	525.06
565.349	537.06
565.561	530.06
565.773	547.06
565.985	555.06
566.197	560.06
566.408	559.06
566.62	536.06
566.832	555.06
567.044	538.06
567.255	563.06
567.467	542.06
567.679	560.06
567.891	530.06
568.102	549.06
568.314	558.06
568.526	548.06
568.737	541.06
568.949	545.06
569.161	506.06
569.372	525.06
569.584	519.06
569.795	503.06
570.007	519.06
570.218	502.06
570.43	501.06
570.641	470.06
570.853	503.06
571.064	475.06
571.276	472.06
571.487	475.06
571.698	483.06
571.91	502.06
572.121	491.06
572.333	461.06
572.544	473.06
572.755	461.06
572.966	483.06
573.178	452.06
573.389	464.06
573.6	458.06
573.811	449.06
574.023	448.06
574.234	432.06
574.445	452.06
574.656	445.06
574.867	423.06
575.078	425.06
575.289	430.06
575.501	437.06
575.712	432.06
575.923	420.06
576.134	451.06
576.345	430.06
576.556	434.06
576.767	427.06
576.978	424.06
577.188	426.06
577.399	423.06
577.61	432.06
577.821	444.06
578.032	429.06
578.243	408.06
578.454	426.06
578.665	411.06
578.875	392.06
579.086	424.06
579.297	416.06
579.508	413.06
579.718	410.06
579.929	428.06
580.14	394.06
580.35	409.06
580.561	404.06
580.772	425.06
580.982	402.06
581.193	402.06
581.403	406.06
581.614	399.06
581.825	401.06
582.035	396.06
582.246	387.06
582.456	394.06
582.667	404.06
582.877	394.06
583.087	393.06
583.298	387.06
583.508	399.06
583.719	393.06
583.929	382.06
584.139	391.06
584.35	378.06
584.56	383.06
584.77	392.06
584.981	380.06
585.191	378.06
585.401	384.06
585.611	381.06
585.821	384.06
586.032	352.06
586.242	391.06
586.452	387.06
586.662	383.06
586.872	376.06
587.082	372.06
587.292	352.06
587.502	381.06
587.713	359.06
587.923	369.06
588.133	381.06
588.343	372.06
588.553	379.06
588.762	375.06
588.972	368.06
589.182	396.06
589.392	383.06
589.602	356.06
589.812	368.06
590.022	377.06
590.232	347.06
590.441	345.06
590.651	375.06
590.861	352.06
591.071	371.06
591.281	349.06
591.49	352.06
591.7	359.06
591.91	364.06
592.119	367.06
592.329	360.06
592.539	352.06
592.748	356.06
592.958	339.06
593.167	352.06
593.377	359.06
593.587	377.06
593.796	361.06
594.006	337.06
594.215	361.06
594.424	357.06
594.634	354.06
594.843	315.06
595.053	357.06
595.262	351.06
595.472	333.06
595.681	347.06
595.89	335.06
596.1	319.06
596.309	343.06
596.518	355.06
596.727	337.06
596.937	336.06
597.146	341.06
597.355	337.06
597.564	333.06
597.774	329.06
597.983	322.06
598.192	321.06
598.401	324.06
598.61	328.06
598.819	322.06
599.028	334.06
599.237	303.06
599.446	309.06
599.655	324.06
599.864	288.06
600.073	319.06
600.282	302.06
600.491	324.06
600.7	322.06
600.909	313.06
601.118	309.06
601.327	308.06
601.536	309.06
601.745	303.06
601.953	312.06
602.162	331.06
602.371	303.06
602.58	310.06
602.789	304.06
602.997	311.06
603.206	324.06
603.415	312.06
603.623	300.06
603.832	287.06
604.041	298.06
604.249	290.06
604.458	314.06
604.666	293.06
604.875	283.06
605.084	294.06
605.292	307.06
605.501	304.06
605.709	291.06
605.918	298.06
606.126	309.06
606.334	299.06
606.543	309.06
606.751	275.06
606.96	292.06
607.168	295.06
607.376	285.06
607.585	280.06
607.793	288.06
608.001	291.06
608.21	296.06
608.418	296.06
608.626	289.06
608.834	285.06
609.043	269.06
609.251	285.06
609.459	286.06
609.667	301.06
609.875	283.06
610.083	273.06
610.291	274.06
610.499	270.06
610.707	283.06
610.916	279.06
611.124	279.06
611.332	249.06
611.54	278.06
611.748	287.06
611.955	281.06
612.163	274.06
612.371	273.06
612.579	281.06
612.787	279.06
612.995	268.06
613.203	257.06
613.411	285.06
613.618	266.06
613.826	271.06
614.034	277.06
614.242	298.06
614.449	255.06
614.657	267.06
614.865	260.06
615.072	267.06
615.28	272.06
615.488	270.06
615.695	267.06
615.903	271.06
616.111	261.06
616.318	276.06
616.526	277.06
616.733	280.06
616.941	261.06
617.148	252.06
617.356	270.06
617.563	279.06
617.771	265.06
617.978	267.06
618.185	265.06
618.393	264.06
618.6	271.06
618.807	256.06
619.015	273.06
619.222	260.06
619.429	255.06
619.637	265.06
619.844	269.06
620.051	259.06
620.258	252.06
620.466	223.06
620.673	233.06
620.88	251.06
621.087	259.06
621.294	240.06
621.501	248.06
621.708	264.06
621.915	263.06
622.122	257.06
622.329	251.06
622.536	243.06
622.743	234.06
622.95	250.06
623.157	242.06
623.364	233.06
623.571	250.06
623.778	251.06
623.985	252.06
624.192	253.06
624.399	251.06
624.606	240.06
624.812	246.06
625.019	228.06
625.226	249.06
625.433	259.06
625.639	232.06
625.846	243.06
626.053	239.06
626.259	235.06
626.466	245.06
626.673	240.06
626.879	236.06
627.086	248.06
627.293	248.06
627.499	227.06
627.706	250.06
627.912	229.06
628.119	247.06
628.325	240.06
628.532	224.06
628.738	214.06
628.945	227.06
629.151	233.06
629.357	232.06
629.564	222.06
629.77	237.06
629.976	227.06
630.183	240.06
630.389	214.06
630.595	243.06
630.802	226.06
631.008	229.06
631.214	231.06
631.42	229.06
631.627	223.06
631.833	222.06
632.039	218.06
632.245	232.06
632.451	223.06
632.657	214.06
632.863	221.06
633.069	217.06
633.275	205.06
633.481	224.06
633.688	215.06
633.893	229.06
634.099	226.06
634.305	211.06
634.511	203.06
634.717	225.06
634.923	214.06
635.129	212.06
635.335	209.06
635.541	213.06
635.747	222.06
635.952	208.06
636.158	225.06
636.364	196.06
636.57	211.06
636.775	213.06
636.981	222.06
637.187	206.06
637.392	211.06
637.598	208.06
637.804	203.06
638.009	208.06
638.215	188.06
638.421	208.06
638.626	228.06
638.832	196.06
639.037	209.06
639.243	210.06
639.448	219.06
639.654	200.06
639.859	217.06
640.065	193.06
640.27	214.06
640.475	201.06
640.681	204.06
640.886	198.06
641.091	216.06
641.297	203.06
641.502	198.06
641.707	211.06
641.913	207.06
642.118	210.06
642.323	197.06
642.528	202.06
642.733	217.06
642.939	204.06
643.144	209.06
643.349	196.06
643.554	207.06
643.759	195.06
643.964	199.06
644.169	191.06
644.374	199.06
644.579	209.06
644.784	185.06
644.989	197.06
645.194	187.06
645.399	199.06
645.604	201.06
645.809	204.06
646.014	191.06
646.219	191.06
646.423	193.06
646.628	198.06
646.833	197.06
647.038	192.06
647.243	199.06
647.447	200.06
647.652	204.06
647.857	209.06
648.062	202.06
648.266	194.06
648.471	207.06
648.676	200.06
648.88	199.06
649.085	210.06
649.289	210.06
649.494	195.06
649.698	199.06
649.903	196.06
650.107	199.06
650.312	210.06
650.516	192.06
650.721	201.06
650.925	200.06
651.13	183.06
651.334	206.06
651.539	188.06
651.743	182.06
651.947	183.06
652.152	197.06
652.356	168.06
652.56	188.06
652.764	191.06
652.969	173.06
653.173	176.06
653.377	173.06
653.581	195.06
653.785	193.06
653.99	182.06
654.194	169.06
654.398	163.06
654.602	182.06
654.806	155.06
655.01	178.06
655.214	167.06
655.418	176.06
655.622	162.06
655.826	165.06
656.03	169.06
656.234	161.06
656.438	162.06
656.642	156.06
656.846	148.06
657.049	149.06
657.253	139.06
657.457	154.06
657.661	142.06
657.865	134.06
658.068	139.06
658.272	136.06
658.476	119.06
658.68	115.06
658.883	125.06
659.087	128.06
659.291	113.06
659.494	117.06
659.698	111.06
659.901	105.06
660.105	116.06
660.309	109.06
660.512	108.06
660.716	104.06
660.919	94.06
661.123	109.06
661.326	108.06
661.53	94.06
661.733	99.06
661.936	101.06
662.14	104.06
662.343	88.06
662.546	93.06
662.75	85.06
662.953	102.06
663.156	107.06
663.36	100.06
663.563	88.06
663.766	86.06
663.969	92.06
664.173	79.06
664.376	93.06
664.579	71.06
664.782	90.06
664.985	92.06
665.188	91.06
665.391	86.06
665.594	84.06
665.797	76.06
666	82.06
666.203	76.06
666.406	80.06
666.609	101.06
666.812	88.06
667.015	101.06
667.218	88.06
667.421	90.06
667.624	85.06
667.827	79.06
668.03	84.06
668.232	94.06
668.435	86.06
668.638	77.06
668.841	83.06
669.043	72.06
669.246	79.06
669.449	77.06
669.651	100.06
669.854	84.06
670.057	97.06
670.259	90.06
670.462	97.06
670.665	91.06
670.867	83.06
671.07	85.06
671.272	93.06
671.475	89.06
671.677	79.06
671.88	90.06
672.082	89.06
672.284	92.06
672.487	79.06
672.689	88.06
672.892	71.06
