Data from Fe(NO3)3@0.05M.TitratingCurve.Agarose3%dH2O.NegLispCup.LampEnergy10.LIBS07252019_HRD10591_16-46-10-334.txt Node
Date: Thu Jul 25 16:46:10 EDT 2019
User: cochatt
Spectrometer: HR+D1059
Trigger mode: 1
Integration Time (sec): 1.000000E-1
Scans to average: 1
Electric dark correction enabled: true
Nonlinearity correction enabled: false
Boxcar width: 0
XAxis mode: Wavelengths
Number of Pixels in Spectrum: 2048
>>>>>Begin Spectral Data<<<<<
223.165	-19.94
223.4	-19.94
223.635	-19.94
223.869	-28.94
224.104	-26.94
224.338	-24.94
224.573	-11.94
224.808	-18.94
225.042	4.06
225.277	-12.94
225.511	5.06
225.746	4.06
225.98	11.06
226.215	13.06
226.449	19.06
226.683	15.06
226.918	35.06
227.152	38.06
227.387	41.06
227.621	43.06
227.856	36.06
228.09	37.06
228.324	48.06
228.559	58.06
228.793	90.06
229.027	141.06
229.262	130.06
229.496	145.06
229.73	137.06
229.964	156.06
230.199	164.06
230.433	168.06
230.667	153.06
230.901	186.06
231.136	171.06
231.37	181.06
231.604	185.06
231.838	171.06
232.072	185.06
232.306	186.06
232.541	196.06
232.775	194.06
233.009	198.06
233.243	206.06
233.477	214.06
233.711	212.06
233.945	205.06
234.179	214.06
234.413	205.06
234.647	231.06
234.881	245.06
235.115	240.06
235.349	224.06
235.583	231.06
235.817	212.06
236.051	225.06
236.285	227.06
236.519	227.06
236.753	240.06
236.987	240.06
237.221	226.06
237.455	247.06
237.689	251.06
237.922	244.06
238.156	245.06
238.39	288.06
238.624	308.06
238.858	296.06
239.091	273.06
239.325	270.06
239.559	286.06
239.793	291.06
240.027	320.06
240.26	301.06
240.494	278.06
240.728	294.06
240.961	319.06
241.195	306.06
241.429	291.06
241.662	310.06
241.896	289.06
242.13	288.06
242.363	284.06
242.597	288.06
242.83	317.06
243.064	300.06
243.298	309.06
243.531	332.06
243.765	332.06
243.998	326.06
244.232	332.06
244.465	341.06
244.699	330.06
244.932	363.06
245.166	332.06
245.399	347.06
245.633	329.06
245.866	348.06
246.099	340.06
246.333	344.06
246.566	341.06
246.8	347.06
247.033	346.06
247.266	363.06
247.5	365.06
247.733	343.06
247.966	368.06
248.2	372.06
248.433	381.06
248.666	384.06
248.899	384.06
249.133	403.06
249.366	423.06
249.599	434.06
249.832	433.06
250.066	376.06
250.299	406.06
250.532	405.06
250.765	435.06
250.998	418.06
251.231	389.06
251.465	403.06
251.698	419.06
251.931	423.06
252.164	422.06
252.397	452.06
252.63	456.06
252.863	463.06
253.096	462.06
253.329	453.06
253.562	449.06
253.795	478.06
254.028	491.06
254.261	513.06
254.494	474.06
254.727	458.06
254.96	467.06
255.193	469.06
255.426	476.06
255.659	464.06
255.892	456.06
256.124	443.06
256.357	464.06
256.59	514.06
256.823	509.06
257.056	486.06
257.289	470.06
257.521	460.06
257.754	496.06
257.987	493.06
258.22	491.06
258.452	473.06
258.685	527.06
258.918	521.06
259.151	525.06
259.383	492.06
259.616	530.06
259.849	564.06
260.081	638.06
260.314	683.06
260.547	587.06
260.779	565.06
261.012	601.06
261.244	597.06
261.477	589.06
261.71	603.06
261.942	568.06
262.175	526.06
262.407	537.06
262.64	546.06
262.872	584.06
263.105	607.06
263.337	614.06
263.57	607.06
263.802	535.06
264.035	550.06
264.267	553.06
264.499	548.06
264.732	532.06
264.964	547.06
265.197	530.06
265.429	541.06
265.661	544.06
265.894	535.06
266.126	560.06
266.358	562.06
266.591	556.06
266.823	578.06
267.055	567.06
267.287	567.06
267.52	577.06
267.752	596.06
267.984	582.06
268.216	581.06
268.448	594.06
268.681	599.06
268.913	587.06
269.145	583.06
269.377	599.06
269.609	593.06
269.841	588.06
270.073	613.06
270.306	609.06
270.538	601.06
270.77	601.06
271.002	609.06
271.234	618.06
271.466	600.06
271.698	652.06
271.93	648.06
272.162	650.06
272.394	636.06
272.626	633.06
272.858	658.06
273.09	643.06
273.322	653.06
273.553	669.06
273.785	687.06
274.017	745.06
274.249	794.06
274.481	778.06
274.713	787.06
274.945	880.06
275.176	872.06
275.408	844.06
275.64	795.06
275.872	836.06
276.104	765.06
276.335	708.06
276.567	670.06
276.799	690.06
277.031	713.06
277.262	704.06
277.494	695.06
277.726	704.06
277.957	698.06
278.189	709.06
278.421	682.06
278.652	694.06
278.884	724.06
279.115	686.06
279.347	711.06
279.579	698.06
279.81	714.06
280.042	708.06
280.273	708.06
280.505	700.06
280.736	735.06
280.968	732.06
281.199	728.06
281.431	721.06
281.662	731.06
281.894	731.06
282.125	720.06
282.356	732.06
282.588	734.06
282.819	749.06
283.051	738.06
283.282	757.06
283.513	736.06
283.745	775.06
283.976	765.06
284.207	758.06
284.439	774.06
284.67	773.06
284.901	776.06
285.132	772.06
285.364	798.06
285.595	796.06
285.826	773.06
286.057	802.06
286.288	774.06
286.52	789.06
286.751	762.06
286.982	790.06
287.213	765.06
287.444	787.06
287.675	786.06
287.906	800.06
288.138	794.06
288.369	792.06
288.6	787.06
288.831	785.06
289.062	793.06
289.293	818.06
289.524	836.06
289.755	781.06
289.986	844.06
290.217	828.06
290.448	824.06
290.679	825.06
290.91	822.06
291.141	801.06
291.371	829.06
291.602	812.06
291.833	787.06
292.064	802.06
292.295	811.06
292.526	809.06
292.757	812.06
292.987	814.06
293.218	817.06
293.449	822.06
293.68	817.06
293.91	833.06
294.141	831.06
294.372	823.06
294.603	827.06
294.833	833.06
295.064	840.06
295.295	836.06
295.525	813.06
295.756	856.06
295.987	843.06
296.217	862.06
296.448	859.06
296.679	833.06
296.909	840.06
297.14	874.06
297.37	888.06
297.601	862.06
297.831	855.06
298.062	849.06
298.292	861.06
298.523	901.06
298.753	888.06
298.984	873.06
299.214	889.06
299.445	846.06
299.675	894.06
299.905	892.06
300.136	887.06
300.366	895.06
300.597	898.06
300.827	883.06
301.057	886.06
301.288	898.06
301.518	902.06
301.748	917.06
301.979	929.06
302.209	932.06
302.439	938.06
302.669	922.06
302.9	934.06
303.13	929.06
303.36	939.06
303.59	930.06
303.82	931.06
304.051	917.06
304.281	934.06
304.511	927.06
304.741	948.06
304.971	931.06
305.201	932.06
305.431	939.06
305.661	944.06
305.891	941.06
306.121	924.06
306.352	945.06
306.582	929.06
306.812	922.06
307.042	963.06
307.272	974.06
307.502	971.06
307.731	923.06
307.961	949.06
308.191	958.06
308.421	936.06
308.651	931.06
308.881	931.06
309.111	936.06
309.341	937.06
309.571	930.06
309.8	973.06
310.03	964.06
310.26	956.06
310.49	964.06
310.72	980.06
310.949	954.06
311.179	966.06
311.409	986.06
311.639	973.06
311.868	964.06
312.098	979.06
312.328	977.06
312.557	956.06
312.787	993.06
313.017	968.06
313.246	997.06
313.476	981.06
313.706	985.06
313.935	1024.06
314.165	1001.06
314.394	1016.06
314.624	1044.06
314.853	1022.06
315.083	1017.06
315.312	1042.06
315.542	1037.06
315.771	1058.06
316.001	1029.06
316.23	1017.06
316.46	1003.06
316.689	1056.06
316.919	1024.06
317.148	1047.06
317.377	1045.06
317.607	1005.06
317.836	1016.06
318.065	1028.06
318.295	1026.06
318.524	1046.06
318.753	1044.06
318.983	1055.06
319.212	1028.06
319.441	1035.06
319.67	1070.06
319.9	1041.06
320.129	1018.06
320.358	1073.06
320.587	1054.06
320.816	1076.06
321.046	1036.06
321.275	1080.06
321.504	1042.06
321.733	1076.06
321.962	1065.06
322.191	1076.06
322.42	1072.06
322.649	1059.06
322.878	1051.06
323.108	1050.06
323.337	1086.06
323.566	1106.06
323.795	1095.06
324.024	1118.06
324.253	1100.06
324.482	1044.06
324.71	1096.06
324.939	1085.06
325.168	1079.06
325.397	1106.06
325.626	1117.06
325.855	1123.06
326.084	1110.06
326.313	1116.06
326.542	1090.06
326.77	1116.06
326.999	1152.06
327.228	1119.06
327.457	1137.06
327.686	1126.06
327.914	1149.06
328.143	1120.06
328.372	1158.06
328.6	1146.06
328.829	1090.06
329.058	1125.06
329.287	1128.06
329.515	1154.06
329.744	1167.06
329.972	1162.06
330.201	1134.06
330.43	1166.06
330.658	1176.06
330.887	1172.06
331.115	1166.06
331.344	1168.06
331.572	1165.06
331.801	1192.06
332.03	1194.06
332.258	1189.06
332.486	1187.06
332.715	1205.06
332.943	1211.06
333.172	1244.06
333.4	1253.06
333.629	1218.06
333.857	1260.06
334.085	1270.06
334.314	1301.06
334.542	1277.06
334.771	1313.06
334.999	1273.06
335.227	1307.06
335.455	1326.06
335.684	1289.06
335.912	1301.06
336.14	1275.06
336.369	1282.06
336.597	1302.06
336.825	1300.06
337.053	1284.06
337.281	1283.06
337.51	1264.06
337.738	1258.06
337.966	1286.06
338.194	1248.06
338.422	1235.06
338.65	1245.06
338.878	1249.06
339.106	1215.06
339.334	1255.06
339.562	1241.06
339.79	1235.06
340.018	1213.06
340.246	1182.06
340.474	1218.06
340.702	1232.06
340.93	1236.06
341.158	1238.06
341.386	1238.06
341.614	1194.06
341.842	1196.06
342.07	1234.06
342.298	1204.06
342.526	1205.06
342.754	1224.06
342.981	1205.06
343.209	1222.06
343.437	1234.06
343.665	1246.06
343.893	1280.06
344.12	1315.06
344.348	1302.06
344.576	1308.06
344.804	1266.06
345.031	1224.06
345.259	1236.06
345.487	1224.06
345.714	1230.06
345.942	1213.06
346.17	1204.06
346.397	1174.06
346.625	1193.06
346.853	1179.06
347.08	1195.06
347.308	1174.06
347.535	1186.06
347.763	1177.06
347.99	1175.06
348.218	1211.06
348.445	1139.06
348.673	1175.06
348.9	1154.06
349.128	1148.06
349.355	1144.06
349.583	1153.06
349.81	1153.06
350.037	1166.06
350.265	1166.06
350.492	1137.06
350.72	1150.06
350.947	1154.06
351.174	1107.06
351.402	1150.06
351.629	1170.06
351.856	1119.06
352.083	1121.06
352.311	1137.06
352.538	1152.06
352.765	1140.06
352.992	1176.06
353.22	1113.06
353.447	1124.06
353.674	1142.06
353.901	1147.06
354.128	1136.06
354.355	1139.06
354.583	1129.06
354.81	1150.06
355.037	1136.06
355.264	1157.06
355.491	1145.06
355.718	1153.06
355.945	1121.06
356.172	1154.06
356.399	1156.06
356.626	1164.06
356.853	1163.06
357.08	1188.06
357.307	1181.06
357.534	1170.06
357.761	1146.06
357.988	1160.06
358.215	1176.06
358.441	1207.06
358.668	1180.06
358.895	1187.06
359.122	1157.06
359.349	1149.06
359.576	1179.06
359.802	1148.06
360.029	1180.06
360.256	1178.06
360.483	1161.06
360.709	1166.06
360.936	1212.06
361.163	1187.06
361.39	1142.06
361.616	1152.06
361.843	1179.06
362.07	1193.06
362.296	1181.06
362.523	1167.06
362.749	1171.06
362.976	1161.06
363.203	1174.06
363.429	1201.06
363.656	1176.06
363.882	1176.06
364.109	1191.06
364.335	1176.06
364.562	1189.06
364.788	1206.06
365.015	1203.06
365.241	1173.06
365.468	1191.06
365.694	1204.06
365.92	1172.06
366.147	1202.06
366.373	1199.06
366.599	1228.06
366.826	1206.06
367.052	1152.06
367.278	1198.06
367.505	1200.06
367.731	1228.06
367.957	1205.06
368.184	1220.06
368.41	1232.06
368.636	1191.06
368.862	1258.06
369.089	1202.06
369.315	1212.06
369.541	1247.06
369.767	1238.06
369.993	1226.06
370.219	1220.06
370.445	1244.06
370.672	1248.06
370.898	1221.06
371.124	1262.06
371.35	1280.06
371.576	1265.06
371.802	1255.06
372.028	1308.06
372.254	1297.06
372.48	1306.06
372.706	1292.06
372.932	1301.06
373.158	1326.06
373.384	1291.06
373.61	1377.06
373.835	1361.06
374.061	1293.06
374.287	1324.06
374.513	1311.06
374.739	1330.06
374.965	1358.06
375.191	1380.06
375.416	1332.06
375.642	1329.06
375.868	1349.06
376.094	1349.06
376.319	1321.06
376.545	1317.06
376.771	1320.06
376.997	1306.06
377.222	1293.06
377.448	1258.06
377.674	1266.06
377.899	1266.06
378.125	1256.06
378.35	1266.06
378.576	1252.06
378.802	1268.06
379.027	1268.06
379.253	1281.06
379.478	1268.06
379.704	1270.06
379.929	1332.06
380.155	1288.06
380.38	1266.06
380.606	1306.06
380.831	1286.06
381.057	1336.06
381.282	1286.06
381.507	1342.06
381.733	1320.06
381.958	1344.06
382.184	1369.06
382.409	1321.06
382.634	1394.06
382.86	1373.06
383.085	1371.06
383.31	1347.06
383.535	1396.06
383.761	1370.06
383.986	1370.06
384.211	1395.06
384.436	1436.06
384.662	1409.06
384.887	1418.06
385.112	1414.06
385.337	1423.06
385.562	1444.06
385.787	1467.06
386.013	1462.06
386.238	1509.06
386.463	1460.06
386.688	1468.06
386.913	1450.06
387.138	1490.06
387.363	1480.06
387.588	1498.06
387.813	1505.06
388.038	1494.06
388.263	1521.06
388.488	1512.06
388.713	1514.06
388.938	1521.06
389.163	1516.06
389.387	1505.06
389.612	1474.06
389.837	1520.06
390.062	1492.06
390.287	1507.06
390.512	1534.06
390.736	1483.06
390.961	1499.06
391.186	1543.06
391.411	1528.06
391.636	1585.06
391.86	1578.06
392.085	1581.06
392.31	1578.06
392.534	1570.06
392.759	1576.06
392.984	1568.06
393.208	1545.06
393.433	1608.06
393.658	1581.06
393.882	1550.06
394.107	1541.06
394.331	1585.06
394.556	1575.06
394.78	1585.06
395.005	1591.06
395.229	1568.06
395.454	1615.06
395.678	1617.06
395.903	1627.06
396.127	1625.06
396.352	1624.06
396.576	1608.06
396.801	1601.06
397.025	1598.06
397.249	1640.06
397.474	1669.06
397.698	1672.06
397.922	1700.06
398.147	1694.06
398.371	1701.06
398.595	1734.06
398.82	1796.06
399.044	1824.06
399.268	1853.06
399.492	1978.06
399.717	1991.06
399.941	2077.06
400.165	1971.06
400.389	1945.06
400.613	1950.06
400.837	1865.06
401.062	1880.06
401.286	1809.06
401.51	1794.06
401.734	1788.06
401.958	1788.06
402.182	1808.06
402.406	1773.06
402.63	1798.06
402.854	1787.06
403.078	1800.06
403.302	1791.06
403.526	1824.06
403.75	1804.06
403.974	1852.06
404.198	1778.06
404.422	1830.06
404.645	1832.06
404.869	1831.06
405.093	1855.06
405.317	1796.06
405.541	1845.06
405.765	1877.06
405.988	1888.06
406.212	1889.06
406.436	1909.06
406.66	1992.06
406.883	1911.06
407.107	1973.06
407.331	1990.06
407.555	2058.06
407.778	2016.06
408.002	2002.06
408.226	2024.06
408.449	2034.06
408.673	1998.06
408.896	1969.06
409.12	1945.06
409.344	1959.06
409.567	1930.06
409.791	1925.06
410.014	1924.06
410.238	1873.06
410.461	1877.06
410.685	1890.06
410.908	1907.06
411.132	1839.06
411.355	1844.06
411.578	1876.06
411.802	1848.06
412.025	1887.06
412.249	1848.06
412.472	1854.06
412.695	1857.06
412.919	1810.06
413.142	1814.06
413.365	1825.06
413.589	1828.06
413.812	1828.06
414.035	1801.06
414.258	1807.06
414.482	1795.06
414.705	1802.06
414.928	1782.06
415.151	1791.06
415.374	1804.06
415.597	1808.06
415.821	1716.06
416.044	1745.06
416.267	1745.06
416.49	1749.06
416.713	1741.06
416.936	1753.06
417.159	1723.06
417.382	1734.06
417.605	1724.06
417.828	1737.06
418.051	1753.06
418.274	1716.06
418.497	1705.06
418.72	1725.06
418.943	1680.06
419.166	1803.06
419.389	1908.06
419.611	1898.06
419.834	1829.06
420.057	1760.06
420.28	1752.06
420.503	1701.06
420.726	1713.06
420.948	1692.06
421.171	1696.06
421.394	1720.06
421.617	1704.06
421.839	1720.06
422.062	1712.06
422.285	1659.06
422.507	1690.06
422.73	1684.06
422.953	1695.06
423.175	1671.06
423.398	1697.06
423.621	1657.06
423.843	1750.06
424.066	1739.06
424.288	1703.06
424.511	1700.06
424.733	1660.06
424.956	1694.06
425.178	1665.06
425.401	1674.06
425.623	1674.06
425.846	1661.06
426.068	1693.06
426.291	1678.06
426.513	1662.06
426.735	1669.06
426.958	1680.06
427.18	1640.06
427.402	1629.06
427.625	1673.06
427.847	1662.06
428.069	1667.06
428.292	1650.06
428.514	1685.06
428.736	1644.06
428.958	1662.06
429.181	1612.06
429.403	1635.06
429.625	1672.06
429.847	1618.06
430.069	1626.06
430.292	1648.06
430.514	1662.06
430.736	1613.06
430.958	1656.06
431.18	1616.06
431.402	1646.06
431.624	1611.06
431.846	1662.06
432.068	1640.06
432.29	1668.06
432.512	1647.06
432.734	1702.06
432.956	1684.06
433.178	1669.06
433.4	1648.06
433.622	1650.06
433.844	1694.06
434.066	1654.06
434.287	1657.06
434.509	1657.06
434.731	1681.06
434.953	1689.06
435.175	1726.06
435.397	1766.06
435.618	1698.06
435.84	1679.06
436.062	1614.06
436.284	1652.06
436.505	1650.06
436.727	1625.06
436.949	1632.06
437.17	1635.06
437.392	1591.06
437.614	1625.06
437.835	1615.06
438.057	1575.06
438.278	1597.06
438.5	1614.06
438.721	1606.06
438.943	1597.06
439.165	1588.06
439.386	1602.06
439.608	1655.06
439.829	1617.06
440.05	1616.06
440.272	1590.06
440.493	1580.06
440.715	1637.06
440.936	1649.06
441.158	1659.06
441.379	1659.06
441.6	1681.06
441.822	1654.06
442.043	1686.06
442.264	1688.06
442.486	1682.06
442.707	1672.06
442.928	1702.06
443.149	1664.06
443.371	1668.06
443.592	1697.06
443.813	1676.06
444.034	1682.06
444.255	1716.06
444.476	1743.06
444.698	1772.06
444.919	1729.06
445.14	1902.06
445.361	1741.06
445.582	1735.06
445.803	1695.06
446.024	1668.06
446.245	1707.06
446.466	1687.06
446.687	1595.06
446.908	1644.06
447.129	1591.06
447.35	1605.06
447.571	1573.06
447.792	1526.06
448.013	1571.06
448.234	1547.06
448.455	1550.06
448.675	1536.06
448.896	1549.06
449.117	1447.06
449.338	1525.06
449.559	1497.06
449.779	1496.06
450	1480.06
450.221	1470.06
450.442	1501.06
450.662	1467.06
450.883	1490.06
451.104	1460.06
451.324	1489.06
451.545	1463.06
451.766	1468.06
451.986	1473.06
452.207	1459.06
452.428	1453.06
452.648	1443.06
452.869	1441.06
453.089	1409.06
453.31	1434.06
453.53	1428.06
453.751	1460.06
453.971	1423.06
454.192	1400.06
454.412	1406.06
454.633	1398.06
454.853	1406.06
455.073	1442.06
455.294	1428.06
455.514	1407.06
455.734	1414.06
455.955	1400.06
456.175	1438.06
456.395	1416.06
456.616	1397.06
456.836	1458.06
457.056	1444.06
457.276	1406.06
457.497	1436.06
457.717	1438.06
457.937	1426.06
458.157	1460.06
458.377	1478.06
458.598	1530.06
458.818	1545.06
459.038	1510.06
459.258	1514.06
459.478	1559.06
459.698	1584.06
459.918	1644.06
460.138	1606.06
460.358	1679.06
460.578	1679.06
460.798	1678.06
461.018	1693.06
461.238	1738.06
461.458	1762.06
461.678	1716.06
461.898	1744.06
462.118	1757.06
462.338	1820.06
462.558	1828.06
462.777	1842.06
462.997	1913.06
463.217	1918.06
463.437	1962.06
463.657	1928.06
463.876	1889.06
464.096	1907.06
464.316	1840.06
464.536	1887.06
464.755	1854.06
464.975	1804.06
465.195	1784.06
465.414	1769.06
465.634	1694.06
465.854	1688.06
466.073	1670.06
466.293	1641.06
466.512	1629.06
466.732	1616.06
466.951	1654.06
467.171	1590.06
467.391	1574.06
467.61	1614.06
467.829	1565.06
468.049	1562.06
468.268	1571.06
468.488	1545.06
468.707	1570.06
468.927	1613.06
469.146	1609.06
469.365	1581.06
469.585	1561.06
469.804	1605.06
470.023	1610.06
470.243	1597.06
470.462	1578.06
470.681	1611.06
470.901	1590.06
471.12	1624.06
471.339	1610.06
471.558	1600.06
471.777	1582.06
471.997	1577.06
472.216	1570.06
472.435	1595.06
472.654	1605.06
472.873	1583.06
473.092	1565.06
473.311	1616.06
473.53	1596.06
473.749	1577.06
473.968	1568.06
474.187	1594.06
474.406	1607.06
474.625	1592.06
474.844	1600.06
475.063	1621.06
475.282	1592.06
475.501	1616.06
475.72	1642.06
475.939	1627.06
476.158	1644.06
476.377	1691.06
476.596	1741.06
476.814	1794.06
477.033	1739.06
477.252	1684.06
477.471	1715.06
477.69	1757.06
477.908	1768.06
478.127	1842.06
478.346	1801.06
478.564	1829.06
478.783	1815.06
479.002	1883.06
479.22	1880.06
479.439	1981.06
479.658	1936.06
479.876	1922.06
480.095	1912.06
480.313	1974.06
480.532	1945.06
480.751	1921.06
480.969	1935.06
481.188	1993.06
481.406	1978.06
481.624	1919.06
481.843	1902.06
482.061	1924.06
482.28	1903.06
482.498	1955.06
482.717	1899.06
482.935	1939.06
483.153	1959.06
483.372	1940.06
483.59	1913.06
483.808	1937.06
484.027	1952.06
484.245	1943.06
484.463	1983.06
484.681	1973.06
484.9	1995.06
485.118	2010.06
485.336	1976.06
485.554	1986.06
485.772	1988.06
485.99	1976.06
486.209	2025.06
486.427	1980.06
486.645	1956.06
486.863	2015.06
487.081	2016.06
487.299	2024.06
487.517	2008.06
487.735	1991.06
487.953	1994.06
488.171	2003.06
488.389	1995.06
488.607	1988.06
488.825	2004.06
489.043	2002.06
489.261	2001.06
489.479	1983.06
489.696	1975.06
489.914	1979.06
490.132	1975.06
490.35	1971.06
490.568	2018.06
490.786	2009.06
491.003	2003.06
491.221	1984.06
491.439	1972.06
491.657	1976.06
491.874	2004.06
492.092	2046.06
492.31	2015.06
492.527	2063.06
492.745	2039.06
492.963	2042.06
493.18	2026.06
493.398	2015.06
493.615	2061.06
493.833	2046.06
494.05	2036.06
494.268	2040.06
494.485	2046.06
494.703	2057.06
494.92	2005.06
495.138	2065.06
495.355	2051.06
495.573	2089.06
495.79	2097.06
496.008	2085.06
496.225	2122.06
496.442	2120.06
496.66	2170.06
496.877	2212.06
497.094	2200.06
497.312	2216.06
497.529	2225.06
497.746	2275.06
497.963	2310.06
498.181	2363.06
498.398	2482.06
498.615	2487.06
498.832	2622.06
499.049	2668.06
499.267	2732.06
499.484	2873.06
499.701	2934.06
499.918	3065.06
500.135	3219.06
500.352	3328.06
500.569	3354.06
500.786	3370.06
501.003	3284.06
501.22	3218.06
501.437	3025.06
501.654	2875.06
501.871	2801.06
502.088	2679.06
502.305	2621.06
502.522	2578.06
502.739	2512.06
502.956	2428.06
503.172	2329.06
503.389	2295.06
503.606	2247.06
503.823	2225.06
504.04	2180.06
504.256	2198.06
504.473	2136.06
504.69	2120.06
504.907	2118.06
505.123	2038.06
505.34	2036.06
505.557	1991.06
505.773	1985.06
505.99	1921.06
506.207	1896.06
506.423	1888.06
506.64	1848.06
506.856	1853.06
507.073	1822.06
507.289	1834.06
507.506	1771.06
507.722	1787.06
507.939	1775.06
508.155	1767.06
508.372	1737.06
508.588	1736.06
508.805	1735.06
509.021	1681.06
509.238	1708.06
509.454	1689.06
509.67	1697.06
509.887	1661.06
510.103	1678.06
510.319	1638.06
510.536	1632.06
510.752	1640.06
510.968	1657.06
511.184	1605.06
511.401	1618.06
511.617	1614.06
511.833	1618.06
512.049	1601.06
512.265	1590.06
512.481	1612.06
512.698	1605.06
512.914	1621.06
513.13	1630.06
513.346	1581.06
513.562	1617.06
513.778	1587.06
513.994	1607.06
514.21	1584.06
514.426	1600.06
514.642	1604.06
514.858	1614.06
515.074	1647.06
515.29	1637.06
515.506	1621.06
515.721	1620.06
515.937	1683.06
516.153	1657.06
516.369	1701.06
516.585	1658.06
516.801	1702.06
517.016	1708.06
517.232	1791.06
517.448	1785.06
517.664	1764.06
517.879	1788.06
518.095	1778.06
518.311	1761.06
518.527	1723.06
518.742	1743.06
518.958	1692.06
519.173	1667.06
519.389	1698.06
519.605	1670.06
519.82	1625.06
520.036	1696.06
520.251	1668.06
520.467	1633.06
520.682	1568.06
520.898	1513.06
521.113	1532.06
521.329	1538.06
521.544	1523.06
521.76	1590.06
521.975	1529.06
522.19	1507.06
522.406	1485.06
522.621	1539.06
522.836	1476.06
523.052	1519.06
523.267	1492.06
523.482	1477.06
523.698	1472.06
523.913	1484.06
524.128	1460.06
524.343	1439.06
524.559	1436.06
524.774	1445.06
524.989	1467.06
525.204	1475.06
525.419	1487.06
525.634	1421.06
525.849	1410.06
526.064	1438.06
526.28	1451.06
526.495	1431.06
526.71	1443.06
526.925	1395.06
527.14	1428.06
527.355	1419.06
527.57	1418.06
527.785	1384.06
527.999	1382.06
528.214	1402.06
528.429	1380.06
528.644	1387.06
528.859	1413.06
529.074	1417.06
529.289	1387.06
529.503	1364.06
529.718	1347.06
529.933	1361.06
530.148	1339.06
530.363	1373.06
530.577	1353.06
530.792	1355.06
531.007	1353.06
531.221	1326.06
531.436	1336.06
531.651	1340.06
531.865	1338.06
532.08	1366.06
532.295	1348.06
532.509	1374.06
532.724	1312.06
532.938	1367.06
533.153	1336.06
533.367	1351.06
533.582	1327.06
533.796	1328.06
534.011	1350.06
534.225	1294.06
534.44	1291.06
534.654	1313.06
534.868	1326.06
535.083	1313.06
535.297	1299.06
535.511	1316.06
535.726	1311.06
535.94	1272.06
536.154	1292.06
536.369	1256.06
536.583	1261.06
536.797	1250.06
537.011	1292.06
537.225	1257.06
537.44	1265.06
537.654	1264.06
537.868	1251.06
538.082	1239.06
538.296	1257.06
538.51	1269.06
538.724	1246.06
538.938	1234.06
539.153	1235.06
539.367	1208.06
539.581	1250.06
539.795	1237.06
540.009	1245.06
540.222	1248.06
540.436	1243.06
540.65	1219.06
540.864	1237.06
541.078	1208.06
541.292	1217.06
541.506	1200.06
541.72	1230.06
541.934	1204.06
542.147	1250.06
542.361	1247.06
542.575	1219.06
542.789	1221.06
543.002	1176.06
543.216	1227.06
543.43	1189.06
543.644	1180.06
543.857	1184.06
544.071	1220.06
544.285	1154.06
544.498	1185.06
544.712	1204.06
544.925	1196.06
545.139	1218.06
545.352	1206.06
545.566	1193.06
545.779	1212.06
545.993	1230.06
546.206	1235.06
546.42	1195.06
546.633	1165.06
546.847	1214.06
547.06	1193.06
547.274	1209.06
547.487	1186.06
547.7	1202.06
547.914	1223.06
548.127	1245.06
548.34	1257.06
548.554	1202.06
548.767	1226.06
548.98	1225.06
549.193	1186.06
549.407	1190.06
549.62	1241.06
549.833	1204.06
550.046	1239.06
550.259	1234.06
550.473	1211.06
550.686	1203.06
550.899	1215.06
551.112	1217.06
551.325	1199.06
551.538	1224.06
551.751	1222.06
551.964	1206.06
552.177	1181.06
552.39	1167.06
552.603	1221.06
552.816	1192.06
553.029	1195.06
553.242	1197.06
553.455	1235.06
553.667	1186.06
553.88	1200.06
554.093	1158.06
554.306	1197.06
554.519	1154.06
554.732	1116.06
554.944	1155.06
555.157	1092.06
555.37	1098.06
555.583	1109.06
555.795	1067.06
556.008	1062.06
556.221	1072.06
556.433	1090.06
556.646	1058.06
556.859	1073.06
557.071	1052.06
557.284	1077.06
557.496	1062.06
557.709	1015.06
557.921	1054.06
558.134	1031.06
558.346	1017.06
558.559	1044.06
558.771	1035.06
558.984	1033.06
559.196	1045.06
559.409	1000.06
559.621	983.06
559.833	1026.06
560.046	1000.06
560.258	997.06
560.47	1008.06
560.683	1016.06
560.895	991.06
561.107	1001.06
561.32	978.06
561.532	998.06
561.744	1030.06
561.956	1033.06
562.168	1002.06
562.381	997.06
562.593	1028.06
562.805	1021.06
563.017	995.06
563.229	1027.06
563.441	991.06
563.653	1026.06
563.865	1043.06
564.077	1016.06
564.289	1060.06
564.501	1046.06
564.713	1073.06
564.925	1065.06
565.137	1068.06
565.349	1088.06
565.561	1134.06
565.773	1125.06
565.985	1170.06
566.197	1178.06
566.408	1187.06
566.62	1194.06
566.832	1256.06
567.044	1276.06
567.255	1265.06
567.467	1268.06
567.679	1283.06
567.891	1278.06
568.102	1239.06
568.314	1222.06
568.526	1210.06
568.737	1197.06
568.949	1144.06
569.161	1101.06
569.372	1054.06
569.584	1031.06
569.795	1036.06
570.007	1033.06
570.218	973.06
570.43	964.06
570.641	982.06
570.853	972.06
571.064	962.06
571.276	942.06
571.487	920.06
571.698	894.06
571.91	904.06
572.121	912.06
572.333	900.06
572.544	867.06
572.755	842.06
572.966	842.06
573.178	829.06
573.389	810.06
573.6	811.06
573.811	849.06
574.023	825.06
574.234	824.06
574.445	790.06
574.656	800.06
574.867	802.06
575.078	803.06
575.289	786.06
575.501	823.06
575.712	780.06
575.923	755.06
576.134	782.06
576.345	765.06
576.556	757.06
576.767	743.06
576.978	759.06
577.188	723.06
577.399	764.06
577.61	768.06
577.821	737.06
578.032	765.06
578.243	766.06
578.454	748.06
578.665	710.06
578.875	697.06
579.086	710.06
579.297	714.06
579.508	728.06
579.718	716.06
579.929	704.06
580.14	701.06
580.35	713.06
580.561	709.06
580.772	705.06
580.982	704.06
581.193	704.06
581.403	702.06
581.614	686.06
581.825	691.06
582.035	697.06
582.246	684.06
582.456	692.06
582.667	688.06
582.877	706.06
583.087	680.06
583.298	670.06
583.508	666.06
583.719	674.06
583.929	694.06
584.139	658.06
584.35	662.06
584.56	677.06
584.77	676.06
584.981	660.06
585.191	656.06
585.401	655.06
585.611	684.06
585.821	673.06
586.032	660.06
586.242	669.06
586.452	631.06
586.662	636.06
586.872	638.06
587.082	634.06
587.292	653.06
587.502	658.06
587.713	618.06
587.923	636.06
588.133	652.06
588.343	645.06
588.553	662.06
588.762	624.06
588.972	643.06
589.182	695.06
589.392	672.06
589.602	635.06
589.812	655.06
590.022	645.06
590.232	644.06
590.441	637.06
590.651	633.06
590.861	605.06
591.071	628.06
591.281	655.06
591.49	659.06
591.7	647.06
591.91	659.06
592.119	644.06
592.329	662.06
592.539	651.06
592.748	661.06
592.958	663.06
593.167	656.06
593.377	679.06
593.587	673.06
593.796	680.06
594.006	708.06
594.215	653.06
594.424	681.06
594.634	657.06
594.843	652.06
595.053	622.06
595.262	646.06
595.472	610.06
595.681	614.06
595.89	613.06
596.1	605.06
596.309	611.06
596.518	599.06
596.727	588.06
596.937	594.06
597.146	579.06
597.355	604.06
597.564	556.06
597.774	576.06
597.983	563.06
598.192	560.06
598.401	552.06
598.61	574.06
598.819	538.06
599.028	559.06
599.237	533.06
599.446	544.06
599.655	534.06
599.864	560.06
600.073	553.06
600.282	540.06
600.491	544.06
600.7	562.06
600.909	548.06
601.118	547.06
601.327	541.06
601.536	548.06
601.745	516.06
601.953	551.06
602.162	533.06
602.371	507.06
602.58	507.06
602.789	518.06
602.997	495.06
603.206	493.06
603.415	512.06
603.623	516.06
603.832	472.06
604.041	490.06
604.249	469.06
604.458	480.06
604.666	472.06
604.875	471.06
605.084	494.06
605.292	488.06
605.501	512.06
605.709	485.06
605.918	474.06
606.126	494.06
606.334	504.06
606.543	499.06
606.751	468.06
606.96	474.06
607.168	479.06
607.376	472.06
607.585	475.06
607.793	454.06
608.001	448.06
608.21	454.06
608.418	475.06
608.626	461.06
608.834	485.06
609.043	477.06
609.251	482.06
609.459	478.06
609.667	460.06
609.875	449.06
610.083	476.06
610.291	473.06
610.499	432.06
610.707	446.06
610.916	443.06
611.124	473.06
611.332	466.06
611.54	467.06
611.748	460.06
611.955	455.06
612.163	449.06
612.371	453.06
612.579	459.06
612.787	447.06
612.995	446.06
613.203	468.06
613.411	437.06
613.618	460.06
613.826	459.06
614.034	445.06
614.242	439.06
614.449	441.06
614.657	446.06
614.865	430.06
615.072	447.06
615.28	444.06
615.488	445.06
615.695	436.06
615.903	434.06
616.111	439.06
616.318	449.06
616.526	426.06
616.733	442.06
616.941	438.06
617.148	445.06
617.356	401.06
617.563	422.06
617.771	426.06
617.978	421.06
618.185	422.06
618.393	436.06
618.6	424.06
618.807	411.06
619.015	424.06
619.222	413.06
619.429	440.06
619.637	427.06
619.844	421.06
620.051	426.06
620.258	423.06
620.466	404.06
620.673	410.06
620.88	405.06
621.087	399.06
621.294	392.06
621.501	418.06
621.708	399.06
621.915	422.06
622.122	408.06
622.329	396.06
622.536	414.06
622.743	408.06
622.95	411.06
623.157	403.06
623.364	409.06
623.571	389.06
623.778	410.06
623.985	411.06
624.192	398.06
624.399	399.06
624.606	388.06
624.812	384.06
625.019	386.06
625.226	402.06
625.433	377.06
625.639	365.06
625.846	392.06
626.053	369.06
626.259	376.06
626.466	392.06
626.673	377.06
626.879	383.06
627.086	381.06
627.293	359.06
627.499	376.06
627.706	355.06
627.912	363.06
628.119	386.06
628.325	386.06
628.532	375.06
628.738	364.06
628.945	345.06
629.151	366.06
629.357	363.06
629.564	375.06
629.77	358.06
629.976	372.06
630.183	375.06
630.389	353.06
630.595	355.06
630.802	354.06
631.008	344.06
631.214	348.06
631.42	360.06
631.627	356.06
631.833	350.06
632.039	352.06
632.245	355.06
632.451	369.06
632.657	355.06
632.863	360.06
633.069	356.06
633.275	339.06
633.481	338.06
633.688	337.06
633.893	335.06
634.099	318.06
634.305	328.06
634.511	324.06
634.717	321.06
634.923	324.06
635.129	316.06
635.335	331.06
635.541	316.06
635.747	338.06
635.952	318.06
636.158	324.06
636.364	324.06
636.57	336.06
636.775	333.06
636.981	323.06
637.187	321.06
637.392	322.06
637.598	322.06
637.804	313.06
638.009	339.06
638.215	325.06
638.421	317.06
638.626	329.06
638.832	325.06
639.037	328.06
639.243	334.06
639.448	317.06
639.654	339.06
639.859	301.06
640.065	305.06
640.27	308.06
640.475	316.06
640.681	319.06
640.886	312.06
641.091	314.06
641.297	320.06
641.502	306.06
641.707	307.06
641.913	320.06
642.118	325.06
642.323	325.06
642.528	315.06
642.733	312.06
642.939	312.06
643.144	317.06
643.349	305.06
643.554	313.06
643.759	315.06
643.964	317.06
644.169	323.06
644.374	330.06
644.579	304.06
644.784	321.06
644.989	321.06
645.194	323.06
645.399	318.06
645.604	310.06
645.809	333.06
646.014	307.06
646.219	309.06
646.423	316.06
646.628	303.06
646.833	319.06
647.038	328.06
647.243	321.06
647.447	323.06
647.652	333.06
647.857	327.06
648.062	319.06
648.266	330.06
648.471	322.06
648.676	333.06
648.88	337.06
649.085	323.06
649.289	339.06
649.494	341.06
649.698	316.06
649.903	330.06
650.107	343.06
650.312	332.06
650.516	324.06
650.721	322.06
650.925	326.06
651.13	327.06
651.334	320.06
651.539	321.06
651.743	318.06
651.947	321.06
652.152	331.06
652.356	310.06
652.56	323.06
652.764	332.06
652.969	312.06
653.173	328.06
653.377	304.06
653.581	308.06
653.785	306.06
653.99	311.06
654.194	324.06
654.398	303.06
654.602	304.06
654.806	312.06
655.01	286.06
655.214	304.06
655.418	325.06
655.622	325.06
655.826	328.06
656.03	338.06
656.234	325.06
656.438	334.06
656.642	325.06
656.846	340.06
657.049	288.06
657.253	278.06
657.457	260.06
657.661	280.06
657.865	246.06
658.068	224.06
658.272	219.06
658.476	193.06
658.68	200.06
658.883	173.06
659.087	178.06
659.291	154.06
659.494	162.06
659.698	160.06
659.901	142.06
660.105	144.06
660.309	122.06
660.512	132.06
660.716	116.06
660.919	127.06
661.123	120.06
661.326	122.06
661.53	117.06
661.733	106.06
661.936	110.06
662.14	102.06
662.343	102.06
662.546	89.06
662.75	83.06
662.953	96.06
663.156	84.06
663.36	86.06
663.563	92.06
663.766	86.06
663.969	91.06
664.173	77.06
664.376	78.06
664.579	94.06
664.782	86.06
664.985	74.06
665.188	94.06
665.391	88.06
665.594	97.06
665.797	83.06
666	88.06
666.203	78.06
666.406	78.06
666.609	90.06
666.812	93.06
667.015	83.06
667.218	98.06
667.421	87.06
667.624	88.06
667.827	87.06
668.03	78.06
668.232	88.06
668.435	63.06
668.638	74.06
668.841	76.06
669.043	87.06
669.246	87.06
669.449	86.06
669.651	87.06
669.854	89.06
670.057	78.06
670.259	96.06
670.462	84.06
670.665	96.06
670.867	77.06
671.07	71.06
671.272	76.06
671.475	103.06
671.677	85.06
671.88	89.06
672.082	89.06
672.284	83.06
672.487	84.06
672.689	89.06
672.892	88.06
