Data from Fe(NO3)3@0.0125M.TitratingCurve.Agarose3%dH2O.NegLispCup.LampEnergy10.LIBS07252019_HRD10591_16-59-31-338.txt Node
Date: Thu Jul 25 16:59:31 EDT 2019
User: cochatt
Spectrometer: HR+D1059
Trigger mode: 1
Integration Time (sec): 1.000000E-1
Scans to average: 1
Electric dark correction enabled: true
Nonlinearity correction enabled: false
Boxcar width: 0
XAxis mode: Wavelengths
Number of Pixels in Spectrum: 2048
>>>>>Begin Spectral Data<<<<<
223.165	-7.31
223.4	-7.31
223.635	-7.31
223.869	-12.31
224.104	-21.31
224.338	-7.31
224.573	-14.31
224.808	-1.31
225.042	-2.31
225.277	-17.31
225.511	3.69
225.746	-9.31
225.98	-13.31
226.215	18.69
226.449	5.69
226.683	18.69
226.918	26.69
227.152	32.69
227.387	36.69
227.621	33.69
227.856	51.69
228.09	56.69
228.324	55.69
228.559	54.69
228.793	52.69
229.027	72.69
229.262	70.69
229.496	74.69
229.73	81.69
229.964	94.69
230.199	87.69
230.433	87.69
230.667	81.69
230.901	90.69
231.136	89.69
231.37	90.69
231.604	81.69
231.838	85.69
232.072	72.69
232.306	83.69
232.541	93.69
232.775	109.69
233.009	104.69
233.243	89.69
233.477	97.69
233.711	98.69
233.945	96.69
234.179	83.69
234.413	91.69
234.647	100.69
234.881	90.69
235.115	88.69
235.349	98.69
235.583	99.69
235.817	88.69
236.051	88.69
236.285	95.69
236.519	85.69
236.753	91.69
236.987	83.69
237.221	93.69
237.455	92.69
237.689	90.69
237.922	83.69
238.156	106.69
238.39	93.69
238.624	109.69
238.858	108.69
239.091	93.69
239.325	91.69
239.559	100.69
239.793	101.69
240.027	92.69
240.26	103.69
240.494	111.69
240.728	98.69
240.961	98.69
241.195	103.69
241.429	101.69
241.662	99.69
241.896	100.69
242.13	102.69
242.363	92.69
242.597	104.69
242.83	108.69
243.064	106.69
243.298	112.69
243.531	101.69
243.765	97.69
243.998	95.69
244.232	109.69
244.465	96.69
244.699	104.69
244.932	106.69
245.166	105.69
245.399	89.69
245.633	113.69
245.866	100.69
246.099	127.69
246.333	96.69
246.566	117.69
246.8	102.69
247.033	104.69
247.266	94.69
247.5	105.69
247.733	102.69
247.966	106.69
248.2	109.69
248.433	102.69
248.666	104.69
248.899	106.69
249.133	118.69
249.366	112.69
249.599	105.69
249.832	112.69
250.066	107.69
250.299	112.69
250.532	109.69
250.765	103.69
250.998	120.69
251.231	114.69
251.465	119.69
251.698	120.69
251.931	106.69
252.164	115.69
252.397	110.69
252.63	99.69
252.863	115.69
253.096	124.69
253.329	111.69
253.562	122.69
253.795	125.69
254.028	126.69
254.261	132.69
254.494	122.69
254.727	107.69
254.96	116.69
255.193	116.69
255.426	125.69
255.659	120.69
255.892	126.69
256.124	119.69
256.357	105.69
256.59	119.69
256.823	116.69
257.056	126.69
257.289	121.69
257.521	132.69
257.754	128.69
257.987	125.69
258.22	128.69
258.452	123.69
258.685	119.69
258.918	126.69
259.151	142.69
259.383	135.69
259.616	139.69
259.849	132.69
260.081	136.69
260.314	143.69
260.547	116.69
260.779	144.69
261.012	140.69
261.244	133.69
261.477	133.69
261.71	142.69
261.942	152.69
262.175	138.69
262.407	141.69
262.64	133.69
262.872	138.69
263.105	151.69
263.337	139.69
263.57	133.69
263.802	147.69
264.035	142.69
264.267	152.69
264.499	130.69
264.732	129.69
264.964	141.69
265.197	143.69
265.429	156.69
265.661	158.69
265.894	132.69
266.126	142.69
266.358	148.69
266.591	142.69
266.823	154.69
267.055	144.69
267.287	149.69
267.52	125.69
267.752	147.69
267.984	165.69
268.216	156.69
268.448	158.69
268.681	152.69
268.913	157.69
269.145	157.69
269.377	148.69
269.609	141.69
269.841	143.69
270.073	152.69
270.306	173.69
270.538	155.69
270.77	156.69
271.002	157.69
271.234	162.69
271.466	185.69
271.698	142.69
271.93	170.69
272.162	155.69
272.394	172.69
272.626	152.69
272.858	168.69
273.09	159.69
273.322	165.69
273.553	161.69
273.785	166.69
274.017	178.69
274.249	177.69
274.481	186.69
274.713	164.69
274.945	190.69
275.176	174.69
275.408	192.69
275.64	182.69
275.872	172.69
276.104	191.69
276.335	184.69
276.567	170.69
276.799	176.69
277.031	187.69
277.262	168.69
277.494	165.69
277.726	171.69
277.957	197.69
278.189	182.69
278.421	191.69
278.652	193.69
278.884	181.69
279.115	194.69
279.347	196.69
279.579	203.69
279.81	188.69
280.042	179.69
280.273	219.69
280.505	198.69
280.736	206.69
280.968	208.69
281.199	203.69
281.431	211.69
281.662	210.69
281.894	204.69
282.125	202.69
282.356	194.69
282.588	223.69
282.819	212.69
283.051	200.69
283.282	200.69
283.513	202.69
283.745	212.69
283.976	218.69
284.207	215.69
284.439	224.69
284.67	220.69
284.901	238.69
285.132	212.69
285.364	213.69
285.595	212.69
285.826	226.69
286.057	223.69
286.288	199.69
286.52	236.69
286.751	236.69
286.982	219.69
287.213	217.69
287.444	228.69
287.675	240.69
287.906	235.69
288.138	218.69
288.369	236.69
288.6	228.69
288.831	233.69
289.062	213.69
289.293	236.69
289.524	225.69
289.755	248.69
289.986	235.69
290.217	247.69
290.448	250.69
290.679	232.69
290.91	247.69
291.141	227.69
291.371	216.69
291.602	246.69
291.833	237.69
292.064	244.69
292.295	252.69
292.526	240.69
292.757	258.69
292.987	250.69
293.218	229.69
293.449	246.69
293.68	241.69
293.91	240.69
294.141	252.69
294.372	252.69
294.603	243.69
294.833	254.69
295.064	247.69
295.295	249.69
295.525	256.69
295.756	257.69
295.987	254.69
296.217	251.69
296.448	249.69
296.679	282.69
296.909	256.69
297.14	255.69
297.37	277.69
297.601	254.69
297.831	266.69
298.062	280.69
298.292	260.69
298.523	274.69
298.753	280.69
298.984	259.69
299.214	266.69
299.445	258.69
299.675	281.69
299.905	274.69
300.136	279.69
300.366	264.69
300.597	284.69
300.827	301.69
301.057	271.69
301.288	277.69
301.518	291.69
301.748	278.69
301.979	286.69
302.209	297.69
302.439	287.69
302.669	294.69
302.9	278.69
303.13	300.69
303.36	293.69
303.59	289.69
303.82	300.69
304.051	309.69
304.281	316.69
304.511	312.69
304.741	307.69
304.971	297.69
305.201	299.69
305.431	286.69
305.661	302.69
305.891	306.69
306.121	297.69
306.352	291.69
306.582	311.69
306.812	295.69
307.042	311.69
307.272	313.69
307.502	314.69
307.731	314.69
307.961	317.69
308.191	308.69
308.421	307.69
308.651	310.69
308.881	302.69
309.111	312.69
309.341	322.69
309.571	322.69
309.8	307.69
310.03	312.69
310.26	295.69
310.49	318.69
310.72	322.69
310.949	324.69
311.179	330.69
311.409	322.69
311.639	324.69
311.868	313.69
312.098	318.69
312.328	325.69
312.557	316.69
312.787	326.69
313.017	328.69
313.246	343.69
313.476	339.69
313.706	349.69
313.935	358.69
314.165	342.69
314.394	338.69
314.624	372.69
314.853	338.69
315.083	342.69
315.312	326.69
315.542	343.69
315.771	344.69
316.001	347.69
316.23	359.69
316.46	324.69
316.689	347.69
316.919	368.69
317.148	371.69
317.377	356.69
317.607	347.69
317.836	337.69
318.065	357.69
318.295	346.69
318.524	358.69
318.753	358.69
318.983	345.69
319.212	365.69
319.441	370.69
319.67	359.69
319.9	357.69
320.129	357.69
320.358	348.69
320.587	369.69
320.816	364.69
321.046	357.69
321.275	370.69
321.504	388.69
321.733	360.69
321.962	377.69
322.191	387.69
322.42	368.69
322.649	352.69
322.878	408.69
323.108	365.69
323.337	368.69
323.566	378.69
323.795	386.69
324.024	368.69
324.253	363.69
324.482	377.69
324.71	382.69
324.939	373.69
325.168	395.69
325.397	393.69
325.626	381.69
325.855	385.69
326.084	394.69
326.313	402.69
326.542	395.69
326.77	400.69
326.999	401.69
327.228	402.69
327.457	390.69
327.686	396.69
327.914	389.69
328.143	385.69
328.372	385.69
328.6	392.69
328.829	398.69
329.058	396.69
329.287	382.69
329.515	410.69
329.744	395.69
329.972	408.69
330.201	406.69
330.43	392.69
330.658	381.69
330.887	412.69
331.115	411.69
331.344	411.69
331.572	396.69
331.801	402.69
332.03	409.69
332.258	410.69
332.486	401.69
332.715	409.69
332.943	418.69
333.172	404.69
333.4	386.69
333.629	408.69
333.857	398.69
334.085	419.69
334.314	393.69
334.542	433.69
334.771	425.69
334.999	405.69
335.227	416.69
335.455	419.69
335.684	419.69
335.912	424.69
336.14	428.69
336.369	403.69
336.597	428.69
336.825	414.69
337.053	410.69
337.281	413.69
337.51	444.69
337.738	428.69
337.966	422.69
338.194	427.69
338.422	410.69
338.65	418.69
338.878	434.69
339.106	422.69
339.334	427.69
339.562	414.69
339.79	417.69
340.018	422.69
340.246	429.69
340.474	413.69
340.702	419.69
340.93	430.69
341.158	413.69
341.386	436.69
341.614	419.69
341.842	411.69
342.07	452.69
342.298	409.69
342.526	429.69
342.754	412.69
342.981	411.69
343.209	427.69
343.437	446.69
343.665	436.69
343.893	435.69
344.12	441.69
344.348	428.69
344.576	421.69
344.804	418.69
345.031	426.69
345.259	420.69
345.487	417.69
345.714	428.69
345.942	436.69
346.17	433.69
346.397	419.69
346.625	427.69
346.853	437.69
347.08	430.69
347.308	437.69
347.535	437.69
347.763	434.69
347.99	428.69
348.218	410.69
348.445	427.69
348.673	436.69
348.9	437.69
349.128	418.69
349.355	427.69
349.583	422.69
349.81	425.69
350.037	425.69
350.265	445.69
350.492	427.69
350.72	420.69
350.947	426.69
351.174	416.69
351.402	434.69
351.629	439.69
351.856	438.69
352.083	418.69
352.311	442.69
352.538	428.69
352.765	427.69
352.992	444.69
353.22	428.69
353.447	435.69
353.674	456.69
353.901	436.69
354.128	436.69
354.355	433.69
354.583	418.69
354.81	439.69
355.037	433.69
355.264	418.69
355.491	425.69
355.718	432.69
355.945	424.69
356.172	437.69
356.399	413.69
356.626	425.69
356.853	424.69
357.08	442.69
357.307	449.69
357.534	425.69
357.761	434.69
357.988	425.69
358.215	458.69
358.441	463.69
358.668	428.69
358.895	448.69
359.122	436.69
359.349	455.69
359.576	445.69
359.802	423.69
360.029	433.69
360.256	438.69
360.483	442.69
360.709	450.69
360.936	453.69
361.163	460.69
361.39	441.69
361.616	444.69
361.843	456.69
362.07	449.69
362.296	459.69
362.523	448.69
362.749	454.69
362.976	427.69
363.203	442.69
363.429	454.69
363.656	447.69
363.882	432.69
364.109	457.69
364.335	442.69
364.562	477.69
364.788	438.69
365.015	475.69
365.241	462.69
365.468	451.69
365.694	465.69
365.92	476.69
366.147	440.69
366.373	450.69
366.599	451.69
366.826	453.69
367.052	422.69
367.278	467.69
367.505	451.69
367.731	469.69
367.957	451.69
368.184	452.69
368.41	460.69
368.636	479.69
368.862	458.69
369.089	472.69
369.315	463.69
369.541	461.69
369.767	468.69
369.993	490.69
370.219	464.69
370.445	453.69
370.672	459.69
370.898	470.69
371.124	470.69
371.35	476.69
371.576	478.69
371.802	470.69
372.028	472.69
372.254	482.69
372.48	487.69
372.706	492.69
372.932	485.69
373.158	484.69
373.384	479.69
373.61	456.69
373.835	469.69
374.061	479.69
374.287	488.69
374.513	472.69
374.739	491.69
374.965	467.69
375.191	483.69
375.416	480.69
375.642	472.69
375.868	478.69
376.094	474.69
376.319	479.69
376.545	476.69
376.771	507.69
376.997	480.69
377.222	469.69
377.448	477.69
377.674	466.69
377.899	466.69
378.125	492.69
378.35	462.69
378.576	490.69
378.802	459.69
379.027	469.69
379.253	477.69
379.478	460.69
379.704	488.69
379.929	455.69
380.155	466.69
380.38	475.69
380.606	487.69
380.831	484.69
381.057	465.69
381.282	459.69
381.507	476.69
381.733	494.69
381.958	479.69
382.184	485.69
382.409	469.69
382.634	483.69
382.86	484.69
383.085	477.69
383.31	476.69
383.535	488.69
383.761	490.69
383.986	482.69
384.211	482.69
384.436	480.69
384.662	488.69
384.887	484.69
385.112	497.69
385.337	496.69
385.562	502.69
385.787	477.69
386.013	496.69
386.238	471.69
386.463	504.69
386.688	513.69
386.913	515.69
387.138	495.69
387.363	498.69
387.588	507.69
387.813	496.69
388.038	501.69
388.263	487.69
388.488	500.69
388.713	487.69
388.938	504.69
389.163	519.69
389.387	492.69
389.612	512.69
389.837	516.69
390.062	512.69
390.287	527.69
390.512	509.69
390.736	487.69
390.961	516.69
391.186	493.69
391.411	508.69
391.636	482.69
391.86	517.69
392.085	484.69
392.31	512.69
392.534	496.69
392.759	513.69
392.984	511.69
393.208	510.69
393.433	513.69
393.658	522.69
393.882	496.69
394.107	490.69
394.331	500.69
394.556	512.69
394.78	484.69
395.005	510.69
395.229	505.69
395.454	505.69
395.678	497.69
395.903	524.69
396.127	516.69
396.352	495.69
396.576	503.69
396.801	533.69
397.025	524.69
397.249	547.69
397.474	501.69
397.698	512.69
397.922	508.69
398.147	494.69
398.371	532.69
398.595	530.69
398.82	524.69
399.044	514.69
399.268	546.69
399.492	528.69
399.717	546.69
399.941	519.69
400.165	519.69
400.389	525.69
400.613	532.69
400.837	525.69
401.062	519.69
401.286	546.69
401.51	519.69
401.734	511.69
401.958	513.69
402.182	513.69
402.406	526.69
402.63	511.69
402.854	552.69
403.078	523.69
403.302	527.69
403.526	530.69
403.75	535.69
403.974	562.69
404.198	548.69
404.422	536.69
404.645	548.69
404.869	523.69
405.093	534.69
405.317	539.69
405.541	550.69
405.765	542.69
405.988	542.69
406.212	547.69
406.436	535.69
406.66	520.69
406.883	545.69
407.107	562.69
407.331	534.69
407.555	583.69
407.778	560.69
408.002	564.69
408.226	564.69
408.449	586.69
408.673	566.69
408.896	553.69
409.12	562.69
409.344	549.69
409.567	526.69
409.791	558.69
410.014	538.69
410.238	552.69
410.461	549.69
410.685	547.69
410.908	554.69
411.132	545.69
411.355	537.69
411.578	538.69
411.802	538.69
412.025	547.69
412.249	533.69
412.472	548.69
412.695	550.69
412.919	527.69
413.142	534.69
413.365	538.69
413.589	555.69
413.812	551.69
414.035	527.69
414.258	542.69
414.482	536.69
414.705	536.69
414.928	543.69
415.151	540.69
415.374	530.69
415.597	534.69
415.821	536.69
416.044	513.69
416.267	524.69
416.49	533.69
416.713	529.69
416.936	528.69
417.159	530.69
417.382	521.69
417.605	519.69
417.828	521.69
418.051	520.69
418.274	499.69
418.497	502.69
418.72	516.69
418.943	513.69
419.166	554.69
419.389	555.69
419.611	531.69
419.834	548.69
420.057	542.69
420.28	526.69
420.503	492.69
420.726	498.69
420.948	522.69
421.171	514.69
421.394	505.69
421.617	490.69
421.839	536.69
422.062	498.69
422.285	511.69
422.507	530.69
422.73	509.69
422.953	529.69
423.175	522.69
423.398	499.69
423.621	508.69
423.843	504.69
424.066	514.69
424.288	523.69
424.511	505.69
424.733	531.69
424.956	518.69
425.178	533.69
425.401	531.69
425.623	515.69
425.846	506.69
426.068	500.69
426.291	510.69
426.513	516.69
426.735	498.69
426.958	502.69
427.18	509.69
427.402	506.69
427.625	490.69
427.847	488.69
428.069	536.69
428.292	524.69
428.514	540.69
428.736	531.69
428.958	538.69
429.181	523.69
429.403	501.69
429.625	488.69
429.847	521.69
430.069	506.69
430.292	521.69
430.514	511.69
430.736	520.69
430.958	521.69
431.18	492.69
431.402	512.69
431.624	488.69
431.846	503.69
432.068	499.69
432.29	505.69
432.512	501.69
432.734	503.69
432.956	503.69
433.178	526.69
433.4	523.69
433.622	536.69
433.844	515.69
434.066	512.69
434.287	526.69
434.509	528.69
434.731	524.69
434.953	492.69
435.175	501.69
435.397	516.69
435.618	520.69
435.84	510.69
436.062	518.69
436.284	499.69
436.505	524.69
436.727	516.69
436.949	505.69
437.17	508.69
437.392	504.69
437.614	497.69
437.835	521.69
438.057	502.69
438.278	500.69
438.5	519.69
438.721	508.69
438.943	494.69
439.165	492.69
439.386	485.69
439.608	509.69
439.829	507.69
440.05	487.69
440.272	506.69
440.493	502.69
440.715	501.69
440.936	505.69
441.158	505.69
441.379	491.69
441.6	516.69
441.822	512.69
442.043	511.69
442.264	505.69
442.486	516.69
442.707	533.69
442.928	526.69
443.149	506.69
443.371	509.69
443.592	524.69
443.813	504.69
444.034	495.69
444.255	517.69
444.476	522.69
444.698	514.69
444.919	531.69
445.14	620.69
445.361	537.69
445.582	488.69
445.803	492.69
446.024	495.69
446.245	510.69
446.466	488.69
446.687	499.69
446.908	515.69
447.129	493.69
447.35	523.69
447.571	498.69
447.792	484.69
448.013	482.69
448.234	476.69
448.455	502.69
448.675	486.69
448.896	504.69
449.117	477.69
449.338	471.69
449.559	482.69
449.779	492.69
450	475.69
450.221	501.69
450.442	493.69
450.662	484.69
450.883	491.69
451.104	507.69
451.324	475.69
451.545	508.69
451.766	487.69
451.986	481.69
452.207	474.69
452.428	487.69
452.648	487.69
452.869	477.69
453.089	467.69
453.31	475.69
453.53	467.69
453.751	482.69
453.971	486.69
454.192	492.69
454.412	472.69
454.633	471.69
454.853	504.69
455.073	471.69
455.294	477.69
455.514	483.69
455.734	478.69
455.955	450.69
456.175	457.69
456.395	504.69
456.616	482.69
456.836	473.69
457.056	460.69
457.276	472.69
457.497	473.69
457.717	459.69
457.937	494.69
458.157	477.69
458.377	467.69
458.598	514.69
458.818	481.69
459.038	508.69
459.258	475.69
459.478	508.69
459.698	483.69
459.918	500.69
460.138	496.69
460.358	494.69
460.578	500.69
460.798	499.69
461.018	489.69
461.238	503.69
461.458	487.69
461.678	489.69
461.898	512.69
462.118	496.69
462.338	502.69
462.558	509.69
462.777	508.69
462.997	493.69
463.217	521.69
463.437	526.69
463.657	548.69
463.876	514.69
464.096	518.69
464.316	523.69
464.536	498.69
464.755	497.69
464.975	512.69
465.195	489.69
465.414	495.69
465.634	508.69
465.854	496.69
466.073	492.69
466.293	533.69
466.512	524.69
466.732	536.69
466.951	498.69
467.171	508.69
467.391	534.69
467.61	502.69
467.829	519.69
468.049	513.69
468.268	496.69
468.488	492.69
468.707	504.69
468.927	529.69
469.146	506.69
469.365	488.69
469.585	505.69
469.804	536.69
470.023	514.69
470.243	521.69
470.462	518.69
470.681	500.69
470.901	531.69
471.12	520.69
471.339	533.69
471.558	534.69
471.777	519.69
471.997	536.69
472.216	519.69
472.435	523.69
472.654	545.69
472.873	535.69
473.092	556.69
473.311	542.69
473.53	549.69
473.749	554.69
473.968	550.69
474.187	543.69
474.406	527.69
474.625	557.69
474.844	548.69
475.063	543.69
475.282	578.69
475.501	575.69
475.72	584.69
475.939	556.69
476.158	576.69
476.377	574.69
476.596	561.69
476.814	600.69
477.033	577.69
477.252	590.69
477.471	606.69
477.69	594.69
477.908	574.69
478.127	619.69
478.346	596.69
478.564	599.69
478.783	612.69
479.002	597.69
479.22	612.69
479.439	601.69
479.658	605.69
479.876	601.69
480.095	623.69
480.313	620.69
480.532	630.69
480.751	617.69
480.969	613.69
481.188	630.69
481.406	630.69
481.624	637.69
481.843	625.69
482.061	660.69
482.28	640.69
482.498	634.69
482.717	622.69
482.935	643.69
483.153	649.69
483.372	664.69
483.59	656.69
483.808	663.69
484.027	660.69
484.245	669.69
484.463	637.69
484.681	670.69
484.9	652.69
485.118	658.69
485.336	660.69
485.554	663.69
485.772	629.69
485.99	663.69
486.209	654.69
486.427	664.69
486.645	673.69
486.863	674.69
487.081	680.69
487.299	693.69
487.517	653.69
487.735	650.69
487.953	660.69
488.171	660.69
488.389	677.69
488.607	662.69
488.825	665.69
489.043	678.69
489.261	691.69
489.479	678.69
489.696	664.69
489.914	682.69
490.132	681.69
490.35	677.69
490.568	697.69
490.786	685.69
491.003	701.69
491.221	694.69
491.439	667.69
491.657	694.69
491.874	692.69
492.092	677.69
492.31	700.69
492.527	699.69
492.745	684.69
492.963	698.69
493.18	715.69
493.398	713.69
493.615	685.69
493.833	669.69
494.05	690.69
494.268	699.69
494.485	696.69
494.703	716.69
494.92	697.69
495.138	712.69
495.355	702.69
495.573	696.69
495.79	698.69
496.008	684.69
496.225	721.69
496.442	704.69
496.66	730.69
496.877	707.69
497.094	713.69
497.312	713.69
497.529	684.69
497.746	713.69
497.963	720.69
498.181	725.69
498.398	705.69
498.615	724.69
498.832	717.69
499.049	715.69
499.267	728.69
499.484	736.69
499.701	714.69
499.918	746.69
500.135	740.69
500.352	758.69
500.569	746.69
500.786	740.69
501.003	769.69
501.22	739.69
501.437	750.69
501.654	715.69
501.871	720.69
502.088	729.69
502.305	726.69
502.522	703.69
502.739	715.69
502.956	715.69
503.172	684.69
503.389	699.69
503.606	711.69
503.823	681.69
504.04	707.69
504.256	688.69
504.473	668.69
504.69	689.69
504.907	673.69
505.123	641.69
505.34	672.69
505.557	661.69
505.773	667.69
505.99	645.69
506.207	650.69
506.423	668.69
506.64	663.69
506.856	664.69
507.073	644.69
507.289	657.69
507.506	644.69
507.722	645.69
507.939	633.69
508.155	641.69
508.372	612.69
508.588	654.69
508.805	642.69
509.021	631.69
509.238	628.69
509.454	636.69
509.67	620.69
509.887	626.69
510.103	602.69
510.319	634.69
510.536	619.69
510.752	637.69
510.968	632.69
511.184	621.69
511.401	613.69
511.617	616.69
511.833	605.69
512.049	619.69
512.265	619.69
512.481	612.69
512.698	599.69
512.914	612.69
513.13	607.69
513.346	589.69
513.562	588.69
513.778	612.69
513.994	605.69
514.21	600.69
514.426	595.69
514.642	601.69
514.858	580.69
515.074	606.69
515.29	606.69
515.506	583.69
515.721	582.69
515.937	606.69
516.153	593.69
516.369	604.69
516.585	618.69
516.801	609.69
517.016	619.69
517.232	615.69
517.448	602.69
517.664	622.69
517.879	624.69
518.095	613.69
518.311	605.69
518.527	590.69
518.742	611.69
518.958	595.69
519.173	614.69
519.389	609.69
519.605	599.69
519.82	613.69
520.036	606.69
520.251	596.69
520.467	576.69
520.682	601.69
520.898	581.69
521.113	592.69
521.329	585.69
521.544	605.69
521.76	589.69
521.975	587.69
522.19	595.69
522.406	575.69
522.621	574.69
522.836	579.69
523.052	581.69
523.267	579.69
523.482	593.69
523.698	593.69
523.913	564.69
524.128	580.69
524.343	587.69
524.559	573.69
524.774	572.69
524.989	589.69
525.204	574.69
525.419	577.69
525.634	560.69
525.849	595.69
526.064	597.69
526.28	575.69
526.495	572.69
526.71	590.69
526.925	589.69
527.14	594.69
527.355	595.69
527.57	578.69
527.785	585.69
527.999	564.69
528.214	574.69
528.429	579.69
528.644	590.69
528.859	574.69
529.074	589.69
529.289	566.69
529.503	566.69
529.718	580.69
529.933	576.69
530.148	577.69
530.363	561.69
530.577	564.69
530.792	545.69
531.007	544.69
531.221	578.69
531.436	552.69
531.651	556.69
531.865	557.69
532.08	567.69
532.295	561.69
532.509	562.69
532.724	564.69
532.938	576.69
533.153	538.69
533.367	563.69
533.582	540.69
533.796	529.69
534.011	536.69
534.225	557.69
534.44	524.69
534.654	581.69
534.868	575.69
535.083	532.69
535.297	576.69
535.511	557.69
535.726	546.69
535.94	533.69
536.154	524.69
536.369	544.69
536.583	541.69
536.797	553.69
537.011	562.69
537.225	541.69
537.44	540.69
537.654	533.69
537.868	537.69
538.082	537.69
538.296	537.69
538.51	534.69
538.724	538.69
538.938	552.69
539.153	543.69
539.367	545.69
539.581	502.69
539.795	499.69
540.009	526.69
540.222	527.69
540.436	534.69
540.65	524.69
540.864	520.69
541.078	525.69
541.292	513.69
541.506	513.69
541.72	527.69
541.934	534.69
542.147	547.69
542.361	516.69
542.575	531.69
542.789	503.69
543.002	491.69
543.216	507.69
543.43	500.69
543.644	499.69
543.857	502.69
544.071	527.69
544.285	508.69
544.498	523.69
544.712	515.69
544.925	515.69
545.139	503.69
545.352	486.69
545.566	507.69
545.779	516.69
545.993	514.69
546.206	520.69
546.42	541.69
546.633	530.69
546.847	522.69
547.06	496.69
547.274	491.69
547.487	510.69
547.7	491.69
547.914	502.69
548.127	514.69
548.34	504.69
548.554	502.69
548.767	513.69
548.98	488.69
549.193	489.69
549.407	504.69
549.62	489.69
549.833	501.69
550.046	509.69
550.259	492.69
550.473	516.69
550.686	510.69
550.899	500.69
551.112	497.69
551.325	484.69
551.538	506.69
551.751	484.69
551.964	490.69
552.177	506.69
552.39	511.69
552.603	487.69
552.816	504.69
553.029	494.69
553.242	492.69
553.455	470.69
553.667	480.69
553.88	490.69
554.093	484.69
554.306	490.69
554.519	456.69
554.732	457.69
554.944	489.69
555.157	471.69
555.37	481.69
555.583	470.69
555.795	462.69
556.008	478.69
556.221	452.69
556.433	475.69
556.646	452.69
556.859	460.69
557.071	482.69
557.284	446.69
557.496	453.69
557.709	455.69
557.921	465.69
558.134	478.69
558.346	449.69
558.559	438.69
558.771	459.69
558.984	459.69
559.196	465.69
559.409	462.69
559.621	467.69
559.833	458.69
560.046	459.69
560.258	437.69
560.47	442.69
560.683	452.69
560.895	438.69
561.107	452.69
561.32	465.69
561.532	444.69
561.744	437.69
561.956	432.69
562.168	438.69
562.381	449.69
562.593	429.69
562.805	440.69
563.017	426.69
563.229	454.69
563.441	429.69
563.653	436.69
563.865	423.69
564.077	432.69
564.289	432.69
564.501	435.69
564.713	450.69
564.925	418.69
565.137	444.69
565.349	444.69
565.561	445.69
565.773	412.69
565.985	437.69
566.197	434.69
566.408	437.69
566.62	416.69
566.832	407.69
567.044	420.69
567.255	429.69
567.467	414.69
567.679	414.69
567.891	412.69
568.102	428.69
568.314	440.69
568.526	425.69
568.737	425.69
568.949	401.69
569.161	421.69
569.372	425.69
569.584	419.69
569.795	403.69
570.007	406.69
570.218	404.69
570.43	388.69
570.641	401.69
570.853	409.69
571.064	413.69
571.276	409.69
571.487	383.69
571.698	384.69
571.91	388.69
572.121	402.69
572.333	385.69
572.544	393.69
572.755	383.69
572.966	378.69
573.178	397.69
573.389	353.69
573.6	379.69
573.811	386.69
574.023	365.69
574.234	363.69
574.445	394.69
574.656	389.69
574.867	373.69
575.078	378.69
575.289	363.69
575.501	372.69
575.712	365.69
575.923	369.69
576.134	351.69
576.345	355.69
576.556	376.69
576.767	361.69
576.978	360.69
577.188	369.69
577.399	351.69
577.61	344.69
577.821	357.69
578.032	352.69
578.243	356.69
578.454	356.69
578.665	344.69
578.875	349.69
579.086	360.69
579.297	353.69
579.508	355.69
579.718	341.69
579.929	349.69
580.14	337.69
580.35	337.69
580.561	336.69
580.772	329.69
580.982	341.69
581.193	342.69
581.403	334.69
581.614	346.69
581.825	342.69
582.035	313.69
582.246	333.69
582.456	347.69
582.667	353.69
582.877	341.69
583.087	344.69
583.298	317.69
583.508	314.69
583.719	323.69
583.929	334.69
584.139	316.69
584.35	324.69
584.56	312.69
584.77	315.69
584.981	326.69
585.191	322.69
585.401	329.69
585.611	324.69
585.821	318.69
586.032	314.69
586.242	322.69
586.452	313.69
586.662	314.69
586.872	316.69
587.082	307.69
587.292	312.69
587.502	308.69
587.713	313.69
587.923	325.69
588.133	305.69
588.343	270.69
588.553	306.69
588.762	302.69
588.972	320.69
589.182	333.69
589.392	310.69
589.602	281.69
589.812	301.69
590.022	301.69
590.232	317.69
590.441	332.69
590.651	293.69
590.861	284.69
591.071	297.69
591.281	298.69
591.49	293.69
591.7	319.69
591.91	300.69
592.119	278.69
592.329	303.69
592.539	308.69
592.748	295.69
592.958	296.69
593.167	301.69
593.377	289.69
593.587	301.69
593.796	302.69
594.006	293.69
594.215	298.69
594.424	288.69
594.634	292.69
594.843	284.69
595.053	287.69
595.262	271.69
595.472	291.69
595.681	311.69
595.89	292.69
596.1	280.69
596.309	276.69
596.518	283.69
596.727	288.69
596.937	286.69
597.146	280.69
597.355	286.69
597.564	284.69
597.774	273.69
597.983	288.69
598.192	274.69
598.401	285.69
598.61	273.69
598.819	290.69
599.028	285.69
599.237	273.69
599.446	277.69
599.655	282.69
599.864	262.69
600.073	263.69
600.282	276.69
600.491	270.69
600.7	279.69
600.909	264.69
601.118	273.69
601.327	272.69
601.536	274.69
601.745	251.69
601.953	274.69
602.162	266.69
602.371	281.69
602.58	274.69
602.789	270.69
602.997	260.69
603.206	274.69
603.415	243.69
603.623	261.69
603.832	268.69
604.041	284.69
604.249	240.69
604.458	262.69
604.666	246.69
604.875	254.69
605.084	274.69
605.292	266.69
605.501	285.69
605.709	274.69
605.918	244.69
606.126	248.69
606.334	265.69
606.543	258.69
606.751	250.69
606.96	248.69
607.168	254.69
607.376	253.69
607.585	261.69
607.793	260.69
608.001	264.69
608.21	248.69
608.418	245.69
608.626	246.69
608.834	257.69
609.043	237.69
609.251	243.69
609.459	264.69
609.667	237.69
609.875	235.69
610.083	254.69
610.291	242.69
610.499	252.69
610.707	252.69
610.916	260.69
611.124	249.69
611.332	240.69
611.54	237.69
611.748	240.69
611.955	264.69
612.163	241.69
612.371	219.69
612.579	240.69
612.787	258.69
612.995	235.69
613.203	232.69
613.411	233.69
613.618	237.69
613.826	233.69
614.034	235.69
614.242	258.69
614.449	244.69
614.657	252.69
614.865	246.69
615.072	238.69
615.28	233.69
615.488	233.69
615.695	237.69
615.903	236.69
616.111	226.69
616.318	245.69
616.526	228.69
616.733	245.69
616.941	233.69
617.148	246.69
617.356	230.69
617.563	236.69
617.771	234.69
617.978	228.69
618.185	241.69
618.393	235.69
618.6	215.69
618.807	203.69
619.015	235.69
619.222	226.69
619.429	240.69
619.637	224.69
619.844	226.69
620.051	223.69
620.258	212.69
620.466	219.69
620.673	218.69
620.88	228.69
621.087	210.69
621.294	214.69
621.501	231.69
621.708	244.69
621.915	226.69
622.122	227.69
622.329	225.69
622.536	224.69
622.743	237.69
622.95	212.69
623.157	228.69
623.364	226.69
623.571	224.69
623.778	223.69
623.985	231.69
624.192	212.69
624.399	210.69
624.606	215.69
624.812	234.69
625.019	228.69
625.226	221.69
625.433	208.69
625.639	205.69
625.846	202.69
626.053	205.69
626.259	213.69
626.466	214.69
626.673	205.69
626.879	203.69
627.086	197.69
627.293	209.69
627.499	207.69
627.706	204.69
627.912	210.69
628.119	218.69
628.325	224.69
628.532	202.69
628.738	209.69
628.945	204.69
629.151	185.69
629.357	215.69
629.564	202.69
629.77	209.69
629.976	208.69
630.183	229.69
630.389	203.69
630.595	198.69
630.802	216.69
631.008	214.69
631.214	203.69
631.42	213.69
631.627	198.69
631.833	193.69
632.039	193.69
632.245	187.69
632.451	203.69
632.657	195.69
632.863	198.69
633.069	198.69
633.275	214.69
633.481	189.69
633.688	190.69
633.893	201.69
634.099	209.69
634.305	193.69
634.511	192.69
634.717	198.69
634.923	197.69
635.129	211.69
635.335	193.69
635.541	196.69
635.747	200.69
635.952	181.69
636.158	180.69
636.364	204.69
636.57	197.69
636.775	190.69
636.981	197.69
637.187	188.69
637.392	192.69
637.598	185.69
637.804	205.69
638.009	192.69
638.215	203.69
638.421	199.69
638.626	181.69
638.832	188.69
639.037	187.69
639.243	194.69
639.448	178.69
639.654	193.69
639.859	189.69
640.065	178.69
640.27	194.69
640.475	194.69
640.681	188.69
640.886	191.69
641.091	197.69
641.297	186.69
641.502	188.69
641.707	196.69
641.913	183.69
642.118	173.69
642.323	180.69
642.528	193.69
642.733	198.69
642.939	205.69
643.144	168.69
643.349	182.69
643.554	176.69
643.759	183.69
643.964	177.69
644.169	193.69
644.374	198.69
644.579	185.69
644.784	180.69
644.989	178.69
645.194	170.69
645.399	193.69
645.604	178.69
645.809	175.69
646.014	190.69
646.219	191.69
646.423	167.69
646.628	184.69
646.833	196.69
647.038	194.69
647.243	189.69
647.447	177.69
647.652	184.69
647.857	180.69
648.062	181.69
648.266	196.69
648.471	182.69
648.676	184.69
648.88	161.69
649.085	179.69
649.289	178.69
649.494	179.69
649.698	171.69
649.903	172.69
650.107	179.69
650.312	184.69
650.516	176.69
650.721	176.69
650.925	173.69
651.13	167.69
651.334	168.69
651.539	166.69
651.743	180.69
651.947	178.69
652.152	168.69
652.356	173.69
652.56	162.69
652.764	175.69
652.969	169.69
653.173	160.69
653.377	155.69
653.581	154.69
653.785	152.69
653.99	150.69
654.194	164.69
654.398	150.69
654.602	151.69
654.806	160.69
655.01	161.69
655.214	149.69
655.418	154.69
655.622	153.69
655.826	139.69
656.03	163.69
656.234	168.69
656.438	149.69
656.642	158.69
656.846	144.69
657.049	131.69
657.253	139.69
657.457	136.69
657.661	142.69
657.865	131.69
658.068	120.69
658.272	127.69
658.476	123.69
658.68	126.69
658.883	123.69
659.087	112.69
659.291	107.69
659.494	104.69
659.698	98.69
659.901	107.69
660.105	117.69
660.309	108.69
660.512	115.69
660.716	89.69
660.919	101.69
661.123	107.69
661.326	103.69
661.53	83.69
661.733	93.69
661.936	87.69
662.14	89.69
662.343	83.69
662.546	97.69
662.75	80.69
662.953	88.69
663.156	98.69
663.36	90.69
663.563	93.69
663.766	96.69
663.969	86.69
664.173	90.69
664.376	99.69
664.579	70.69
664.782	90.69
664.985	72.69
665.188	77.69
665.391	78.69
665.594	65.69
665.797	89.69
666	88.69
666.203	83.69
666.406	96.69
666.609	77.69
666.812	91.69
667.015	88.69
667.218	85.69
667.421	73.69
667.624	85.69
667.827	90.69
668.03	87.69
668.232	89.69
668.435	77.69
668.638	80.69
668.841	88.69
669.043	69.69
669.246	81.69
669.449	89.69
669.651	92.69
669.854	79.69
670.057	80.69
670.259	84.69
670.462	79.69
670.665	76.69
670.867	74.69
671.07	86.69
671.272	87.69
671.475	84.69
671.677	89.69
671.88	88.69
672.082	79.69
672.284	81.69
672.487	85.69
672.689	82.69
672.892	76.69
