Data from Fe(NO3)3@0.0125M.TitratingCurve.Agarose3%dH2O.NegLispCup.LampEnergy10.LIBS07252019_HRD10591_16-58-43-336.txt Node
Date: Thu Jul 25 16:58:43 EDT 2019
User: cochatt
Spectrometer: HR+D1059
Trigger mode: 1
Integration Time (sec): 1.000000E-1
Scans to average: 1
Electric dark correction enabled: true
Nonlinearity correction enabled: false
Boxcar width: 0
XAxis mode: Wavelengths
Number of Pixels in Spectrum: 2048
>>>>>Begin Spectral Data<<<<<
223.165	-20.5
223.4	-20.5
223.635	-20.5
223.869	-17.5
224.104	-14.5
224.338	-13.5
224.573	-15.5
224.808	-12.5
225.042	-21.5
225.277	-12.5
225.511	3.5
225.746	17.5
225.98	22.5
226.215	11.5
226.449	15.5
226.683	17.5
226.918	10.5
227.152	29.5
227.387	29.5
227.621	42.5
227.856	34.5
228.09	41.5
228.324	45.5
228.559	61.5
228.793	71.5
229.027	120.5
229.262	117.5
229.496	129.5
229.73	114.5
229.964	129.5
230.199	118.5
230.433	127.5
230.667	145.5
230.901	131.5
231.136	122.5
231.37	127.5
231.604	142.5
231.838	144.5
232.072	138.5
232.306	149.5
232.541	147.5
232.775	135.5
233.009	145.5
233.243	138.5
233.477	157.5
233.711	159.5
233.945	164.5
234.179	148.5
234.413	149.5
234.647	158.5
234.881	177.5
235.115	165.5
235.349	142.5
235.583	151.5
235.817	152.5
236.051	155.5
236.285	142.5
236.519	165.5
236.753	151.5
236.987	163.5
237.221	154.5
237.455	178.5
237.689	168.5
237.922	137.5
238.156	175.5
238.39	177.5
238.624	191.5
238.858	183.5
239.091	181.5
239.325	173.5
239.559	171.5
239.793	187.5
240.027	189.5
240.26	187.5
240.494	175.5
240.728	166.5
240.961	168.5
241.195	183.5
241.429	198.5
241.662	173.5
241.896	212.5
242.13	198.5
242.363	190.5
242.597	180.5
242.83	209.5
243.064	200.5
243.298	201.5
243.531	203.5
243.765	205.5
243.998	212.5
244.232	205.5
244.465	199.5
244.699	215.5
244.932	218.5
245.166	218.5
245.399	214.5
245.633	209.5
245.866	231.5
246.099	221.5
246.333	206.5
246.566	228.5
246.8	228.5
247.033	252.5
247.266	220.5
247.5	239.5
247.733	230.5
247.966	229.5
248.2	245.5
248.433	242.5
248.666	238.5
248.899	250.5
249.133	230.5
249.366	245.5
249.599	261.5
249.832	271.5
250.066	250.5
250.299	261.5
250.532	261.5
250.765	257.5
250.998	249.5
251.231	259.5
251.465	273.5
251.698	258.5
251.931	281.5
252.164	282.5
252.397	288.5
252.63	282.5
252.863	276.5
253.096	270.5
253.329	301.5
253.562	274.5
253.795	280.5
254.028	283.5
254.261	298.5
254.494	285.5
254.727	304.5
254.96	268.5
255.193	289.5
255.426	290.5
255.659	299.5
255.892	288.5
256.124	306.5
256.357	311.5
256.59	280.5
256.823	298.5
257.056	311.5
257.289	301.5
257.521	310.5
257.754	322.5
257.987	298.5
258.22	317.5
258.452	323.5
258.685	320.5
258.918	331.5
259.151	332.5
259.383	335.5
259.616	343.5
259.849	331.5
260.081	345.5
260.314	357.5
260.547	339.5
260.779	339.5
261.012	355.5
261.244	349.5
261.477	352.5
261.71	341.5
261.942	370.5
262.175	381.5
262.407	349.5
262.64	369.5
262.872	371.5
263.105	359.5
263.337	381.5
263.57	371.5
263.802	353.5
264.035	354.5
264.267	355.5
264.499	359.5
264.732	370.5
264.964	355.5
265.197	351.5
265.429	365.5
265.661	372.5
265.894	371.5
266.126	365.5
266.358	381.5
266.591	378.5
266.823	383.5
267.055	385.5
267.287	372.5
267.52	379.5
267.752	385.5
267.984	375.5
268.216	409.5
268.448	388.5
268.681	406.5
268.913	391.5
269.145	384.5
269.377	391.5
269.609	396.5
269.841	396.5
270.073	417.5
270.306	404.5
270.538	395.5
270.77	417.5
271.002	432.5
271.234	412.5
271.466	433.5
271.698	430.5
271.93	420.5
272.162	425.5
272.394	424.5
272.626	441.5
272.858	440.5
273.09	436.5
273.322	447.5
273.553	441.5
273.785	451.5
274.017	474.5
274.249	470.5
274.481	458.5
274.713	474.5
274.945	472.5
275.176	479.5
275.408	479.5
275.64	463.5
275.872	479.5
276.104	466.5
276.335	469.5
276.567	489.5
276.799	490.5
277.031	484.5
277.262	460.5
277.494	484.5
277.726	494.5
277.957	477.5
278.189	472.5
278.421	502.5
278.652	502.5
278.884	503.5
279.115	522.5
279.347	503.5
279.579	519.5
279.81	513.5
280.042	508.5
280.273	506.5
280.505	509.5
280.736	523.5
280.968	517.5
281.199	496.5
281.431	509.5
281.662	507.5
281.894	521.5
282.125	536.5
282.356	513.5
282.588	530.5
282.819	537.5
283.051	518.5
283.282	510.5
283.513	536.5
283.745	535.5
283.976	511.5
284.207	542.5
284.439	537.5
284.67	543.5
284.901	557.5
285.132	565.5
285.364	541.5
285.595	527.5
285.826	560.5
286.057	542.5
286.288	542.5
286.52	554.5
286.751	552.5
286.982	570.5
287.213	571.5
287.444	583.5
287.675	567.5
287.906	579.5
288.138	565.5
288.369	585.5
288.6	601.5
288.831	588.5
289.062	590.5
289.293	577.5
289.524	583.5
289.755	574.5
289.986	590.5
290.217	590.5
290.448	610.5
290.679	588.5
290.91	596.5
291.141	591.5
291.371	593.5
291.602	575.5
291.833	587.5
292.064	618.5
292.295	612.5
292.526	606.5
292.757	585.5
292.987	607.5
293.218	610.5
293.449	614.5
293.68	608.5
293.91	598.5
294.141	592.5
294.372	590.5
294.603	606.5
294.833	608.5
295.064	630.5
295.295	609.5
295.525	623.5
295.756	646.5
295.987	614.5
296.217	630.5
296.448	617.5
296.679	630.5
296.909	629.5
297.14	653.5
297.37	665.5
297.601	642.5
297.831	638.5
298.062	624.5
298.292	650.5
298.523	654.5
298.753	637.5
298.984	675.5
299.214	666.5
299.445	661.5
299.675	683.5
299.905	661.5
300.136	634.5
300.366	643.5
300.597	679.5
300.827	656.5
301.057	658.5
301.288	667.5
301.518	664.5
301.748	661.5
301.979	697.5
302.209	689.5
302.439	693.5
302.669	689.5
302.9	708.5
303.13	690.5
303.36	702.5
303.59	701.5
303.82	692.5
304.051	699.5
304.281	707.5
304.511	687.5
304.741	713.5
304.971	742.5
305.201	727.5
305.431	706.5
305.661	709.5
305.891	699.5
306.121	720.5
306.352	726.5
306.582	711.5
306.812	691.5
307.042	703.5
307.272	708.5
307.502	743.5
307.731	712.5
307.961	719.5
308.191	706.5
308.421	720.5
308.651	733.5
308.881	734.5
309.111	736.5
309.341	739.5
309.571	729.5
309.8	738.5
310.03	720.5
310.26	731.5
310.49	737.5
310.72	751.5
310.949	749.5
311.179	766.5
311.409	751.5
311.639	752.5
311.868	753.5
312.098	770.5
312.328	758.5
312.557	778.5
312.787	757.5
313.017	785.5
313.246	759.5
313.476	759.5
313.706	811.5
313.935	795.5
314.165	788.5
314.394	784.5
314.624	788.5
314.853	803.5
315.083	799.5
315.312	804.5
315.542	800.5
315.771	779.5
316.001	810.5
316.23	811.5
316.46	816.5
316.689	848.5
316.919	832.5
317.148	811.5
317.377	815.5
317.607	826.5
317.836	813.5
318.065	802.5
318.295	824.5
318.524	817.5
318.753	838.5
318.983	841.5
319.212	835.5
319.441	826.5
319.67	839.5
319.9	801.5
320.129	829.5
320.358	839.5
320.587	853.5
320.816	854.5
321.046	857.5
321.275	843.5
321.504	846.5
321.733	858.5
321.962	866.5
322.191	856.5
322.42	864.5
322.649	819.5
322.878	869.5
323.108	871.5
323.337	847.5
323.566	867.5
323.795	874.5
324.024	886.5
324.253	862.5
324.482	880.5
324.71	871.5
324.939	864.5
325.168	888.5
325.397	884.5
325.626	892.5
325.855	894.5
326.084	883.5
326.313	897.5
326.542	867.5
326.77	891.5
326.999	916.5
327.228	903.5
327.457	893.5
327.686	886.5
327.914	895.5
328.143	901.5
328.372	903.5
328.6	894.5
328.829	901.5
329.058	892.5
329.287	895.5
329.515	929.5
329.744	925.5
329.972	934.5
330.201	903.5
330.43	906.5
330.658	912.5
330.887	922.5
331.115	896.5
331.344	929.5
331.572	934.5
331.801	931.5
332.03	943.5
332.258	918.5
332.486	915.5
332.715	941.5
332.943	932.5
333.172	963.5
333.4	927.5
333.629	931.5
333.857	985.5
334.085	975.5
334.314	962.5
334.542	973.5
334.771	1000.5
334.999	954.5
335.227	983.5
335.455	1000.5
335.684	968.5
335.912	994.5
336.14	1002.5
336.369	992.5
336.597	992.5
336.825	994.5
337.053	993.5
337.281	997.5
337.51	995.5
337.738	966.5
337.966	964.5
338.194	991.5
338.422	962.5
338.65	957.5
338.878	976.5
339.106	943.5
339.334	973.5
339.562	973.5
339.79	969.5
340.018	963.5
340.246	951.5
340.474	969.5
340.702	968.5
340.93	955.5
341.158	985.5
341.386	959.5
341.614	953.5
341.842	979.5
342.07	948.5
342.298	946.5
342.526	971.5
342.754	956.5
342.981	946.5
343.209	940.5
343.437	975.5
343.665	996.5
343.893	984.5
344.12	997.5
344.348	997.5
344.576	968.5
344.804	978.5
345.031	947.5
345.259	979.5
345.487	976.5
345.714	966.5
345.942	936.5
346.17	928.5
346.397	960.5
346.625	931.5
346.853	925.5
347.08	945.5
347.308	952.5
347.535	968.5
347.763	984.5
347.99	943.5
348.218	960.5
348.445	935.5
348.673	929.5
348.9	947.5
349.128	921.5
349.355	904.5
349.583	897.5
349.81	920.5
350.037	920.5
350.265	918.5
350.492	936.5
350.72	934.5
350.947	889.5
351.174	937.5
351.402	906.5
351.629	926.5
351.856	908.5
352.083	936.5
352.311	917.5
352.538	901.5
352.765	902.5
352.992	921.5
353.22	945.5
353.447	922.5
353.674	972.5
353.901	938.5
354.128	925.5
354.355	917.5
354.583	931.5
354.81	921.5
355.037	915.5
355.264	929.5
355.491	935.5
355.718	945.5
355.945	925.5
356.172	942.5
356.399	921.5
356.626	899.5
356.853	954.5
357.08	931.5
357.307	950.5
357.534	933.5
357.761	959.5
357.988	920.5
358.215	966.5
358.441	928.5
358.668	943.5
358.895	944.5
359.122	931.5
359.349	926.5
359.576	938.5
359.802	939.5
360.029	972.5
360.256	940.5
360.483	925.5
360.709	933.5
360.936	922.5
361.163	945.5
361.39	927.5
361.616	960.5
361.843	933.5
362.07	929.5
362.296	955.5
362.523	930.5
362.749	962.5
362.976	960.5
363.203	955.5
363.429	955.5
363.656	951.5
363.882	951.5
364.109	921.5
364.335	938.5
364.562	955.5
364.788	975.5
365.015	984.5
365.241	961.5
365.468	955.5
365.694	957.5
365.92	961.5
366.147	935.5
366.373	954.5
366.599	952.5
366.826	959.5
367.052	959.5
367.278	972.5
367.505	988.5
367.731	959.5
367.957	956.5
368.184	969.5
368.41	937.5
368.636	979.5
368.862	987.5
369.089	969.5
369.315	939.5
369.541	978.5
369.767	991.5
369.993	1004.5
370.219	983.5
370.445	979.5
370.672	1003.5
370.898	994.5
371.124	970.5
371.35	1014.5
371.576	995.5
371.802	1005.5
372.028	1021.5
372.254	983.5
372.48	986.5
372.706	1027.5
372.932	1015.5
373.158	1026.5
373.384	1015.5
373.61	1004.5
373.835	1025.5
374.061	1006.5
374.287	1043.5
374.513	1029.5
374.739	1023.5
374.965	1044.5
375.191	1043.5
375.416	1025.5
375.642	973.5
375.868	1028.5
376.094	1033.5
376.319	1003.5
376.545	1011.5
376.771	986.5
376.997	971.5
377.222	983.5
377.448	984.5
377.674	978.5
377.899	983.5
378.125	989.5
378.35	1009.5
378.576	995.5
378.802	962.5
379.027	976.5
379.253	1000.5
379.478	989.5
379.704	984.5
379.929	999.5
380.155	986.5
380.38	981.5
380.606	1002.5
380.831	981.5
381.057	1010.5
381.282	983.5
381.507	992.5
381.733	980.5
381.958	1009.5
382.184	1006.5
382.409	1003.5
382.634	1001.5
382.86	1005.5
383.085	1003.5
383.31	1027.5
383.535	1048.5
383.761	1000.5
383.986	1004.5
384.211	1047.5
384.436	1026.5
384.662	1030.5
384.887	1029.5
385.112	1022.5
385.337	1056.5
385.562	1039.5
385.787	1089.5
386.013	1051.5
386.238	1070.5
386.463	1048.5
386.688	1086.5
386.913	1061.5
387.138	1056.5
387.363	1048.5
387.588	1048.5
387.813	1073.5
388.038	1046.5
388.263	1099.5
388.488	1104.5
388.713	1091.5
388.938	1109.5
389.163	1058.5
389.387	1108.5
389.612	1063.5
389.837	1078.5
390.062	1072.5
390.287	1069.5
390.512	1079.5
390.736	1095.5
390.961	1105.5
391.186	1105.5
391.411	1102.5
391.636	1121.5
391.86	1096.5
392.085	1091.5
392.31	1112.5
392.534	1115.5
392.759	1102.5
392.984	1134.5
393.208	1101.5
393.433	1117.5
393.658	1090.5
393.882	1095.5
394.107	1085.5
394.331	1109.5
394.556	1108.5
394.78	1112.5
395.005	1128.5
395.229	1111.5
395.454	1118.5
395.678	1147.5
395.903	1133.5
396.127	1133.5
396.352	1124.5
396.576	1128.5
396.801	1130.5
397.025	1164.5
397.249	1153.5
397.474	1149.5
397.698	1159.5
397.922	1160.5
398.147	1147.5
398.371	1187.5
398.595	1156.5
398.82	1199.5
399.044	1192.5
399.268	1219.5
399.492	1215.5
399.717	1258.5
399.941	1234.5
400.165	1247.5
400.389	1239.5
400.613	1215.5
400.837	1197.5
401.062	1191.5
401.286	1209.5
401.51	1218.5
401.734	1206.5
401.958	1212.5
402.182	1189.5
402.406	1168.5
402.63	1157.5
402.854	1176.5
403.078	1191.5
403.302	1207.5
403.526	1212.5
403.75	1184.5
403.974	1191.5
404.198	1178.5
404.422	1184.5
404.645	1214.5
404.869	1187.5
405.093	1193.5
405.317	1181.5
405.541	1214.5
405.765	1190.5
405.988	1227.5
406.212	1233.5
406.436	1197.5
406.66	1269.5
406.883	1226.5
407.107	1285.5
407.331	1251.5
407.555	1313.5
407.778	1257.5
408.002	1265.5
408.226	1235.5
408.449	1295.5
408.673	1262.5
408.896	1303.5
409.12	1265.5
409.344	1255.5
409.567	1238.5
409.791	1250.5
410.014	1207.5
410.238	1274.5
410.461	1241.5
410.685	1244.5
410.908	1235.5
411.132	1261.5
411.355	1229.5
411.578	1183.5
411.802	1234.5
412.025	1209.5
412.249	1214.5
412.472	1197.5
412.695	1184.5
412.919	1189.5
413.142	1186.5
413.365	1188.5
413.589	1179.5
413.812	1163.5
414.035	1186.5
414.258	1181.5
414.482	1173.5
414.705	1178.5
414.928	1171.5
415.151	1198.5
415.374	1184.5
415.597	1140.5
415.821	1137.5
416.044	1142.5
416.267	1135.5
416.49	1149.5
416.713	1130.5
416.936	1178.5
417.159	1141.5
417.382	1114.5
417.605	1133.5
417.828	1110.5
418.051	1141.5
418.274	1156.5
418.497	1131.5
418.72	1147.5
418.943	1103.5
419.166	1146.5
419.389	1214.5
419.611	1207.5
419.834	1158.5
420.057	1143.5
420.28	1122.5
420.503	1145.5
420.726	1124.5
420.948	1084.5
421.171	1091.5
421.394	1113.5
421.617	1110.5
421.839	1073.5
422.062	1123.5
422.285	1114.5
422.507	1100.5
422.73	1085.5
422.953	1102.5
423.175	1107.5
423.398	1103.5
423.621	1107.5
423.843	1105.5
424.066	1111.5
424.288	1101.5
424.511	1082.5
424.733	1087.5
424.956	1113.5
425.178	1108.5
425.401	1106.5
425.623	1101.5
425.846	1106.5
426.068	1109.5
426.291	1113.5
426.513	1091.5
426.735	1075.5
426.958	1103.5
427.18	1049.5
427.402	1094.5
427.625	1098.5
427.847	1097.5
428.069	1065.5
428.292	1095.5
428.514	1083.5
428.736	1050.5
428.958	1102.5
429.181	1079.5
429.403	1056.5
429.625	1052.5
429.847	1043.5
430.069	1055.5
430.292	1080.5
430.514	1075.5
430.736	1071.5
430.958	1108.5
431.18	1103.5
431.402	1087.5
431.624	1090.5
431.846	1054.5
432.068	1070.5
432.29	1067.5
432.512	1105.5
432.734	1079.5
432.956	1084.5
433.178	1088.5
433.4	1099.5
433.622	1087.5
433.844	1099.5
434.066	1065.5
434.287	1087.5
434.509	1090.5
434.731	1077.5
434.953	1085.5
435.175	1071.5
435.397	1124.5
435.618	1083.5
435.84	1081.5
436.062	1058.5
436.284	1072.5
436.505	1060.5
436.727	1069.5
436.949	1049.5
437.17	1058.5
437.392	1025.5
437.614	1061.5
437.835	1040.5
438.057	1045.5
438.278	1045.5
438.5	1044.5
438.721	1038.5
438.943	1073.5
439.165	1035.5
439.386	1041.5
439.608	1045.5
439.829	1059.5
440.05	1052.5
440.272	1038.5
440.493	1043.5
440.715	1044.5
440.936	1054.5
441.158	1046.5
441.379	1050.5
441.6	1081.5
441.822	1067.5
442.043	1047.5
442.264	1088.5
442.486	1025.5
442.707	1064.5
442.928	1060.5
443.149	1039.5
443.371	1063.5
443.592	1070.5
443.813	1045.5
444.034	1069.5
444.255	1067.5
444.476	1057.5
444.698	1054.5
444.919	1064.5
445.14	1186.5
445.361	1093.5
445.582	1054.5
445.803	1051.5
446.024	1060.5
446.245	1044.5
446.466	1050.5
446.687	1026.5
446.908	1014.5
447.129	1018.5
447.35	1019.5
447.571	1027.5
447.792	1022.5
448.013	982.5
448.234	989.5
448.455	1008.5
448.675	987.5
448.896	991.5
449.117	953.5
449.338	1008.5
449.559	1008.5
449.779	981.5
450	997.5
450.221	972.5
450.442	981.5
450.662	960.5
450.883	983.5
451.104	974.5
451.324	983.5
451.545	979.5
451.766	977.5
451.986	965.5
452.207	959.5
452.428	981.5
452.648	993.5
452.869	968.5
453.089	948.5
453.31	968.5
453.53	962.5
453.751	945.5
453.971	967.5
454.192	964.5
454.412	914.5
454.633	956.5
454.853	955.5
455.073	945.5
455.294	935.5
455.514	927.5
455.734	957.5
455.955	933.5
456.175	940.5
456.395	929.5
456.616	935.5
456.836	944.5
457.056	960.5
457.276	948.5
457.497	985.5
457.717	951.5
457.937	949.5
458.157	934.5
458.377	967.5
458.598	969.5
458.818	991.5
459.038	989.5
459.258	957.5
459.478	1008.5
459.698	997.5
459.918	1000.5
460.138	1046.5
460.358	1041.5
460.578	1035.5
460.798	1053.5
461.018	1046.5
461.238	1069.5
461.458	1060.5
461.678	1067.5
461.898	1055.5
462.118	1091.5
462.338	1105.5
462.558	1095.5
462.777	1117.5
462.997	1107.5
463.217	1082.5
463.437	1137.5
463.657	1107.5
463.876	1103.5
464.096	1093.5
464.316	1088.5
464.536	1100.5
464.755	1091.5
464.975	1085.5
465.195	1063.5
465.414	1062.5
465.634	1041.5
465.854	1024.5
466.073	1027.5
466.293	1021.5
466.512	1042.5
466.732	1004.5
466.951	1053.5
467.171	1042.5
467.391	1030.5
467.61	1016.5
467.829	996.5
468.049	990.5
468.268	1001.5
468.488	988.5
468.707	1010.5
468.927	1043.5
469.146	1017.5
469.365	1002.5
469.585	999.5
469.804	985.5
470.023	1021.5
470.243	989.5
470.462	1008.5
470.681	1025.5
470.901	1012.5
471.12	1048.5
471.339	1049.5
471.558	1044.5
471.777	1043.5
471.997	1053.5
472.216	1033.5
472.435	1041.5
472.654	1046.5
472.873	1050.5
473.092	1063.5
473.311	1050.5
473.53	1034.5
473.749	1035.5
473.968	1028.5
474.187	1042.5
474.406	1079.5
474.625	1061.5
474.844	1060.5
475.063	1065.5
475.282	1069.5
475.501	1077.5
475.72	1094.5
475.939	1100.5
476.158	1131.5
476.377	1126.5
476.596	1103.5
476.814	1125.5
477.033	1127.5
477.252	1145.5
477.471	1136.5
477.69	1143.5
477.908	1155.5
478.127	1138.5
478.346	1159.5
478.564	1189.5
478.783	1174.5
479.002	1177.5
479.22	1181.5
479.439	1225.5
479.658	1263.5
479.876	1186.5
480.095	1225.5
480.313	1238.5
480.532	1220.5
480.751	1247.5
480.969	1200.5
481.188	1199.5
481.406	1205.5
481.624	1209.5
481.843	1227.5
482.061	1238.5
482.28	1236.5
482.498	1214.5
482.717	1221.5
482.935	1251.5
483.153	1223.5
483.372	1249.5
483.59	1243.5
483.808	1256.5
484.027	1241.5
484.245	1257.5
484.463	1249.5
484.681	1253.5
484.9	1254.5
485.118	1254.5
485.336	1249.5
485.554	1243.5
485.772	1282.5
485.99	1254.5
486.209	1306.5
486.427	1240.5
486.645	1263.5
486.863	1285.5
487.081	1243.5
487.299	1250.5
487.517	1267.5
487.735	1285.5
487.953	1300.5
488.171	1279.5
488.389	1282.5
488.607	1295.5
488.825	1266.5
489.043	1274.5
489.261	1265.5
489.479	1268.5
489.696	1274.5
489.914	1288.5
490.132	1304.5
490.35	1298.5
490.568	1280.5
490.786	1281.5
491.003	1249.5
491.221	1278.5
491.439	1291.5
491.657	1344.5
491.874	1321.5
492.092	1320.5
492.31	1284.5
492.527	1310.5
492.745	1291.5
492.963	1317.5
493.18	1291.5
493.398	1327.5
493.615	1325.5
493.833	1283.5
494.05	1341.5
494.268	1320.5
494.485	1305.5
494.703	1320.5
494.92	1340.5
495.138	1305.5
495.355	1310.5
495.573	1329.5
495.79	1357.5
496.008	1361.5
496.225	1346.5
496.442	1366.5
496.66	1383.5
496.877	1400.5
497.094	1370.5
497.312	1405.5
497.529	1421.5
497.746	1465.5
497.963	1424.5
498.181	1473.5
498.398	1526.5
498.615	1523.5
498.832	1530.5
499.049	1521.5
499.267	1531.5
499.484	1578.5
499.701	1602.5
499.918	1600.5
500.135	1668.5
500.352	1698.5
500.569	1701.5
500.786	1659.5
501.003	1688.5
501.22	1721.5
501.437	1641.5
501.654	1599.5
501.871	1615.5
502.088	1562.5
502.305	1543.5
502.522	1508.5
502.739	1506.5
502.956	1477.5
503.172	1478.5
503.389	1434.5
503.606	1391.5
503.823	1378.5
504.04	1393.5
504.256	1355.5
504.473	1354.5
504.69	1328.5
504.907	1330.5
505.123	1321.5
505.34	1286.5
505.557	1309.5
505.773	1318.5
505.99	1283.5
506.207	1263.5
506.423	1245.5
506.64	1210.5
506.856	1267.5
507.073	1212.5
507.289	1233.5
507.506	1215.5
507.722	1231.5
507.939	1182.5
508.155	1207.5
508.372	1191.5
508.588	1201.5
508.805	1193.5
509.021	1157.5
509.238	1157.5
509.454	1139.5
509.67	1138.5
509.887	1162.5
510.103	1155.5
510.319	1137.5
510.536	1108.5
510.752	1142.5
510.968	1139.5
511.184	1113.5
511.401	1102.5
511.617	1105.5
511.833	1110.5
512.049	1120.5
512.265	1126.5
512.481	1128.5
512.698	1079.5
512.914	1118.5
513.13	1109.5
513.346	1122.5
513.562	1123.5
513.778	1092.5
513.994	1136.5
514.21	1118.5
514.426	1114.5
514.642	1127.5
514.858	1109.5
515.074	1130.5
515.29	1110.5
515.506	1127.5
515.721	1145.5
515.937	1143.5
516.153	1142.5
516.369	1125.5
516.585	1143.5
516.801	1123.5
517.016	1149.5
517.232	1145.5
517.448	1161.5
517.664	1138.5
517.879	1149.5
518.095	1174.5
518.311	1142.5
518.527	1129.5
518.742	1120.5
518.958	1136.5
519.173	1118.5
519.389	1125.5
519.605	1119.5
519.82	1074.5
520.036	1099.5
520.251	1095.5
520.467	1079.5
520.682	1067.5
520.898	1069.5
521.113	1064.5
521.329	1043.5
521.544	1046.5
521.76	1067.5
521.975	1063.5
522.19	1049.5
522.406	1072.5
522.621	1073.5
522.836	1001.5
523.052	1055.5
523.267	1021.5
523.482	1054.5
523.698	1029.5
523.913	1007.5
524.128	1026.5
524.343	1022.5
524.559	1025.5
524.774	1002.5
524.989	1014.5
525.204	984.5
525.419	992.5
525.634	984.5
525.849	1018.5
526.064	1033.5
526.28	1027.5
526.495	979.5
526.71	978.5
526.925	993.5
527.14	962.5
527.355	1018.5
527.57	1006.5
527.785	1019.5
527.999	992.5
528.214	986.5
528.429	977.5
528.644	981.5
528.859	988.5
529.074	980.5
529.289	972.5
529.503	970.5
529.718	976.5
529.933	984.5
530.148	952.5
530.363	960.5
530.577	969.5
530.792	973.5
531.007	1003.5
531.221	995.5
531.436	965.5
531.651	947.5
531.865	989.5
532.08	966.5
532.295	964.5
532.509	970.5
532.724	974.5
532.938	953.5
533.153	920.5
533.367	941.5
533.582	953.5
533.796	953.5
534.011	963.5
534.225	946.5
534.44	944.5
534.654	942.5
534.868	954.5
535.083	927.5
535.297	943.5
535.511	931.5
535.726	924.5
535.94	916.5
536.154	913.5
536.369	893.5
536.583	932.5
536.797	915.5
537.011	928.5
537.225	891.5
537.44	908.5
537.654	887.5
537.868	894.5
538.082	877.5
538.296	892.5
538.51	885.5
538.724	915.5
538.938	927.5
539.153	871.5
539.367	889.5
539.581	896.5
539.795	884.5
540.009	859.5
540.222	877.5
540.436	870.5
540.65	885.5
540.864	877.5
541.078	904.5
541.292	901.5
541.506	889.5
541.72	872.5
541.934	896.5
542.147	885.5
542.361	875.5
542.575	878.5
542.789	881.5
543.002	854.5
543.216	869.5
543.43	851.5
543.644	884.5
543.857	884.5
544.071	881.5
544.285	895.5
544.498	863.5
544.712	841.5
544.925	861.5
545.139	859.5
545.352	859.5
545.566	861.5
545.779	841.5
545.993	842.5
546.206	898.5
546.42	870.5
546.633	863.5
546.847	872.5
547.06	826.5
547.274	857.5
547.487	863.5
547.7	838.5
547.914	857.5
548.127	879.5
548.34	857.5
548.554	864.5
548.767	847.5
548.98	818.5
549.193	851.5
549.407	817.5
549.62	825.5
549.833	851.5
550.046	846.5
550.259	859.5
550.473	817.5
550.686	813.5
550.899	813.5
551.112	825.5
551.325	838.5
551.538	843.5
551.751	832.5
551.964	829.5
552.177	827.5
552.39	808.5
552.603	834.5
552.816	821.5
553.029	829.5
553.242	847.5
553.455	809.5
553.667	814.5
553.88	815.5
554.093	825.5
554.306	815.5
554.519	808.5
554.732	803.5
554.944	774.5
555.157	787.5
555.37	792.5
555.583	782.5
555.795	789.5
556.008	808.5
556.221	768.5
556.433	766.5
556.646	783.5
556.859	757.5
557.071	759.5
557.284	762.5
557.496	731.5
557.709	749.5
557.921	745.5
558.134	761.5
558.346	734.5
558.559	736.5
558.771	723.5
558.984	735.5
559.196	730.5
559.409	729.5
559.621	728.5
559.833	757.5
560.046	721.5
560.258	709.5
560.47	716.5
560.683	697.5
560.895	733.5
561.107	707.5
561.32	709.5
561.532	714.5
561.744	703.5
561.956	709.5
562.168	729.5
562.381	721.5
562.593	703.5
562.805	711.5
563.017	734.5
563.229	732.5
563.441	713.5
563.653	697.5
563.865	717.5
564.077	721.5
564.289	730.5
564.501	729.5
564.713	737.5
564.925	737.5
565.137	722.5
565.349	732.5
565.561	750.5
565.773	735.5
565.985	736.5
566.197	765.5
566.408	754.5
566.62	765.5
566.832	783.5
567.044	778.5
567.255	769.5
567.467	771.5
567.679	773.5
567.891	743.5
568.102	741.5
568.314	755.5
568.526	721.5
568.737	735.5
568.949	720.5
569.161	720.5
569.372	707.5
569.584	697.5
569.795	693.5
570.007	673.5
570.218	643.5
570.43	666.5
570.641	657.5
570.853	655.5
571.064	670.5
571.276	654.5
571.487	658.5
571.698	618.5
571.91	632.5
572.121	618.5
572.333	621.5
572.544	605.5
572.755	618.5
572.966	615.5
573.178	587.5
573.389	628.5
573.6	581.5
573.811	593.5
574.023	602.5
574.234	608.5
574.445	589.5
574.656	567.5
574.867	567.5
575.078	595.5
575.289	575.5
575.501	574.5
575.712	568.5
575.923	564.5
576.134	589.5
576.345	576.5
576.556	576.5
576.767	553.5
576.978	539.5
577.188	542.5
577.399	559.5
577.61	553.5
577.821	532.5
578.032	529.5
578.243	514.5
578.454	551.5
578.665	547.5
578.875	541.5
579.086	544.5
579.297	523.5
579.508	525.5
579.718	507.5
579.929	536.5
580.14	524.5
580.35	521.5
580.561	513.5
580.772	511.5
580.982	516.5
581.193	529.5
581.403	513.5
581.614	510.5
581.825	523.5
582.035	497.5
582.246	514.5
582.456	520.5
582.667	498.5
582.877	522.5
583.087	496.5
583.298	483.5
583.508	498.5
583.719	469.5
583.929	495.5
584.139	457.5
584.35	480.5
584.56	490.5
584.77	498.5
584.981	485.5
585.191	463.5
585.401	481.5
585.611	467.5
585.821	484.5
586.032	481.5
586.242	470.5
586.452	472.5
586.662	463.5
586.872	467.5
587.082	487.5
587.292	478.5
587.502	480.5
587.713	458.5
587.923	486.5
588.133	478.5
588.343	482.5
588.553	492.5
588.762	454.5
588.972	477.5
589.182	478.5
589.392	486.5
589.602	466.5
589.812	473.5
590.022	469.5
590.232	460.5
590.441	469.5
590.651	470.5
590.861	461.5
591.071	464.5
591.281	465.5
591.49	457.5
591.7	486.5
591.91	463.5
592.119	461.5
592.329	453.5
592.539	466.5
592.748	441.5
592.958	443.5
593.167	453.5
593.377	450.5
593.587	453.5
593.796	465.5
594.006	461.5
594.215	457.5
594.424	446.5
594.634	442.5
594.843	453.5
595.053	439.5
595.262	466.5
595.472	437.5
595.681	441.5
595.89	412.5
596.1	420.5
596.309	427.5
596.518	424.5
596.727	449.5
596.937	424.5
597.146	428.5
597.355	422.5
597.564	416.5
597.774	409.5
597.983	407.5
598.192	418.5
598.401	419.5
598.61	413.5
598.819	406.5
599.028	419.5
599.237	416.5
599.446	405.5
599.655	416.5
599.864	378.5
600.073	390.5
600.282	380.5
600.491	389.5
600.7	385.5
600.909	393.5
601.118	383.5
601.327	404.5
601.536	400.5
601.745	380.5
601.953	386.5
602.162	375.5
602.371	373.5
602.58	365.5
602.789	387.5
602.997	369.5
603.206	388.5
603.415	384.5
603.623	374.5
603.832	383.5
604.041	373.5
604.249	381.5
604.458	376.5
604.666	381.5
604.875	380.5
605.084	381.5
605.292	361.5
605.501	366.5
605.709	357.5
605.918	352.5
606.126	362.5
606.334	358.5
606.543	385.5
606.751	368.5
606.96	352.5
607.168	362.5
607.376	346.5
607.585	356.5
607.793	357.5
608.001	353.5
608.21	370.5
608.418	345.5
608.626	346.5
608.834	356.5
609.043	350.5
609.251	364.5
609.459	328.5
609.667	333.5
609.875	365.5
610.083	341.5
610.291	351.5
610.499	339.5
610.707	351.5
610.916	357.5
611.124	339.5
611.332	344.5
611.54	357.5
611.748	347.5
611.955	340.5
612.163	333.5
612.371	343.5
612.579	342.5
612.787	340.5
612.995	337.5
613.203	333.5
613.411	352.5
613.618	337.5
613.826	342.5
614.034	328.5
614.242	328.5
614.449	335.5
614.657	323.5
614.865	334.5
615.072	343.5
615.28	352.5
615.488	323.5
615.695	335.5
615.903	341.5
616.111	335.5
616.318	327.5
616.526	316.5
616.733	325.5
616.941	304.5
617.148	309.5
617.356	328.5
617.563	323.5
617.771	321.5
617.978	324.5
618.185	331.5
618.393	314.5
618.6	307.5
618.807	302.5
619.015	310.5
619.222	319.5
619.429	338.5
619.637	322.5
619.844	306.5
620.051	333.5
620.258	323.5
620.466	308.5
620.673	295.5
620.88	321.5
621.087	303.5
621.294	293.5
621.501	301.5
621.708	303.5
621.915	299.5
622.122	317.5
622.329	314.5
622.536	312.5
622.743	304.5
622.95	300.5
623.157	292.5
623.364	308.5
623.571	294.5
623.778	287.5
623.985	304.5
624.192	295.5
624.399	287.5
624.606	297.5
624.812	313.5
625.019	281.5
625.226	290.5
625.433	298.5
625.639	286.5
625.846	291.5
626.053	277.5
626.259	283.5
626.466	287.5
626.673	285.5
626.879	287.5
627.086	291.5
627.293	281.5
627.499	296.5
627.706	283.5
627.912	258.5
628.119	281.5
628.325	265.5
628.532	273.5
628.738	276.5
628.945	262.5
629.151	263.5
629.357	255.5
629.564	282.5
629.77	283.5
629.976	266.5
630.183	274.5
630.389	266.5
630.595	257.5
630.802	282.5
631.008	275.5
631.214	278.5
631.42	268.5
631.627	260.5
631.833	259.5
632.039	265.5
632.245	251.5
632.451	259.5
632.657	255.5
632.863	250.5
633.069	268.5
633.275	254.5
633.481	238.5
633.688	251.5
633.893	239.5
634.099	259.5
634.305	233.5
634.511	249.5
634.717	261.5
634.923	259.5
635.129	243.5
635.335	237.5
635.541	239.5
635.747	250.5
635.952	243.5
636.158	251.5
636.364	266.5
636.57	246.5
636.775	244.5
636.981	241.5
637.187	248.5
637.392	263.5
637.598	237.5
637.804	224.5
638.009	241.5
638.215	234.5
638.421	259.5
638.626	238.5
638.832	250.5
639.037	241.5
639.243	265.5
639.448	252.5
639.654	233.5
639.859	222.5
640.065	227.5
640.27	229.5
640.475	242.5
640.681	244.5
640.886	239.5
641.091	241.5
641.297	243.5
641.502	230.5
641.707	232.5
641.913	238.5
642.118	227.5
642.323	229.5
642.528	220.5
642.733	211.5
642.939	209.5
643.144	234.5
643.349	216.5
643.554	239.5
643.759	246.5
643.964	253.5
644.169	226.5
644.374	225.5
644.579	229.5
644.784	230.5
644.989	226.5
645.194	233.5
645.399	214.5
645.604	253.5
645.809	207.5
646.014	227.5
646.219	229.5
646.423	221.5
646.628	214.5
646.833	236.5
647.038	231.5
647.243	226.5
647.447	218.5
647.652	233.5
647.857	224.5
648.062	232.5
648.266	239.5
648.471	232.5
648.676	221.5
648.88	212.5
649.085	247.5
649.289	233.5
649.494	221.5
649.698	216.5
649.903	220.5
650.107	223.5
650.312	220.5
650.516	229.5
650.721	227.5
650.925	226.5
651.13	215.5
651.334	221.5
651.539	215.5
651.743	224.5
651.947	208.5
652.152	208.5
652.356	229.5
652.56	207.5
652.764	208.5
652.969	206.5
653.173	200.5
653.377	206.5
653.581	207.5
653.785	208.5
653.99	176.5
654.194	199.5
654.398	201.5
654.602	196.5
654.806	185.5
655.01	198.5
655.214	202.5
655.418	197.5
655.622	193.5
655.826	188.5
656.03	201.5
656.234	185.5
656.438	182.5
656.642	195.5
656.846	193.5
657.049	194.5
657.253	171.5
657.457	170.5
657.661	168.5
657.865	161.5
658.068	166.5
658.272	135.5
658.476	137.5
658.68	148.5
658.883	144.5
659.087	125.5
659.291	136.5
659.494	120.5
659.698	127.5
659.901	122.5
660.105	125.5
660.309	103.5
660.512	104.5
660.716	104.5
660.919	104.5
661.123	107.5
661.326	90.5
661.53	115.5
661.733	101.5
661.936	95.5
662.14	97.5
662.343	96.5
662.546	87.5
662.75	92.5
662.953	80.5
663.156	70.5
663.36	82.5
663.563	88.5
663.766	78.5
663.969	88.5
664.173	84.5
664.376	97.5
664.579	80.5
664.782	79.5
664.985	73.5
665.188	98.5
665.391	71.5
665.594	77.5
665.797	77.5
666	89.5
666.203	74.5
666.406	75.5
666.609	86.5
666.812	90.5
667.015	75.5
667.218	70.5
667.421	55.5
667.624	78.5
667.827	86.5
668.03	79.5
668.232	74.5
668.435	69.5
668.638	76.5
668.841	80.5
669.043	74.5
669.246	90.5
669.449	75.5
669.651	90.5
669.854	89.5
670.057	65.5
670.259	90.5
670.462	70.5
670.665	81.5
670.867	83.5
671.07	80.5
671.272	78.5
671.475	70.5
671.677	70.5
671.88	61.5
672.082	62.5
672.284	89.5
672.487	82.5
672.689	80.5
672.892	78.5
