Data from Fe(NO3)3@0.0125M.TitratingCurve.Agarose3%dH2O.NegLispCup.LampEnergy10.LIBS07252019_HRD10591_16-59-33-338.txt Node
Date: Thu Jul 25 16:59:33 EDT 2019
User: cochatt
Spectrometer: HR+D1059
Trigger mode: 1
Integration Time (sec): 1.000000E-1
Scans to average: 1
Electric dark correction enabled: true
Nonlinearity correction enabled: false
Boxcar width: 0
XAxis mode: Wavelengths
Number of Pixels in Spectrum: 2048
>>>>>Begin Spectral Data<<<<<
223.165	-14.19
223.4	-14.19
223.635	-14.19
223.869	-13.19
224.104	-23.19
224.338	-17.19
224.573	-23.19
224.808	-24.19
225.042	0.81
225.277	-16.19
225.511	-1.19
225.746	0.81
225.98	15.81
226.215	12.81
226.449	19.81
226.683	22.81
226.918	24.81
227.152	34.81
227.387	26.81
227.621	32.81
227.856	36.81
228.09	33.81
228.324	49.81
228.559	50.81
228.793	64.81
229.027	67.81
229.262	93.81
229.496	88.81
229.73	73.81
229.964	87.81
230.199	79.81
230.433	76.81
230.667	90.81
230.901	104.81
231.136	100.81
231.37	89.81
231.604	101.81
231.838	98.81
232.072	87.81
232.306	91.81
232.541	89.81
232.775	102.81
233.009	117.81
233.243	95.81
233.477	95.81
233.711	109.81
233.945	105.81
234.179	87.81
234.413	105.81
234.647	99.81
234.881	102.81
235.115	107.81
235.349	100.81
235.583	106.81
235.817	104.81
236.051	95.81
236.285	102.81
236.519	91.81
236.753	103.81
236.987	98.81
237.221	100.81
237.455	95.81
237.689	102.81
237.922	105.81
238.156	114.81
238.39	112.81
238.624	95.81
238.858	108.81
239.091	103.81
239.325	103.81
239.559	107.81
239.793	104.81
240.027	93.81
240.26	100.81
240.494	101.81
240.728	113.81
240.961	111.81
241.195	102.81
241.429	116.81
241.662	106.81
241.896	107.81
242.13	114.81
242.363	100.81
242.597	107.81
242.83	112.81
243.064	110.81
243.298	116.81
243.531	108.81
243.765	114.81
243.998	107.81
244.232	105.81
244.465	117.81
244.699	101.81
244.932	106.81
245.166	111.81
245.399	127.81
245.633	120.81
245.866	121.81
246.099	126.81
246.333	121.81
246.566	116.81
246.8	106.81
247.033	113.81
247.266	115.81
247.5	118.81
247.733	106.81
247.966	116.81
248.2	113.81
248.433	116.81
248.666	140.81
248.899	118.81
249.133	137.81
249.366	124.81
249.599	114.81
249.832	129.81
250.066	135.81
250.299	131.81
250.532	131.81
250.765	125.81
250.998	131.81
251.231	121.81
251.465	133.81
251.698	127.81
251.931	124.81
252.164	141.81
252.397	120.81
252.63	124.81
252.863	136.81
253.096	139.81
253.329	137.81
253.562	117.81
253.795	134.81
254.028	140.81
254.261	133.81
254.494	138.81
254.727	138.81
254.96	133.81
255.193	132.81
255.426	131.81
255.659	141.81
255.892	135.81
256.124	138.81
256.357	163.81
256.59	149.81
256.823	146.81
257.056	150.81
257.289	127.81
257.521	129.81
257.754	151.81
257.987	143.81
258.22	147.81
258.452	156.81
258.685	159.81
258.918	157.81
259.151	154.81
259.383	145.81
259.616	151.81
259.849	144.81
260.081	140.81
260.314	153.81
260.547	163.81
260.779	151.81
261.012	149.81
261.244	151.81
261.477	165.81
261.71	165.81
261.942	145.81
262.175	163.81
262.407	160.81
262.64	146.81
262.872	146.81
263.105	165.81
263.337	183.81
263.57	171.81
263.802	164.81
264.035	159.81
264.267	168.81
264.499	167.81
264.732	161.81
264.964	162.81
265.197	162.81
265.429	162.81
265.661	172.81
265.894	157.81
266.126	170.81
266.358	163.81
266.591	176.81
266.823	163.81
267.055	172.81
267.287	160.81
267.52	174.81
267.752	167.81
267.984	159.81
268.216	174.81
268.448	183.81
268.681	167.81
268.913	185.81
269.145	172.81
269.377	184.81
269.609	175.81
269.841	177.81
270.073	189.81
270.306	188.81
270.538	189.81
270.77	181.81
271.002	202.81
271.234	196.81
271.466	195.81
271.698	177.81
271.93	188.81
272.162	203.81
272.394	191.81
272.626	203.81
272.858	190.81
273.09	217.81
273.322	195.81
273.553	205.81
273.785	196.81
274.017	212.81
274.249	196.81
274.481	213.81
274.713	209.81
274.945	212.81
275.176	206.81
275.408	224.81
275.64	213.81
275.872	201.81
276.104	197.81
276.335	208.81
276.567	223.81
276.799	203.81
277.031	224.81
277.262	224.81
277.494	210.81
277.726	219.81
277.957	222.81
278.189	211.81
278.421	219.81
278.652	220.81
278.884	218.81
279.115	231.81
279.347	219.81
279.579	240.81
279.81	231.81
280.042	228.81
280.273	224.81
280.505	234.81
280.736	234.81
280.968	244.81
281.199	229.81
281.431	239.81
281.662	223.81
281.894	237.81
282.125	233.81
282.356	237.81
282.588	242.81
282.819	255.81
283.051	229.81
283.282	233.81
283.513	255.81
283.745	255.81
283.976	256.81
284.207	256.81
284.439	258.81
284.67	280.81
284.901	264.81
285.132	257.81
285.364	252.81
285.595	265.81
285.826	264.81
286.057	272.81
286.288	239.81
286.52	264.81
286.751	268.81
286.982	283.81
287.213	285.81
287.444	262.81
287.675	275.81
287.906	267.81
288.138	289.81
288.369	282.81
288.6	277.81
288.831	269.81
289.062	271.81
289.293	304.81
289.524	281.81
289.755	274.81
289.986	277.81
290.217	284.81
290.448	272.81
290.679	276.81
290.91	289.81
291.141	292.81
291.371	296.81
291.602	307.81
291.833	277.81
292.064	288.81
292.295	288.81
292.526	274.81
292.757	292.81
292.987	297.81
293.218	296.81
293.449	294.81
293.68	320.81
293.91	299.81
294.141	298.81
294.372	285.81
294.603	300.81
294.833	312.81
295.064	306.81
295.295	310.81
295.525	307.81
295.756	312.81
295.987	304.81
296.217	284.81
296.448	305.81
296.679	308.81
296.909	331.81
297.14	320.81
297.37	326.81
297.601	314.81
297.831	313.81
298.062	324.81
298.292	319.81
298.523	321.81
298.753	339.81
298.984	331.81
299.214	326.81
299.445	333.81
299.675	325.81
299.905	334.81
300.136	336.81
300.366	349.81
300.597	331.81
300.827	336.81
301.057	326.81
301.288	317.81
301.518	350.81
301.748	343.81
301.979	343.81
302.209	355.81
302.439	349.81
302.669	356.81
302.9	359.81
303.13	336.81
303.36	349.81
303.59	338.81
303.82	365.81
304.051	373.81
304.281	359.81
304.511	365.81
304.741	370.81
304.971	375.81
305.201	367.81
305.431	364.81
305.661	370.81
305.891	375.81
306.121	374.81
306.352	354.81
306.582	357.81
306.812	362.81
307.042	364.81
307.272	382.81
307.502	360.81
307.731	363.81
307.961	371.81
308.191	385.81
308.421	368.81
308.651	360.81
308.881	361.81
309.111	394.81
309.341	390.81
309.571	387.81
309.8	384.81
310.03	377.81
310.26	378.81
310.49	383.81
310.72	395.81
310.949	387.81
311.179	374.81
311.409	415.81
311.639	385.81
311.868	381.81
312.098	398.81
312.328	391.81
312.557	418.81
312.787	401.81
313.017	386.81
313.246	395.81
313.476	393.81
313.706	423.81
313.935	411.81
314.165	406.81
314.394	394.81
314.624	409.81
314.853	412.81
315.083	393.81
315.312	431.81
315.542	427.81
315.771	421.81
316.001	429.81
316.23	435.81
316.46	425.81
316.689	425.81
316.919	411.81
317.148	420.81
317.377	433.81
317.607	431.81
317.836	432.81
318.065	432.81
318.295	424.81
318.524	422.81
318.753	450.81
318.983	434.81
319.212	454.81
319.441	422.81
319.67	434.81
319.9	435.81
320.129	458.81
320.358	436.81
320.587	433.81
320.816	433.81
321.046	463.81
321.275	466.81
321.504	444.81
321.733	463.81
321.962	434.81
322.191	465.81
322.42	447.81
322.649	465.81
322.878	467.81
323.108	448.81
323.337	451.81
323.566	458.81
323.795	468.81
324.024	443.81
324.253	481.81
324.482	452.81
324.71	455.81
324.939	456.81
325.168	472.81
325.397	469.81
325.626	459.81
325.855	468.81
326.084	472.81
326.313	469.81
326.542	479.81
326.77	452.81
326.999	466.81
327.228	480.81
327.457	475.81
327.686	484.81
327.914	479.81
328.143	468.81
328.372	471.81
328.6	483.81
328.829	497.81
329.058	497.81
329.287	490.81
329.515	479.81
329.744	481.81
329.972	501.81
330.201	497.81
330.43	476.81
330.658	495.81
330.887	491.81
331.115	490.81
331.344	522.81
331.572	505.81
331.801	486.81
332.03	504.81
332.258	516.81
332.486	490.81
332.715	499.81
332.943	505.81
333.172	513.81
333.4	502.81
333.629	495.81
333.857	513.81
334.085	508.81
334.314	503.81
334.542	491.81
334.771	534.81
334.999	503.81
335.227	512.81
335.455	515.81
335.684	532.81
335.912	531.81
336.14	532.81
336.369	525.81
336.597	514.81
336.825	515.81
337.053	520.81
337.281	520.81
337.51	515.81
337.738	530.81
337.966	523.81
338.194	522.81
338.422	525.81
338.65	521.81
338.878	528.81
339.106	527.81
339.334	520.81
339.562	517.81
339.79	519.81
340.018	521.81
340.246	536.81
340.474	524.81
340.702	532.81
340.93	508.81
341.158	517.81
341.386	520.81
341.614	540.81
341.842	535.81
342.07	509.81
342.298	525.81
342.526	524.81
342.754	516.81
342.981	525.81
343.209	526.81
343.437	513.81
343.665	540.81
343.893	529.81
344.12	528.81
344.348	519.81
344.576	541.81
344.804	527.81
345.031	528.81
345.259	528.81
345.487	526.81
345.714	541.81
345.942	524.81
346.17	518.81
346.397	519.81
346.625	524.81
346.853	517.81
347.08	536.81
347.308	515.81
347.535	529.81
347.763	516.81
347.99	519.81
348.218	508.81
348.445	518.81
348.673	525.81
348.9	512.81
349.128	532.81
349.355	535.81
349.583	529.81
349.81	536.81
350.037	523.81
350.265	525.81
350.492	524.81
350.72	509.81
350.947	519.81
351.174	494.81
351.402	538.81
351.629	522.81
351.856	503.81
352.083	514.81
352.311	515.81
352.538	537.81
352.765	533.81
352.992	527.81
353.22	495.81
353.447	534.81
353.674	531.81
353.901	528.81
354.128	536.81
354.355	531.81
354.583	514.81
354.81	540.81
355.037	528.81
355.264	538.81
355.491	535.81
355.718	518.81
355.945	535.81
356.172	550.81
356.399	525.81
356.626	561.81
356.853	554.81
357.08	555.81
357.307	547.81
357.534	524.81
357.761	541.81
357.988	544.81
358.215	553.81
358.441	522.81
358.668	531.81
358.895	537.81
359.122	524.81
359.349	521.81
359.576	539.81
359.802	542.81
360.029	546.81
360.256	541.81
360.483	533.81
360.709	544.81
360.936	559.81
361.163	572.81
361.39	516.81
361.616	553.81
361.843	527.81
362.07	543.81
362.296	530.81
362.523	569.81
362.749	559.81
362.976	541.81
363.203	528.81
363.429	558.81
363.656	555.81
363.882	549.81
364.109	542.81
364.335	543.81
364.562	529.81
364.788	560.81
365.015	577.81
365.241	561.81
365.468	565.81
365.694	540.81
365.92	561.81
366.147	557.81
366.373	548.81
366.599	548.81
366.826	554.81
367.052	547.81
367.278	549.81
367.505	553.81
367.731	592.81
367.957	543.81
368.184	552.81
368.41	537.81
368.636	561.81
368.862	568.81
369.089	549.81
369.315	581.81
369.541	573.81
369.767	560.81
369.993	561.81
370.219	585.81
370.445	566.81
370.672	575.81
370.898	590.81
371.124	589.81
371.35	569.81
371.576	568.81
371.802	572.81
372.028	582.81
372.254	568.81
372.48	566.81
372.706	575.81
372.932	569.81
373.158	571.81
373.384	599.81
373.61	597.81
373.835	570.81
374.061	587.81
374.287	558.81
374.513	591.81
374.739	589.81
374.965	589.81
375.191	589.81
375.416	573.81
375.642	576.81
375.868	576.81
376.094	572.81
376.319	597.81
376.545	599.81
376.771	580.81
376.997	558.81
377.222	577.81
377.448	546.81
377.674	592.81
377.899	598.81
378.125	592.81
378.35	568.81
378.576	579.81
378.802	577.81
379.027	568.81
379.253	591.81
379.478	583.81
379.704	567.81
379.929	574.81
380.155	582.81
380.38	592.81
380.606	588.81
380.831	577.81
381.057	596.81
381.282	585.81
381.507	568.81
381.733	600.81
381.958	597.81
382.184	592.81
382.409	585.81
382.634	585.81
382.86	593.81
383.085	607.81
383.31	597.81
383.535	594.81
383.761	588.81
383.986	582.81
384.211	589.81
384.436	611.81
384.662	615.81
384.887	627.81
385.112	619.81
385.337	608.81
385.562	582.81
385.787	619.81
386.013	619.81
386.238	603.81
386.463	590.81
386.688	622.81
386.913	628.81
387.138	617.81
387.363	631.81
387.588	609.81
387.813	602.81
388.038	615.81
388.263	615.81
388.488	634.81
388.713	599.81
388.938	616.81
389.163	607.81
389.387	629.81
389.612	617.81
389.837	611.81
390.062	633.81
390.287	639.81
390.512	632.81
390.736	627.81
390.961	629.81
391.186	614.81
391.411	620.81
391.636	623.81
391.86	621.81
392.085	630.81
392.31	623.81
392.534	635.81
392.759	648.81
392.984	616.81
393.208	621.81
393.433	637.81
393.658	629.81
393.882	622.81
394.107	648.81
394.331	608.81
394.556	608.81
394.78	631.81
395.005	639.81
395.229	631.81
395.454	641.81
395.678	592.81
395.903	627.81
396.127	631.81
396.352	613.81
396.576	647.81
396.801	643.81
397.025	639.81
397.249	656.81
397.474	632.81
397.698	628.81
397.922	658.81
398.147	634.81
398.371	652.81
398.595	673.81
398.82	669.81
399.044	687.81
399.268	653.81
399.492	703.81
399.717	646.81
399.941	687.81
400.165	681.81
400.389	681.81
400.613	689.81
400.837	682.81
401.062	672.81
401.286	677.81
401.51	667.81
401.734	660.81
401.958	664.81
402.182	697.81
402.406	689.81
402.63	680.81
402.854	672.81
403.078	676.81
403.302	675.81
403.526	673.81
403.75	648.81
403.974	682.81
404.198	662.81
404.422	666.81
404.645	661.81
404.869	692.81
405.093	711.81
405.317	677.81
405.541	705.81
405.765	675.81
405.988	683.81
406.212	691.81
406.436	678.81
406.66	704.81
406.883	698.81
407.107	695.81
407.331	725.81
407.555	713.81
407.778	691.81
408.002	705.81
408.226	700.81
408.449	710.81
408.673	697.81
408.896	672.81
409.12	676.81
409.344	709.81
409.567	675.81
409.791	709.81
410.014	694.81
410.238	679.81
410.461	695.81
410.685	707.81
410.908	685.81
411.132	703.81
411.355	668.81
411.578	700.81
411.802	676.81
412.025	649.81
412.249	681.81
412.472	680.81
412.695	665.81
412.919	649.81
413.142	681.81
413.365	671.81
413.589	669.81
413.812	686.81
414.035	654.81
414.258	687.81
414.482	648.81
414.705	680.81
414.928	672.81
415.151	694.81
415.374	675.81
415.597	667.81
415.821	678.81
416.044	651.81
416.267	654.81
416.49	643.81
416.713	689.81
416.936	675.81
417.159	656.81
417.382	656.81
417.605	631.81
417.828	653.81
418.051	647.81
418.274	632.81
418.497	633.81
418.72	651.81
418.943	637.81
419.166	649.81
419.389	721.81
419.611	689.81
419.834	681.81
420.057	664.81
420.28	658.81
420.503	634.81
420.726	646.81
420.948	633.81
421.171	666.81
421.394	669.81
421.617	635.81
421.839	654.81
422.062	665.81
422.285	643.81
422.507	650.81
422.73	634.81
422.953	651.81
423.175	636.81
423.398	651.81
423.621	660.81
423.843	637.81
424.066	669.81
424.288	643.81
424.511	660.81
424.733	665.81
424.956	647.81
425.178	628.81
425.401	627.81
425.623	652.81
425.846	635.81
426.068	642.81
426.291	668.81
426.513	619.81
426.735	657.81
426.958	654.81
427.18	657.81
427.402	665.81
427.625	620.81
427.847	626.81
428.069	633.81
428.292	641.81
428.514	631.81
428.736	643.81
428.958	633.81
429.181	625.81
429.403	648.81
429.625	618.81
429.847	639.81
430.069	651.81
430.292	647.81
430.514	644.81
430.736	661.81
430.958	639.81
431.18	640.81
431.402	640.81
431.624	627.81
431.846	643.81
432.068	635.81
432.29	626.81
432.512	621.81
432.734	643.81
432.956	645.81
433.178	665.81
433.4	672.81
433.622	634.81
433.844	663.81
434.066	621.81
434.287	648.81
434.509	645.81
434.731	628.81
434.953	644.81
435.175	620.81
435.397	668.81
435.618	647.81
435.84	643.81
436.062	638.81
436.284	610.81
436.505	619.81
436.727	639.81
436.949	627.81
437.17	627.81
437.392	637.81
437.614	622.81
437.835	636.81
438.057	658.81
438.278	620.81
438.5	623.81
438.721	611.81
438.943	645.81
439.165	604.81
439.386	645.81
439.608	635.81
439.829	633.81
440.05	648.81
440.272	620.81
440.493	643.81
440.715	649.81
440.936	636.81
441.158	629.81
441.379	639.81
441.6	628.81
441.822	635.81
442.043	649.81
442.264	642.81
442.486	643.81
442.707	639.81
442.928	637.81
443.149	637.81
443.371	630.81
443.592	618.81
443.813	607.81
444.034	637.81
444.255	627.81
444.476	659.81
444.698	651.81
444.919	635.81
445.14	744.81
445.361	677.81
445.582	649.81
445.803	636.81
446.024	653.81
446.245	627.81
446.466	634.81
446.687	627.81
446.908	635.81
447.129	608.81
447.35	620.81
447.571	607.81
447.792	596.81
448.013	595.81
448.234	590.81
448.455	640.81
448.675	617.81
448.896	603.81
449.117	580.81
449.338	594.81
449.559	630.81
449.779	625.81
450	604.81
450.221	592.81
450.442	616.81
450.662	605.81
450.883	610.81
451.104	605.81
451.324	588.81
451.545	597.81
451.766	600.81
451.986	604.81
452.207	585.81
452.428	581.81
452.648	608.81
452.869	593.81
453.089	579.81
453.31	594.81
453.53	599.81
453.751	593.81
453.971	579.81
454.192	616.81
454.412	584.81
454.633	583.81
454.853	613.81
455.073	597.81
455.294	586.81
455.514	601.81
455.734	585.81
455.955	587.81
456.175	589.81
456.395	577.81
456.616	587.81
456.836	595.81
457.056	589.81
457.276	563.81
457.497	620.81
457.717	582.81
457.937	580.81
458.157	591.81
458.377	582.81
458.598	596.81
458.818	593.81
459.038	592.81
459.258	597.81
459.478	620.81
459.698	593.81
459.918	596.81
460.138	606.81
460.358	617.81
460.578	628.81
460.798	607.81
461.018	636.81
461.238	642.81
461.458	637.81
461.678	626.81
461.898	658.81
462.118	642.81
462.338	625.81
462.558	639.81
462.777	627.81
462.997	684.81
463.217	627.81
463.437	653.81
463.657	650.81
463.876	662.81
464.096	656.81
464.316	659.81
464.536	650.81
464.755	666.81
464.975	646.81
465.195	643.81
465.414	659.81
465.634	644.81
465.854	653.81
466.073	636.81
466.293	634.81
466.512	619.81
466.732	614.81
466.951	645.81
467.171	645.81
467.391	635.81
467.61	636.81
467.829	632.81
468.049	597.81
468.268	603.81
468.488	636.81
468.707	633.81
468.927	637.81
469.146	615.81
469.365	635.81
469.585	652.81
469.804	632.81
470.023	640.81
470.243	643.81
470.462	655.81
470.681	629.81
470.901	640.81
471.12	652.81
471.339	667.81
471.558	663.81
471.777	666.81
471.997	658.81
472.216	664.81
472.435	652.81
472.654	661.81
472.873	637.81
473.092	671.81
473.311	671.81
473.53	661.81
473.749	660.81
473.968	688.81
474.187	668.81
474.406	679.81
474.625	681.81
474.844	672.81
475.063	684.81
475.282	705.81
475.501	697.81
475.72	711.81
475.939	707.81
476.158	716.81
476.377	721.81
476.596	704.81
476.814	738.81
477.033	732.81
477.252	711.81
477.471	714.81
477.69	721.81
477.908	721.81
478.127	729.81
478.346	732.81
478.564	750.81
478.783	745.81
479.002	765.81
479.22	749.81
479.439	758.81
479.658	745.81
479.876	745.81
480.095	772.81
480.313	789.81
480.532	755.81
480.751	776.81
480.969	783.81
481.188	809.81
481.406	775.81
481.624	787.81
481.843	785.81
482.061	803.81
482.28	771.81
482.498	773.81
482.717	807.81
482.935	791.81
483.153	821.81
483.372	821.81
483.59	829.81
483.808	815.81
484.027	816.81
484.245	823.81
484.463	811.81
484.681	842.81
484.9	840.81
485.118	828.81
485.336	800.81
485.554	849.81
485.772	818.81
485.99	833.81
486.209	856.81
486.427	843.81
486.645	834.81
486.863	852.81
487.081	831.81
487.299	847.81
487.517	841.81
487.735	847.81
487.953	853.81
488.171	847.81
488.389	846.81
488.607	824.81
488.825	826.81
489.043	844.81
489.261	833.81
489.479	827.81
489.696	848.81
489.914	847.81
490.132	824.81
490.35	881.81
490.568	847.81
490.786	827.81
491.003	860.81
491.221	838.81
491.439	854.81
491.657	872.81
491.874	872.81
492.092	856.81
492.31	857.81
492.527	852.81
492.745	871.81
492.963	868.81
493.18	864.81
493.398	883.81
493.615	885.81
493.833	866.81
494.05	851.81
494.268	864.81
494.485	858.81
494.703	853.81
494.92	847.81
495.138	845.81
495.355	855.81
495.573	851.81
495.79	837.81
496.008	876.81
496.225	874.81
496.442	886.81
496.66	878.81
496.877	890.81
497.094	876.81
497.312	889.81
497.529	885.81
497.746	918.81
497.963	896.81
498.181	893.81
498.398	899.81
498.615	905.81
498.832	926.81
499.049	950.81
499.267	946.81
499.484	933.81
499.701	959.81
499.918	939.81
500.135	951.81
500.352	964.81
500.569	991.81
500.786	1001.81
501.003	986.81
501.22	961.81
501.437	953.81
501.654	939.81
501.871	943.81
502.088	923.81
502.305	937.81
502.522	929.81
502.739	915.81
502.956	856.81
503.172	895.81
503.389	870.81
503.606	872.81
503.823	867.81
504.04	872.81
504.256	870.81
504.473	859.81
504.69	851.81
504.907	860.81
505.123	853.81
505.34	848.81
505.557	839.81
505.773	851.81
505.99	836.81
506.207	833.81
506.423	828.81
506.64	831.81
506.856	826.81
507.073	804.81
507.289	801.81
507.506	823.81
507.722	805.81
507.939	791.81
508.155	807.81
508.372	804.81
508.588	753.81
508.805	786.81
509.021	764.81
509.238	774.81
509.454	757.81
509.67	754.81
509.887	781.81
510.103	754.81
510.319	771.81
510.536	773.81
510.752	759.81
510.968	764.81
511.184	765.81
511.401	742.81
511.617	771.81
511.833	785.81
512.049	767.81
512.265	772.81
512.481	745.81
512.698	739.81
512.914	727.81
513.13	742.81
513.346	741.81
513.562	742.81
513.778	727.81
513.994	767.81
514.21	739.81
514.426	773.81
514.642	765.81
514.858	771.81
515.074	709.81
515.29	724.81
515.506	782.81
515.721	744.81
515.937	732.81
516.153	742.81
516.369	752.81
516.585	748.81
516.801	754.81
517.016	780.81
517.232	741.81
517.448	716.81
517.664	739.81
517.879	751.81
518.095	771.81
518.311	744.81
518.527	747.81
518.742	735.81
518.958	754.81
519.173	746.81
519.389	739.81
519.605	741.81
519.82	775.81
520.036	739.81
520.251	721.81
520.467	700.81
520.682	737.81
520.898	727.81
521.113	730.81
521.329	721.81
521.544	729.81
521.76	735.81
521.975	738.81
522.19	748.81
522.406	729.81
522.621	746.81
522.836	742.81
523.052	732.81
523.267	728.81
523.482	708.81
523.698	707.81
523.913	696.81
524.128	691.81
524.343	697.81
524.559	708.81
524.774	711.81
524.989	732.81
525.204	741.81
525.419	694.81
525.634	709.81
525.849	704.81
526.064	706.81
526.28	707.81
526.495	713.81
526.71	700.81
526.925	705.81
527.14	695.81
527.355	717.81
527.57	705.81
527.785	687.81
527.999	691.81
528.214	696.81
528.429	697.81
528.644	708.81
528.859	711.81
529.074	703.81
529.289	711.81
529.503	698.81
529.718	674.81
529.933	678.81
530.148	690.81
530.363	693.81
530.577	682.81
530.792	695.81
531.007	676.81
531.221	663.81
531.436	679.81
531.651	696.81
531.865	666.81
532.08	691.81
532.295	695.81
532.509	692.81
532.724	691.81
532.938	679.81
533.153	690.81
533.367	691.81
533.582	685.81
533.796	692.81
534.011	645.81
534.225	661.81
534.44	636.81
534.654	658.81
534.868	652.81
535.083	669.81
535.297	696.81
535.511	654.81
535.726	674.81
535.94	651.81
536.154	660.81
536.369	635.81
536.583	655.81
536.797	651.81
537.011	653.81
537.225	651.81
537.44	651.81
537.654	646.81
537.868	648.81
538.082	644.81
538.296	634.81
538.51	636.81
538.724	662.81
538.938	669.81
539.153	641.81
539.367	639.81
539.581	650.81
539.795	647.81
540.009	666.81
540.222	639.81
540.436	637.81
540.65	618.81
540.864	604.81
541.078	626.81
541.292	652.81
541.506	643.81
541.72	629.81
541.934	635.81
542.147	657.81
542.361	638.81
542.575	627.81
542.789	613.81
543.002	633.81
543.216	607.81
543.43	625.81
543.644	625.81
543.857	628.81
544.071	611.81
544.285	614.81
544.498	628.81
544.712	627.81
544.925	625.81
545.139	623.81
545.352	624.81
545.566	648.81
545.779	627.81
545.993	617.81
546.206	628.81
546.42	588.81
546.633	608.81
546.847	623.81
547.06	603.81
547.274	612.81
547.487	625.81
547.7	607.81
547.914	624.81
548.127	623.81
548.34	628.81
548.554	601.81
548.767	611.81
548.98	613.81
549.193	607.81
549.407	609.81
549.62	601.81
549.833	596.81
550.046	621.81
550.259	601.81
550.473	607.81
550.686	626.81
550.899	569.81
551.112	612.81
551.325	584.81
551.538	587.81
551.751	583.81
551.964	599.81
552.177	587.81
552.39	596.81
552.603	612.81
552.816	592.81
553.029	609.81
553.242	600.81
553.455	595.81
553.667	596.81
553.88	599.81
554.093	609.81
554.306	601.81
554.519	579.81
554.732	569.81
554.944	586.81
555.157	590.81
555.37	607.81
555.583	592.81
555.795	594.81
556.008	556.81
556.221	585.81
556.433	557.81
556.646	559.81
556.859	567.81
557.071	557.81
557.284	567.81
557.496	562.81
557.709	550.81
557.921	561.81
558.134	556.81
558.346	567.81
558.559	565.81
558.771	571.81
558.984	554.81
559.196	540.81
559.409	575.81
559.621	543.81
559.833	539.81
560.046	545.81
560.258	553.81
560.47	532.81
560.683	547.81
560.895	540.81
561.107	529.81
561.32	537.81
561.532	528.81
561.744	517.81
561.956	536.81
562.168	523.81
562.381	537.81
562.593	523.81
562.805	551.81
563.017	540.81
563.229	531.81
563.441	526.81
563.653	552.81
563.865	533.81
564.077	515.81
564.289	511.81
564.501	530.81
564.713	533.81
564.925	526.81
565.137	534.81
565.349	543.81
565.561	555.81
565.773	531.81
565.985	531.81
566.197	546.81
566.408	508.81
566.62	519.81
566.832	545.81
567.044	542.81
567.255	539.81
567.467	529.81
567.679	532.81
567.891	530.81
568.102	531.81
568.314	530.81
568.526	494.81
568.737	530.81
568.949	520.81
569.161	513.81
569.372	520.81
569.584	475.81
569.795	485.81
570.007	499.81
570.218	468.81
570.43	478.81
570.641	467.81
570.853	487.81
571.064	469.81
571.276	463.81
571.487	482.81
571.698	474.81
571.91	479.81
572.121	458.81
572.333	460.81
572.544	442.81
572.755	469.81
572.966	452.81
573.178	444.81
573.389	449.81
573.6	454.81
573.811	442.81
574.023	437.81
574.234	425.81
574.445	448.81
574.656	415.81
574.867	437.81
575.078	437.81
575.289	431.81
575.501	444.81
575.712	427.81
575.923	441.81
576.134	439.81
576.345	433.81
576.556	448.81
576.767	424.81
576.978	438.81
577.188	441.81
577.399	414.81
577.61	422.81
577.821	420.81
578.032	432.81
578.243	420.81
578.454	437.81
578.665	440.81
578.875	415.81
579.086	426.81
579.297	426.81
579.508	420.81
579.718	415.81
579.929	388.81
580.14	380.81
580.35	392.81
580.561	413.81
580.772	408.81
580.982	391.81
581.193	413.81
581.403	405.81
581.614	397.81
581.825	383.81
582.035	383.81
582.246	396.81
582.456	380.81
582.667	407.81
582.877	402.81
583.087	385.81
583.298	391.81
583.508	389.81
583.719	405.81
583.929	414.81
584.139	399.81
584.35	401.81
584.56	367.81
584.77	395.81
584.981	379.81
585.191	363.81
585.401	394.81
585.611	378.81
585.821	394.81
586.032	383.81
586.242	393.81
586.452	364.81
586.662	364.81
586.872	379.81
587.082	372.81
587.292	380.81
587.502	374.81
587.713	379.81
587.923	388.81
588.133	373.81
588.343	377.81
588.553	382.81
588.762	385.81
588.972	381.81
589.182	401.81
589.392	398.81
589.602	371.81
589.812	370.81
590.022	355.81
590.232	364.81
590.441	351.81
590.651	369.81
590.861	345.81
591.071	349.81
591.281	336.81
591.49	347.81
591.7	333.81
591.91	355.81
592.119	359.81
592.329	370.81
592.539	333.81
592.748	348.81
592.958	325.81
593.167	365.81
593.377	350.81
593.587	365.81
593.796	347.81
594.006	367.81
594.215	354.81
594.424	361.81
594.634	348.81
594.843	351.81
595.053	368.81
595.262	352.81
595.472	341.81
595.681	356.81
595.89	354.81
596.1	343.81
596.309	330.81
596.518	338.81
596.727	340.81
596.937	344.81
597.146	329.81
597.355	321.81
597.564	352.81
597.774	333.81
597.983	315.81
598.192	315.81
598.401	320.81
598.61	330.81
598.819	352.81
599.028	342.81
599.237	300.81
599.446	325.81
599.655	332.81
599.864	322.81
600.073	335.81
600.282	333.81
600.491	329.81
600.7	330.81
600.909	307.81
601.118	309.81
601.327	316.81
601.536	311.81
601.745	328.81
601.953	320.81
602.162	312.81
602.371	318.81
602.58	296.81
602.789	306.81
602.997	296.81
603.206	310.81
603.415	334.81
603.623	316.81
603.832	307.81
604.041	306.81
604.249	299.81
604.458	298.81
604.666	282.81
604.875	306.81
605.084	306.81
605.292	301.81
605.501	296.81
605.709	309.81
605.918	321.81
606.126	296.81
606.334	298.81
606.543	307.81
606.751	304.81
606.96	304.81
607.168	306.81
607.376	317.81
607.585	294.81
607.793	295.81
608.001	306.81
608.21	301.81
608.418	284.81
608.626	298.81
608.834	280.81
609.043	317.81
609.251	291.81
609.459	319.81
609.667	303.81
609.875	281.81
610.083	307.81
610.291	308.81
610.499	293.81
610.707	287.81
610.916	292.81
611.124	274.81
611.332	285.81
611.54	293.81
611.748	282.81
611.955	284.81
612.163	273.81
612.371	287.81
612.579	284.81
612.787	296.81
612.995	281.81
613.203	284.81
613.411	294.81
613.618	273.81
613.826	293.81
614.034	276.81
614.242	278.81
614.449	284.81
614.657	279.81
614.865	269.81
615.072	272.81
615.28	295.81
615.488	281.81
615.695	264.81
615.903	285.81
616.111	270.81
616.318	291.81
616.526	268.81
616.733	286.81
616.941	266.81
617.148	285.81
617.356	276.81
617.563	260.81
617.771	280.81
617.978	274.81
618.185	265.81
618.393	267.81
618.6	273.81
618.807	266.81
619.015	263.81
619.222	263.81
619.429	248.81
619.637	273.81
619.844	269.81
620.051	261.81
620.258	260.81
620.466	272.81
620.673	252.81
620.88	277.81
621.087	263.81
621.294	269.81
621.501	270.81
621.708	249.81
621.915	255.81
622.122	275.81
622.329	269.81
622.536	255.81
622.743	261.81
622.95	269.81
623.157	244.81
623.364	248.81
623.571	261.81
623.778	268.81
623.985	248.81
624.192	238.81
624.399	256.81
624.606	264.81
624.812	247.81
625.019	246.81
625.226	257.81
625.433	265.81
625.639	250.81
625.846	250.81
626.053	248.81
626.259	246.81
626.466	251.81
626.673	250.81
626.879	247.81
627.086	261.81
627.293	242.81
627.499	233.81
627.706	250.81
627.912	247.81
628.119	229.81
628.325	228.81
628.532	229.81
628.738	232.81
628.945	226.81
629.151	244.81
629.357	219.81
629.564	236.81
629.77	240.81
629.976	222.81
630.183	219.81
630.389	227.81
630.595	229.81
630.802	244.81
631.008	235.81
631.214	235.81
631.42	224.81
631.627	235.81
631.833	228.81
632.039	231.81
632.245	217.81
632.451	195.81
632.657	229.81
632.863	205.81
633.069	216.81
633.275	230.81
633.481	214.81
633.688	223.81
633.893	208.81
634.099	216.81
634.305	226.81
634.511	230.81
634.717	233.81
634.923	236.81
635.129	210.81
635.335	222.81
635.541	223.81
635.747	216.81
635.952	231.81
636.158	224.81
636.364	211.81
636.57	232.81
636.775	220.81
636.981	228.81
637.187	209.81
637.392	224.81
637.598	221.81
637.804	232.81
638.009	197.81
638.215	227.81
638.421	201.81
638.626	213.81
638.832	217.81
639.037	212.81
639.243	200.81
639.448	207.81
639.654	209.81
639.859	223.81
640.065	207.81
640.27	228.81
640.475	194.81
640.681	196.81
640.886	208.81
641.091	205.81
641.297	206.81
641.502	212.81
641.707	209.81
641.913	212.81
642.118	229.81
642.323	216.81
642.528	209.81
642.733	202.81
642.939	201.81
643.144	201.81
643.349	213.81
643.554	204.81
643.759	214.81
643.964	213.81
644.169	208.81
644.374	213.81
644.579	200.81
644.784	215.81
644.989	200.81
645.194	200.81
645.399	222.81
645.604	202.81
645.809	200.81
646.014	217.81
646.219	217.81
646.423	190.81
646.628	187.81
646.833	215.81
647.038	192.81
647.243	207.81
647.447	196.81
647.652	200.81
647.857	210.81
648.062	191.81
648.266	202.81
648.471	200.81
648.676	192.81
648.88	198.81
649.085	212.81
649.289	210.81
649.494	194.81
649.698	208.81
649.903	214.81
650.107	210.81
650.312	226.81
650.516	203.81
650.721	195.81
650.925	191.81
651.13	183.81
651.334	193.81
651.539	193.81
651.743	189.81
651.947	193.81
652.152	174.81
652.356	190.81
652.56	167.81
652.764	195.81
652.969	187.81
653.173	186.81
653.377	176.81
653.581	192.81
653.785	182.81
653.99	182.81
654.194	184.81
654.398	187.81
654.602	166.81
654.806	170.81
655.01	169.81
655.214	167.81
655.418	160.81
655.622	183.81
655.826	180.81
656.03	172.81
656.234	174.81
656.438	164.81
656.642	174.81
656.846	183.81
657.049	159.81
657.253	152.81
657.457	147.81
657.661	140.81
657.865	138.81
658.068	144.81
658.272	141.81
658.476	144.81
658.68	131.81
658.883	125.81
659.087	129.81
659.291	132.81
659.494	124.81
659.698	114.81
659.901	124.81
660.105	104.81
660.309	112.81
660.512	110.81
660.716	97.81
660.919	101.81
661.123	109.81
661.326	89.81
661.53	99.81
661.733	106.81
661.936	87.81
662.14	97.81
662.343	79.81
662.546	89.81
662.75	99.81
662.953	88.81
663.156	92.81
663.36	87.81
663.563	81.81
663.766	82.81
663.969	89.81
664.173	89.81
664.376	86.81
664.579	84.81
664.782	89.81
664.985	85.81
665.188	89.81
665.391	74.81
665.594	76.81
665.797	81.81
666	93.81
666.203	93.81
666.406	80.81
666.609	70.81
666.812	80.81
667.015	89.81
667.218	82.81
667.421	85.81
667.624	71.81
667.827	72.81
668.03	82.81
668.232	90.81
668.435	77.81
668.638	86.81
668.841	90.81
669.043	79.81
669.246	96.81
669.449	89.81
669.651	86.81
669.854	83.81
670.057	75.81
670.259	77.81
670.462	80.81
670.665	95.81
670.867	87.81
671.07	72.81
671.272	77.81
671.475	96.81
671.677	78.81
671.88	90.81
672.082	96.81
672.284	83.81
672.487	77.81
672.689	63.81
672.892	69.81
