Data from Fe(NO3)3@0.05M.TitratingCurve.Agarose3%dH2O.NegLispCup.LampEnergy10.LIBS07252019_HRD10591_16-47-24-335.txt Node
Date: Thu Jul 25 16:47:24 EDT 2019
User: cochatt
Spectrometer: HR+D1059
Trigger mode: 1
Integration Time (sec): 1.000000E-1
Scans to average: 1
Electric dark correction enabled: true
Nonlinearity correction enabled: false
Boxcar width: 0
XAxis mode: Wavelengths
Number of Pixels in Spectrum: 2048
>>>>>Begin Spectral Data<<<<<
223.165	-16.75
223.4	-16.75
223.635	-16.75
223.869	-12.75
224.104	-22.75
224.338	-4.75
224.573	-21.75
224.808	-7.75
225.042	-11.75
225.277	-0.75
225.511	-9.75
225.746	3.25
225.98	9.25
226.215	-2.75
226.449	5.25
226.683	24.25
226.918	34.25
227.152	35.25
227.387	38.25
227.621	29.25
227.856	40.25
228.09	55.25
228.324	43.25
228.559	55.25
228.793	73.25
229.027	70.25
229.262	86.25
229.496	101.25
229.73	98.25
229.964	105.25
230.199	101.25
230.433	99.25
230.667	117.25
230.901	106.25
231.136	114.25
231.37	109.25
231.604	98.25
231.838	109.25
232.072	118.25
232.306	120.25
232.541	119.25
232.775	124.25
233.009	119.25
233.243	130.25
233.477	103.25
233.711	115.25
233.945	117.25
234.179	114.25
234.413	115.25
234.647	125.25
234.881	121.25
235.115	114.25
235.349	120.25
235.583	119.25
235.817	114.25
236.051	125.25
236.285	121.25
236.519	131.25
236.753	109.25
236.987	124.25
237.221	118.25
237.455	120.25
237.689	121.25
237.922	117.25
238.156	132.25
238.39	136.25
238.624	130.25
238.858	130.25
239.091	128.25
239.325	133.25
239.559	131.25
239.793	126.25
240.027	125.25
240.26	133.25
240.494	129.25
240.728	143.25
240.961	129.25
241.195	129.25
241.429	124.25
241.662	113.25
241.896	139.25
242.13	132.25
242.363	137.25
242.597	142.25
242.83	143.25
243.064	133.25
243.298	138.25
243.531	151.25
243.765	158.25
243.998	150.25
244.232	148.25
244.465	133.25
244.699	154.25
244.932	147.25
245.166	161.25
245.399	152.25
245.633	154.25
245.866	150.25
246.099	146.25
246.333	149.25
246.566	157.25
246.8	156.25
247.033	146.25
247.266	165.25
247.5	157.25
247.733	168.25
247.966	147.25
248.2	149.25
248.433	153.25
248.666	165.25
248.899	157.25
249.133	151.25
249.366	174.25
249.599	165.25
249.832	176.25
250.066	169.25
250.299	163.25
250.532	175.25
250.765	173.25
250.998	161.25
251.231	172.25
251.465	173.25
251.698	170.25
251.931	179.25
252.164	177.25
252.397	182.25
252.63	190.25
252.863	184.25
253.096	168.25
253.329	188.25
253.562	190.25
253.795	176.25
254.028	193.25
254.261	205.25
254.494	176.25
254.727	188.25
254.96	182.25
255.193	178.25
255.426	207.25
255.659	166.25
255.892	184.25
256.124	180.25
256.357	203.25
256.59	189.25
256.823	201.25
257.056	173.25
257.289	184.25
257.521	201.25
257.754	203.25
257.987	192.25
258.22	213.25
258.452	190.25
258.685	193.25
258.918	202.25
259.151	207.25
259.383	215.25
259.616	191.25
259.849	188.25
260.081	204.25
260.314	215.25
260.547	213.25
260.779	194.25
261.012	214.25
261.244	206.25
261.477	218.25
261.71	201.25
261.942	201.25
262.175	203.25
262.407	207.25
262.64	217.25
262.872	211.25
263.105	212.25
263.337	235.25
263.57	212.25
263.802	199.25
264.035	211.25
264.267	213.25
264.499	215.25
264.732	216.25
264.964	233.25
265.197	215.25
265.429	218.25
265.661	230.25
265.894	219.25
266.126	212.25
266.358	223.25
266.591	235.25
266.823	224.25
267.055	237.25
267.287	232.25
267.52	225.25
267.752	243.25
267.984	232.25
268.216	221.25
268.448	216.25
268.681	237.25
268.913	241.25
269.145	236.25
269.377	243.25
269.609	211.25
269.841	227.25
270.073	228.25
270.306	243.25
270.538	243.25
270.77	234.25
271.002	239.25
271.234	238.25
271.466	251.25
271.698	254.25
271.93	250.25
272.162	250.25
272.394	246.25
272.626	235.25
272.858	238.25
273.09	249.25
273.322	241.25
273.553	253.25
273.785	252.25
274.017	252.25
274.249	250.25
274.481	254.25
274.713	251.25
274.945	265.25
275.176	278.25
275.408	253.25
275.64	279.25
275.872	252.25
276.104	262.25
276.335	258.25
276.567	256.25
276.799	257.25
277.031	262.25
277.262	249.25
277.494	253.25
277.726	253.25
277.957	265.25
278.189	254.25
278.421	271.25
278.652	255.25
278.884	270.25
279.115	272.25
279.347	289.25
279.579	275.25
279.81	274.25
280.042	281.25
280.273	273.25
280.505	275.25
280.736	264.25
280.968	265.25
281.199	281.25
281.431	289.25
281.662	291.25
281.894	310.25
282.125	293.25
282.356	290.25
282.588	288.25
282.819	277.25
283.051	303.25
283.282	294.25
283.513	279.25
283.745	290.25
283.976	291.25
284.207	283.25
284.439	288.25
284.67	301.25
284.901	292.25
285.132	288.25
285.364	309.25
285.595	290.25
285.826	308.25
286.057	292.25
286.288	306.25
286.52	299.25
286.751	296.25
286.982	302.25
287.213	298.25
287.444	305.25
287.675	310.25
287.906	310.25
288.138	314.25
288.369	304.25
288.6	330.25
288.831	306.25
289.062	325.25
289.293	321.25
289.524	313.25
289.755	313.25
289.986	289.25
290.217	310.25
290.448	312.25
290.679	307.25
290.91	306.25
291.141	303.25
291.371	323.25
291.602	318.25
291.833	292.25
292.064	306.25
292.295	294.25
292.526	314.25
292.757	319.25
292.987	308.25
293.218	315.25
293.449	314.25
293.68	307.25
293.91	345.25
294.141	329.25
294.372	314.25
294.603	313.25
294.833	312.25
295.064	334.25
295.295	326.25
295.525	337.25
295.756	312.25
295.987	312.25
296.217	318.25
296.448	335.25
296.679	325.25
296.909	325.25
297.14	330.25
297.37	325.25
297.601	332.25
297.831	333.25
298.062	343.25
298.292	348.25
298.523	327.25
298.753	362.25
298.984	346.25
299.214	343.25
299.445	331.25
299.675	319.25
299.905	353.25
300.136	346.25
300.366	341.25
300.597	338.25
300.827	342.25
301.057	357.25
301.288	348.25
301.518	351.25
301.748	351.25
301.979	355.25
302.209	345.25
302.439	348.25
302.669	356.25
302.9	348.25
303.13	366.25
303.36	362.25
303.59	353.25
303.82	367.25
304.051	348.25
304.281	347.25
304.511	350.25
304.741	352.25
304.971	358.25
305.201	345.25
305.431	369.25
305.661	358.25
305.891	353.25
306.121	366.25
306.352	365.25
306.582	344.25
306.812	339.25
307.042	361.25
307.272	369.25
307.502	343.25
307.731	343.25
307.961	350.25
308.191	370.25
308.421	349.25
308.651	368.25
308.881	361.25
309.111	357.25
309.341	344.25
309.571	362.25
309.8	362.25
310.03	357.25
310.26	345.25
310.49	352.25
310.72	343.25
310.949	349.25
311.179	354.25
311.409	355.25
311.639	337.25
311.868	359.25
312.098	363.25
312.328	376.25
312.557	378.25
312.787	355.25
313.017	357.25
313.246	375.25
313.476	370.25
313.706	378.25
313.935	378.25
314.165	371.25
314.394	390.25
314.624	378.25
314.853	372.25
315.083	382.25
315.312	375.25
315.542	386.25
315.771	381.25
316.001	379.25
316.23	373.25
316.46	361.25
316.689	380.25
316.919	391.25
317.148	377.25
317.377	379.25
317.607	393.25
317.836	372.25
318.065	388.25
318.295	379.25
318.524	392.25
318.753	389.25
318.983	379.25
319.212	368.25
319.441	363.25
319.67	365.25
319.9	387.25
320.129	405.25
320.358	369.25
320.587	394.25
320.816	397.25
321.046	403.25
321.275	371.25
321.504	382.25
321.733	394.25
321.962	379.25
322.191	385.25
322.42	363.25
322.649	375.25
322.878	377.25
323.108	392.25
323.337	413.25
323.566	392.25
323.795	383.25
324.024	405.25
324.253	402.25
324.482	396.25
324.71	414.25
324.939	391.25
325.168	402.25
325.397	389.25
325.626	393.25
325.855	388.25
326.084	415.25
326.313	424.25
326.542	419.25
326.77	397.25
326.999	391.25
327.228	402.25
327.457	396.25
327.686	416.25
327.914	415.25
328.143	421.25
328.372	415.25
328.6	410.25
328.829	407.25
329.058	415.25
329.287	410.25
329.515	407.25
329.744	429.25
329.972	424.25
330.201	410.25
330.43	442.25
330.658	435.25
330.887	407.25
331.115	437.25
331.344	443.25
331.572	447.25
331.801	450.25
332.03	451.25
332.258	462.25
332.486	454.25
332.715	470.25
332.943	482.25
333.172	488.25
333.4	517.25
333.629	521.25
333.857	532.25
334.085	537.25
334.314	535.25
334.542	540.25
334.771	537.25
334.999	512.25
335.227	490.25
335.455	497.25
335.684	505.25
335.912	520.25
336.14	501.25
336.369	497.25
336.597	493.25
336.825	475.25
337.053	466.25
337.281	489.25
337.51	479.25
337.738	465.25
337.966	455.25
338.194	461.25
338.422	462.25
338.65	472.25
338.878	450.25
339.106	458.25
339.334	440.25
339.562	460.25
339.79	447.25
340.018	462.25
340.246	434.25
340.474	440.25
340.702	403.25
340.93	447.25
341.158	447.25
341.386	432.25
341.614	424.25
341.842	425.25
342.07	446.25
342.298	440.25
342.526	422.25
342.754	419.25
342.981	440.25
343.209	453.25
343.437	445.25
343.665	467.25
343.893	509.25
344.12	528.25
344.348	518.25
344.576	475.25
344.804	470.25
345.031	459.25
345.259	445.25
345.487	451.25
345.714	441.25
345.942	449.25
346.17	432.25
346.397	414.25
346.625	415.25
346.853	441.25
347.08	430.25
347.308	429.25
347.535	429.25
347.763	410.25
347.99	411.25
348.218	428.25
348.445	445.25
348.673	418.25
348.9	416.25
349.128	424.25
349.355	417.25
349.583	410.25
349.81	419.25
350.037	410.25
350.265	411.25
350.492	405.25
350.72	399.25
350.947	395.25
351.174	431.25
351.402	407.25
351.629	402.25
351.856	407.25
352.083	406.25
352.311	419.25
352.538	393.25
352.765	400.25
352.992	407.25
353.22	395.25
353.447	405.25
353.674	420.25
353.901	401.25
354.128	408.25
354.355	408.25
354.583	407.25
354.81	405.25
355.037	406.25
355.264	411.25
355.491	399.25
355.718	409.25
355.945	415.25
356.172	420.25
356.399	433.25
356.626	422.25
356.853	420.25
357.08	422.25
357.307	423.25
357.534	407.25
357.761	409.25
357.988	418.25
358.215	422.25
358.441	414.25
358.668	432.25
358.895	417.25
359.122	422.25
359.349	427.25
359.576	416.25
359.802	421.25
360.029	418.25
360.256	425.25
360.483	415.25
360.709	415.25
360.936	410.25
361.163	409.25
361.39	412.25
361.616	425.25
361.843	413.25
362.07	416.25
362.296	427.25
362.523	407.25
362.749	435.25
362.976	423.25
363.203	407.25
363.429	409.25
363.656	423.25
363.882	443.25
364.109	412.25
364.335	433.25
364.562	422.25
364.788	403.25
365.015	406.25
365.241	399.25
365.468	411.25
365.694	417.25
365.92	411.25
366.147	412.25
366.373	419.25
366.599	413.25
366.826	435.25
367.052	434.25
367.278	415.25
367.505	441.25
367.731	422.25
367.957	430.25
368.184	401.25
368.41	445.25
368.636	423.25
368.862	448.25
369.089	441.25
369.315	433.25
369.541	438.25
369.767	419.25
369.993	436.25
370.219	439.25
370.445	439.25
370.672	440.25
370.898	454.25
371.124	457.25
371.35	460.25
371.576	456.25
371.802	456.25
372.028	451.25
372.254	463.25
372.48	479.25
372.706	468.25
372.932	475.25
373.158	474.25
373.384	474.25
373.61	477.25
373.835	487.25
374.061	475.25
374.287	498.25
374.513	460.25
374.739	486.25
374.965	499.25
375.191	499.25
375.416	500.25
375.642	479.25
375.868	511.25
376.094	477.25
376.319	465.25
376.545	473.25
376.771	501.25
376.997	454.25
377.222	446.25
377.448	460.25
377.674	460.25
377.899	454.25
378.125	486.25
378.35	463.25
378.576	459.25
378.802	456.25
379.027	454.25
379.253	480.25
379.478	446.25
379.704	444.25
379.929	463.25
380.155	463.25
380.38	462.25
380.606	472.25
380.831	472.25
381.057	472.25
381.282	443.25
381.507	449.25
381.733	469.25
381.958	505.25
382.184	484.25
382.409	492.25
382.634	507.25
382.86	480.25
383.085	470.25
383.31	488.25
383.535	492.25
383.761	515.25
383.986	521.25
384.211	520.25
384.436	531.25
384.662	543.25
384.887	529.25
385.112	526.25
385.337	550.25
385.562	534.25
385.787	556.25
386.013	561.25
386.238	573.25
386.463	563.25
386.688	559.25
386.913	549.25
387.138	531.25
387.363	552.25
387.588	557.25
387.813	547.25
388.038	551.25
388.263	547.25
388.488	531.25
388.713	572.25
388.938	554.25
389.163	548.25
389.387	557.25
389.612	558.25
389.837	553.25
390.062	565.25
390.287	557.25
390.512	561.25
390.736	577.25
390.961	558.25
391.186	621.25
391.411	578.25
391.636	583.25
391.86	584.25
392.085	602.25
392.31	592.25
392.534	605.25
392.759	594.25
392.984	596.25
393.208	588.25
393.433	598.25
393.658	585.25
393.882	601.25
394.107	607.25
394.331	587.25
394.556	586.25
394.78	598.25
395.005	599.25
395.229	607.25
395.454	594.25
395.678	633.25
395.903	622.25
396.127	623.25
396.352	613.25
396.576	625.25
396.801	614.25
397.025	598.25
397.249	621.25
397.474	601.25
397.698	631.25
397.922	641.25
398.147	662.25
398.371	632.25
398.595	657.25
398.82	705.25
399.044	733.25
399.268	763.25
399.492	859.25
399.717	951.25
399.941	924.25
400.165	857.25
400.389	805.25
400.613	749.25
400.837	712.25
401.062	718.25
401.286	714.25
401.51	701.25
401.734	668.25
401.958	707.25
402.182	709.25
402.406	721.25
402.63	698.25
402.854	703.25
403.078	742.25
403.302	726.25
403.526	744.25
403.75	766.25
403.974	763.25
404.198	768.25
404.422	777.25
404.645	750.25
404.869	742.25
405.093	754.25
405.317	764.25
405.541	757.25
405.765	761.25
405.988	747.25
406.212	738.25
406.436	774.25
406.66	794.25
406.883	768.25
407.107	823.25
407.331	847.25
407.555	874.25
407.778	866.25
408.002	840.25
408.226	827.25
408.449	849.25
408.673	782.25
408.896	806.25
409.12	787.25
409.344	765.25
409.567	772.25
409.791	781.25
410.014	756.25
410.238	750.25
410.461	769.25
410.685	762.25
410.908	759.25
411.132	754.25
411.355	744.25
411.578	720.25
411.802	726.25
412.025	744.25
412.249	768.25
412.472	751.25
412.695	718.25
412.919	705.25
413.142	710.25
413.365	693.25
413.589	733.25
413.812	705.25
414.035	718.25
414.258	703.25
414.482	717.25
414.705	735.25
414.928	744.25
415.151	719.25
415.374	698.25
415.597	701.25
415.821	711.25
416.044	675.25
416.267	680.25
416.49	675.25
416.713	691.25
416.936	679.25
417.159	677.25
417.382	666.25
417.605	690.25
417.828	696.25
418.051	686.25
418.274	725.25
418.497	696.25
418.72	742.25
418.943	696.25
419.166	735.25
419.389	771.25
419.611	760.25
419.834	744.25
420.057	721.25
420.28	707.25
420.503	693.25
420.726	686.25
420.948	685.25
421.171	674.25
421.394	695.25
421.617	703.25
421.839	704.25
422.062	711.25
422.285	664.25
422.507	688.25
422.73	704.25
422.953	702.25
423.175	689.25
423.398	710.25
423.621	711.25
423.843	700.25
424.066	729.25
424.288	741.25
424.511	711.25
424.733	709.25
424.956	719.25
425.178	706.25
425.401	709.25
425.623	700.25
425.846	677.25
426.068	671.25
426.291	675.25
426.513	648.25
426.735	667.25
426.958	645.25
427.18	645.25
427.402	649.25
427.625	657.25
427.847	664.25
428.069	650.25
428.292	656.25
428.514	644.25
428.736	665.25
428.958	637.25
429.181	649.25
429.403	629.25
429.625	616.25
429.847	637.25
430.069	637.25
430.292	635.25
430.514	630.25
430.736	617.25
430.958	641.25
431.18	612.25
431.402	621.25
431.624	637.25
431.846	648.25
432.068	633.25
432.29	631.25
432.512	635.25
432.734	639.25
432.956	645.25
433.178	649.25
433.4	631.25
433.622	669.25
433.844	672.25
434.066	675.25
434.287	625.25
434.509	672.25
434.731	681.25
434.953	671.25
435.175	689.25
435.397	689.25
435.618	664.25
435.84	655.25
436.062	664.25
436.284	658.25
436.505	646.25
436.727	655.25
436.949	650.25
437.17	642.25
437.392	626.25
437.614	629.25
437.835	622.25
438.057	629.25
438.278	601.25
438.5	630.25
438.721	599.25
438.943	637.25
439.165	625.25
439.386	635.25
439.608	634.25
439.829	647.25
440.05	650.25
440.272	667.25
440.493	663.25
440.715	650.25
440.936	656.25
441.158	679.25
441.379	677.25
441.6	721.25
441.822	718.25
442.043	692.25
442.264	686.25
442.486	687.25
442.707	694.25
442.928	702.25
443.149	674.25
443.371	676.25
443.592	710.25
443.813	693.25
444.034	721.25
444.255	738.25
444.476	746.25
444.698	780.25
444.919	800.25
445.14	844.25
445.361	798.25
445.582	714.25
445.803	711.25
446.024	692.25
446.245	678.25
446.466	659.25
446.687	659.25
446.908	673.25
447.129	627.25
447.35	632.25
447.571	643.25
447.792	606.25
448.013	617.25
448.234	592.25
448.455	610.25
448.675	597.25
448.896	589.25
449.117	600.25
449.338	610.25
449.559	594.25
449.779	585.25
450	594.25
450.221	596.25
450.442	594.25
450.662	613.25
450.883	618.25
451.104	610.25
451.324	601.25
451.545	604.25
451.766	617.25
451.986	594.25
452.207	586.25
452.428	599.25
452.648	608.25
452.869	587.25
453.089	572.25
453.31	589.25
453.53	583.25
453.751	580.25
453.971	571.25
454.192	561.25
454.412	562.25
454.633	559.25
454.853	548.25
455.073	564.25
455.294	581.25
455.514	551.25
455.734	567.25
455.955	543.25
456.175	564.25
456.395	545.25
456.616	568.25
456.836	536.25
457.056	568.25
457.276	547.25
457.497	557.25
457.717	559.25
457.937	565.25
458.157	587.25
458.377	565.25
458.598	585.25
458.818	592.25
459.038	616.25
459.258	637.25
459.478	625.25
459.698	630.25
459.918	661.25
460.138	690.25
460.358	715.25
460.578	719.25
460.798	735.25
461.018	721.25
461.238	748.25
461.458	725.25
461.678	744.25
461.898	745.25
462.118	745.25
462.338	773.25
462.558	813.25
462.777	838.25
462.997	871.25
463.217	913.25
463.437	929.25
463.657	840.25
463.876	850.25
464.096	850.25
464.316	837.25
464.536	850.25
464.755	799.25
464.975	798.25
465.195	733.25
465.414	714.25
465.634	689.25
465.854	670.25
466.073	641.25
466.293	634.25
466.512	628.25
466.732	634.25
466.951	643.25
467.171	626.25
467.391	634.25
467.61	652.25
467.829	631.25
468.049	627.25
468.268	595.25
468.488	603.25
468.707	591.25
468.927	613.25
469.146	613.25
469.365	617.25
469.585	633.25
469.804	617.25
470.023	627.25
470.243	615.25
470.462	621.25
470.681	651.25
470.901	635.25
471.12	628.25
471.339	617.25
471.558	604.25
471.777	592.25
471.997	596.25
472.216	622.25
472.435	581.25
472.654	585.25
472.873	607.25
473.092	590.25
473.311	577.25
473.53	559.25
473.749	581.25
473.968	595.25
474.187	564.25
474.406	575.25
474.625	597.25
474.844	574.25
475.063	595.25
475.282	576.25
475.501	586.25
475.72	582.25
475.939	628.25
476.158	606.25
476.377	609.25
476.596	624.25
476.814	623.25
477.033	594.25
477.252	606.25
477.471	630.25
477.69	641.25
477.908	655.25
478.127	678.25
478.346	664.25
478.564	695.25
478.783	669.25
479.002	711.25
479.22	696.25
479.439	698.25
479.658	694.25
479.876	672.25
480.095	699.25
480.313	735.25
480.532	735.25
480.751	743.25
480.969	713.25
481.188	705.25
481.406	677.25
481.624	665.25
481.843	683.25
482.061	672.25
482.28	673.25
482.498	658.25
482.717	635.25
482.935	655.25
483.153	644.25
483.372	662.25
483.59	640.25
483.808	661.25
484.027	640.25
484.245	666.25
484.463	670.25
484.681	697.25
484.9	682.25
485.118	675.25
485.336	651.25
485.554	670.25
485.772	675.25
485.99	658.25
486.209	686.25
486.427	685.25
486.645	685.25
486.863	692.25
487.081	692.25
487.299	667.25
487.517	681.25
487.735	697.25
487.953	705.25
488.171	689.25
488.389	678.25
488.607	658.25
488.825	681.25
489.043	672.25
489.261	703.25
489.479	678.25
489.696	662.25
489.914	682.25
490.132	702.25
490.35	662.25
490.568	692.25
490.786	695.25
491.003	701.25
491.221	679.25
491.439	693.25
491.657	706.25
491.874	734.25
492.092	728.25
492.31	706.25
492.527	698.25
492.745	725.25
492.963	717.25
493.18	727.25
493.398	730.25
493.615	724.25
493.833	723.25
494.05	720.25
494.268	743.25
494.485	735.25
494.703	753.25
494.92	753.25
495.138	718.25
495.355	713.25
495.573	739.25
495.79	744.25
496.008	735.25
496.225	759.25
496.442	776.25
496.66	751.25
496.877	765.25
497.094	805.25
497.312	793.25
497.529	826.25
497.746	835.25
497.963	841.25
498.181	887.25
498.398	915.25
498.615	976.25
498.832	1026.25
499.049	1053.25
499.267	1125.25
499.484	1236.25
499.701	1319.25
499.918	1435.25
500.135	1561.25
500.352	1731.25
500.569	1786.25
500.786	1749.25
501.003	1647.25
501.22	1565.25
501.437	1419.25
501.654	1249.25
501.871	1229.25
502.088	1137.25
502.305	1055.25
502.522	1011.25
502.739	981.25
502.956	943.25
503.172	897.25
503.389	891.25
503.606	851.25
503.823	837.25
504.04	815.25
504.256	842.25
504.473	820.25
504.69	840.25
504.907	825.25
505.123	799.25
505.34	753.25
505.557	742.25
505.773	704.25
505.99	718.25
506.207	678.25
506.423	680.25
506.64	669.25
506.856	658.25
507.073	639.25
507.289	657.25
507.506	642.25
507.722	632.25
507.939	670.25
508.155	628.25
508.372	634.25
508.588	601.25
508.805	639.25
509.021	613.25
509.238	609.25
509.454	620.25
509.67	616.25
509.887	602.25
510.103	596.25
510.319	594.25
510.536	602.25
510.752	593.25
510.968	589.25
511.184	592.25
511.401	607.25
511.617	606.25
511.833	591.25
512.049	625.25
512.265	605.25
512.481	578.25
512.698	593.25
512.914	595.25
513.13	584.25
513.346	612.25
513.562	607.25
513.778	581.25
513.994	591.25
514.21	593.25
514.426	598.25
514.642	614.25
514.858	607.25
515.074	621.25
515.29	621.25
515.506	592.25
515.721	620.25
515.937	631.25
516.153	630.25
516.369	646.25
516.585	666.25
516.801	680.25
517.016	702.25
517.232	739.25
517.448	734.25
517.664	741.25
517.879	758.25
518.095	769.25
518.311	741.25
518.527	717.25
518.742	712.25
518.958	663.25
519.173	702.25
519.389	660.25
519.605	657.25
519.82	624.25
520.036	645.25
520.251	607.25
520.467	609.25
520.682	582.25
520.898	600.25
521.113	584.25
521.329	586.25
521.544	573.25
521.76	561.25
521.975	565.25
522.19	590.25
522.406	563.25
522.621	561.25
522.836	552.25
523.052	566.25
523.267	552.25
523.482	568.25
523.698	548.25
523.913	544.25
524.128	538.25
524.343	552.25
524.559	541.25
524.774	558.25
524.989	538.25
525.204	545.25
525.419	531.25
525.634	496.25
525.849	537.25
526.064	549.25
526.28	524.25
526.495	531.25
526.71	536.25
526.925	558.25
527.14	545.25
527.355	539.25
527.57	522.25
527.785	528.25
527.999	519.25
528.214	524.25
528.429	522.25
528.644	531.25
528.859	547.25
529.074	529.25
529.289	524.25
529.503	516.25
529.718	537.25
529.933	533.25
530.148	526.25
530.363	539.25
530.577	518.25
530.792	528.25
531.007	521.25
531.221	546.25
531.436	551.25
531.651	523.25
531.865	523.25
532.08	528.25
532.295	541.25
532.509	536.25
532.724	524.25
532.938	541.25
533.153	498.25
533.367	527.25
533.582	504.25
533.796	522.25
534.011	521.25
534.225	514.25
534.44	528.25
534.654	510.25
534.868	523.25
535.083	515.25
535.297	525.25
535.511	504.25
535.726	501.25
535.94	512.25
536.154	494.25
536.369	493.25
536.583	507.25
536.797	498.25
537.011	476.25
537.225	476.25
537.44	483.25
537.654	498.25
537.868	477.25
538.082	477.25
538.296	482.25
538.51	482.25
538.724	487.25
538.938	489.25
539.153	494.25
539.367	481.25
539.581	486.25
539.795	490.25
540.009	482.25
540.222	490.25
540.436	512.25
540.65	501.25
540.864	485.25
541.078	487.25
541.292	500.25
541.506	496.25
541.72	505.25
541.934	478.25
542.147	490.25
542.361	487.25
542.575	463.25
542.789	494.25
543.002	484.25
543.216	503.25
543.43	469.25
543.644	471.25
543.857	486.25
544.071	513.25
544.285	477.25
544.498	488.25
544.712	508.25
544.925	490.25
545.139	485.25
545.352	489.25
545.566	486.25
545.779	466.25
545.993	490.25
546.206	490.25
546.42	475.25
546.633	481.25
546.847	498.25
547.06	521.25
547.274	477.25
547.487	490.25
547.7	509.25
547.914	475.25
548.127	509.25
548.34	495.25
548.554	512.25
548.767	506.25
548.98	468.25
549.193	501.25
549.407	491.25
549.62	521.25
549.833	505.25
550.046	504.25
550.259	495.25
550.473	494.25
550.686	465.25
550.899	479.25
551.112	456.25
551.325	488.25
551.538	483.25
551.751	512.25
551.964	492.25
552.177	483.25
552.39	488.25
552.603	489.25
552.816	521.25
553.029	525.25
553.242	517.25
553.455	527.25
553.667	533.25
553.88	531.25
554.093	488.25
554.306	498.25
554.519	491.25
554.732	477.25
554.944	483.25
555.157	463.25
555.37	454.25
555.583	452.25
555.795	438.25
556.008	445.25
556.221	445.25
556.433	435.25
556.646	431.25
556.859	434.25
557.071	434.25
557.284	416.25
557.496	437.25
557.709	451.25
557.921	454.25
558.134	464.25
558.346	434.25
558.559	443.25
558.771	408.25
558.984	409.25
559.196	410.25
559.409	409.25
559.621	436.25
559.833	416.25
560.046	405.25
560.258	411.25
560.47	419.25
560.683	402.25
560.895	404.25
561.107	440.25
561.32	421.25
561.532	424.25
561.744	417.25
561.956	431.25
562.168	407.25
562.381	407.25
562.593	419.25
562.805	403.25
563.017	443.25
563.229	417.25
563.441	411.25
563.653	433.25
563.865	431.25
564.077	431.25
564.289	433.25
564.501	423.25
564.713	443.25
564.925	426.25
565.137	428.25
565.349	456.25
565.561	465.25
565.773	483.25
565.985	504.25
566.197	533.25
566.408	559.25
566.62	574.25
566.832	592.25
567.044	609.25
567.255	636.25
567.467	633.25
567.679	629.25
567.891	682.25
568.102	680.25
568.314	664.25
568.526	624.25
568.737	570.25
568.949	493.25
569.161	495.25
569.372	479.25
569.584	466.25
569.795	440.25
570.007	426.25
570.218	426.25
570.43	412.25
570.641	438.25
570.853	399.25
571.064	442.25
571.276	417.25
571.487	401.25
571.698	405.25
571.91	396.25
572.121	365.25
572.333	381.25
572.544	366.25
572.755	362.25
572.966	366.25
573.178	373.25
573.389	370.25
573.6	355.25
573.811	355.25
574.023	350.25
574.234	339.25
574.445	348.25
574.656	357.25
574.867	333.25
575.078	341.25
575.289	357.25
575.501	328.25
575.712	333.25
575.923	350.25
576.134	346.25
576.345	339.25
576.556	319.25
576.767	314.25
576.978	322.25
577.188	312.25
577.399	315.25
577.61	315.25
577.821	332.25
578.032	321.25
578.243	308.25
578.454	327.25
578.665	317.25
578.875	309.25
579.086	320.25
579.297	310.25
579.508	302.25
579.718	321.25
579.929	298.25
580.14	294.25
580.35	305.25
580.561	305.25
580.772	309.25
580.982	302.25
581.193	295.25
581.403	280.25
581.614	288.25
581.825	288.25
582.035	307.25
582.246	291.25
582.456	307.25
582.667	286.25
582.877	305.25
583.087	289.25
583.298	297.25
583.508	301.25
583.719	296.25
583.929	310.25
584.139	296.25
584.35	281.25
584.56	297.25
584.77	288.25
584.981	289.25
585.191	303.25
585.401	287.25
585.611	289.25
585.821	288.25
586.032	302.25
586.242	293.25
586.452	281.25
586.662	289.25
586.872	291.25
587.082	288.25
587.292	283.25
587.502	292.25
587.713	271.25
587.923	301.25
588.133	274.25
588.343	281.25
588.553	283.25
588.762	274.25
588.972	282.25
589.182	294.25
589.392	277.25
589.602	282.25
589.812	280.25
590.022	301.25
590.232	274.25
590.441	293.25
590.651	285.25
590.861	276.25
591.071	280.25
591.281	304.25
591.49	295.25
591.7	302.25
591.91	295.25
592.119	297.25
592.329	299.25
592.539	322.25
592.748	312.25
592.958	328.25
593.167	295.25
593.377	327.25
593.587	318.25
593.796	335.25
594.006	344.25
594.215	325.25
594.424	346.25
594.634	336.25
594.843	317.25
595.053	317.25
595.262	313.25
595.472	293.25
595.681	299.25
595.89	289.25
596.1	265.25
596.309	275.25
596.518	262.25
596.727	274.25
596.937	280.25
597.146	288.25
597.355	269.25
597.564	267.25
597.774	255.25
597.983	258.25
598.192	265.25
598.401	259.25
598.61	253.25
598.819	276.25
599.028	256.25
599.237	247.25
599.446	257.25
599.655	249.25
599.864	247.25
600.073	245.25
600.282	242.25
600.491	248.25
600.7	246.25
600.909	253.25
601.118	238.25
601.327	238.25
601.536	254.25
601.745	249.25
601.953	228.25
602.162	250.25
602.371	217.25
602.58	231.25
602.789	238.25
602.997	261.25
603.206	247.25
603.415	210.25
603.623	233.25
603.832	229.25
604.041	224.25
604.249	224.25
604.458	244.25
604.666	234.25
604.875	222.25
605.084	213.25
605.292	230.25
605.501	233.25
605.709	222.25
605.918	224.25
606.126	228.25
606.334	234.25
606.543	243.25
606.751	221.25
606.96	241.25
607.168	234.25
607.376	224.25
607.585	223.25
607.793	224.25
608.001	217.25
608.21	211.25
608.418	226.25
608.626	219.25
608.834	221.25
609.043	221.25
609.251	234.25
609.459	236.25
609.667	227.25
609.875	213.25
610.083	226.25
610.291	241.25
610.499	223.25
610.707	219.25
610.916	205.25
611.124	221.25
611.332	226.25
611.54	211.25
611.748	211.25
611.955	231.25
612.163	219.25
612.371	210.25
612.579	213.25
612.787	216.25
612.995	213.25
613.203	225.25
613.411	203.25
613.618	207.25
613.826	212.25
614.034	221.25
614.242	220.25
614.449	227.25
614.657	210.25
614.865	225.25
615.072	198.25
615.28	216.25
615.488	210.25
615.695	215.25
615.903	206.25
616.111	210.25
616.318	219.25
616.526	210.25
616.733	205.25
616.941	207.25
617.148	217.25
617.356	210.25
617.563	211.25
617.771	224.25
617.978	208.25
618.185	210.25
618.393	189.25
618.6	214.25
618.807	209.25
619.015	221.25
619.222	215.25
619.429	211.25
619.637	203.25
619.844	202.25
620.051	192.25
620.258	196.25
620.466	199.25
620.673	166.25
620.88	194.25
621.087	197.25
621.294	194.25
621.501	201.25
621.708	190.25
621.915	206.25
622.122	201.25
622.329	181.25
622.536	197.25
622.743	195.25
622.95	210.25
623.157	201.25
623.364	205.25
623.571	202.25
623.778	191.25
623.985	194.25
624.192	196.25
624.399	192.25
624.606	201.25
624.812	187.25
625.019	212.25
625.226	203.25
625.433	210.25
625.639	190.25
625.846	199.25
626.053	196.25
626.259	196.25
626.466	193.25
626.673	166.25
626.879	187.25
627.086	188.25
627.293	177.25
627.499	190.25
627.706	191.25
627.912	197.25
628.119	173.25
628.325	190.25
628.532	188.25
628.738	200.25
628.945	177.25
629.151	173.25
629.357	180.25
629.564	186.25
629.77	186.25
629.976	180.25
630.183	181.25
630.389	172.25
630.595	189.25
630.802	179.25
631.008	162.25
631.214	158.25
631.42	173.25
631.627	189.25
631.833	193.25
632.039	163.25
632.245	175.25
632.451	180.25
632.657	175.25
632.863	181.25
633.069	184.25
633.275	163.25
633.481	162.25
633.688	166.25
633.893	163.25
634.099	190.25
634.305	157.25
634.511	161.25
634.717	160.25
634.923	184.25
635.129	167.25
635.335	147.25
635.541	171.25
635.747	175.25
635.952	173.25
636.158	158.25
636.364	176.25
636.57	166.25
636.775	167.25
636.981	164.25
637.187	175.25
637.392	166.25
637.598	157.25
637.804	173.25
638.009	157.25
638.215	162.25
638.421	150.25
638.626	162.25
638.832	146.25
639.037	159.25
639.243	165.25
639.448	148.25
639.654	165.25
639.859	147.25
640.065	153.25
640.27	159.25
640.475	157.25
640.681	153.25
640.886	161.25
641.091	160.25
641.297	163.25
641.502	152.25
641.707	155.25
641.913	146.25
642.118	145.25
642.323	152.25
642.528	151.25
642.733	159.25
642.939	151.25
643.144	159.25
643.349	144.25
643.554	155.25
643.759	147.25
643.964	158.25
644.169	161.25
644.374	166.25
644.579	152.25
644.784	139.25
644.989	162.25
645.194	146.25
645.399	155.25
645.604	153.25
645.809	144.25
646.014	154.25
646.219	162.25
646.423	151.25
646.628	154.25
646.833	153.25
647.038	150.25
647.243	140.25
647.447	151.25
647.652	154.25
647.857	147.25
648.062	158.25
648.266	167.25
648.471	154.25
648.676	160.25
648.88	144.25
649.085	166.25
649.289	151.25
649.494	140.25
649.698	137.25
649.903	153.25
650.107	146.25
650.312	153.25
650.516	143.25
650.721	122.25
650.925	143.25
651.13	142.25
651.334	129.25
651.539	131.25
651.743	137.25
651.947	151.25
652.152	124.25
652.356	139.25
652.56	139.25
652.764	144.25
652.969	129.25
653.173	126.25
653.377	130.25
653.581	133.25
653.785	130.25
653.99	131.25
654.194	125.25
654.398	129.25
654.602	118.25
654.806	129.25
655.01	126.25
655.214	125.25
655.418	120.25
655.622	125.25
655.826	114.25
656.03	101.25
656.234	115.25
656.438	113.25
656.642	105.25
656.846	125.25
657.049	104.25
657.253	111.25
657.457	96.25
657.661	97.25
657.865	110.25
658.068	103.25
658.272	95.25
658.476	106.25
658.68	98.25
658.883	106.25
659.087	101.25
659.291	101.25
659.494	95.25
659.698	110.25
659.901	101.25
660.105	96.25
660.309	91.25
660.512	106.25
660.716	72.25
660.919	85.25
661.123	97.25
661.326	89.25
661.53	97.25
661.733	90.25
661.936	83.25
662.14	77.25
662.343	81.25
662.546	82.25
662.75	73.25
662.953	98.25
663.156	87.25
663.36	87.25
663.563	76.25
663.766	73.25
663.969	89.25
664.173	80.25
664.376	80.25
664.579	80.25
664.782	74.25
664.985	80.25
665.188	81.25
665.391	75.25
665.594	65.25
665.797	70.25
666	71.25
666.203	90.25
666.406	72.25
666.609	80.25
666.812	85.25
667.015	62.25
667.218	65.25
667.421	69.25
667.624	78.25
667.827	74.25
668.03	89.25
668.232	69.25
668.435	73.25
668.638	90.25
668.841	82.25
669.043	73.25
669.246	91.25
669.449	89.25
669.651	90.25
669.854	75.25
670.057	88.25
670.259	67.25
670.462	95.25
670.665	84.25
670.867	86.25
671.07	78.25
671.272	90.25
671.475	83.25
671.677	69.25
671.88	82.25
672.082	85.25
672.284	75.25
672.487	81.25
672.689	84.25
672.892	77.25
