Data from Fe(NO3)3@0.1M.TitratingCurve.Agarose3%dH2O.NegLispCup.LampEnergy10.LIBS07252019_HRD10591_16-39-27-333.txt Node
Date: Thu Jul 25 16:39:27 EDT 2019
User: cochatt
Spectrometer: HR+D1059
Trigger mode: 1
Integration Time (sec): 1.000000E-1
Scans to average: 1
Electric dark correction enabled: true
Nonlinearity correction enabled: false
Boxcar width: 0
XAxis mode: Wavelengths
Number of Pixels in Spectrum: 2048
>>>>>Begin Spectral Data<<<<<
223.165	-13.31
223.4	-13.31
223.635	-13.31
223.869	-18.31
224.104	-11.31
224.338	-12.31
224.573	-19.31
224.808	-16.31
225.042	-4.31
225.277	-1.31
225.511	-8.31
225.746	5.69
225.98	7.69
226.215	16.69
226.449	8.69
226.683	16.69
226.918	17.69
227.152	31.69
227.387	33.69
227.621	16.69
227.856	43.69
228.09	58.69
228.324	59.69
228.559	57.69
228.793	55.69
229.027	84.69
229.262	76.69
229.496	88.69
229.73	88.69
229.964	103.69
230.199	106.69
230.433	85.69
230.667	111.69
230.901	103.69
231.136	102.69
231.37	98.69
231.604	98.69
231.838	111.69
232.072	113.69
232.306	97.69
232.541	103.69
232.775	108.69
233.009	114.69
233.243	119.69
233.477	120.69
233.711	85.69
233.945	107.69
234.179	117.69
234.413	131.69
234.647	127.69
234.881	119.69
235.115	120.69
235.349	129.69
235.583	117.69
235.817	112.69
236.051	133.69
236.285	108.69
236.519	104.69
236.753	111.69
236.987	105.69
237.221	98.69
237.455	113.69
237.689	111.69
237.922	136.69
238.156	136.69
238.39	117.69
238.624	129.69
238.858	115.69
239.091	128.69
239.325	130.69
239.559	125.69
239.793	127.69
240.027	129.69
240.26	112.69
240.494	135.69
240.728	124.69
240.961	129.69
241.195	137.69
241.429	124.69
241.662	132.69
241.896	120.69
242.13	130.69
242.363	132.69
242.597	131.69
242.83	123.69
243.064	130.69
243.298	129.69
243.531	125.69
243.765	115.69
243.998	152.69
244.232	155.69
244.465	140.69
244.699	135.69
244.932	140.69
245.166	148.69
245.399	140.69
245.633	147.69
245.866	138.69
246.099	155.69
246.333	141.69
246.566	147.69
246.8	164.69
247.033	138.69
247.266	151.69
247.5	145.69
247.733	149.69
247.966	140.69
248.2	166.69
248.433	160.69
248.666	151.69
248.899	135.69
249.133	159.69
249.366	161.69
249.599	146.69
249.832	167.69
250.066	152.69
250.299	159.69
250.532	160.69
250.765	160.69
250.998	167.69
251.231	164.69
251.465	153.69
251.698	179.69
251.931	175.69
252.164	144.69
252.397	179.69
252.63	189.69
252.863	174.69
253.096	177.69
253.329	182.69
253.562	159.69
253.795	166.69
254.028	169.69
254.261	168.69
254.494	170.69
254.727	186.69
254.96	190.69
255.193	184.69
255.426	181.69
255.659	168.69
255.892	177.69
256.124	170.69
256.357	181.69
256.59	191.69
256.823	181.69
257.056	170.69
257.289	183.69
257.521	187.69
257.754	183.69
257.987	169.69
258.22	186.69
258.452	187.69
258.685	176.69
258.918	193.69
259.151	188.69
259.383	195.69
259.616	180.69
259.849	187.69
260.081	201.69
260.314	190.69
260.547	196.69
260.779	198.69
261.012	187.69
261.244	181.69
261.477	210.69
261.71	199.69
261.942	181.69
262.175	181.69
262.407	210.69
262.64	187.69
262.872	211.69
263.105	206.69
263.337	189.69
263.57	193.69
263.802	195.69
264.035	202.69
264.267	215.69
264.499	204.69
264.732	207.69
264.964	202.69
265.197	204.69
265.429	199.69
265.661	193.69
265.894	217.69
266.126	219.69
266.358	219.69
266.591	220.69
266.823	211.69
267.055	211.69
267.287	219.69
267.52	224.69
267.752	207.69
267.984	221.69
268.216	220.69
268.448	214.69
268.681	209.69
268.913	211.69
269.145	216.69
269.377	230.69
269.609	215.69
269.841	211.69
270.073	203.69
270.306	191.69
270.538	215.69
270.77	230.69
271.002	229.69
271.234	227.69
271.466	233.69
271.698	227.69
271.93	230.69
272.162	240.69
272.394	218.69
272.626	226.69
272.858	242.69
273.09	239.69
273.322	221.69
273.553	235.69
273.785	241.69
274.017	245.69
274.249	256.69
274.481	241.69
274.713	233.69
274.945	266.69
275.176	227.69
275.408	233.69
275.64	242.69
275.872	234.69
276.104	255.69
276.335	249.69
276.567	241.69
276.799	256.69
277.031	246.69
277.262	255.69
277.494	252.69
277.726	245.69
277.957	260.69
278.189	242.69
278.421	258.69
278.652	265.69
278.884	236.69
279.115	264.69
279.347	255.69
279.579	254.69
279.81	262.69
280.042	245.69
280.273	273.69
280.505	265.69
280.736	262.69
280.968	264.69
281.199	256.69
281.431	256.69
281.662	264.69
281.894	280.69
282.125	256.69
282.356	274.69
282.588	259.69
282.819	261.69
283.051	269.69
283.282	279.69
283.513	295.69
283.745	278.69
283.976	262.69
284.207	275.69
284.439	281.69
284.67	290.69
284.901	298.69
285.132	284.69
285.364	279.69
285.595	275.69
285.826	290.69
286.057	281.69
286.288	265.69
286.52	293.69
286.751	276.69
286.982	299.69
287.213	282.69
287.444	277.69
287.675	282.69
287.906	291.69
288.138	290.69
288.369	285.69
288.6	289.69
288.831	291.69
289.062	296.69
289.293	283.69
289.524	299.69
289.755	308.69
289.986	295.69
290.217	301.69
290.448	297.69
290.679	303.69
290.91	315.69
291.141	285.69
291.371	312.69
291.602	298.69
291.833	305.69
292.064	313.69
292.295	301.69
292.526	301.69
292.757	315.69
292.987	280.69
293.218	313.69
293.449	293.69
293.68	279.69
293.91	309.69
294.141	294.69
294.372	305.69
294.603	297.69
294.833	307.69
295.064	303.69
295.295	306.69
295.525	277.69
295.756	294.69
295.987	301.69
296.217	308.69
296.448	309.69
296.679	321.69
296.909	309.69
297.14	298.69
297.37	316.69
297.601	309.69
297.831	312.69
298.062	322.69
298.292	317.69
298.523	336.69
298.753	347.69
298.984	323.69
299.214	316.69
299.445	316.69
299.675	304.69
299.905	333.69
300.136	320.69
300.366	319.69
300.597	307.69
300.827	345.69
301.057	322.69
301.288	321.69
301.518	318.69
301.748	344.69
301.979	352.69
302.209	338.69
302.439	339.69
302.669	349.69
302.9	348.69
303.13	322.69
303.36	320.69
303.59	325.69
303.82	329.69
304.051	339.69
304.281	349.69
304.511	342.69
304.741	331.69
304.971	337.69
305.201	338.69
305.431	333.69
305.661	339.69
305.891	325.69
306.121	328.69
306.352	323.69
306.582	331.69
306.812	330.69
307.042	333.69
307.272	338.69
307.502	333.69
307.731	339.69
307.961	330.69
308.191	336.69
308.421	336.69
308.651	338.69
308.881	315.69
309.111	332.69
309.341	318.69
309.571	333.69
309.8	322.69
310.03	327.69
310.26	346.69
310.49	337.69
310.72	333.69
310.949	341.69
311.179	335.69
311.409	354.69
311.639	344.69
311.868	345.69
312.098	360.69
312.328	334.69
312.557	340.69
312.787	330.69
313.017	334.69
313.246	371.69
313.476	336.69
313.706	357.69
313.935	356.69
314.165	363.69
314.394	372.69
314.624	341.69
314.853	370.69
315.083	360.69
315.312	363.69
315.542	369.69
315.771	355.69
316.001	355.69
316.23	345.69
316.46	347.69
316.689	349.69
316.919	359.69
317.148	349.69
317.377	360.69
317.607	350.69
317.836	354.69
318.065	341.69
318.295	347.69
318.524	345.69
318.753	360.69
318.983	344.69
319.212	346.69
319.441	363.69
319.67	355.69
319.9	345.69
320.129	361.69
320.358	355.69
320.587	347.69
320.816	337.69
321.046	363.69
321.275	353.69
321.504	370.69
321.733	369.69
321.962	349.69
322.191	346.69
322.42	356.69
322.649	363.69
322.878	354.69
323.108	356.69
323.337	341.69
323.566	355.69
323.795	356.69
324.024	361.69
324.253	351.69
324.482	356.69
324.71	367.69
324.939	371.69
325.168	389.69
325.397	370.69
325.626	360.69
325.855	359.69
326.084	403.69
326.313	393.69
326.542	397.69
326.77	391.69
326.999	374.69
327.228	373.69
327.457	373.69
327.686	378.69
327.914	367.69
328.143	403.69
328.372	371.69
328.6	402.69
328.829	384.69
329.058	373.69
329.287	403.69
329.515	405.69
329.744	392.69
329.972	391.69
330.201	395.69
330.43	410.69
330.658	372.69
330.887	405.69
331.115	387.69
331.344	427.69
331.572	415.69
331.801	419.69
332.03	420.69
332.258	428.69
332.486	428.69
332.715	434.69
332.943	467.69
333.172	450.69
333.4	474.69
333.629	511.69
333.857	482.69
334.085	483.69
334.314	483.69
334.542	490.69
334.771	461.69
334.999	501.69
335.227	490.69
335.455	483.69
335.684	499.69
335.912	479.69
336.14	488.69
336.369	477.69
336.597	478.69
336.825	457.69
337.053	461.69
337.281	441.69
337.51	469.69
337.738	439.69
337.966	415.69
338.194	426.69
338.422	437.69
338.65	421.69
338.878	408.69
339.106	426.69
339.334	410.69
339.562	407.69
339.79	410.69
340.018	401.69
340.246	406.69
340.474	417.69
340.702	423.69
340.93	397.69
341.158	403.69
341.386	421.69
341.614	400.69
341.842	400.69
342.07	391.69
342.298	389.69
342.526	386.69
342.754	406.69
342.981	405.69
343.209	399.69
343.437	411.69
343.665	450.69
343.893	463.69
344.12	474.69
344.348	467.69
344.576	478.69
344.804	438.69
345.031	416.69
345.259	417.69
345.487	398.69
345.714	404.69
345.942	401.69
346.17	393.69
346.397	394.69
346.625	408.69
346.853	410.69
347.08	390.69
347.308	382.69
347.535	404.69
347.763	391.69
347.99	398.69
348.218	386.69
348.445	393.69
348.673	391.69
348.9	388.69
349.128	402.69
349.355	375.69
349.583	395.69
349.81	379.69
350.037	368.69
350.265	380.69
350.492	391.69
350.72	385.69
350.947	376.69
351.174	396.69
351.402	377.69
351.629	386.69
351.856	397.69
352.083	384.69
352.311	377.69
352.538	389.69
352.765	361.69
352.992	377.69
353.22	369.69
353.447	372.69
353.674	380.69
353.901	399.69
354.128	385.69
354.355	368.69
354.583	388.69
354.81	375.69
355.037	399.69
355.264	364.69
355.491	392.69
355.718	389.69
355.945	379.69
356.172	383.69
356.399	388.69
356.626	395.69
356.853	411.69
357.08	395.69
357.307	400.69
357.534	381.69
357.761	373.69
357.988	382.69
358.215	390.69
358.441	397.69
358.668	365.69
358.895	380.69
359.122	392.69
359.349	379.69
359.576	364.69
359.802	389.69
360.029	393.69
360.256	376.69
360.483	366.69
360.709	385.69
360.936	385.69
361.163	393.69
361.39	390.69
361.616	418.69
361.843	391.69
362.07	383.69
362.296	380.69
362.523	386.69
362.749	388.69
362.976	380.69
363.203	394.69
363.429	372.69
363.656	397.69
363.882	369.69
364.109	384.69
364.335	393.69
364.562	391.69
364.788	403.69
365.015	390.69
365.241	380.69
365.468	395.69
365.694	384.69
365.92	373.69
366.147	373.69
366.373	382.69
366.599	378.69
366.826	382.69
367.052	392.69
367.278	376.69
367.505	371.69
367.731	397.69
367.957	398.69
368.184	397.69
368.41	403.69
368.636	389.69
368.862	384.69
369.089	397.69
369.315	389.69
369.541	376.69
369.767	395.69
369.993	399.69
370.219	409.69
370.445	416.69
370.672	411.69
370.898	422.69
371.124	413.69
371.35	419.69
371.576	417.69
371.802	417.69
372.028	430.69
372.254	441.69
372.48	414.69
372.706	431.69
372.932	447.69
373.158	432.69
373.384	418.69
373.61	412.69
373.835	408.69
374.061	449.69
374.287	437.69
374.513	436.69
374.739	424.69
374.965	451.69
375.191	459.69
375.416	451.69
375.642	451.69
375.868	444.69
376.094	435.69
376.319	455.69
376.545	431.69
376.771	445.69
376.997	435.69
377.222	418.69
377.448	421.69
377.674	405.69
377.899	405.69
378.125	440.69
378.35	421.69
378.576	418.69
378.802	424.69
379.027	426.69
379.253	393.69
379.478	420.69
379.704	415.69
379.929	412.69
380.155	428.69
380.38	426.69
380.606	420.69
380.831	416.69
381.057	434.69
381.282	424.69
381.507	428.69
381.733	425.69
381.958	432.69
382.184	418.69
382.409	419.69
382.634	434.69
382.86	451.69
383.085	449.69
383.31	458.69
383.535	463.69
383.761	460.69
383.986	462.69
384.211	492.69
384.436	491.69
384.662	496.69
384.887	490.69
385.112	517.69
385.337	504.69
385.562	499.69
385.787	518.69
386.013	509.69
386.238	531.69
386.463	523.69
386.688	510.69
386.913	517.69
387.138	507.69
387.363	483.69
387.588	503.69
387.813	507.69
388.038	533.69
388.263	504.69
388.488	504.69
388.713	515.69
388.938	503.69
389.163	504.69
389.387	516.69
389.612	510.69
389.837	503.69
390.062	475.69
390.287	501.69
390.512	513.69
390.736	525.69
390.961	518.69
391.186	511.69
391.411	533.69
391.636	538.69
391.86	556.69
392.085	554.69
392.31	550.69
392.534	546.69
392.759	559.69
392.984	532.69
393.208	529.69
393.433	557.69
393.658	543.69
393.882	521.69
394.107	561.69
394.331	561.69
394.556	540.69
394.78	573.69
395.005	555.69
395.229	571.69
395.454	556.69
395.678	572.69
395.903	578.69
396.127	554.69
396.352	531.69
396.576	536.69
396.801	548.69
397.025	553.69
397.249	589.69
397.474	598.69
397.698	591.69
397.922	578.69
398.147	562.69
398.371	600.69
398.595	627.69
398.82	639.69
399.044	669.69
399.268	717.69
399.492	824.69
399.717	868.69
399.941	881.69
400.165	818.69
400.389	759.69
400.613	693.69
400.837	665.69
401.062	648.69
401.286	643.69
401.51	629.69
401.734	649.69
401.958	660.69
402.182	635.69
402.406	654.69
402.63	652.69
402.854	691.69
403.078	673.69
403.302	699.69
403.526	692.69
403.75	700.69
403.974	727.69
404.198	709.69
404.422	716.69
404.645	706.69
404.869	684.69
405.093	688.69
405.317	680.69
405.541	708.69
405.765	697.69
405.988	704.69
406.212	675.69
406.436	690.69
406.66	721.69
406.883	704.69
407.107	739.69
407.331	797.69
407.555	817.69
407.778	825.69
408.002	811.69
408.226	822.69
408.449	771.69
408.673	741.69
408.896	741.69
409.12	728.69
409.344	732.69
409.567	752.69
409.791	748.69
410.014	737.69
410.238	716.69
410.461	727.69
410.685	707.69
410.908	703.69
411.132	737.69
411.355	699.69
411.578	683.69
411.802	673.69
412.025	671.69
412.249	693.69
412.472	695.69
412.695	673.69
412.919	661.69
413.142	663.69
413.365	691.69
413.589	667.69
413.812	643.69
414.035	651.69
414.258	661.69
414.482	641.69
414.705	656.69
414.928	669.69
415.151	669.69
415.374	672.69
415.597	653.69
415.821	632.69
416.044	636.69
416.267	652.69
416.49	640.69
416.713	665.69
416.936	643.69
417.159	617.69
417.382	647.69
417.605	631.69
417.828	651.69
418.051	627.69
418.274	636.69
418.497	642.69
418.72	656.69
418.943	652.69
419.166	709.69
419.389	732.69
419.611	736.69
419.834	709.69
420.057	687.69
420.28	659.69
420.503	649.69
420.726	634.69
420.948	625.69
421.171	647.69
421.394	661.69
421.617	628.69
421.839	655.69
422.062	629.69
422.285	633.69
422.507	646.69
422.73	627.69
422.953	636.69
423.175	662.69
423.398	666.69
423.621	649.69
423.843	672.69
424.066	685.69
424.288	661.69
424.511	656.69
424.733	663.69
424.956	652.69
425.178	639.69
425.401	639.69
425.623	643.69
425.846	634.69
426.068	617.69
426.291	629.69
426.513	613.69
426.735	595.69
426.958	611.69
427.18	598.69
427.402	591.69
427.625	608.69
427.847	587.69
428.069	575.69
428.292	586.69
428.514	590.69
428.736	578.69
428.958	600.69
429.181	587.69
429.403	584.69
429.625	597.69
429.847	569.69
430.069	591.69
430.292	567.69
430.514	591.69
430.736	573.69
430.958	593.69
431.18	576.69
431.402	585.69
431.624	598.69
431.846	584.69
432.068	582.69
432.29	601.69
432.512	579.69
432.734	600.69
432.956	603.69
433.178	611.69
433.4	601.69
433.622	596.69
433.844	593.69
434.066	598.69
434.287	600.69
434.509	614.69
434.731	627.69
434.953	633.69
435.175	667.69
435.397	656.69
435.618	647.69
435.84	615.69
436.062	605.69
436.284	600.69
436.505	595.69
436.727	591.69
436.949	602.69
437.17	605.69
437.392	577.69
437.614	587.69
437.835	576.69
438.057	588.69
438.278	562.69
438.5	581.69
438.721	592.69
438.943	597.69
439.165	570.69
439.386	615.69
439.608	587.69
439.829	602.69
440.05	587.69
440.272	585.69
440.493	602.69
440.715	601.69
440.936	631.69
441.158	641.69
441.379	632.69
441.6	670.69
441.822	651.69
442.043	663.69
442.264	652.69
442.486	639.69
442.707	658.69
442.928	633.69
443.149	664.69
443.371	641.69
443.592	649.69
443.813	640.69
444.034	648.69
444.255	673.69
444.476	708.69
444.698	743.69
444.919	762.69
445.14	833.69
445.361	740.69
445.582	674.69
445.803	660.69
446.024	640.69
446.245	629.69
446.466	621.69
446.687	610.69
446.908	632.69
447.129	593.69
447.35	588.69
447.571	590.69
447.792	584.69
448.013	586.69
448.234	549.69
448.455	551.69
448.675	562.69
448.896	559.69
449.117	546.69
449.338	548.69
449.559	555.69
449.779	567.69
450	569.69
450.221	565.69
450.442	557.69
450.662	555.69
450.883	557.69
451.104	569.69
451.324	562.69
451.545	556.69
451.766	559.69
451.986	547.69
452.207	548.69
452.428	541.69
452.648	551.69
452.869	522.69
453.089	504.69
453.31	532.69
453.53	530.69
453.751	532.69
453.971	547.69
454.192	513.69
454.412	545.69
454.633	513.69
454.853	511.69
455.073	509.69
455.294	499.69
455.514	529.69
455.734	489.69
455.955	508.69
456.175	497.69
456.395	504.69
456.616	492.69
456.836	499.69
457.056	512.69
457.276	496.69
457.497	524.69
457.717	513.69
457.937	517.69
458.157	510.69
458.377	542.69
458.598	543.69
458.818	552.69
459.038	543.69
459.258	564.69
459.478	599.69
459.698	603.69
459.918	627.69
460.138	651.69
460.358	657.69
460.578	689.69
460.798	679.69
461.018	677.69
461.238	663.69
461.458	676.69
461.678	648.69
461.898	675.69
462.118	699.69
462.338	720.69
462.558	729.69
462.777	743.69
462.997	806.69
463.217	860.69
463.437	856.69
463.657	771.69
463.876	786.69
464.096	780.69
464.316	784.69
464.536	773.69
464.755	739.69
464.975	737.69
465.195	705.69
465.414	670.69
465.634	627.69
465.854	620.69
466.073	607.69
466.293	598.69
466.512	595.69
466.732	561.69
466.951	561.69
467.171	586.69
467.391	570.69
467.61	548.69
467.829	573.69
468.049	547.69
468.268	576.69
468.488	539.69
468.707	539.69
468.927	549.69
469.146	529.69
469.365	563.69
469.585	535.69
469.804	562.69
470.023	573.69
470.243	572.69
470.462	576.69
470.681	581.69
470.901	593.69
471.12	586.69
471.339	571.69
471.558	570.69
471.777	537.69
471.997	569.69
472.216	547.69
472.435	556.69
472.654	539.69
472.873	501.69
473.092	522.69
473.311	525.69
473.53	532.69
473.749	516.69
473.968	530.69
474.187	546.69
474.406	536.69
474.625	525.69
474.844	523.69
475.063	520.69
475.282	549.69
475.501	535.69
475.72	559.69
475.939	551.69
476.158	553.69
476.377	534.69
476.596	568.69
476.814	539.69
477.033	552.69
477.252	583.69
477.471	565.69
477.69	567.69
477.908	582.69
478.127	597.69
478.346	615.69
478.564	624.69
478.783	626.69
479.002	646.69
479.22	631.69
479.439	639.69
479.658	645.69
479.876	643.69
480.095	652.69
480.313	674.69
480.532	666.69
480.751	681.69
480.969	656.69
481.188	630.69
481.406	602.69
481.624	599.69
481.843	605.69
482.061	600.69
482.28	599.69
482.498	603.69
482.717	600.69
482.935	594.69
483.153	580.69
483.372	588.69
483.59	607.69
483.808	605.69
484.027	599.69
484.245	601.69
484.463	588.69
484.681	627.69
484.9	618.69
485.118	619.69
485.336	620.69
485.554	633.69
485.772	635.69
485.99	644.69
486.209	620.69
486.427	603.69
486.645	619.69
486.863	628.69
487.081	634.69
487.299	625.69
487.517	636.69
487.735	613.69
487.953	646.69
488.171	628.69
488.389	615.69
488.607	603.69
488.825	596.69
489.043	603.69
489.261	616.69
489.479	597.69
489.696	612.69
489.914	628.69
490.132	628.69
490.35	650.69
490.568	619.69
490.786	623.69
491.003	613.69
491.221	617.69
491.439	635.69
491.657	625.69
491.874	625.69
492.092	604.69
492.31	641.69
492.527	637.69
492.745	625.69
492.963	618.69
493.18	663.69
493.398	657.69
493.615	641.69
493.833	663.69
494.05	660.69
494.268	643.69
494.485	665.69
494.703	661.69
494.92	661.69
495.138	656.69
495.355	667.69
495.573	679.69
495.79	652.69
496.008	671.69
496.225	673.69
496.442	676.69
496.66	682.69
496.877	676.69
497.094	712.69
497.312	698.69
497.529	714.69
497.746	749.69
497.963	759.69
498.181	803.69
498.398	813.69
498.615	871.69
498.832	895.69
499.049	972.69
499.267	1057.69
499.484	1113.69
499.701	1232.69
499.918	1305.69
500.135	1487.69
500.352	1644.69
500.569	1696.69
500.786	1674.69
501.003	1575.69
501.22	1466.69
501.437	1321.69
501.654	1221.69
501.871	1113.69
502.088	1052.69
502.305	967.69
502.522	945.69
502.739	883.69
502.956	824.69
503.172	828.69
503.389	776.69
503.606	760.69
503.823	780.69
504.04	724.69
504.256	731.69
504.473	771.69
504.69	743.69
504.907	771.69
505.123	693.69
505.34	664.69
505.557	651.69
505.773	652.69
505.99	624.69
506.207	615.69
506.423	601.69
506.64	604.69
506.856	610.69
507.073	588.69
507.289	587.69
507.506	577.69
507.722	590.69
507.939	577.69
508.155	556.69
508.372	567.69
508.588	554.69
508.805	562.69
509.021	564.69
509.238	545.69
509.454	551.69
509.67	548.69
509.887	551.69
510.103	529.69
510.319	538.69
510.536	531.69
510.752	538.69
510.968	529.69
511.184	526.69
511.401	518.69
511.617	537.69
511.833	521.69
512.049	517.69
512.265	535.69
512.481	536.69
512.698	539.69
512.914	530.69
513.13	524.69
513.346	540.69
513.562	540.69
513.778	526.69
513.994	535.69
514.21	531.69
514.426	544.69
514.642	538.69
514.858	537.69
515.074	533.69
515.29	555.69
515.506	544.69
515.721	563.69
515.937	570.69
516.153	581.69
516.369	583.69
516.585	607.69
516.801	598.69
517.016	625.69
517.232	660.69
517.448	675.69
517.664	713.69
517.879	714.69
518.095	708.69
518.311	705.69
518.527	681.69
518.742	663.69
518.958	630.69
519.173	613.69
519.389	599.69
519.605	583.69
519.82	561.69
520.036	561.69
520.251	569.69
520.467	540.69
520.682	524.69
520.898	519.69
521.113	530.69
521.329	507.69
521.544	495.69
521.76	517.69
521.975	513.69
522.19	498.69
522.406	499.69
522.621	501.69
522.836	519.69
523.052	504.69
523.267	485.69
523.482	484.69
523.698	476.69
523.913	507.69
524.128	493.69
524.343	505.69
524.559	507.69
524.774	467.69
524.989	497.69
525.204	490.69
525.419	479.69
525.634	469.69
525.849	482.69
526.064	473.69
526.28	464.69
526.495	485.69
526.71	476.69
526.925	470.69
527.14	482.69
527.355	488.69
527.57	479.69
527.785	477.69
527.999	468.69
528.214	471.69
528.429	472.69
528.644	498.69
528.859	451.69
529.074	501.69
529.289	475.69
529.503	475.69
529.718	461.69
529.933	451.69
530.148	464.69
530.363	466.69
530.577	463.69
530.792	465.69
531.007	484.69
531.221	474.69
531.436	489.69
531.651	487.69
531.865	454.69
532.08	471.69
532.295	457.69
532.509	489.69
532.724	464.69
532.938	479.69
533.153	479.69
533.367	470.69
533.582	480.69
533.796	465.69
534.011	489.69
534.225	455.69
534.44	468.69
534.654	468.69
534.868	462.69
535.083	459.69
535.297	456.69
535.511	477.69
535.726	448.69
535.94	463.69
536.154	465.69
536.369	451.69
536.583	448.69
536.797	450.69
537.011	443.69
537.225	459.69
537.44	429.69
537.654	444.69
537.868	457.69
538.082	461.69
538.296	418.69
538.51	440.69
538.724	455.69
538.938	447.69
539.153	441.69
539.367	431.69
539.581	440.69
539.795	433.69
540.009	436.69
540.222	422.69
540.436	393.69
540.65	425.69
540.864	421.69
541.078	425.69
541.292	423.69
541.506	433.69
541.72	435.69
541.934	436.69
542.147	436.69
542.361	427.69
542.575	439.69
542.789	428.69
543.002	429.69
543.216	418.69
543.43	415.69
543.644	418.69
543.857	428.69
544.071	419.69
544.285	418.69
544.498	417.69
544.712	453.69
544.925	433.69
545.139	442.69
545.352	426.69
545.566	459.69
545.779	438.69
545.993	455.69
546.206	444.69
546.42	433.69
546.633	440.69
546.847	442.69
547.06	449.69
547.274	419.69
547.487	433.69
547.7	442.69
547.914	431.69
548.127	440.69
548.34	427.69
548.554	441.69
548.767	458.69
548.98	447.69
549.193	421.69
549.407	445.69
549.62	455.69
549.833	438.69
550.046	437.69
550.259	464.69
550.473	441.69
550.686	436.69
550.899	434.69
551.112	432.69
551.325	448.69
551.538	435.69
551.751	448.69
551.964	426.69
552.177	456.69
552.39	454.69
552.603	465.69
552.816	464.69
553.029	464.69
553.242	468.69
553.455	456.69
553.667	469.69
553.88	447.69
554.093	464.69
554.306	452.69
554.519	445.69
554.732	413.69
554.944	426.69
555.157	427.69
555.37	408.69
555.583	417.69
555.795	398.69
556.008	402.69
556.221	401.69
556.433	397.69
556.646	393.69
556.859	390.69
557.071	377.69
557.284	385.69
557.496	391.69
557.709	409.69
557.921	395.69
558.134	379.69
558.346	384.69
558.559	376.69
558.771	384.69
558.984	379.69
559.196	377.69
559.409	384.69
559.621	388.69
559.833	371.69
560.046	377.69
560.258	390.69
560.47	380.69
560.683	372.69
560.895	374.69
561.107	382.69
561.32	351.69
561.532	357.69
561.744	388.69
561.956	367.69
562.168	373.69
562.381	391.69
562.593	368.69
562.805	377.69
563.017	371.69
563.229	369.69
563.441	376.69
563.653	364.69
563.865	403.69
564.077	392.69
564.289	399.69
564.501	413.69
564.713	394.69
564.925	411.69
565.137	398.69
565.349	420.69
565.561	419.69
565.773	457.69
565.985	468.69
566.197	469.69
566.408	503.69
566.62	525.69
566.832	548.69
567.044	575.69
567.255	572.69
567.467	562.69
567.679	585.69
567.891	610.69
568.102	616.69
568.314	600.69
568.526	574.69
568.737	529.69
568.949	484.69
569.161	451.69
569.372	415.69
569.584	405.69
569.795	412.69
570.007	377.69
570.218	386.69
570.43	385.69
570.641	389.69
570.853	376.69
571.064	386.69
571.276	372.69
571.487	359.69
571.698	343.69
571.91	354.69
572.121	339.69
572.333	342.69
572.544	331.69
572.755	319.69
572.966	320.69
573.178	338.69
573.389	346.69
573.6	329.69
573.811	331.69
574.023	307.69
574.234	300.69
574.445	313.69
574.656	324.69
574.867	323.69
575.078	307.69
575.289	290.69
575.501	312.69
575.712	305.69
575.923	303.69
576.134	327.69
576.345	283.69
576.556	299.69
576.767	300.69
576.978	313.69
577.188	311.69
577.399	314.69
577.61	293.69
577.821	291.69
578.032	285.69
578.243	291.69
578.454	290.69
578.665	297.69
578.875	291.69
579.086	268.69
579.297	277.69
579.508	285.69
579.718	275.69
579.929	282.69
580.14	290.69
580.35	277.69
580.561	304.69
580.772	259.69
580.982	281.69
581.193	292.69
581.403	300.69
581.614	263.69
581.825	271.69
582.035	284.69
582.246	270.69
582.456	280.69
582.667	286.69
582.877	280.69
583.087	268.69
583.298	269.69
583.508	272.69
583.719	264.69
583.929	269.69
584.139	254.69
584.35	263.69
584.56	263.69
584.77	288.69
584.981	243.69
585.191	250.69
585.401	243.69
585.611	244.69
585.821	268.69
586.032	280.69
586.242	279.69
586.452	291.69
586.662	257.69
586.872	258.69
587.082	264.69
587.292	271.69
587.502	247.69
587.713	273.69
587.923	267.69
588.133	270.69
588.343	264.69
588.553	274.69
588.762	259.69
588.972	260.69
589.182	252.69
589.392	270.69
589.602	265.69
589.812	271.69
590.022	255.69
590.232	252.69
590.441	242.69
590.651	251.69
590.861	254.69
591.071	258.69
591.281	258.69
591.49	256.69
591.7	273.69
591.91	260.69
592.119	265.69
592.329	290.69
592.539	288.69
592.748	295.69
592.958	324.69
593.167	308.69
593.377	322.69
593.587	325.69
593.796	313.69
594.006	320.69
594.215	308.69
594.424	333.69
594.634	310.69
594.843	283.69
595.053	283.69
595.262	296.69
595.472	283.69
595.681	271.69
595.89	259.69
596.1	263.69
596.309	258.69
596.518	249.69
596.727	244.69
596.937	269.69
597.146	259.69
597.355	241.69
597.564	233.69
597.774	233.69
597.983	232.69
598.192	211.69
598.401	233.69
598.61	235.69
598.819	241.69
599.028	224.69
599.237	226.69
599.446	223.69
599.655	239.69
599.864	243.69
600.073	218.69
600.282	221.69
600.491	214.69
600.7	208.69
600.909	213.69
601.118	219.69
601.327	232.69
601.536	223.69
601.745	223.69
601.953	222.69
602.162	222.69
602.371	199.69
602.58	222.69
602.789	216.69
602.997	222.69
603.206	220.69
603.415	218.69
603.623	210.69
603.832	212.69
604.041	220.69
604.249	209.69
604.458	221.69
604.666	212.69
604.875	211.69
605.084	210.69
605.292	216.69
605.501	208.69
605.709	185.69
605.918	202.69
606.126	210.69
606.334	202.69
606.543	200.69
606.751	208.69
606.96	194.69
607.168	209.69
607.376	219.69
607.585	222.69
607.793	205.69
608.001	202.69
608.21	218.69
608.418	205.69
608.626	209.69
608.834	215.69
609.043	212.69
609.251	208.69
609.459	198.69
609.667	210.69
609.875	190.69
610.083	205.69
610.291	203.69
610.499	204.69
610.707	213.69
610.916	199.69
611.124	191.69
611.332	192.69
611.54	181.69
611.748	200.69
611.955	206.69
612.163	202.69
612.371	208.69
612.579	203.69
612.787	203.69
612.995	207.69
613.203	202.69
613.411	188.69
613.618	202.69
613.826	188.69
614.034	193.69
614.242	196.69
614.449	201.69
614.657	189.69
614.865	205.69
615.072	192.69
615.28	202.69
615.488	182.69
615.695	211.69
615.903	186.69
616.111	202.69
616.318	207.69
616.526	197.69
616.733	193.69
616.941	188.69
617.148	205.69
617.356	185.69
617.563	197.69
617.771	202.69
617.978	200.69
618.185	187.69
618.393	188.69
618.6	194.69
618.807	178.69
619.015	191.69
619.222	198.69
619.429	194.69
619.637	202.69
619.844	191.69
620.051	177.69
620.258	184.69
620.466	189.69
620.673	205.69
620.88	175.69
621.087	191.69
621.294	177.69
621.501	194.69
621.708	180.69
621.915	187.69
622.122	190.69
622.329	197.69
622.536	199.69
622.743	177.69
622.95	173.69
623.157	163.69
623.364	175.69
623.571	178.69
623.778	180.69
623.985	198.69
624.192	164.69
624.399	170.69
624.606	169.69
624.812	192.69
625.019	180.69
625.226	183.69
625.433	177.69
625.639	166.69
625.846	182.69
626.053	178.69
626.259	180.69
626.466	170.69
626.673	172.69
626.879	166.69
627.086	182.69
627.293	185.69
627.499	180.69
627.706	159.69
627.912	175.69
628.119	173.69
628.325	180.69
628.532	173.69
628.738	149.69
628.945	168.69
629.151	173.69
629.357	171.69
629.564	167.69
629.77	159.69
629.976	153.69
630.183	160.69
630.389	153.69
630.595	168.69
630.802	170.69
631.008	166.69
631.214	158.69
631.42	155.69
631.627	167.69
631.833	171.69
632.039	147.69
632.245	172.69
632.451	172.69
632.657	165.69
632.863	179.69
633.069	167.69
633.275	155.69
633.481	151.69
633.688	154.69
633.893	146.69
634.099	165.69
634.305	166.69
634.511	153.69
634.717	134.69
634.923	167.69
635.129	163.69
635.335	156.69
635.541	154.69
635.747	162.69
635.952	160.69
636.158	152.69
636.364	165.69
636.57	143.69
636.775	162.69
636.981	146.69
637.187	156.69
637.392	151.69
637.598	154.69
637.804	159.69
638.009	153.69
638.215	158.69
638.421	135.69
638.626	150.69
638.832	152.69
639.037	140.69
639.243	155.69
639.448	136.69
639.654	142.69
639.859	143.69
640.065	146.69
640.27	163.69
640.475	150.69
640.681	149.69
640.886	141.69
641.091	127.69
641.297	157.69
641.502	145.69
641.707	147.69
641.913	138.69
642.118	162.69
642.323	136.69
642.528	160.69
642.733	166.69
642.939	151.69
643.144	151.69
643.349	142.69
643.554	148.69
643.759	145.69
643.964	136.69
644.169	147.69
644.374	141.69
644.579	135.69
644.784	146.69
644.989	143.69
645.194	147.69
645.399	151.69
645.604	155.69
645.809	133.69
646.014	124.69
646.219	137.69
646.423	147.69
646.628	132.69
646.833	145.69
647.038	145.69
647.243	147.69
647.447	144.69
647.652	124.69
647.857	148.69
648.062	156.69
648.266	145.69
648.471	154.69
648.676	141.69
648.88	135.69
649.085	149.69
649.289	140.69
649.494	137.69
649.698	140.69
649.903	140.69
650.107	137.69
650.312	132.69
650.516	145.69
650.721	131.69
650.925	145.69
651.13	133.69
651.334	146.69
651.539	139.69
651.743	127.69
651.947	145.69
652.152	144.69
652.356	130.69
652.56	129.69
652.764	136.69
652.969	130.69
653.173	131.69
653.377	116.69
653.581	107.69
653.785	126.69
653.99	106.69
654.194	129.69
654.398	129.69
654.602	119.69
654.806	108.69
655.01	108.69
655.214	119.69
655.418	123.69
655.622	124.69
655.826	121.69
656.03	123.69
656.234	120.69
656.438	125.69
656.642	119.69
656.846	105.69
657.049	116.69
657.253	114.69
657.457	112.69
657.661	106.69
657.865	116.69
658.068	99.69
658.272	96.69
658.476	89.69
658.68	107.69
658.883	91.69
659.087	110.69
659.291	87.69
659.494	98.69
659.698	88.69
659.901	107.69
660.105	98.69
660.309	80.69
660.512	92.69
660.716	96.69
660.919	98.69
661.123	103.69
661.326	91.69
661.53	85.69
661.733	89.69
661.936	83.69
662.14	90.69
662.343	90.69
662.546	94.69
662.75	83.69
662.953	97.69
663.156	84.69
663.36	80.69
663.563	90.69
663.766	81.69
663.969	84.69
664.173	91.69
664.376	84.69
664.579	81.69
664.782	89.69
664.985	92.69
665.188	79.69
665.391	84.69
665.594	73.69
665.797	101.69
666	80.69
666.203	76.69
666.406	89.69
666.609	82.69
666.812	79.69
667.015	86.69
667.218	70.69
667.421	81.69
667.624	83.69
667.827	91.69
668.03	74.69
668.232	89.69
668.435	75.69
668.638	76.69
668.841	86.69
669.043	85.69
669.246	67.69
669.449	77.69
669.651	87.69
669.854	80.69
670.057	87.69
670.259	80.69
670.462	81.69
670.665	87.69
670.867	90.69
671.07	92.69
671.272	85.69
671.475	82.69
671.677	82.69
671.88	74.69
672.082	75.69
672.284	90.69
672.487	93.69
672.689	77.69
672.892	90.69
