Data from Fe(NO3)3@0.025M.TitratingCurve.Agarose3%dH2O.NegLispCup.LampEnergy10.LIBS07252019_HRD10591_16-53-45-335.txt Node
Date: Thu Jul 25 16:53:45 EDT 2019
User: cochatt
Spectrometer: HR+D1059
Trigger mode: 1
Integration Time (sec): 1.000000E-1
Scans to average: 1
Electric dark correction enabled: true
Nonlinearity correction enabled: false
Boxcar width: 0
XAxis mode: Wavelengths
Number of Pixels in Spectrum: 2048
>>>>>Begin Spectral Data<<<<<
223.165	-18.31
223.4	-18.31
223.635	-18.31
223.869	-10.31
224.104	-24.31
224.338	-8.31
224.573	-17.31
224.808	0.69
225.042	-20.31
225.277	-5.31
225.511	4.69
225.746	4.69
225.98	1.69
226.215	20.69
226.449	20.69
226.683	-1.31
226.918	14.69
227.152	37.69
227.387	35.69
227.621	53.69
227.856	52.69
228.09	40.69
228.324	48.69
228.559	64.69
228.793	76.69
229.027	84.69
229.262	78.69
229.496	91.69
229.73	107.69
229.964	113.69
230.199	109.69
230.433	97.69
230.667	96.69
230.901	104.69
231.136	99.69
231.37	98.69
231.604	115.69
231.838	102.69
232.072	122.69
232.306	114.69
232.541	102.69
232.775	118.69
233.009	120.69
233.243	116.69
233.477	115.69
233.711	109.69
233.945	125.69
234.179	110.69
234.413	114.69
234.647	125.69
234.881	123.69
235.115	125.69
235.349	133.69
235.583	114.69
235.817	129.69
236.051	123.69
236.285	117.69
236.519	130.69
236.753	125.69
236.987	118.69
237.221	123.69
237.455	123.69
237.689	123.69
237.922	120.69
238.156	128.69
238.39	128.69
238.624	118.69
238.858	128.69
239.091	127.69
239.325	118.69
239.559	126.69
239.793	136.69
240.027	122.69
240.26	134.69
240.494	120.69
240.728	134.69
240.961	138.69
241.195	136.69
241.429	143.69
241.662	136.69
241.896	133.69
242.13	136.69
242.363	152.69
242.597	134.69
242.83	130.69
243.064	139.69
243.298	152.69
243.531	150.69
243.765	146.69
243.998	146.69
244.232	145.69
244.465	136.69
244.699	139.69
244.932	140.69
245.166	143.69
245.399	155.69
245.633	164.69
245.866	162.69
246.099	167.69
246.333	151.69
246.566	135.69
246.8	153.69
247.033	150.69
247.266	138.69
247.5	158.69
247.733	156.69
247.966	170.69
248.2	160.69
248.433	151.69
248.666	136.69
248.899	159.69
249.133	138.69
249.366	174.69
249.599	196.69
249.832	152.69
250.066	179.69
250.299	159.69
250.532	160.69
250.765	170.69
250.998	173.69
251.231	172.69
251.465	170.69
251.698	175.69
251.931	167.69
252.164	181.69
252.397	191.69
252.63	172.69
252.863	178.69
253.096	183.69
253.329	193.69
253.562	182.69
253.795	174.69
254.028	190.69
254.261	196.69
254.494	184.69
254.727	182.69
254.96	180.69
255.193	181.69
255.426	166.69
255.659	188.69
255.892	190.69
256.124	182.69
256.357	196.69
256.59	182.69
256.823	205.69
257.056	205.69
257.289	195.69
257.521	206.69
257.754	182.69
257.987	204.69
258.22	185.69
258.452	191.69
258.685	206.69
258.918	196.69
259.151	215.69
259.383	190.69
259.616	193.69
259.849	205.69
260.081	221.69
260.314	211.69
260.547	199.69
260.779	205.69
261.012	216.69
261.244	200.69
261.477	219.69
261.71	203.69
261.942	207.69
262.175	212.69
262.407	221.69
262.64	211.69
262.872	219.69
263.105	214.69
263.337	200.69
263.57	219.69
263.802	219.69
264.035	214.69
264.267	212.69
264.499	207.69
264.732	222.69
264.964	224.69
265.197	236.69
265.429	240.69
265.661	217.69
265.894	249.69
266.126	222.69
266.358	227.69
266.591	234.69
266.823	219.69
267.055	228.69
267.287	235.69
267.52	244.69
267.752	239.69
267.984	226.69
268.216	244.69
268.448	237.69
268.681	229.69
268.913	240.69
269.145	230.69
269.377	246.69
269.609	249.69
269.841	235.69
270.073	234.69
270.306	236.69
270.538	247.69
270.77	230.69
271.002	237.69
271.234	244.69
271.466	256.69
271.698	266.69
271.93	262.69
272.162	267.69
272.394	256.69
272.626	235.69
272.858	236.69
273.09	236.69
273.322	256.69
273.553	258.69
273.785	268.69
274.017	252.69
274.249	286.69
274.481	267.69
274.713	260.69
274.945	278.69
275.176	270.69
275.408	277.69
275.64	271.69
275.872	253.69
276.104	272.69
276.335	266.69
276.567	278.69
276.799	269.69
277.031	255.69
277.262	256.69
277.494	283.69
277.726	290.69
277.957	250.69
278.189	292.69
278.421	273.69
278.652	280.69
278.884	284.69
279.115	271.69
279.347	276.69
279.579	277.69
279.81	283.69
280.042	292.69
280.273	278.69
280.505	299.69
280.736	284.69
280.968	287.69
281.199	288.69
281.431	290.69
281.662	294.69
281.894	290.69
282.125	293.69
282.356	307.69
282.588	288.69
282.819	303.69
283.051	302.69
283.282	311.69
283.513	294.69
283.745	302.69
283.976	300.69
284.207	302.69
284.439	308.69
284.67	308.69
284.901	320.69
285.132	310.69
285.364	314.69
285.595	316.69
285.826	314.69
286.057	324.69
286.288	288.69
286.52	311.69
286.751	310.69
286.982	315.69
287.213	317.69
287.444	313.69
287.675	334.69
287.906	329.69
288.138	312.69
288.369	298.69
288.6	334.69
288.831	316.69
289.062	311.69
289.293	336.69
289.524	338.69
289.755	328.69
289.986	316.69
290.217	310.69
290.448	324.69
290.679	335.69
290.91	332.69
291.141	340.69
291.371	335.69
291.602	330.69
291.833	328.69
292.064	330.69
292.295	344.69
292.526	332.69
292.757	330.69
292.987	318.69
293.218	323.69
293.449	331.69
293.68	354.69
293.91	333.69
294.141	334.69
294.372	325.69
294.603	336.69
294.833	337.69
295.064	347.69
295.295	347.69
295.525	343.69
295.756	343.69
295.987	353.69
296.217	329.69
296.448	337.69
296.679	353.69
296.909	348.69
297.14	332.69
297.37	357.69
297.601	363.69
297.831	371.69
298.062	362.69
298.292	351.69
298.523	365.69
298.753	363.69
298.984	365.69
299.214	350.69
299.445	343.69
299.675	343.69
299.905	364.69
300.136	360.69
300.366	354.69
300.597	362.69
300.827	372.69
301.057	378.69
301.288	383.69
301.518	390.69
301.748	374.69
301.979	381.69
302.209	368.69
302.439	380.69
302.669	378.69
302.9	382.69
303.13	376.69
303.36	388.69
303.59	385.69
303.82	387.69
304.051	379.69
304.281	390.69
304.511	387.69
304.741	392.69
304.971	383.69
305.201	378.69
305.431	391.69
305.661	388.69
305.891	364.69
306.121	349.69
306.352	382.69
306.582	362.69
306.812	370.69
307.042	393.69
307.272	367.69
307.502	392.69
307.731	377.69
307.961	399.69
308.191	374.69
308.421	374.69
308.651	385.69
308.881	400.69
309.111	380.69
309.341	384.69
309.571	377.69
309.8	397.69
310.03	386.69
310.26	390.69
310.49	386.69
310.72	401.69
310.949	382.69
311.179	382.69
311.409	395.69
311.639	379.69
311.868	380.69
312.098	398.69
312.328	394.69
312.557	389.69
312.787	398.69
313.017	401.69
313.246	390.69
313.476	400.69
313.706	384.69
313.935	397.69
314.165	404.69
314.394	408.69
314.624	421.69
314.853	429.69
315.083	420.69
315.312	400.69
315.542	410.69
315.771	407.69
316.001	402.69
316.23	408.69
316.46	417.69
316.689	411.69
316.919	405.69
317.148	430.69
317.377	410.69
317.607	417.69
317.836	396.69
318.065	449.69
318.295	406.69
318.524	452.69
318.753	408.69
318.983	432.69
319.212	407.69
319.441	409.69
319.67	421.69
319.9	418.69
320.129	412.69
320.358	426.69
320.587	414.69
320.816	431.69
321.046	436.69
321.275	436.69
321.504	422.69
321.733	418.69
321.962	408.69
322.191	447.69
322.42	426.69
322.649	422.69
322.878	434.69
323.108	412.69
323.337	431.69
323.566	434.69
323.795	432.69
324.024	448.69
324.253	446.69
324.482	432.69
324.71	431.69
324.939	434.69
325.168	436.69
325.397	442.69
325.626	441.69
325.855	429.69
326.084	457.69
326.313	448.69
326.542	427.69
326.77	491.69
326.999	471.69
327.228	476.69
327.457	452.69
327.686	457.69
327.914	448.69
328.143	450.69
328.372	461.69
328.6	430.69
328.829	460.69
329.058	453.69
329.287	457.69
329.515	467.69
329.744	460.69
329.972	448.69
330.201	468.69
330.43	475.69
330.658	462.69
330.887	463.69
331.115	470.69
331.344	477.69
331.572	471.69
331.801	479.69
332.03	475.69
332.258	480.69
332.486	478.69
332.715	486.69
332.943	498.69
333.172	495.69
333.4	491.69
333.629	491.69
333.857	522.69
334.085	514.69
334.314	526.69
334.542	520.69
334.771	533.69
334.999	513.69
335.227	531.69
335.455	525.69
335.684	558.69
335.912	539.69
336.14	527.69
336.369	534.69
336.597	511.69
336.825	538.69
337.053	527.69
337.281	518.69
337.51	541.69
337.738	537.69
337.966	506.69
338.194	526.69
338.422	495.69
338.65	546.69
338.878	498.69
339.106	507.69
339.334	513.69
339.562	492.69
339.79	508.69
340.018	472.69
340.246	495.69
340.474	480.69
340.702	507.69
340.93	491.69
341.158	482.69
341.386	489.69
341.614	482.69
341.842	468.69
342.07	482.69
342.298	498.69
342.526	484.69
342.754	492.69
342.981	495.69
343.209	500.69
343.437	503.69
343.665	490.69
343.893	530.69
344.12	524.69
344.348	534.69
344.576	539.69
344.804	550.69
345.031	534.69
345.259	502.69
345.487	486.69
345.714	474.69
345.942	485.69
346.17	485.69
346.397	486.69
346.625	476.69
346.853	487.69
347.08	474.69
347.308	475.69
347.535	457.69
347.763	464.69
347.99	472.69
348.218	471.69
348.445	488.69
348.673	472.69
348.9	456.69
349.128	474.69
349.355	484.69
349.583	434.69
349.81	464.69
350.037	468.69
350.265	468.69
350.492	458.69
350.72	457.69
350.947	461.69
351.174	459.69
351.402	458.69
351.629	470.69
351.856	473.69
352.083	454.69
352.311	478.69
352.538	440.69
352.765	462.69
352.992	448.69
353.22	459.69
353.447	470.69
353.674	463.69
353.901	455.69
354.128	465.69
354.355	468.69
354.583	467.69
354.81	437.69
355.037	471.69
355.264	474.69
355.491	469.69
355.718	470.69
355.945	464.69
356.172	476.69
356.399	461.69
356.626	474.69
356.853	491.69
357.08	474.69
357.307	455.69
357.534	480.69
357.761	458.69
357.988	469.69
358.215	472.69
358.441	475.69
358.668	470.69
358.895	480.69
359.122	478.69
359.349	478.69
359.576	454.69
359.802	474.69
360.029	455.69
360.256	484.69
360.483	478.69
360.709	476.69
360.936	487.69
361.163	456.69
361.39	495.69
361.616	464.69
361.843	480.69
362.07	487.69
362.296	479.69
362.523	475.69
362.749	449.69
362.976	472.69
363.203	473.69
363.429	463.69
363.656	462.69
363.882	462.69
364.109	457.69
364.335	459.69
364.562	463.69
364.788	470.69
365.015	490.69
365.241	484.69
365.468	480.69
365.694	480.69
365.92	487.69
366.147	501.69
366.373	458.69
366.599	478.69
366.826	490.69
367.052	470.69
367.278	461.69
367.505	497.69
367.731	483.69
367.957	484.69
368.184	483.69
368.41	478.69
368.636	507.69
368.862	482.69
369.089	503.69
369.315	491.69
369.541	507.69
369.767	513.69
369.993	491.69
370.219	495.69
370.445	499.69
370.672	498.69
370.898	511.69
371.124	516.69
371.35	518.69
371.576	520.69
371.802	526.69
372.028	507.69
372.254	533.69
372.48	530.69
372.706	507.69
372.932	492.69
373.158	504.69
373.384	532.69
373.61	524.69
373.835	518.69
374.061	498.69
374.287	506.69
374.513	526.69
374.739	538.69
374.965	529.69
375.191	551.69
375.416	531.69
375.642	528.69
375.868	539.69
376.094	544.69
376.319	550.69
376.545	527.69
376.771	512.69
376.997	506.69
377.222	515.69
377.448	498.69
377.674	480.69
377.899	507.69
378.125	518.69
378.35	509.69
378.576	507.69
378.802	506.69
379.027	527.69
379.253	508.69
379.478	510.69
379.704	514.69
379.929	494.69
380.155	523.69
380.38	520.69
380.606	536.69
380.831	500.69
381.057	527.69
381.282	526.69
381.507	517.69
381.733	522.69
381.958	526.69
382.184	520.69
382.409	540.69
382.634	518.69
382.86	546.69
383.085	532.69
383.31	521.69
383.535	543.69
383.761	537.69
383.986	541.69
384.211	533.69
384.436	559.69
384.662	568.69
384.887	558.69
385.112	576.69
385.337	547.69
385.562	557.69
385.787	550.69
386.013	594.69
386.238	575.69
386.463	604.69
386.688	571.69
386.913	580.69
387.138	587.69
387.363	576.69
387.588	569.69
387.813	582.69
388.038	603.69
388.263	594.69
388.488	593.69
388.713	606.69
388.938	590.69
389.163	587.69
389.387	568.69
389.612	606.69
389.837	596.69
390.062	585.69
390.287	603.69
390.512	586.69
390.736	615.69
390.961	606.69
391.186	598.69
391.411	608.69
391.636	615.69
391.86	610.69
392.085	631.69
392.31	615.69
392.534	616.69
392.759	616.69
392.984	611.69
393.208	628.69
393.433	626.69
393.658	650.69
393.882	618.69
394.107	609.69
394.331	635.69
394.556	640.69
394.78	632.69
395.005	620.69
395.229	628.69
395.454	622.69
395.678	650.69
395.903	635.69
396.127	650.69
396.352	630.69
396.576	651.69
396.801	623.69
397.025	640.69
397.249	649.69
397.474	634.69
397.698	647.69
397.922	663.69
398.147	670.69
398.371	661.69
398.595	660.69
398.82	694.69
399.044	702.69
399.268	720.69
399.492	756.69
399.717	776.69
399.941	795.69
400.165	772.69
400.389	774.69
400.613	726.69
400.837	706.69
401.062	707.69
401.286	701.69
401.51	732.69
401.734	711.69
401.958	692.69
402.182	706.69
402.406	688.69
402.63	706.69
402.854	682.69
403.078	687.69
403.302	706.69
403.526	697.69
403.75	724.69
403.974	699.69
404.198	714.69
404.422	720.69
404.645	710.69
404.869	668.69
405.093	709.69
405.317	723.69
405.541	717.69
405.765	730.69
405.988	724.69
406.212	724.69
406.436	733.69
406.66	748.69
406.883	724.69
407.107	771.69
407.331	798.69
407.555	786.69
407.778	790.69
408.002	806.69
408.226	785.69
408.449	792.69
408.673	761.69
408.896	769.69
409.12	764.69
409.344	746.69
409.567	743.69
409.791	768.69
410.014	760.69
410.238	736.69
410.461	744.69
410.685	743.69
410.908	714.69
411.132	731.69
411.355	716.69
411.578	756.69
411.802	718.69
412.025	722.69
412.249	719.69
412.472	723.69
412.695	723.69
412.919	690.69
413.142	694.69
413.365	697.69
413.589	686.69
413.812	706.69
414.035	690.69
414.258	696.69
414.482	710.69
414.705	725.69
414.928	700.69
415.151	712.69
415.374	685.69
415.597	700.69
415.821	686.69
416.044	695.69
416.267	681.69
416.49	662.69
416.713	669.69
416.936	691.69
417.159	675.69
417.382	650.69
417.605	658.69
417.828	663.69
418.051	672.69
418.274	644.69
418.497	663.69
418.72	666.69
418.943	665.69
419.166	694.69
419.389	731.69
419.611	726.69
419.834	687.69
420.057	687.69
420.28	678.69
420.503	657.69
420.726	655.69
420.948	652.69
421.171	656.69
421.394	636.69
421.617	663.69
421.839	662.69
422.062	655.69
422.285	637.69
422.507	676.69
422.73	682.69
422.953	650.69
423.175	668.69
423.398	665.69
423.621	657.69
423.843	663.69
424.066	655.69
424.288	655.69
424.511	659.69
424.733	636.69
424.956	660.69
425.178	668.69
425.401	673.69
425.623	668.69
425.846	639.69
426.068	638.69
426.291	672.69
426.513	656.69
426.735	616.69
426.958	646.69
427.18	622.69
427.402	637.69
427.625	620.69
427.847	648.69
428.069	629.69
428.292	632.69
428.514	637.69
428.736	629.69
428.958	631.69
429.181	629.69
429.403	622.69
429.625	639.69
429.847	620.69
430.069	630.69
430.292	617.69
430.514	623.69
430.736	631.69
430.958	621.69
431.18	631.69
431.402	617.69
431.624	626.69
431.846	606.69
432.068	618.69
432.29	651.69
432.512	638.69
432.734	632.69
432.956	611.69
433.178	646.69
433.4	650.69
433.622	644.69
433.844	646.69
434.066	626.69
434.287	607.69
434.509	652.69
434.731	649.69
434.953	659.69
435.175	661.69
435.397	660.69
435.618	650.69
435.84	633.69
436.062	642.69
436.284	616.69
436.505	615.69
436.727	610.69
436.949	622.69
437.17	627.69
437.392	633.69
437.614	619.69
437.835	622.69
438.057	604.69
438.278	619.69
438.5	628.69
438.721	606.69
438.943	592.69
439.165	593.69
439.386	616.69
439.608	626.69
439.829	604.69
440.05	615.69
440.272	599.69
440.493	624.69
440.715	618.69
440.936	643.69
441.158	602.69
441.379	633.69
441.6	639.69
441.822	654.69
442.043	648.69
442.264	615.69
442.486	622.69
442.707	642.69
442.928	654.69
443.149	650.69
443.371	660.69
443.592	650.69
443.813	629.69
444.034	628.69
444.255	649.69
444.476	639.69
444.698	656.69
444.919	681.69
445.14	760.69
445.361	678.69
445.582	648.69
445.803	630.69
446.024	616.69
446.245	628.69
446.466	624.69
446.687	600.69
446.908	615.69
447.129	612.69
447.35	614.69
447.571	590.69
447.792	569.69
448.013	592.69
448.234	562.69
448.455	597.69
448.675	600.69
448.896	572.69
449.117	582.69
449.338	587.69
449.559	597.69
449.779	571.69
450	574.69
450.221	587.69
450.442	562.69
450.662	575.69
450.883	569.69
451.104	589.69
451.324	565.69
451.545	575.69
451.766	591.69
451.986	566.69
452.207	571.69
452.428	569.69
452.648	575.69
452.869	564.69
453.089	553.69
453.31	556.69
453.53	560.69
453.751	556.69
453.971	587.69
454.192	542.69
454.412	541.69
454.633	558.69
454.853	574.69
455.073	562.69
455.294	562.69
455.514	559.69
455.734	564.69
455.955	546.69
456.175	562.69
456.395	547.69
456.616	543.69
456.836	573.69
457.056	569.69
457.276	535.69
457.497	584.69
457.717	566.69
457.937	571.69
458.157	573.69
458.377	566.69
458.598	566.69
458.818	582.69
459.038	587.69
459.258	607.69
459.478	601.69
459.698	608.69
459.918	608.69
460.138	629.69
460.358	646.69
460.578	661.69
460.798	628.69
461.018	676.69
461.238	686.69
461.458	692.69
461.678	683.69
461.898	669.69
462.118	648.69
462.338	688.69
462.558	711.69
462.777	700.69
462.997	741.69
463.217	746.69
463.437	749.69
463.657	738.69
463.876	704.69
464.096	733.69
464.316	711.69
464.536	712.69
464.755	684.69
464.975	684.69
465.195	682.69
465.414	656.69
465.634	646.69
465.854	642.69
466.073	641.69
466.293	605.69
466.512	620.69
466.732	610.69
466.951	619.69
467.171	594.69
467.391	611.69
467.61	611.69
467.829	607.69
468.049	611.69
468.268	615.69
468.488	603.69
468.707	586.69
468.927	610.69
469.146	615.69
469.365	605.69
469.585	610.69
469.804	608.69
470.023	609.69
470.243	607.69
470.462	608.69
470.681	605.69
470.901	595.69
471.12	583.69
471.339	600.69
471.558	588.69
471.777	589.69
471.997	574.69
472.216	631.69
472.435	587.69
472.654	611.69
472.873	602.69
473.092	623.69
473.311	584.69
473.53	590.69
473.749	613.69
473.968	626.69
474.187	598.69
474.406	627.69
474.625	626.69
474.844	598.69
475.063	588.69
475.282	605.69
475.501	612.69
475.72	601.69
475.939	600.69
476.158	631.69
476.377	646.69
476.596	656.69
476.814	629.69
477.033	645.69
477.252	648.69
477.471	648.69
477.69	683.69
477.908	662.69
478.127	654.69
478.346	660.69
478.564	660.69
478.783	662.69
479.002	688.69
479.22	694.69
479.439	682.69
479.658	677.69
479.876	677.69
480.095	692.69
480.313	700.69
480.532	707.69
480.751	709.69
480.969	710.69
481.188	708.69
481.406	707.69
481.624	694.69
481.843	682.69
482.061	703.69
482.28	699.69
482.498	724.69
482.717	684.69
482.935	696.69
483.153	680.69
483.372	690.69
483.59	707.69
483.808	700.69
484.027	688.69
484.245	706.69
484.463	708.69
484.681	707.69
484.9	731.69
485.118	715.69
485.336	736.69
485.554	722.69
485.772	720.69
485.99	722.69
486.209	726.69
486.427	708.69
486.645	706.69
486.863	729.69
487.081	712.69
487.299	719.69
487.517	740.69
487.735	734.69
487.953	734.69
488.171	715.69
488.389	708.69
488.607	707.69
488.825	703.69
489.043	715.69
489.261	706.69
489.479	712.69
489.696	707.69
489.914	731.69
490.132	735.69
490.35	721.69
490.568	736.69
490.786	723.69
491.003	735.69
491.221	729.69
491.439	759.69
491.657	750.69
491.874	730.69
492.092	766.69
492.31	730.69
492.527	739.69
492.745	763.69
492.963	711.69
493.18	751.69
493.398	758.69
493.615	754.69
493.833	724.69
494.05	761.69
494.268	738.69
494.485	778.69
494.703	740.69
494.92	744.69
495.138	769.69
495.355	780.69
495.573	779.69
495.79	743.69
496.008	788.69
496.225	797.69
496.442	809.69
496.66	800.69
496.877	814.69
497.094	806.69
497.312	824.69
497.529	825.69
497.746	854.69
497.963	872.69
498.181	879.69
498.398	908.69
498.615	910.69
498.832	938.69
499.049	965.69
499.267	998.69
499.484	1049.69
499.701	1083.69
499.918	1142.69
500.135	1179.69
500.352	1221.69
500.569	1222.69
500.786	1229.69
501.003	1207.69
501.22	1199.69
501.437	1126.69
501.654	1071.69
501.871	1086.69
502.088	1018.69
502.305	990.69
502.522	943.69
502.739	927.69
502.956	889.69
503.172	892.69
503.389	873.69
503.606	842.69
503.823	840.69
504.04	843.69
504.256	840.69
504.473	824.69
504.69	814.69
504.907	790.69
505.123	799.69
505.34	792.69
505.557	738.69
505.773	749.69
505.99	751.69
506.207	721.69
506.423	731.69
506.64	707.69
506.856	712.69
507.073	712.69
507.289	696.69
507.506	703.69
507.722	709.69
507.939	731.69
508.155	664.69
508.372	681.69
508.588	660.69
508.805	662.69
509.021	670.69
509.238	662.69
509.454	658.69
509.67	651.69
509.887	650.69
510.103	642.69
510.319	653.69
510.536	640.69
510.752	620.69
510.968	625.69
511.184	636.69
511.401	622.69
511.617	634.69
511.833	651.69
512.049	624.69
512.265	651.69
512.481	625.69
512.698	611.69
512.914	612.69
513.13	639.69
513.346	626.69
513.562	605.69
513.778	638.69
513.994	651.69
514.21	628.69
514.426	634.69
514.642	642.69
514.858	631.69
515.074	655.69
515.29	648.69
515.506	647.69
515.721	653.69
515.937	677.69
516.153	669.69
516.369	655.69
516.585	657.69
516.801	698.69
517.016	676.69
517.232	684.69
517.448	693.69
517.664	710.69
517.879	703.69
518.095	699.69
518.311	698.69
518.527	665.69
518.742	686.69
518.958	667.69
519.173	663.69
519.389	669.69
519.605	657.69
519.82	640.69
520.036	662.69
520.251	628.69
520.467	649.69
520.682	613.69
520.898	622.69
521.113	621.69
521.329	634.69
521.544	608.69
521.76	606.69
521.975	587.69
522.19	613.69
522.406	636.69
522.621	610.69
522.836	600.69
523.052	597.69
523.267	585.69
523.482	592.69
523.698	591.69
523.913	588.69
524.128	551.69
524.343	587.69
524.559	583.69
524.774	575.69
524.989	568.69
525.204	572.69
525.419	576.69
525.634	579.69
525.849	591.69
526.064	587.69
526.28	591.69
526.495	566.69
526.71	563.69
526.925	580.69
527.14	570.69
527.355	569.69
527.57	583.69
527.785	557.69
527.999	573.69
528.214	543.69
528.429	561.69
528.644	546.69
528.859	570.69
529.074	568.69
529.289	578.69
529.503	549.69
529.718	557.69
529.933	563.69
530.148	556.69
530.363	542.69
530.577	526.69
530.792	539.69
531.007	564.69
531.221	536.69
531.436	556.69
531.651	551.69
531.865	545.69
532.08	547.69
532.295	560.69
532.509	570.69
532.724	566.69
532.938	543.69
533.153	536.69
533.367	559.69
533.582	547.69
533.796	521.69
534.011	539.69
534.225	558.69
534.44	537.69
534.654	539.69
534.868	528.69
535.083	551.69
535.297	552.69
535.511	543.69
535.726	543.69
535.94	523.69
536.154	516.69
536.369	543.69
536.583	530.69
536.797	530.69
537.011	521.69
537.225	524.69
537.44	546.69
537.654	514.69
537.868	549.69
538.082	513.69
538.296	525.69
538.51	534.69
538.724	505.69
538.938	527.69
539.153	528.69
539.367	534.69
539.581	497.69
539.795	526.69
540.009	517.69
540.222	487.69
540.436	513.69
540.65	504.69
540.864	508.69
541.078	521.69
541.292	503.69
541.506	495.69
541.72	527.69
541.934	504.69
542.147	494.69
542.361	490.69
542.575	499.69
542.789	520.69
543.002	471.69
543.216	503.69
543.43	491.69
543.644	486.69
543.857	482.69
544.071	512.69
544.285	505.69
544.498	506.69
544.712	499.69
544.925	506.69
545.139	523.69
545.352	514.69
545.566	497.69
545.779	506.69
545.993	499.69
546.206	499.69
546.42	531.69
546.633	477.69
546.847	506.69
547.06	510.69
547.274	517.69
547.487	485.69
547.7	509.69
547.914	502.69
548.127	521.69
548.34	522.69
548.554	505.69
548.767	511.69
548.98	522.69
549.193	501.69
549.407	499.69
549.62	505.69
549.833	514.69
550.046	510.69
550.259	499.69
550.473	483.69
550.686	499.69
550.899	520.69
551.112	506.69
551.325	509.69
551.538	504.69
551.751	508.69
551.964	491.69
552.177	486.69
552.39	482.69
552.603	496.69
552.816	505.69
553.029	528.69
553.242	500.69
553.455	507.69
553.667	515.69
553.88	486.69
554.093	496.69
554.306	493.69
554.519	491.69
554.732	503.69
554.944	469.69
555.157	474.69
555.37	481.69
555.583	493.69
555.795	480.69
556.008	464.69
556.221	464.69
556.433	468.69
556.646	473.69
556.859	438.69
557.071	461.69
557.284	498.69
557.496	442.69
557.709	443.69
557.921	439.69
558.134	467.69
558.346	446.69
558.559	452.69
558.771	444.69
558.984	463.69
559.196	461.69
559.409	445.69
559.621	424.69
559.833	434.69
560.046	436.69
560.258	451.69
560.47	429.69
560.683	455.69
560.895	422.69
561.107	442.69
561.32	448.69
561.532	443.69
561.744	448.69
561.956	454.69
562.168	428.69
562.381	448.69
562.593	443.69
562.805	438.69
563.017	456.69
563.229	453.69
563.441	459.69
563.653	451.69
563.865	455.69
564.077	444.69
564.289	433.69
564.501	460.69
564.713	461.69
564.925	466.69
565.137	463.69
565.349	462.69
565.561	502.69
565.773	466.69
565.985	506.69
566.197	508.69
566.408	507.69
566.62	516.69
566.832	513.69
567.044	528.69
567.255	542.69
567.467	544.69
567.679	535.69
567.891	544.69
568.102	535.69
568.314	513.69
568.526	502.69
568.737	499.69
568.949	480.69
569.161	464.69
569.372	442.69
569.584	461.69
569.795	461.69
570.007	441.69
570.218	420.69
570.43	421.69
570.641	440.69
570.853	436.69
571.064	440.69
571.276	414.69
571.487	400.69
571.698	393.69
571.91	397.69
572.121	385.69
572.333	387.69
572.544	389.69
572.755	378.69
572.966	387.69
573.178	382.69
573.389	365.69
573.6	376.69
573.811	380.69
574.023	384.69
574.234	387.69
574.445	350.69
574.656	368.69
574.867	372.69
575.078	338.69
575.289	376.69
575.501	350.69
575.712	361.69
575.923	352.69
576.134	355.69
576.345	356.69
576.556	365.69
576.767	332.69
576.978	349.69
577.188	341.69
577.399	346.69
577.61	349.69
577.821	330.69
578.032	347.69
578.243	335.69
578.454	331.69
578.665	332.69
578.875	333.69
579.086	326.69
579.297	332.69
579.508	350.69
579.718	331.69
579.929	335.69
580.14	347.69
580.35	330.69
580.561	318.69
580.772	327.69
580.982	324.69
581.193	329.69
581.403	339.69
581.614	309.69
581.825	321.69
582.035	304.69
582.246	327.69
582.456	325.69
582.667	321.69
582.877	323.69
583.087	339.69
583.298	335.69
583.508	315.69
583.719	299.69
583.929	319.69
584.139	310.69
584.35	303.69
584.56	306.69
584.77	316.69
584.981	319.69
585.191	310.69
585.401	300.69
585.611	306.69
585.821	305.69
586.032	285.69
586.242	301.69
586.452	314.69
586.662	314.69
586.872	286.69
587.082	285.69
587.292	302.69
587.502	287.69
587.713	317.69
587.923	308.69
588.133	299.69
588.343	306.69
588.553	289.69
588.762	289.69
588.972	312.69
589.182	318.69
589.392	319.69
589.602	311.69
589.812	327.69
590.022	318.69
590.232	320.69
590.441	302.69
590.651	315.69
590.861	324.69
591.071	300.69
591.281	312.69
591.49	310.69
591.7	318.69
591.91	312.69
592.119	304.69
592.329	302.69
592.539	294.69
592.748	310.69
592.958	310.69
593.167	310.69
593.377	320.69
593.587	326.69
593.796	302.69
594.006	295.69
594.215	301.69
594.424	294.69
594.634	304.69
594.843	300.69
595.053	299.69
595.262	295.69
595.472	311.69
595.681	301.69
595.89	283.69
596.1	287.69
596.309	283.69
596.518	280.69
596.727	281.69
596.937	290.69
597.146	290.69
597.355	271.69
597.564	266.69
597.774	276.69
597.983	263.69
598.192	265.69
598.401	256.69
598.61	275.69
598.819	259.69
599.028	278.69
599.237	256.69
599.446	260.69
599.655	254.69
599.864	272.69
600.073	265.69
600.282	255.69
600.491	258.69
600.7	276.69
600.909	260.69
601.118	246.69
601.327	239.69
601.536	254.69
601.745	262.69
601.953	273.69
602.162	242.69
602.371	266.69
602.58	249.69
602.789	236.69
602.997	237.69
603.206	266.69
603.415	234.69
603.623	249.69
603.832	239.69
604.041	248.69
604.249	248.69
604.458	236.69
604.666	247.69
604.875	256.69
605.084	227.69
605.292	250.69
605.501	246.69
605.709	262.69
605.918	262.69
606.126	262.69
606.334	253.69
606.543	244.69
606.751	222.69
606.96	228.69
607.168	241.69
607.376	229.69
607.585	243.69
607.793	250.69
608.001	243.69
608.21	242.69
608.418	245.69
608.626	239.69
608.834	210.69
609.043	227.69
609.251	242.69
609.459	237.69
609.667	219.69
609.875	239.69
610.083	233.69
610.291	228.69
610.499	247.69
610.707	244.69
610.916	226.69
611.124	218.69
611.332	218.69
611.54	229.69
611.748	217.69
611.955	232.69
612.163	222.69
612.371	237.69
612.579	220.69
612.787	247.69
612.995	234.69
613.203	236.69
613.411	219.69
613.618	220.69
613.826	232.69
614.034	243.69
614.242	228.69
614.449	225.69
614.657	238.69
614.865	226.69
615.072	222.69
615.28	224.69
615.488	222.69
615.695	229.69
615.903	221.69
616.111	220.69
616.318	218.69
616.526	229.69
616.733	220.69
616.941	215.69
617.148	217.69
617.356	232.69
617.563	222.69
617.771	238.69
617.978	228.69
618.185	226.69
618.393	227.69
618.6	215.69
618.807	225.69
619.015	200.69
619.222	213.69
619.429	214.69
619.637	214.69
619.844	216.69
620.051	220.69
620.258	209.69
620.466	205.69
620.673	206.69
620.88	212.69
621.087	205.69
621.294	212.69
621.501	214.69
621.708	210.69
621.915	212.69
622.122	208.69
622.329	208.69
622.536	214.69
622.743	215.69
622.95	207.69
623.157	219.69
623.364	207.69
623.571	203.69
623.778	201.69
623.985	213.69
624.192	204.69
624.399	209.69
624.606	215.69
624.812	209.69
625.019	211.69
625.226	203.69
625.433	201.69
625.639	211.69
625.846	186.69
626.053	194.69
626.259	216.69
626.466	203.69
626.673	216.69
626.879	169.69
627.086	194.69
627.293	211.69
627.499	194.69
627.706	194.69
627.912	202.69
628.119	195.69
628.325	187.69
628.532	182.69
628.738	208.69
628.945	206.69
629.151	191.69
629.357	195.69
629.564	195.69
629.77	184.69
629.976	176.69
630.183	183.69
630.389	191.69
630.595	189.69
630.802	196.69
631.008	195.69
631.214	203.69
631.42	175.69
631.627	193.69
631.833	194.69
632.039	182.69
632.245	190.69
632.451	196.69
632.657	199.69
632.863	190.69
633.069	186.69
633.275	182.69
633.481	180.69
633.688	193.69
633.893	172.69
634.099	189.69
634.305	190.69
634.511	184.69
634.717	182.69
634.923	174.69
635.129	173.69
635.335	169.69
635.541	190.69
635.747	184.69
635.952	166.69
636.158	186.69
636.364	198.69
636.57	171.69
636.775	163.69
636.981	172.69
637.187	169.69
637.392	164.69
637.598	179.69
637.804	183.69
638.009	180.69
638.215	178.69
638.421	183.69
638.626	178.69
638.832	181.69
639.037	163.69
639.243	182.69
639.448	175.69
639.654	166.69
639.859	169.69
640.065	166.69
640.27	179.69
640.475	167.69
640.681	174.69
640.886	169.69
641.091	165.69
641.297	174.69
641.502	160.69
641.707	184.69
641.913	173.69
642.118	182.69
642.323	191.69
642.528	169.69
642.733	176.69
642.939	173.69
643.144	183.69
643.349	166.69
643.554	187.69
643.759	159.69
643.964	175.69
644.169	167.69
644.374	175.69
644.579	164.69
644.784	178.69
644.989	157.69
645.194	162.69
645.399	171.69
645.604	166.69
645.809	164.69
646.014	170.69
646.219	164.69
646.423	158.69
646.628	182.69
646.833	164.69
647.038	182.69
647.243	158.69
647.447	154.69
647.652	156.69
647.857	150.69
648.062	168.69
648.266	173.69
648.471	169.69
648.676	175.69
648.88	176.69
649.085	176.69
649.289	172.69
649.494	162.69
649.698	173.69
649.903	157.69
650.107	155.69
650.312	166.69
650.516	175.69
650.721	147.69
650.925	161.69
651.13	157.69
651.334	158.69
651.539	147.69
651.743	162.69
651.947	154.69
652.152	160.69
652.356	161.69
652.56	150.69
652.764	164.69
652.969	143.69
653.173	166.69
653.377	142.69
653.581	142.69
653.785	146.69
653.99	153.69
654.194	157.69
654.398	169.69
654.602	147.69
654.806	159.69
655.01	148.69
655.214	146.69
655.418	148.69
655.622	142.69
655.826	146.69
656.03	139.69
656.234	150.69
656.438	140.69
656.642	144.69
656.846	146.69
657.049	122.69
657.253	134.69
657.457	136.69
657.661	123.69
657.865	126.69
658.068	124.69
658.272	122.69
658.476	116.69
658.68	118.69
658.883	118.69
659.087	106.69
659.291	118.69
659.494	107.69
659.698	121.69
659.901	113.69
660.105	90.69
660.309	109.69
660.512	101.69
660.716	84.69
660.919	101.69
661.123	108.69
661.326	97.69
661.53	77.69
661.733	87.69
661.936	79.69
662.14	83.69
662.343	73.69
662.546	84.69
662.75	89.69
662.953	96.69
663.156	89.69
663.36	79.69
663.563	100.69
663.766	83.69
663.969	71.69
664.173	93.69
664.376	88.69
664.579	85.69
664.782	97.69
664.985	87.69
665.188	97.69
665.391	82.69
665.594	94.69
665.797	79.69
666	89.69
666.203	91.69
666.406	82.69
666.609	91.69
666.812	82.69
667.015	82.69
667.218	82.69
667.421	89.69
667.624	80.69
667.827	85.69
668.03	85.69
668.232	78.69
668.435	75.69
668.638	87.69
668.841	92.69
669.043	86.69
669.246	70.69
669.449	82.69
669.651	94.69
669.854	63.69
670.057	70.69
670.259	77.69
670.462	87.69
670.665	85.69
670.867	75.69
671.07	66.69
671.272	74.69
671.475	91.69
671.677	69.69
671.88	92.69
672.082	84.69
672.284	83.69
672.487	68.69
672.689	80.69
672.892	69.69
