Data from Fe(NO3)3@0.05M.TitratingCurve.Agarose3%dH2O.NegLispCup.LampEnergy10.LIBS07252019_HRD10591_16-46-21-334.txt Node
Date: Thu Jul 25 16:46:21 EDT 2019
User: cochatt
Spectrometer: HR+D1059
Trigger mode: 1
Integration Time (sec): 1.000000E-1
Scans to average: 1
Electric dark correction enabled: true
Nonlinearity correction enabled: false
Boxcar width: 0
XAxis mode: Wavelengths
Number of Pixels in Spectrum: 2048
>>>>>Begin Spectral Data<<<<<
223.165	-14.56
223.4	-14.56
223.635	-14.56
223.869	-14.56
224.104	-15.56
224.338	-20.56
224.573	-24.56
224.808	-9.56
225.042	-0.56
225.277	-8.56
225.511	-8.56
225.746	14.44
225.98	10.44
226.215	16.44
226.449	32.44
226.683	13.44
226.918	11.44
227.152	18.44
227.387	40.44
227.621	32.44
227.856	45.44
228.09	47.44
228.324	56.44
228.559	59.44
228.793	84.44
229.027	131.44
229.262	138.44
229.496	158.44
229.73	143.44
229.964	185.44
230.199	165.44
230.433	184.44
230.667	181.44
230.901	170.44
231.136	168.44
231.37	174.44
231.604	189.44
231.838	199.44
232.072	189.44
232.306	193.44
232.541	201.44
232.775	204.44
233.009	217.44
233.243	216.44
233.477	220.44
233.711	197.44
233.945	201.44
234.179	224.44
234.413	224.44
234.647	232.44
234.881	261.44
235.115	230.44
235.349	226.44
235.583	230.44
235.817	240.44
236.051	223.44
236.285	240.44
236.519	267.44
236.753	248.44
236.987	248.44
237.221	247.44
237.455	265.44
237.689	257.44
237.922	269.44
238.156	283.44
238.39	292.44
238.624	324.44
238.858	312.44
239.091	269.44
239.325	288.44
239.559	280.44
239.793	301.44
240.027	345.44
240.26	318.44
240.494	315.44
240.728	324.44
240.961	333.44
241.195	329.44
241.429	337.44
241.662	330.44
241.896	305.44
242.13	309.44
242.363	308.44
242.597	286.44
242.83	328.44
243.064	315.44
243.298	333.44
243.531	335.44
243.765	350.44
243.998	341.44
244.232	346.44
244.465	331.44
244.699	334.44
244.932	357.44
245.166	356.44
245.399	353.44
245.633	346.44
245.866	340.44
246.099	372.44
246.333	361.44
246.566	380.44
246.8	364.44
247.033	358.44
247.266	368.44
247.5	375.44
247.733	387.44
247.966	388.44
248.2	390.44
248.433	383.44
248.666	418.44
248.899	400.44
249.133	396.44
249.366	429.44
249.599	452.44
249.832	437.44
250.066	422.44
250.299	438.44
250.532	440.44
250.765	433.44
250.998	399.44
251.231	420.44
251.465	419.44
251.698	439.44
251.931	433.44
252.164	439.44
252.397	469.44
252.63	481.44
252.863	494.44
253.096	508.44
253.329	510.44
253.562	471.44
253.795	516.44
254.028	536.44
254.261	539.44
254.494	511.44
254.727	489.44
254.96	493.44
255.193	505.44
255.426	493.44
255.659	493.44
255.892	480.44
256.124	485.44
256.357	503.44
256.59	548.44
256.823	510.44
257.056	490.44
257.289	484.44
257.521	493.44
257.754	477.44
257.987	491.44
258.22	509.44
258.452	513.44
258.685	555.44
258.918	566.44
259.151	548.44
259.383	525.44
259.616	558.44
259.849	582.44
260.081	692.44
260.314	732.44
260.547	611.44
260.779	577.44
261.012	627.44
261.244	631.44
261.477	636.44
261.71	610.44
261.942	593.44
262.175	573.44
262.407	589.44
262.64	575.44
262.872	635.44
263.105	653.44
263.337	672.44
263.57	638.44
263.802	592.44
264.035	578.44
264.267	589.44
264.499	557.44
264.732	586.44
264.964	570.44
265.197	582.44
265.429	582.44
265.661	578.44
265.894	580.44
266.126	582.44
266.358	604.44
266.591	602.44
266.823	619.44
267.055	613.44
267.287	613.44
267.52	597.44
267.752	589.44
267.984	595.44
268.216	627.44
268.448	597.44
268.681	606.44
268.913	626.44
269.145	631.44
269.377	632.44
269.609	658.44
269.841	632.44
270.073	640.44
270.306	648.44
270.538	638.44
270.77	640.44
271.002	648.44
271.234	691.44
271.466	658.44
271.698	680.44
271.93	678.44
272.162	668.44
272.394	666.44
272.626	715.44
272.858	696.44
273.09	723.44
273.322	706.44
273.553	714.44
273.785	733.44
274.017	803.44
274.249	871.44
274.481	842.44
274.713	868.44
274.945	964.44
275.176	957.44
275.408	879.44
275.64	872.44
275.872	864.44
276.104	803.44
276.335	737.44
276.567	736.44
276.799	731.44
277.031	773.44
277.262	768.44
277.494	725.44
277.726	724.44
277.957	737.44
278.189	736.44
278.421	748.44
278.652	758.44
278.884	738.44
279.115	726.44
279.347	747.44
279.579	762.44
279.81	763.44
280.042	776.44
280.273	753.44
280.505	741.44
280.736	744.44
280.968	758.44
281.199	750.44
281.431	801.44
281.662	794.44
281.894	782.44
282.125	779.44
282.356	781.44
282.588	780.44
282.819	795.44
283.051	791.44
283.282	795.44
283.513	806.44
283.745	808.44
283.976	805.44
284.207	808.44
284.439	847.44
284.67	833.44
284.901	820.44
285.132	841.44
285.364	830.44
285.595	801.44
285.826	820.44
286.057	818.44
286.288	809.44
286.52	826.44
286.751	813.44
286.982	857.44
287.213	844.44
287.444	855.44
287.675	829.44
287.906	849.44
288.138	858.44
288.369	837.44
288.6	860.44
288.831	838.44
289.062	858.44
289.293	867.44
289.524	855.44
289.755	863.44
289.986	845.44
290.217	829.44
290.448	867.44
290.679	890.44
290.91	874.44
291.141	866.44
291.371	841.44
291.602	834.44
291.833	859.44
292.064	864.44
292.295	851.44
292.526	892.44
292.757	873.44
292.987	882.44
293.218	855.44
293.449	888.44
293.68	896.44
293.91	857.44
294.141	874.44
294.372	867.44
294.603	880.44
294.833	888.44
295.064	906.44
295.295	875.44
295.525	894.44
295.756	900.44
295.987	893.44
296.217	876.44
296.448	898.44
296.679	933.44
296.909	918.44
297.14	913.44
297.37	919.44
297.601	936.44
297.831	919.44
298.062	912.44
298.292	898.44
298.523	931.44
298.753	968.44
298.984	937.44
299.214	926.44
299.445	948.44
299.675	923.44
299.905	927.44
300.136	930.44
300.366	958.44
300.597	939.44
300.827	965.44
301.057	974.44
301.288	967.44
301.518	950.44
301.748	952.44
301.979	955.44
302.209	1011.44
302.439	1012.44
302.669	1002.44
302.9	990.44
303.13	981.44
303.36	990.44
303.59	989.44
303.82	985.44
304.051	957.44
304.281	998.44
304.511	1008.44
304.741	1006.44
304.971	1015.44
305.201	984.44
305.431	981.44
305.661	1003.44
305.891	1011.44
306.121	999.44
306.352	1003.44
306.582	1009.44
306.812	982.44
307.042	991.44
307.272	1019.44
307.502	984.44
307.731	1014.44
307.961	1013.44
308.191	982.44
308.421	992.44
308.651	1025.44
308.881	981.44
309.111	1006.44
309.341	1005.44
309.571	1041.44
309.8	1047.44
310.03	986.44
310.26	1007.44
310.49	982.44
310.72	1000.44
310.949	1053.44
311.179	1026.44
311.409	1027.44
311.639	1042.44
311.868	1061.44
312.098	1058.44
312.328	1067.44
312.557	1038.44
312.787	1060.44
313.017	1036.44
313.246	1051.44
313.476	1036.44
313.706	1070.44
313.935	1075.44
314.165	1089.44
314.394	1089.44
314.624	1083.44
314.853	1084.44
315.083	1085.44
315.312	1108.44
315.542	1132.44
315.771	1105.44
316.001	1090.44
316.23	1111.44
316.46	1105.44
316.689	1092.44
316.919	1108.44
317.148	1117.44
317.377	1116.44
317.607	1095.44
317.836	1115.44
318.065	1100.44
318.295	1087.44
318.524	1103.44
318.753	1110.44
318.983	1123.44
319.212	1119.44
319.441	1110.44
319.67	1152.44
319.9	1122.44
320.129	1123.44
320.358	1098.44
320.587	1145.44
320.816	1102.44
321.046	1150.44
321.275	1149.44
321.504	1145.44
321.733	1123.44
321.962	1105.44
322.191	1144.44
322.42	1144.44
322.649	1158.44
322.878	1125.44
323.108	1127.44
323.337	1156.44
323.566	1141.44
323.795	1175.44
324.024	1157.44
324.253	1133.44
324.482	1121.44
324.71	1156.44
324.939	1173.44
325.168	1168.44
325.397	1164.44
325.626	1149.44
325.855	1165.44
326.084	1179.44
326.313	1220.44
326.542	1202.44
326.77	1206.44
326.999	1190.44
327.228	1196.44
327.457	1194.44
327.686	1179.44
327.914	1225.44
328.143	1194.44
328.372	1181.44
328.6	1188.44
328.829	1182.44
329.058	1186.44
329.287	1211.44
329.515	1205.44
329.744	1241.44
329.972	1224.44
330.201	1246.44
330.43	1239.44
330.658	1229.44
330.887	1266.44
331.115	1264.44
331.344	1261.44
331.572	1276.44
331.801	1274.44
332.03	1237.44
332.258	1284.44
332.486	1285.44
332.715	1285.44
332.943	1306.44
333.172	1322.44
333.4	1349.44
333.629	1344.44
333.857	1333.44
334.085	1375.44
334.314	1357.44
334.542	1388.44
334.771	1390.44
334.999	1386.44
335.227	1379.44
335.455	1402.44
335.684	1374.44
335.912	1381.44
336.14	1405.44
336.369	1384.44
336.597	1362.44
336.825	1368.44
337.053	1386.44
337.281	1384.44
337.51	1386.44
337.738	1348.44
337.966	1322.44
338.194	1346.44
338.422	1336.44
338.65	1341.44
338.878	1331.44
339.106	1314.44
339.334	1340.44
339.562	1315.44
339.79	1350.44
340.018	1331.44
340.246	1294.44
340.474	1303.44
340.702	1294.44
340.93	1298.44
341.158	1299.44
341.386	1299.44
341.614	1283.44
341.842	1281.44
342.07	1280.44
342.298	1310.44
342.526	1299.44
342.754	1281.44
342.981	1320.44
343.209	1292.44
343.437	1310.44
343.665	1352.44
343.893	1358.44
344.12	1410.44
344.348	1376.44
344.576	1381.44
344.804	1370.44
345.031	1296.44
345.259	1339.44
345.487	1318.44
345.714	1292.44
345.942	1269.44
346.17	1270.44
346.397	1240.44
346.625	1246.44
346.853	1260.44
347.08	1234.44
347.308	1247.44
347.535	1220.44
347.763	1232.44
347.99	1226.44
348.218	1234.44
348.445	1207.44
348.673	1197.44
348.9	1239.44
349.128	1258.44
349.355	1230.44
349.583	1268.44
349.81	1252.44
350.037	1245.44
350.265	1213.44
350.492	1216.44
350.72	1238.44
350.947	1230.44
351.174	1240.44
351.402	1216.44
351.629	1235.44
351.856	1266.44
352.083	1230.44
352.311	1212.44
352.538	1221.44
352.765	1208.44
352.992	1219.44
353.22	1195.44
353.447	1215.44
353.674	1207.44
353.901	1206.44
354.128	1201.44
354.355	1218.44
354.583	1235.44
354.81	1227.44
355.037	1216.44
355.264	1229.44
355.491	1248.44
355.718	1218.44
355.945	1255.44
356.172	1239.44
356.399	1243.44
356.626	1195.44
356.853	1256.44
357.08	1273.44
357.307	1282.44
357.534	1233.44
357.761	1231.44
357.988	1251.44
358.215	1271.44
358.441	1272.44
358.668	1247.44
358.895	1265.44
359.122	1233.44
359.349	1235.44
359.576	1210.44
359.802	1257.44
360.029	1225.44
360.256	1232.44
360.483	1244.44
360.709	1239.44
360.936	1258.44
361.163	1247.44
361.39	1233.44
361.616	1233.44
361.843	1257.44
362.07	1265.44
362.296	1268.44
362.523	1237.44
362.749	1273.44
362.976	1244.44
363.203	1273.44
363.429	1284.44
363.656	1265.44
363.882	1302.44
364.109	1253.44
364.335	1255.44
364.562	1234.44
364.788	1278.44
365.015	1280.44
365.241	1289.44
365.468	1258.44
365.694	1267.44
365.92	1260.44
366.147	1249.44
366.373	1296.44
366.599	1256.44
366.826	1237.44
367.052	1227.44
367.278	1294.44
367.505	1250.44
367.731	1300.44
367.957	1288.44
368.184	1299.44
368.41	1293.44
368.636	1288.44
368.862	1285.44
369.089	1299.44
369.315	1294.44
369.541	1303.44
369.767	1309.44
369.993	1334.44
370.219	1311.44
370.445	1334.44
370.672	1379.44
370.898	1336.44
371.124	1378.44
371.35	1332.44
371.576	1348.44
371.802	1341.44
372.028	1365.44
372.254	1358.44
372.48	1369.44
372.706	1370.44
372.932	1392.44
373.158	1384.44
373.384	1389.44
373.61	1425.44
373.835	1438.44
374.061	1415.44
374.287	1373.44
374.513	1411.44
374.739	1470.44
374.965	1471.44
375.191	1475.44
375.416	1401.44
375.642	1414.44
375.868	1402.44
376.094	1451.44
376.319	1406.44
376.545	1415.44
376.771	1405.44
376.997	1366.44
377.222	1357.44
377.448	1366.44
377.674	1374.44
377.899	1341.44
378.125	1353.44
378.35	1366.44
378.576	1350.44
378.802	1386.44
379.027	1362.44
379.253	1362.44
379.478	1346.44
379.704	1387.44
379.929	1371.44
380.155	1336.44
380.38	1354.44
380.606	1381.44
380.831	1388.44
381.057	1386.44
381.282	1381.44
381.507	1410.44
381.733	1414.44
381.958	1460.44
382.184	1483.44
382.409	1478.44
382.634	1494.44
382.86	1489.44
383.085	1433.44
383.31	1445.44
383.535	1465.44
383.761	1482.44
383.986	1469.44
384.211	1510.44
384.436	1499.44
384.662	1512.44
384.887	1509.44
385.112	1516.44
385.337	1528.44
385.562	1540.44
385.787	1544.44
386.013	1558.44
386.238	1573.44
386.463	1538.44
386.688	1603.44
386.913	1544.44
387.138	1578.44
387.363	1599.44
387.588	1570.44
387.813	1573.44
388.038	1618.44
388.263	1588.44
388.488	1576.44
388.713	1629.44
388.938	1600.44
389.163	1565.44
389.387	1595.44
389.612	1616.44
389.837	1627.44
390.062	1596.44
390.287	1627.44
390.512	1609.44
390.736	1625.44
390.961	1643.44
391.186	1620.44
391.411	1649.44
391.636	1679.44
391.86	1676.44
392.085	1678.44
392.31	1694.44
392.534	1686.44
392.759	1679.44
392.984	1665.44
393.208	1675.44
393.433	1698.44
393.658	1658.44
393.882	1651.44
394.107	1681.44
394.331	1688.44
394.556	1685.44
394.78	1659.44
395.005	1689.44
395.229	1699.44
395.454	1730.44
395.678	1701.44
395.903	1721.44
396.127	1746.44
396.352	1699.44
396.576	1703.44
396.801	1702.44
397.025	1772.44
397.249	1716.44
397.474	1762.44
397.698	1797.44
397.922	1802.44
398.147	1790.44
398.371	1820.44
398.595	1885.44
398.82	1893.44
399.044	1954.44
399.268	2012.44
399.492	2062.44
399.717	2164.44
399.941	2199.44
400.165	2153.44
400.389	2151.44
400.613	2076.44
400.837	1974.44
401.062	1973.44
401.286	1935.44
401.51	1910.44
401.734	1908.44
401.958	1897.44
402.182	1918.44
402.406	1874.44
402.63	1896.44
402.854	1919.44
403.078	1922.44
403.302	1926.44
403.526	1917.44
403.75	1912.44
403.974	1962.44
404.198	1933.44
404.422	1953.44
404.645	1949.44
404.869	1971.44
405.093	1950.44
405.317	1946.44
405.541	2001.44
405.765	2019.44
405.988	2002.44
406.212	1995.44
406.436	2045.44
406.66	2102.44
406.883	1996.44
407.107	2134.44
407.331	2182.44
407.555	2194.44
407.778	2173.44
408.002	2199.44
408.226	2158.44
408.449	2184.44
408.673	2112.44
408.896	2140.44
409.12	2090.44
409.344	2104.44
409.567	2034.44
409.791	2060.44
410.014	2033.44
410.238	2002.44
410.461	2000.44
410.685	2051.44
410.908	1992.44
411.132	2012.44
411.355	1979.44
411.578	1969.44
411.802	1952.44
412.025	1981.44
412.249	1995.44
412.472	1996.44
412.695	1962.44
412.919	1933.44
413.142	1937.44
413.365	1978.44
413.589	1956.44
413.812	1950.44
414.035	1897.44
414.258	1931.44
414.482	1930.44
414.705	1937.44
414.928	1906.44
415.151	1905.44
415.374	1893.44
415.597	1904.44
415.821	1883.44
416.044	1850.44
416.267	1853.44
416.49	1824.44
416.713	1864.44
416.936	1884.44
417.159	1844.44
417.382	1844.44
417.605	1849.44
417.828	1830.44
418.051	1863.44
418.274	1845.44
418.497	1797.44
418.72	1838.44
418.943	1819.44
419.166	1954.44
419.389	2042.44
419.611	1959.44
419.834	1947.44
420.057	1879.44
420.28	1876.44
420.503	1790.44
420.726	1817.44
420.948	1804.44
421.171	1790.44
421.394	1815.44
421.617	1847.44
421.839	1796.44
422.062	1811.44
422.285	1818.44
422.507	1845.44
422.73	1829.44
422.953	1792.44
423.175	1838.44
423.398	1809.44
423.621	1814.44
423.843	1849.44
424.066	1858.44
424.288	1819.44
424.511	1790.44
424.733	1795.44
424.956	1794.44
425.178	1801.44
425.401	1818.44
425.623	1830.44
425.846	1821.44
426.068	1822.44
426.291	1811.44
426.513	1779.44
426.735	1796.44
426.958	1833.44
427.18	1788.44
427.402	1797.44
427.625	1752.44
427.847	1704.44
428.069	1734.44
428.292	1740.44
428.514	1743.44
428.736	1760.44
428.958	1789.44
429.181	1736.44
429.403	1687.44
429.625	1761.44
429.847	1706.44
430.069	1765.44
430.292	1737.44
430.514	1698.44
430.736	1715.44
430.958	1783.44
431.18	1734.44
431.402	1730.44
431.624	1715.44
431.846	1746.44
432.068	1720.44
432.29	1777.44
432.512	1752.44
432.734	1817.44
432.956	1732.44
433.178	1780.44
433.4	1745.44
433.622	1763.44
433.844	1793.44
434.066	1740.44
434.287	1747.44
434.509	1789.44
434.731	1826.44
434.953	1827.44
435.175	1841.44
435.397	1851.44
435.618	1830.44
435.84	1785.44
436.062	1782.44
436.284	1733.44
436.505	1730.44
436.727	1740.44
436.949	1728.44
437.17	1718.44
437.392	1734.44
437.614	1725.44
437.835	1651.44
438.057	1683.44
438.278	1684.44
438.5	1717.44
438.721	1697.44
438.943	1712.44
439.165	1666.44
439.386	1660.44
439.608	1693.44
439.829	1693.44
440.05	1718.44
440.272	1720.44
440.493	1688.44
440.715	1759.44
440.936	1754.44
441.158	1756.44
441.379	1763.44
441.6	1766.44
441.822	1769.44
442.043	1783.44
442.264	1754.44
442.486	1740.44
442.707	1778.44
442.928	1796.44
443.149	1808.44
443.371	1786.44
443.592	1775.44
443.813	1797.44
444.034	1766.44
444.255	1827.44
444.476	1853.44
444.698	1892.44
444.919	1877.44
445.14	1965.44
445.361	1894.44
445.582	1805.44
445.803	1775.44
446.024	1768.44
446.245	1734.44
446.466	1739.44
446.687	1708.44
446.908	1720.44
447.129	1688.44
447.35	1652.44
447.571	1644.44
447.792	1670.44
448.013	1643.44
448.234	1642.44
448.455	1646.44
448.675	1628.44
448.896	1606.44
449.117	1573.44
449.338	1625.44
449.559	1593.44
449.779	1601.44
450	1571.44
450.221	1579.44
450.442	1597.44
450.662	1576.44
450.883	1549.44
451.104	1556.44
451.324	1532.44
451.545	1570.44
451.766	1550.44
451.986	1556.44
452.207	1552.44
452.428	1579.44
452.648	1544.44
452.869	1531.44
453.089	1557.44
453.31	1498.44
453.53	1475.44
453.751	1512.44
453.971	1509.44
454.192	1516.44
454.412	1508.44
454.633	1539.44
454.853	1515.44
455.073	1491.44
455.294	1530.44
455.514	1490.44
455.734	1505.44
455.955	1492.44
456.175	1510.44
456.395	1512.44
456.616	1501.44
456.836	1538.44
457.056	1524.44
457.276	1528.44
457.497	1550.44
457.717	1542.44
457.937	1560.44
458.157	1573.44
458.377	1579.44
458.598	1578.44
458.818	1608.44
459.038	1637.44
459.258	1611.44
459.478	1671.44
459.698	1712.44
459.918	1717.44
460.138	1732.44
460.358	1785.44
460.578	1794.44
460.798	1842.44
461.018	1827.44
461.238	1864.44
461.458	1832.44
461.678	1845.44
461.898	1877.44
462.118	1868.44
462.338	1948.44
462.558	1946.44
462.777	1990.44
462.997	2043.44
463.217	2056.44
463.437	2108.44
463.657	2062.44
463.876	2014.44
464.096	2021.44
464.316	2001.44
464.536	1994.44
464.755	1945.44
464.975	1958.44
465.195	1869.44
465.414	1845.44
465.634	1790.44
465.854	1820.44
466.073	1770.44
466.293	1755.44
466.512	1718.44
466.732	1720.44
466.951	1707.44
467.171	1707.44
467.391	1694.44
467.61	1701.44
467.829	1682.44
468.049	1658.44
468.268	1653.44
468.488	1664.44
468.707	1641.44
468.927	1705.44
469.146	1700.44
469.365	1671.44
469.585	1635.44
469.804	1710.44
470.023	1740.44
470.243	1693.44
470.462	1668.44
470.681	1701.44
470.901	1696.44
471.12	1654.44
471.339	1661.44
471.558	1708.44
471.777	1696.44
471.997	1693.44
472.216	1712.44
472.435	1745.44
472.654	1675.44
472.873	1639.44
473.092	1687.44
473.311	1689.44
473.53	1690.44
473.749	1679.44
473.968	1668.44
474.187	1688.44
474.406	1675.44
474.625	1691.44
474.844	1713.44
475.063	1738.44
475.282	1734.44
475.501	1737.44
475.72	1735.44
475.939	1737.44
476.158	1773.44
476.377	1835.44
476.596	1881.44
476.814	1956.44
477.033	1871.44
477.252	1834.44
477.471	1859.44
477.69	1856.44
477.908	1905.44
478.127	1939.44
478.346	1935.44
478.564	1945.44
478.783	1998.44
479.002	1998.44
479.22	2039.44
479.439	2108.44
479.658	2040.44
479.876	2025.44
480.095	2058.44
480.313	2082.44
480.532	2080.44
480.751	2075.44
480.969	2082.44
481.188	2137.44
481.406	2096.44
481.624	2132.44
481.843	2080.44
482.061	2055.44
482.28	2072.44
482.498	2104.44
482.717	2069.44
482.935	2061.44
483.153	2034.44
483.372	2044.44
483.59	2098.44
483.808	2084.44
484.027	2081.44
484.245	2039.44
484.463	2065.44
484.681	2104.44
484.9	2113.44
485.118	2110.44
485.336	2112.44
485.554	2078.44
485.772	2109.44
485.99	2110.44
486.209	2125.44
486.427	2148.44
486.645	2128.44
486.863	2127.44
487.081	2172.44
487.299	2160.44
487.517	2151.44
487.735	2103.44
487.953	2113.44
488.171	2116.44
488.389	2117.44
488.607	2116.44
488.825	2126.44
489.043	2127.44
489.261	2158.44
489.479	2133.44
489.696	2131.44
489.914	2119.44
490.132	2096.44
490.35	2089.44
490.568	2152.44
490.786	2126.44
491.003	2085.44
491.221	2170.44
491.439	2150.44
491.657	2114.44
491.874	2175.44
492.092	2203.44
492.31	2212.44
492.527	2120.44
492.745	2180.44
492.963	2179.44
493.18	2143.44
493.398	2129.44
493.615	2207.44
493.833	2172.44
494.05	2178.44
494.268	2190.44
494.485	2189.44
494.703	2179.44
494.92	2203.44
495.138	2196.44
495.355	2207.44
495.573	2224.44
495.79	2216.44
496.008	2250.44
496.225	2269.44
496.442	2260.44
496.66	2313.44
496.877	2307.44
497.094	2363.44
497.312	2391.44
497.529	2380.44
497.746	2457.44
497.963	2498.44
498.181	2552.44
498.398	2564.44
498.615	2730.44
498.832	2782.44
499.049	2921.44
499.267	2935.44
499.484	3024.44
499.701	3172.44
499.918	3289.44
500.135	3468.44
500.352	3588.44
500.569	3595.44
500.786	3602.44
501.003	3561.44
501.22	3470.44
501.437	3292.44
501.654	3163.44
501.871	3020.44
502.088	2935.44
502.305	2771.44
502.522	2754.44
502.739	2670.44
502.956	2590.44
503.172	2533.44
503.389	2412.44
503.606	2407.44
503.823	2381.44
504.04	2316.44
504.256	2308.44
504.473	2308.44
504.69	2284.44
504.907	2264.44
505.123	2212.44
505.34	2161.44
505.557	2118.44
505.773	2098.44
505.99	2060.44
506.207	2012.44
506.423	1997.44
506.64	2005.44
506.856	1992.44
507.073	1955.44
507.289	1923.44
507.506	1879.44
507.722	1940.44
507.939	1933.44
508.155	1938.44
508.372	1892.44
508.588	1838.44
508.805	1806.44
509.021	1830.44
509.238	1788.44
509.454	1770.44
509.67	1766.44
509.887	1791.44
510.103	1788.44
510.319	1756.44
510.536	1747.44
510.752	1697.44
510.968	1687.44
511.184	1728.44
511.401	1721.44
511.617	1706.44
511.833	1686.44
512.049	1687.44
512.265	1659.44
512.481	1671.44
512.698	1725.44
512.914	1729.44
513.13	1707.44
513.346	1719.44
513.562	1718.44
513.778	1710.44
513.994	1707.44
514.21	1707.44
514.426	1718.44
514.642	1701.44
514.858	1721.44
515.074	1722.44
515.29	1764.44
515.506	1745.44
515.721	1737.44
515.937	1748.44
516.153	1747.44
516.369	1769.44
516.585	1825.44
516.801	1845.44
517.016	1854.44
517.232	1876.44
517.448	1870.44
517.664	1894.44
517.879	1938.44
518.095	1852.44
518.311	1858.44
518.527	1852.44
518.742	1835.44
518.958	1829.44
519.173	1787.44
519.389	1816.44
519.605	1750.44
519.82	1748.44
520.036	1813.44
520.251	1779.44
520.467	1705.44
520.682	1697.44
520.898	1630.44
521.113	1647.44
521.329	1631.44
521.544	1629.44
521.76	1619.44
521.975	1589.44
522.19	1597.44
522.406	1591.44
522.621	1649.44
522.836	1631.44
523.052	1596.44
523.267	1557.44
523.482	1534.44
523.698	1560.44
523.913	1559.44
524.128	1505.44
524.343	1502.44
524.559	1550.44
524.774	1553.44
524.989	1542.44
525.204	1561.44
525.419	1558.44
525.634	1540.44
525.849	1549.44
526.064	1512.44
526.28	1482.44
526.495	1541.44
526.71	1522.44
526.925	1456.44
527.14	1483.44
527.355	1493.44
527.57	1496.44
527.785	1479.44
527.999	1497.44
528.214	1461.44
528.429	1463.44
528.644	1431.44
528.859	1456.44
529.074	1475.44
529.289	1435.44
529.503	1442.44
529.718	1455.44
529.933	1443.44
530.148	1460.44
530.363	1440.44
530.577	1476.44
530.792	1438.44
531.007	1425.44
531.221	1444.44
531.436	1410.44
531.651	1419.44
531.865	1414.44
532.08	1428.44
532.295	1432.44
532.509	1433.44
532.724	1428.44
532.938	1420.44
533.153	1414.44
533.367	1432.44
533.582	1415.44
533.796	1430.44
534.011	1441.44
534.225	1387.44
534.44	1404.44
534.654	1379.44
534.868	1400.44
535.083	1392.44
535.297	1385.44
535.511	1362.44
535.726	1396.44
535.94	1381.44
536.154	1388.44
536.369	1385.44
536.583	1338.44
536.797	1346.44
537.011	1348.44
537.225	1342.44
537.44	1348.44
537.654	1357.44
537.868	1336.44
538.082	1319.44
538.296	1338.44
538.51	1338.44
538.724	1338.44
538.938	1317.44
539.153	1300.44
539.367	1307.44
539.581	1323.44
539.795	1286.44
540.009	1319.44
540.222	1306.44
540.436	1312.44
540.65	1277.44
540.864	1278.44
541.078	1310.44
541.292	1301.44
541.506	1300.44
541.72	1297.44
541.934	1296.44
542.147	1272.44
542.361	1284.44
542.575	1296.44
542.789	1287.44
543.002	1282.44
543.216	1286.44
543.43	1292.44
543.644	1297.44
543.857	1286.44
544.071	1306.44
544.285	1300.44
544.498	1279.44
544.712	1279.44
544.925	1272.44
545.139	1247.44
545.352	1266.44
545.566	1284.44
545.779	1288.44
545.993	1287.44
546.206	1277.44
546.42	1284.44
546.633	1291.44
546.847	1307.44
547.06	1302.44
547.274	1281.44
547.487	1280.44
547.7	1298.44
547.914	1271.44
548.127	1289.44
548.34	1302.44
548.554	1290.44
548.767	1322.44
548.98	1300.44
549.193	1282.44
549.407	1299.44
549.62	1334.44
549.833	1298.44
550.046	1321.44
550.259	1310.44
550.473	1284.44
550.686	1290.44
550.899	1261.44
551.112	1265.44
551.325	1290.44
551.538	1318.44
551.751	1253.44
551.964	1236.44
552.177	1248.44
552.39	1277.44
552.603	1272.44
552.816	1265.44
553.029	1280.44
553.242	1264.44
553.455	1300.44
553.667	1286.44
553.88	1292.44
554.093	1276.44
554.306	1205.44
554.519	1228.44
554.732	1193.44
554.944	1211.44
555.157	1233.44
555.37	1205.44
555.583	1170.44
555.795	1164.44
556.008	1148.44
556.221	1149.44
556.433	1153.44
556.646	1133.44
556.859	1106.44
557.071	1124.44
557.284	1116.44
557.496	1107.44
557.709	1101.44
557.921	1097.44
558.134	1096.44
558.346	1097.44
558.559	1097.44
558.771	1084.44
558.984	1098.44
559.196	1110.44
559.409	1106.44
559.621	1100.44
559.833	1079.44
560.046	1085.44
560.258	1087.44
560.47	1081.44
560.683	1056.44
560.895	1085.44
561.107	1063.44
561.32	1067.44
561.532	1088.44
561.744	1080.44
561.956	1083.44
562.168	1068.44
562.381	1060.44
562.593	1061.44
562.805	1077.44
563.017	1056.44
563.229	1084.44
563.441	1084.44
563.653	1083.44
563.865	1097.44
564.077	1091.44
564.289	1121.44
564.501	1111.44
564.713	1128.44
564.925	1116.44
565.137	1124.44
565.349	1181.44
565.561	1164.44
565.773	1200.44
565.985	1210.44
566.197	1228.44
566.408	1249.44
566.62	1304.44
566.832	1310.44
567.044	1368.44
567.255	1335.44
567.467	1347.44
567.679	1377.44
567.891	1369.44
568.102	1350.44
568.314	1342.44
568.526	1287.44
568.737	1204.44
568.949	1243.44
569.161	1173.44
569.372	1165.44
569.584	1126.44
569.795	1116.44
570.007	1110.44
570.218	1069.44
570.43	1048.44
570.641	1022.44
570.853	1015.44
571.064	986.44
571.276	998.44
571.487	999.44
571.698	971.44
571.91	948.44
572.121	956.44
572.333	946.44
572.544	926.44
572.755	909.44
572.966	916.44
573.178	881.44
573.389	884.44
573.6	861.44
573.811	880.44
574.023	866.44
574.234	857.44
574.445	849.44
574.656	852.44
574.867	865.44
575.078	851.44
575.289	868.44
575.501	852.44
575.712	825.44
575.923	825.44
576.134	834.44
576.345	841.44
576.556	829.44
576.767	790.44
576.978	793.44
577.188	786.44
577.399	801.44
577.61	801.44
577.821	797.44
578.032	782.44
578.243	793.44
578.454	784.44
578.665	773.44
578.875	761.44
579.086	746.44
579.297	749.44
579.508	772.44
579.718	761.44
579.929	730.44
580.14	752.44
580.35	752.44
580.561	724.44
580.772	748.44
580.982	737.44
581.193	729.44
581.403	723.44
581.614	722.44
581.825	732.44
582.035	730.44
582.246	717.44
582.456	726.44
582.667	729.44
582.877	691.44
583.087	725.44
583.298	712.44
583.508	690.44
583.719	711.44
583.929	714.44
584.139	717.44
584.35	701.44
584.56	711.44
584.77	712.44
584.981	710.44
585.191	675.44
585.401	687.44
585.611	666.44
585.821	701.44
586.032	680.44
586.242	709.44
586.452	668.44
586.662	675.44
586.872	700.44
587.082	682.44
587.292	697.44
587.502	695.44
587.713	677.44
587.923	688.44
588.133	684.44
588.343	689.44
588.553	676.44
588.762	692.44
588.972	667.44
589.182	697.44
589.392	690.44
589.602	704.44
589.812	683.44
590.022	689.44
590.232	665.44
590.441	679.44
590.651	692.44
590.861	668.44
591.071	656.44
591.281	658.44
591.49	663.44
591.7	701.44
591.91	688.44
592.119	684.44
592.329	683.44
592.539	696.44
592.748	724.44
592.958	684.44
593.167	698.44
593.377	718.44
593.587	711.44
593.796	738.44
594.006	725.44
594.215	701.44
594.424	700.44
594.634	677.44
594.843	692.44
595.053	648.44
595.262	666.44
595.472	652.44
595.681	659.44
595.89	645.44
596.1	636.44
596.309	644.44
596.518	615.44
596.727	628.44
596.937	619.44
597.146	625.44
597.355	616.44
597.564	610.44
597.774	598.44
597.983	582.44
598.192	600.44
598.401	610.44
598.61	569.44
598.819	561.44
599.028	561.44
599.237	579.44
599.446	565.44
599.655	575.44
599.864	574.44
600.073	558.44
600.282	570.44
600.491	562.44
600.7	567.44
600.909	556.44
601.118	564.44
601.327	536.44
601.536	549.44
601.745	568.44
601.953	542.44
602.162	537.44
602.371	551.44
602.58	540.44
602.789	552.44
602.997	560.44
603.206	550.44
603.415	555.44
603.623	521.44
603.832	523.44
604.041	541.44
604.249	527.44
604.458	522.44
604.666	514.44
604.875	523.44
605.084	524.44
605.292	523.44
605.501	514.44
605.709	522.44
605.918	511.44
606.126	519.44
606.334	522.44
606.543	522.44
606.751	537.44
606.96	526.44
607.168	488.44
607.376	505.44
607.585	500.44
607.793	514.44
608.001	499.44
608.21	492.44
608.418	502.44
608.626	523.44
608.834	496.44
609.043	502.44
609.251	488.44
609.459	465.44
609.667	495.44
609.875	487.44
610.083	487.44
610.291	518.44
610.499	500.44
610.707	494.44
610.916	489.44
611.124	470.44
611.332	490.44
611.54	496.44
611.748	481.44
611.955	480.44
612.163	484.44
612.371	450.44
612.579	484.44
612.787	477.44
612.995	476.44
613.203	482.44
613.411	450.44
613.618	451.44
613.826	462.44
614.034	471.44
614.242	507.44
614.449	472.44
614.657	444.44
614.865	457.44
615.072	477.44
615.28	485.44
615.488	482.44
615.695	466.44
615.903	451.44
616.111	444.44
616.318	456.44
616.526	461.44
616.733	467.44
616.941	453.44
617.148	458.44
617.356	442.44
617.563	468.44
617.771	477.44
617.978	452.44
618.185	466.44
618.393	461.44
618.6	450.44
618.807	482.44
619.015	444.44
619.222	434.44
619.429	430.44
619.637	442.44
619.844	450.44
620.051	433.44
620.258	443.44
620.466	409.44
620.673	426.44
620.88	415.44
621.087	417.44
621.294	417.44
621.501	422.44
621.708	426.44
621.915	435.44
622.122	436.44
622.329	410.44
622.536	426.44
622.743	427.44
622.95	427.44
623.157	388.44
623.364	416.44
623.571	411.44
623.778	422.44
623.985	435.44
624.192	418.44
624.399	412.44
624.606	410.44
624.812	389.44
625.019	412.44
625.226	425.44
625.433	425.44
625.639	399.44
625.846	391.44
626.053	405.44
626.259	403.44
626.466	416.44
626.673	423.44
626.879	384.44
627.086	375.44
627.293	394.44
627.499	384.44
627.706	398.44
627.912	400.44
628.119	394.44
628.325	381.44
628.532	377.44
628.738	395.44
628.945	397.44
629.151	378.44
629.357	390.44
629.564	380.44
629.77	384.44
629.976	372.44
630.183	376.44
630.389	377.44
630.595	378.44
630.802	358.44
631.008	389.44
631.214	371.44
631.42	362.44
631.627	359.44
631.833	351.44
632.039	357.44
632.245	362.44
632.451	344.44
632.657	363.44
632.863	369.44
633.069	349.44
633.275	371.44
633.481	366.44
633.688	359.44
633.893	347.44
634.099	341.44
634.305	322.44
634.511	334.44
634.717	350.44
634.923	344.44
635.129	338.44
635.335	364.44
635.541	339.44
635.747	334.44
635.952	344.44
636.158	342.44
636.364	342.44
636.57	368.44
636.775	356.44
636.981	338.44
637.187	345.44
637.392	341.44
637.598	345.44
637.804	334.44
638.009	352.44
638.215	343.44
638.421	311.44
638.626	336.44
638.832	335.44
639.037	325.44
639.243	354.44
639.448	338.44
639.654	345.44
639.859	353.44
640.065	343.44
640.27	333.44
640.475	341.44
640.681	339.44
640.886	328.44
641.091	334.44
641.297	333.44
641.502	321.44
641.707	338.44
641.913	327.44
642.118	343.44
642.323	335.44
642.528	344.44
642.733	324.44
642.939	331.44
643.144	323.44
643.349	340.44
643.554	325.44
643.759	334.44
643.964	327.44
644.169	334.44
644.374	324.44
644.579	337.44
644.784	324.44
644.989	336.44
645.194	345.44
645.399	337.44
645.604	316.44
645.809	325.44
646.014	340.44
646.219	333.44
646.423	350.44
646.628	342.44
646.833	332.44
647.038	329.44
647.243	326.44
647.447	343.44
647.652	364.44
647.857	358.44
648.062	335.44
648.266	338.44
648.471	335.44
648.676	349.44
648.88	335.44
649.085	361.44
649.289	350.44
649.494	346.44
649.698	350.44
649.903	354.44
650.107	344.44
650.312	375.44
650.516	336.44
650.721	352.44
650.925	342.44
651.13	341.44
651.334	334.44
651.539	336.44
651.743	349.44
651.947	320.44
652.152	331.44
652.356	321.44
652.56	334.44
652.764	330.44
652.969	329.44
653.173	337.44
653.377	319.44
653.581	320.44
653.785	336.44
653.99	316.44
654.194	336.44
654.398	312.44
654.602	337.44
654.806	330.44
655.01	329.44
655.214	317.44
655.418	344.44
655.622	329.44
655.826	350.44
656.03	356.44
656.234	352.44
656.438	347.44
656.642	345.44
656.846	344.44
657.049	326.44
657.253	322.44
657.457	274.44
657.661	272.44
657.865	256.44
658.068	257.44
658.272	237.44
658.476	224.44
658.68	207.44
658.883	191.44
659.087	176.44
659.291	191.44
659.494	166.44
659.698	173.44
659.901	144.44
660.105	152.44
660.309	146.44
660.512	136.44
660.716	125.44
660.919	117.44
661.123	135.44
661.326	123.44
661.53	110.44
661.733	114.44
661.936	103.44
662.14	98.44
662.343	97.44
662.546	85.44
662.75	90.44
662.953	89.44
663.156	71.44
663.36	83.44
663.563	90.44
663.766	95.44
663.969	82.44
664.173	93.44
664.376	94.44
664.579	93.44
664.782	86.44
664.985	107.44
665.188	96.44
665.391	84.44
665.594	79.44
665.797	80.44
666	81.44
666.203	83.44
666.406	76.44
666.609	78.44
666.812	91.44
667.015	65.44
667.218	89.44
667.421	86.44
667.624	91.44
667.827	78.44
668.03	67.44
668.232	84.44
668.435	84.44
668.638	89.44
668.841	99.44
669.043	78.44
669.246	81.44
669.449	80.44
669.651	92.44
669.854	97.44
670.057	87.44
670.259	66.44
670.462	77.44
670.665	81.44
670.867	94.44
671.07	81.44
671.272	73.44
671.475	77.44
671.677	99.44
671.88	89.44
672.082	91.44
672.284	83.44
672.487	84.44
672.689	80.44
672.892	82.44
