Data from Fe(NO3)3@0.1M.TitratingCurve.Agarose3%dH2O.NegLispCup.LampEnergy10.LIBS07252019_HRD10591_16-42-08-333.txt Node
Date: Thu Jul 25 16:42:08 EDT 2019
User: cochatt
Spectrometer: HR+D1059
Trigger mode: 1
Integration Time (sec): 1.000000E-1
Scans to average: 1
Electric dark correction enabled: true
Nonlinearity correction enabled: false
Boxcar width: 0
XAxis mode: Wavelengths
Number of Pixels in Spectrum: 2048
>>>>>Begin Spectral Data<<<<<
223.165	-18.06
223.4	-18.06
223.635	-18.06
223.869	-15.06
224.104	-15.06
224.338	-19.06
224.573	-17.06
224.808	-19.06
225.042	-2.06
225.277	-3.06
225.511	-2.06
225.746	6.94
225.98	10.94
226.215	7.94
226.449	11.94
226.683	16.94
226.918	28.94
227.152	26.94
227.387	32.94
227.621	34.94
227.856	28.94
228.09	35.94
228.324	44.94
228.559	57.94
228.793	63.94
229.027	83.94
229.262	92.94
229.496	99.94
229.73	106.94
229.964	86.94
230.199	106.94
230.433	91.94
230.667	109.94
230.901	120.94
231.136	116.94
231.37	113.94
231.604	110.94
231.838	119.94
232.072	114.94
232.306	125.94
232.541	125.94
232.775	116.94
233.009	103.94
233.243	131.94
233.477	134.94
233.711	128.94
233.945	110.94
234.179	125.94
234.413	126.94
234.647	125.94
234.881	129.94
235.115	104.94
235.349	124.94
235.583	119.94
235.817	125.94
236.051	119.94
236.285	128.94
236.519	135.94
236.753	135.94
236.987	141.94
237.221	120.94
237.455	133.94
237.689	134.94
237.922	132.94
238.156	138.94
238.39	125.94
238.624	129.94
238.858	128.94
239.091	130.94
239.325	125.94
239.559	148.94
239.793	138.94
240.027	134.94
240.26	140.94
240.494	137.94
240.728	123.94
240.961	131.94
241.195	130.94
241.429	130.94
241.662	140.94
241.896	143.94
242.13	135.94
242.363	137.94
242.597	134.94
242.83	147.94
243.064	143.94
243.298	138.94
243.531	148.94
243.765	155.94
243.998	152.94
244.232	152.94
244.465	168.94
244.699	162.94
244.932	161.94
245.166	155.94
245.399	140.94
245.633	150.94
245.866	148.94
246.099	150.94
246.333	166.94
246.566	152.94
246.8	141.94
247.033	156.94
247.266	158.94
247.5	160.94
247.733	172.94
247.966	160.94
248.2	164.94
248.433	166.94
248.666	152.94
248.899	174.94
249.133	167.94
249.366	164.94
249.599	177.94
249.832	162.94
250.066	174.94
250.299	178.94
250.532	162.94
250.765	164.94
250.998	163.94
251.231	178.94
251.465	188.94
251.698	165.94
251.931	182.94
252.164	176.94
252.397	188.94
252.63	180.94
252.863	177.94
253.096	190.94
253.329	180.94
253.562	185.94
253.795	186.94
254.028	200.94
254.261	197.94
254.494	161.94
254.727	195.94
254.96	188.94
255.193	191.94
255.426	193.94
255.659	191.94
255.892	226.94
256.124	200.94
256.357	193.94
256.59	202.94
256.823	204.94
257.056	210.94
257.289	206.94
257.521	193.94
257.754	188.94
257.987	204.94
258.22	185.94
258.452	204.94
258.685	210.94
258.918	204.94
259.151	203.94
259.383	203.94
259.616	199.94
259.849	215.94
260.081	212.94
260.314	198.94
260.547	214.94
260.779	198.94
261.012	203.94
261.244	202.94
261.477	212.94
261.71	231.94
261.942	210.94
262.175	212.94
262.407	211.94
262.64	212.94
262.872	236.94
263.105	226.94
263.337	211.94
263.57	226.94
263.802	216.94
264.035	217.94
264.267	227.94
264.499	232.94
264.732	225.94
264.964	219.94
265.197	236.94
265.429	224.94
265.661	224.94
265.894	241.94
266.126	218.94
266.358	245.94
266.591	241.94
266.823	236.94
267.055	254.94
267.287	243.94
267.52	242.94
267.752	244.94
267.984	238.94
268.216	244.94
268.448	256.94
268.681	248.94
268.913	231.94
269.145	235.94
269.377	244.94
269.609	246.94
269.841	242.94
270.073	259.94
270.306	262.94
270.538	249.94
270.77	249.94
271.002	237.94
271.234	261.94
271.466	268.94
271.698	257.94
271.93	247.94
272.162	256.94
272.394	261.94
272.626	256.94
272.858	261.94
273.09	263.94
273.322	262.94
273.553	261.94
273.785	268.94
274.017	289.94
274.249	283.94
274.481	258.94
274.713	262.94
274.945	260.94
275.176	265.94
275.408	276.94
275.64	274.94
275.872	267.94
276.104	267.94
276.335	266.94
276.567	266.94
276.799	265.94
277.031	277.94
277.262	278.94
277.494	276.94
277.726	284.94
277.957	284.94
278.189	300.94
278.421	290.94
278.652	279.94
278.884	276.94
279.115	270.94
279.347	283.94
279.579	278.94
279.81	290.94
280.042	296.94
280.273	296.94
280.505	267.94
280.736	299.94
280.968	298.94
281.199	308.94
281.431	287.94
281.662	295.94
281.894	301.94
282.125	279.94
282.356	295.94
282.588	309.94
282.819	299.94
283.051	290.94
283.282	321.94
283.513	298.94
283.745	316.94
283.976	300.94
284.207	321.94
284.439	321.94
284.67	329.94
284.901	298.94
285.132	308.94
285.364	316.94
285.595	296.94
285.826	296.94
286.057	315.94
286.288	320.94
286.52	319.94
286.751	299.94
286.982	324.94
287.213	294.94
287.444	310.94
287.675	320.94
287.906	336.94
288.138	331.94
288.369	321.94
288.6	316.94
288.831	344.94
289.062	334.94
289.293	337.94
289.524	321.94
289.755	332.94
289.986	314.94
290.217	351.94
290.448	328.94
290.679	326.94
290.91	338.94
291.141	330.94
291.371	313.94
291.602	341.94
291.833	329.94
292.064	349.94
292.295	328.94
292.526	353.94
292.757	310.94
292.987	341.94
293.218	348.94
293.449	333.94
293.68	329.94
293.91	334.94
294.141	325.94
294.372	344.94
294.603	346.94
294.833	330.94
295.064	342.94
295.295	343.94
295.525	330.94
295.756	340.94
295.987	348.94
296.217	346.94
296.448	342.94
296.679	363.94
296.909	343.94
297.14	340.94
297.37	350.94
297.601	344.94
297.831	345.94
298.062	350.94
298.292	336.94
298.523	371.94
298.753	357.94
298.984	355.94
299.214	349.94
299.445	376.94
299.675	360.94
299.905	362.94
300.136	345.94
300.366	358.94
300.597	360.94
300.827	359.94
301.057	370.94
301.288	361.94
301.518	363.94
301.748	361.94
301.979	368.94
302.209	376.94
302.439	383.94
302.669	385.94
302.9	373.94
303.13	357.94
303.36	374.94
303.59	365.94
303.82	397.94
304.051	372.94
304.281	381.94
304.511	375.94
304.741	372.94
304.971	381.94
305.201	364.94
305.431	376.94
305.661	363.94
305.891	386.94
306.121	374.94
306.352	388.94
306.582	355.94
306.812	363.94
307.042	371.94
307.272	384.94
307.502	379.94
307.731	369.94
307.961	392.94
308.191	380.94
308.421	394.94
308.651	389.94
308.881	369.94
309.111	393.94
309.341	364.94
309.571	372.94
309.8	380.94
310.03	368.94
310.26	372.94
310.49	365.94
310.72	368.94
310.949	376.94
311.179	382.94
311.409	372.94
311.639	377.94
311.868	381.94
312.098	391.94
312.328	402.94
312.557	401.94
312.787	388.94
313.017	412.94
313.246	381.94
313.476	382.94
313.706	389.94
313.935	409.94
314.165	403.94
314.394	393.94
314.624	405.94
314.853	384.94
315.083	394.94
315.312	388.94
315.542	390.94
315.771	390.94
316.001	401.94
316.23	403.94
316.46	392.94
316.689	382.94
316.919	401.94
317.148	388.94
317.377	394.94
317.607	388.94
317.836	371.94
318.065	377.94
318.295	415.94
318.524	395.94
318.753	386.94
318.983	405.94
319.212	398.94
319.441	417.94
319.67	401.94
319.9	405.94
320.129	403.94
320.358	383.94
320.587	407.94
320.816	390.94
321.046	417.94
321.275	412.94
321.504	399.94
321.733	399.94
321.962	380.94
322.191	385.94
322.42	397.94
322.649	408.94
322.878	402.94
323.108	416.94
323.337	405.94
323.566	419.94
323.795	423.94
324.024	417.94
324.253	439.94
324.482	422.94
324.71	402.94
324.939	419.94
325.168	412.94
325.397	425.94
325.626	417.94
325.855	426.94
326.084	448.94
326.313	450.94
326.542	418.94
326.77	437.94
326.999	436.94
327.228	417.94
327.457	442.94
327.686	424.94
327.914	430.94
328.143	432.94
328.372	436.94
328.6	445.94
328.829	439.94
329.058	429.94
329.287	438.94
329.515	454.94
329.744	445.94
329.972	449.94
330.201	436.94
330.43	447.94
330.658	444.94
330.887	443.94
331.115	451.94
331.344	440.94
331.572	450.94
331.801	450.94
332.03	457.94
332.258	485.94
332.486	503.94
332.715	511.94
332.943	516.94
333.172	521.94
333.4	520.94
333.629	553.94
333.857	549.94
334.085	564.94
334.314	526.94
334.542	530.94
334.771	555.94
334.999	538.94
335.227	546.94
335.455	524.94
335.684	530.94
335.912	523.94
336.14	518.94
336.369	514.94
336.597	499.94
336.825	504.94
337.053	545.94
337.281	513.94
337.51	516.94
337.738	516.94
337.966	483.94
338.194	484.94
338.422	484.94
338.65	485.94
338.878	479.94
339.106	470.94
339.334	470.94
339.562	467.94
339.79	488.94
340.018	471.94
340.246	469.94
340.474	459.94
340.702	470.94
340.93	475.94
341.158	461.94
341.386	455.94
341.614	472.94
341.842	442.94
342.07	441.94
342.298	450.94
342.526	456.94
342.754	471.94
342.981	456.94
343.209	461.94
343.437	499.94
343.665	499.94
343.893	537.94
344.12	521.94
344.348	538.94
344.576	531.94
344.804	504.94
345.031	466.94
345.259	482.94
345.487	478.94
345.714	452.94
345.942	460.94
346.17	455.94
346.397	457.94
346.625	456.94
346.853	432.94
347.08	444.94
347.308	483.94
347.535	439.94
347.763	460.94
347.99	448.94
348.218	452.94
348.445	441.94
348.673	440.94
348.9	439.94
349.128	455.94
349.355	434.94
349.583	448.94
349.81	437.94
350.037	440.94
350.265	432.94
350.492	424.94
350.72	421.94
350.947	438.94
351.174	441.94
351.402	438.94
351.629	434.94
351.856	444.94
352.083	412.94
352.311	420.94
352.538	433.94
352.765	416.94
352.992	430.94
353.22	432.94
353.447	431.94
353.674	430.94
353.901	434.94
354.128	432.94
354.355	439.94
354.583	427.94
354.81	446.94
355.037	434.94
355.264	425.94
355.491	419.94
355.718	411.94
355.945	413.94
356.172	427.94
356.399	448.94
356.626	443.94
356.853	437.94
357.08	442.94
357.307	462.94
357.534	425.94
357.761	449.94
357.988	432.94
358.215	429.94
358.441	447.94
358.668	443.94
358.895	423.94
359.122	432.94
359.349	445.94
359.576	438.94
359.802	445.94
360.029	417.94
360.256	452.94
360.483	440.94
360.709	432.94
360.936	439.94
361.163	435.94
361.39	439.94
361.616	415.94
361.843	457.94
362.07	447.94
362.296	435.94
362.523	436.94
362.749	434.94
362.976	441.94
363.203	440.94
363.429	436.94
363.656	425.94
363.882	428.94
364.109	458.94
364.335	438.94
364.562	437.94
364.788	438.94
365.015	433.94
365.241	416.94
365.468	436.94
365.694	429.94
365.92	434.94
366.147	442.94
366.373	445.94
366.599	426.94
366.826	452.94
367.052	454.94
367.278	444.94
367.505	440.94
367.731	426.94
367.957	442.94
368.184	446.94
368.41	459.94
368.636	469.94
368.862	448.94
369.089	459.94
369.315	460.94
369.541	464.94
369.767	435.94
369.993	448.94
370.219	465.94
370.445	454.94
370.672	469.94
370.898	450.94
371.124	478.94
371.35	468.94
371.576	506.94
371.802	457.94
372.028	487.94
372.254	485.94
372.48	470.94
372.706	501.94
372.932	472.94
373.158	472.94
373.384	500.94
373.61	461.94
373.835	481.94
374.061	478.94
374.287	478.94
374.513	465.94
374.739	498.94
374.965	520.94
375.191	544.94
375.416	498.94
375.642	482.94
375.868	520.94
376.094	506.94
376.319	491.94
376.545	498.94
376.771	486.94
376.997	485.94
377.222	477.94
377.448	457.94
377.674	466.94
377.899	470.94
378.125	475.94
378.35	467.94
378.576	466.94
378.802	489.94
379.027	481.94
379.253	471.94
379.478	472.94
379.704	466.94
379.929	472.94
380.155	474.94
380.38	475.94
380.606	481.94
380.831	477.94
381.057	480.94
381.282	480.94
381.507	481.94
381.733	484.94
381.958	493.94
382.184	491.94
382.409	497.94
382.634	491.94
382.86	484.94
383.085	499.94
383.31	514.94
383.535	540.94
383.761	529.94
383.986	541.94
384.211	528.94
384.436	551.94
384.662	548.94
384.887	558.94
385.112	576.94
385.337	563.94
385.562	562.94
385.787	560.94
386.013	568.94
386.238	564.94
386.463	561.94
386.688	563.94
386.913	547.94
387.138	554.94
387.363	600.94
387.588	563.94
387.813	568.94
388.038	571.94
388.263	536.94
388.488	538.94
388.713	581.94
388.938	577.94
389.163	560.94
389.387	588.94
389.612	534.94
389.837	554.94
390.062	580.94
390.287	556.94
390.512	549.94
390.736	561.94
390.961	576.94
391.186	587.94
391.411	606.94
391.636	612.94
391.86	606.94
392.085	628.94
392.31	604.94
392.534	616.94
392.759	612.94
392.984	613.94
393.208	596.94
393.433	595.94
393.658	585.94
393.882	605.94
394.107	587.94
394.331	610.94
394.556	594.94
394.78	604.94
395.005	624.94
395.229	601.94
395.454	626.94
395.678	635.94
395.903	649.94
396.127	599.94
396.352	625.94
396.576	614.94
396.801	600.94
397.025	633.94
397.249	607.94
397.474	645.94
397.698	642.94
397.922	642.94
398.147	632.94
398.371	682.94
398.595	661.94
398.82	688.94
399.044	747.94
399.268	777.94
399.492	885.94
399.717	941.94
399.941	957.94
400.165	892.94
400.389	796.94
400.613	781.94
400.837	756.94
401.062	714.94
401.286	712.94
401.51	722.94
401.734	684.94
401.958	708.94
402.182	700.94
402.406	718.94
402.63	715.94
402.854	720.94
403.078	755.94
403.302	767.94
403.526	768.94
403.75	782.94
403.974	748.94
404.198	774.94
404.422	770.94
404.645	762.94
404.869	767.94
405.093	774.94
405.317	748.94
405.541	755.94
405.765	774.94
405.988	765.94
406.212	767.94
406.436	765.94
406.66	769.94
406.883	775.94
407.107	824.94
407.331	845.94
407.555	846.94
407.778	875.94
408.002	839.94
408.226	838.94
408.449	805.94
408.673	773.94
408.896	793.94
409.12	799.94
409.344	783.94
409.567	778.94
409.791	774.94
410.014	766.94
410.238	757.94
410.461	765.94
410.685	744.94
410.908	736.94
411.132	777.94
411.355	737.94
411.578	738.94
411.802	730.94
412.025	749.94
412.249	733.94
412.472	719.94
412.695	742.94
412.919	682.94
413.142	731.94
413.365	740.94
413.589	717.94
413.812	706.94
414.035	715.94
414.258	710.94
414.482	730.94
414.705	730.94
414.928	705.94
415.151	701.94
415.374	694.94
415.597	724.94
415.821	718.94
416.044	664.94
416.267	702.94
416.49	692.94
416.713	701.94
416.936	678.94
417.159	698.94
417.382	684.94
417.605	672.94
417.828	684.94
418.051	678.94
418.274	681.94
418.497	684.94
418.72	689.94
418.943	708.94
419.166	738.94
419.389	753.94
419.611	762.94
419.834	720.94
420.057	702.94
420.28	682.94
420.503	672.94
420.726	689.94
420.948	687.94
421.171	690.94
421.394	673.94
421.617	681.94
421.839	704.94
422.062	705.94
422.285	703.94
422.507	720.94
422.73	676.94
422.953	696.94
423.175	707.94
423.398	737.94
423.621	731.94
423.843	730.94
424.066	716.94
424.288	736.94
424.511	712.94
424.733	717.94
424.956	684.94
425.178	686.94
425.401	707.94
425.623	678.94
425.846	659.94
426.068	698.94
426.291	630.94
426.513	627.94
426.735	636.94
426.958	683.94
427.18	642.94
427.402	656.94
427.625	634.94
427.847	643.94
428.069	637.94
428.292	658.94
428.514	644.94
428.736	661.94
428.958	655.94
429.181	625.94
429.403	635.94
429.625	631.94
429.847	617.94
430.069	624.94
430.292	638.94
430.514	636.94
430.736	641.94
430.958	613.94
431.18	635.94
431.402	640.94
431.624	613.94
431.846	638.94
432.068	638.94
432.29	628.94
432.512	620.94
432.734	638.94
432.956	618.94
433.178	676.94
433.4	650.94
433.622	642.94
433.844	662.94
434.066	652.94
434.287	638.94
434.509	669.94
434.731	678.94
434.953	675.94
435.175	714.94
435.397	694.94
435.618	650.94
435.84	652.94
436.062	641.94
436.284	636.94
436.505	643.94
436.727	639.94
436.949	630.94
437.17	634.94
437.392	626.94
437.614	628.94
437.835	610.94
438.057	629.94
438.278	600.94
438.5	616.94
438.721	621.94
438.943	619.94
439.165	615.94
439.386	615.94
439.608	657.94
439.829	644.94
440.05	632.94
440.272	664.94
440.493	630.94
440.715	632.94
440.936	659.94
441.158	676.94
441.379	670.94
441.6	688.94
441.822	714.94
442.043	693.94
442.264	698.94
442.486	685.94
442.707	691.94
442.928	695.94
443.149	684.94
443.371	680.94
443.592	679.94
443.813	673.94
444.034	674.94
444.255	728.94
444.476	758.94
444.698	797.94
444.919	792.94
445.14	869.94
445.361	792.94
445.582	716.94
445.803	686.94
446.024	683.94
446.245	696.94
446.466	655.94
446.687	622.94
446.908	650.94
447.129	640.94
447.35	643.94
447.571	617.94
447.792	606.94
448.013	621.94
448.234	610.94
448.455	606.94
448.675	588.94
448.896	609.94
449.117	596.94
449.338	589.94
449.559	582.94
449.779	592.94
450	594.94
450.221	606.94
450.442	585.94
450.662	585.94
450.883	597.94
451.104	598.94
451.324	613.94
451.545	599.94
451.766	608.94
451.986	586.94
452.207	604.94
452.428	603.94
452.648	600.94
452.869	559.94
453.089	573.94
453.31	584.94
453.53	582.94
453.751	577.94
453.971	553.94
454.192	553.94
454.412	563.94
454.633	560.94
454.853	562.94
455.073	535.94
455.294	558.94
455.514	570.94
455.734	564.94
455.955	564.94
456.175	567.94
456.395	564.94
456.616	550.94
456.836	544.94
457.056	570.94
457.276	546.94
457.497	575.94
457.717	554.94
457.937	571.94
458.157	568.94
458.377	584.94
458.598	591.94
458.818	595.94
459.038	616.94
459.258	627.94
459.478	634.94
459.698	641.94
459.918	676.94
460.138	670.94
460.358	702.94
460.578	709.94
460.798	739.94
461.018	712.94
461.238	725.94
461.458	717.94
461.678	729.94
461.898	719.94
462.118	732.94
462.338	760.94
462.558	779.94
462.777	798.94
462.997	869.94
463.217	905.94
463.437	914.94
463.657	851.94
463.876	810.94
464.096	845.94
464.316	788.94
464.536	809.94
464.755	788.94
464.975	762.94
465.195	732.94
465.414	682.94
465.634	674.94
465.854	662.94
466.073	664.94
466.293	663.94
466.512	618.94
466.732	617.94
466.951	625.94
467.171	618.94
467.391	637.94
467.61	624.94
467.829	586.94
468.049	605.94
468.268	578.94
468.488	579.94
468.707	601.94
468.927	600.94
469.146	602.94
469.365	603.94
469.585	604.94
469.804	610.94
470.023	636.94
470.243	634.94
470.462	615.94
470.681	624.94
470.901	632.94
471.12	623.94
471.339	609.94
471.558	611.94
471.777	584.94
471.997	598.94
472.216	594.94
472.435	585.94
472.654	589.94
472.873	596.94
473.092	577.94
473.311	590.94
473.53	568.94
473.749	574.94
473.968	572.94
474.187	565.94
474.406	564.94
474.625	562.94
474.844	578.94
475.063	589.94
475.282	579.94
475.501	590.94
475.72	588.94
475.939	591.94
476.158	582.94
476.377	620.94
476.596	637.94
476.814	614.94
477.033	613.94
477.252	589.94
477.471	624.94
477.69	634.94
477.908	658.94
478.127	662.94
478.346	664.94
478.564	682.94
478.783	674.94
479.002	668.94
479.22	702.94
479.439	696.94
479.658	695.94
479.876	707.94
480.095	702.94
480.313	725.94
480.532	736.94
480.751	757.94
480.969	692.94
481.188	683.94
481.406	688.94
481.624	642.94
481.843	662.94
482.061	656.94
482.28	662.94
482.498	674.94
482.717	660.94
482.935	648.94
483.153	649.94
483.372	642.94
483.59	659.94
483.808	662.94
484.027	673.94
484.245	667.94
484.463	648.94
484.681	663.94
484.9	661.94
485.118	666.94
485.336	640.94
485.554	652.94
485.772	665.94
485.99	668.94
486.209	676.94
486.427	677.94
486.645	686.94
486.863	691.94
487.081	665.94
487.299	669.94
487.517	676.94
487.735	650.94
487.953	690.94
488.171	697.94
488.389	682.94
488.607	654.94
488.825	645.94
489.043	646.94
489.261	668.94
489.479	672.94
489.696	653.94
489.914	682.94
490.132	685.94
490.35	677.94
490.568	672.94
490.786	685.94
491.003	667.94
491.221	690.94
491.439	673.94
491.657	673.94
491.874	710.94
492.092	686.94
492.31	677.94
492.527	707.94
492.745	707.94
492.963	700.94
493.18	728.94
493.398	702.94
493.615	706.94
493.833	719.94
494.05	731.94
494.268	719.94
494.485	743.94
494.703	732.94
494.92	713.94
495.138	705.94
495.355	716.94
495.573	713.94
495.79	708.94
496.008	722.94
496.225	745.94
496.442	743.94
496.66	748.94
496.877	765.94
497.094	791.94
497.312	774.94
497.529	806.94
497.746	822.94
497.963	838.94
498.181	869.94
498.398	896.94
498.615	949.94
498.832	976.94
499.049	1056.94
499.267	1102.94
499.484	1201.94
499.701	1284.94
499.918	1422.94
500.135	1543.94
500.352	1672.94
500.569	1737.94
500.786	1720.94
501.003	1662.94
501.22	1533.94
501.437	1399.94
501.654	1245.94
501.871	1164.94
502.088	1125.94
502.305	990.94
502.522	995.94
502.739	959.94
502.956	885.94
503.172	892.94
503.389	898.94
503.606	831.94
503.823	805.94
504.04	832.94
504.256	785.94
504.473	798.94
504.69	856.94
504.907	810.94
505.123	773.94
505.34	758.94
505.557	723.94
505.773	711.94
505.99	682.94
506.207	686.94
506.423	680.94
506.64	666.94
506.856	688.94
507.073	651.94
507.289	651.94
507.506	619.94
507.722	615.94
507.939	662.94
508.155	603.94
508.372	619.94
508.588	622.94
508.805	614.94
509.021	625.94
509.238	616.94
509.454	614.94
509.67	589.94
509.887	584.94
510.103	570.94
510.319	598.94
510.536	594.94
510.752	589.94
510.968	580.94
511.184	578.94
511.401	582.94
511.617	582.94
511.833	581.94
512.049	567.94
512.265	594.94
512.481	582.94
512.698	590.94
512.914	573.94
513.13	582.94
513.346	585.94
513.562	606.94
513.778	589.94
513.994	572.94
514.21	573.94
514.426	589.94
514.642	594.94
514.858	574.94
515.074	594.94
515.29	617.94
515.506	597.94
515.721	633.94
515.937	640.94
516.153	639.94
516.369	659.94
516.585	654.94
516.801	645.94
517.016	676.94
517.232	692.94
517.448	729.94
517.664	730.94
517.879	745.94
518.095	730.94
518.311	756.94
518.527	722.94
518.742	698.94
518.958	684.94
519.173	668.94
519.389	645.94
519.605	637.94
519.82	618.94
520.036	630.94
520.251	620.94
520.467	585.94
520.682	589.94
520.898	572.94
521.113	569.94
521.329	573.94
521.544	571.94
521.76	561.94
521.975	577.94
522.19	571.94
522.406	564.94
522.621	554.94
522.836	563.94
523.052	562.94
523.267	555.94
523.482	559.94
523.698	500.94
523.913	556.94
524.128	548.94
524.343	522.94
524.559	549.94
524.774	538.94
524.989	542.94
525.204	523.94
525.419	532.94
525.634	530.94
525.849	539.94
526.064	524.94
526.28	534.94
526.495	525.94
526.71	516.94
526.925	529.94
527.14	529.94
527.355	527.94
527.57	541.94
527.785	514.94
527.999	515.94
528.214	531.94
528.429	547.94
528.644	534.94
528.859	509.94
529.074	528.94
529.289	523.94
529.503	542.94
529.718	538.94
529.933	532.94
530.148	487.94
530.363	519.94
530.577	522.94
530.792	528.94
531.007	524.94
531.221	499.94
531.436	518.94
531.651	523.94
531.865	526.94
532.08	522.94
532.295	496.94
532.509	518.94
532.724	513.94
532.938	510.94
533.153	529.94
533.367	504.94
533.582	522.94
533.796	529.94
534.011	520.94
534.225	510.94
534.44	511.94
534.654	530.94
534.868	510.94
535.083	504.94
535.297	483.94
535.511	494.94
535.726	513.94
535.94	492.94
536.154	481.94
536.369	480.94
536.583	472.94
536.797	489.94
537.011	490.94
537.225	489.94
537.44	483.94
537.654	481.94
537.868	457.94
538.082	458.94
538.296	473.94
538.51	498.94
538.724	486.94
538.938	481.94
539.153	486.94
539.367	488.94
539.581	468.94
539.795	479.94
540.009	458.94
540.222	455.94
540.436	480.94
540.65	470.94
540.864	482.94
541.078	503.94
541.292	469.94
541.506	468.94
541.72	475.94
541.934	487.94
542.147	484.94
542.361	486.94
542.575	484.94
542.789	458.94
543.002	472.94
543.216	478.94
543.43	486.94
543.644	460.94
543.857	472.94
544.071	469.94
544.285	476.94
544.498	477.94
544.712	459.94
544.925	472.94
545.139	478.94
545.352	486.94
545.566	472.94
545.779	490.94
545.993	481.94
546.206	488.94
546.42	466.94
546.633	490.94
546.847	490.94
547.06	501.94
547.274	491.94
547.487	474.94
547.7	479.94
547.914	466.94
548.127	487.94
548.34	472.94
548.554	486.94
548.767	486.94
548.98	491.94
549.193	477.94
549.407	484.94
549.62	482.94
549.833	497.94
550.046	488.94
550.259	504.94
550.473	466.94
550.686	464.94
550.899	477.94
551.112	478.94
551.325	461.94
551.538	488.94
551.751	481.94
551.964	466.94
552.177	478.94
552.39	500.94
552.603	498.94
552.816	520.94
553.029	483.94
553.242	525.94
553.455	518.94
553.667	514.94
553.88	513.94
554.093	478.94
554.306	469.94
554.519	488.94
554.732	512.94
554.944	465.94
555.157	490.94
555.37	474.94
555.583	474.94
555.795	442.94
556.008	470.94
556.221	425.94
556.433	423.94
556.646	422.94
556.859	425.94
557.071	429.94
557.284	416.94
557.496	429.94
557.709	398.94
557.921	419.94
558.134	416.94
558.346	413.94
558.559	414.94
558.771	409.94
558.984	404.94
559.196	405.94
559.409	404.94
559.621	409.94
559.833	417.94
560.046	406.94
560.258	402.94
560.47	424.94
560.683	414.94
560.895	405.94
561.107	404.94
561.32	404.94
561.532	400.94
561.744	405.94
561.956	413.94
562.168	401.94
562.381	416.94
562.593	396.94
562.805	403.94
563.017	409.94
563.229	405.94
563.441	435.94
563.653	412.94
563.865	413.94
564.077	396.94
564.289	406.94
564.501	420.94
564.713	421.94
564.925	435.94
565.137	450.94
565.349	442.94
565.561	467.94
565.773	470.94
565.985	491.94
566.197	507.94
566.408	532.94
566.62	558.94
566.832	581.94
567.044	570.94
567.255	607.94
567.467	639.94
567.679	642.94
567.891	677.94
568.102	674.94
568.314	613.94
568.526	600.94
568.737	569.94
568.949	538.94
569.161	500.94
569.372	464.94
569.584	461.94
569.795	444.94
570.007	441.94
570.218	413.94
570.43	410.94
570.641	418.94
570.853	416.94
571.064	402.94
571.276	408.94
571.487	411.94
571.698	384.94
571.91	371.94
572.121	393.94
572.333	380.94
572.544	365.94
572.755	364.94
572.966	340.94
573.178	350.94
573.389	354.94
573.6	363.94
573.811	363.94
574.023	340.94
574.234	343.94
574.445	331.94
574.656	348.94
574.867	342.94
575.078	328.94
575.289	328.94
575.501	323.94
575.712	335.94
575.923	325.94
576.134	333.94
576.345	337.94
576.556	339.94
576.767	340.94
576.978	337.94
577.188	330.94
577.399	318.94
577.61	320.94
577.821	319.94
578.032	338.94
578.243	320.94
578.454	308.94
578.665	322.94
578.875	289.94
579.086	333.94
579.297	322.94
579.508	306.94
579.718	299.94
579.929	314.94
580.14	304.94
580.35	298.94
580.561	291.94
580.772	296.94
580.982	307.94
581.193	283.94
581.403	294.94
581.614	304.94
581.825	298.94
582.035	312.94
582.246	288.94
582.456	275.94
582.667	309.94
582.877	282.94
583.087	279.94
583.298	308.94
583.508	277.94
583.719	288.94
583.929	296.94
584.139	285.94
584.35	271.94
584.56	287.94
584.77	289.94
584.981	284.94
585.191	289.94
585.401	280.94
585.611	274.94
585.821	287.94
586.032	278.94
586.242	298.94
586.452	292.94
586.662	269.94
586.872	280.94
587.082	269.94
587.292	280.94
587.502	276.94
587.713	277.94
587.923	291.94
588.133	298.94
588.343	296.94
588.553	279.94
588.762	293.94
588.972	279.94
589.182	282.94
589.392	281.94
589.602	282.94
589.812	282.94
590.022	281.94
590.232	282.94
590.441	262.94
590.651	273.94
590.861	292.94
591.071	287.94
591.281	292.94
591.49	298.94
591.7	292.94
591.91	300.94
592.119	291.94
592.329	307.94
592.539	308.94
592.748	308.94
592.958	311.94
593.167	317.94
593.377	338.94
593.587	347.94
593.796	338.94
594.006	310.94
594.215	333.94
594.424	356.94
594.634	325.94
594.843	309.94
595.053	299.94
595.262	306.94
595.472	296.94
595.681	285.94
595.89	293.94
596.1	283.94
596.309	282.94
596.518	264.94
596.727	270.94
596.937	277.94
597.146	263.94
597.355	280.94
597.564	288.94
597.774	257.94
597.983	268.94
598.192	245.94
598.401	274.94
598.61	270.94
598.819	264.94
599.028	252.94
599.237	252.94
599.446	246.94
599.655	243.94
599.864	224.94
600.073	256.94
600.282	246.94
600.491	249.94
600.7	229.94
600.909	240.94
601.118	254.94
601.327	245.94
601.536	244.94
601.745	230.94
601.953	222.94
602.162	230.94
602.371	236.94
602.58	241.94
602.789	226.94
602.997	238.94
603.206	217.94
603.415	227.94
603.623	250.94
603.832	215.94
604.041	230.94
604.249	230.94
604.458	226.94
604.666	226.94
604.875	213.94
605.084	228.94
605.292	229.94
605.501	220.94
605.709	229.94
605.918	234.94
606.126	232.94
606.334	227.94
606.543	217.94
606.751	237.94
606.96	202.94
607.168	207.94
607.376	202.94
607.585	217.94
607.793	218.94
608.001	234.94
608.21	218.94
608.418	242.94
608.626	213.94
608.834	236.94
609.043	213.94
609.251	220.94
609.459	215.94
609.667	226.94
609.875	194.94
610.083	218.94
610.291	214.94
610.499	227.94
610.707	226.94
610.916	225.94
611.124	208.94
611.332	208.94
611.54	211.94
611.748	219.94
611.955	217.94
612.163	206.94
612.371	221.94
612.579	208.94
612.787	233.94
612.995	211.94
613.203	208.94
613.411	223.94
613.618	215.94
613.826	206.94
614.034	229.94
614.242	215.94
614.449	205.94
614.657	213.94
614.865	226.94
615.072	216.94
615.28	214.94
615.488	201.94
615.695	229.94
615.903	208.94
616.111	216.94
616.318	208.94
616.526	202.94
616.733	216.94
616.941	209.94
617.148	217.94
617.356	224.94
617.563	202.94
617.771	209.94
617.978	219.94
618.185	214.94
618.393	199.94
618.6	202.94
618.807	206.94
619.015	212.94
619.222	226.94
619.429	214.94
619.637	196.94
619.844	179.94
620.051	208.94
620.258	210.94
620.466	187.94
620.673	203.94
620.88	212.94
621.087	189.94
621.294	192.94
621.501	195.94
621.708	216.94
621.915	219.94
622.122	196.94
622.329	222.94
622.536	214.94
622.743	206.94
622.95	201.94
623.157	201.94
623.364	183.94
623.571	191.94
623.778	182.94
623.985	209.94
624.192	188.94
624.399	198.94
624.606	210.94
624.812	179.94
625.019	202.94
625.226	185.94
625.433	195.94
625.639	172.94
625.846	188.94
626.053	193.94
626.259	215.94
626.466	174.94
626.673	186.94
626.879	172.94
627.086	180.94
627.293	172.94
627.499	184.94
627.706	183.94
627.912	174.94
628.119	205.94
628.325	186.94
628.532	163.94
628.738	172.94
628.945	190.94
629.151	173.94
629.357	174.94
629.564	174.94
629.77	184.94
629.976	174.94
630.183	185.94
630.389	178.94
630.595	153.94
630.802	183.94
631.008	165.94
631.214	188.94
631.42	181.94
631.627	171.94
631.833	165.94
632.039	163.94
632.245	154.94
632.451	167.94
632.657	173.94
632.863	176.94
633.069	176.94
633.275	159.94
633.481	165.94
633.688	157.94
633.893	164.94
634.099	166.94
634.305	170.94
634.511	170.94
634.717	173.94
634.923	154.94
635.129	158.94
635.335	176.94
635.541	165.94
635.747	163.94
635.952	151.94
636.158	157.94
636.364	156.94
636.57	169.94
636.775	165.94
636.981	157.94
637.187	162.94
637.392	165.94
637.598	173.94
637.804	160.94
638.009	167.94
638.215	165.94
638.421	145.94
638.626	155.94
638.832	182.94
639.037	176.94
639.243	168.94
639.448	169.94
639.654	157.94
639.859	166.94
640.065	162.94
640.27	180.94
640.475	156.94
640.681	152.94
640.886	149.94
641.091	154.94
641.297	155.94
641.502	161.94
641.707	160.94
641.913	142.94
642.118	153.94
642.323	150.94
642.528	155.94
642.733	173.94
642.939	148.94
643.144	163.94
643.349	153.94
643.554	140.94
643.759	144.94
643.964	148.94
644.169	142.94
644.374	154.94
644.579	167.94
644.784	157.94
644.989	147.94
645.194	131.94
645.399	157.94
645.604	160.94
645.809	139.94
646.014	148.94
646.219	149.94
646.423	152.94
646.628	161.94
646.833	149.94
647.038	165.94
647.243	148.94
647.447	155.94
647.652	152.94
647.857	151.94
648.062	152.94
648.266	155.94
648.471	134.94
648.676	156.94
648.88	157.94
649.085	149.94
649.289	164.94
649.494	149.94
649.698	150.94
649.903	155.94
650.107	148.94
650.312	138.94
650.516	150.94
650.721	162.94
650.925	150.94
651.13	155.94
651.334	154.94
651.539	149.94
651.743	141.94
651.947	138.94
652.152	132.94
652.356	133.94
652.56	130.94
652.764	115.94
652.969	130.94
653.173	141.94
653.377	124.94
653.581	120.94
653.785	127.94
653.99	140.94
654.194	131.94
654.398	128.94
654.602	129.94
654.806	109.94
655.01	130.94
655.214	132.94
655.418	121.94
655.622	139.94
655.826	122.94
656.03	128.94
656.234	117.94
656.438	128.94
656.642	121.94
656.846	120.94
657.049	116.94
657.253	114.94
657.457	119.94
657.661	109.94
657.865	121.94
658.068	98.94
658.272	92.94
658.476	118.94
658.68	111.94
658.883	109.94
659.087	113.94
659.291	110.94
659.494	109.94
659.698	92.94
659.901	93.94
660.105	113.94
660.309	91.94
660.512	95.94
660.716	91.94
660.919	87.94
661.123	99.94
661.326	74.94
661.53	85.94
661.733	91.94
661.936	80.94
662.14	78.94
662.343	87.94
662.546	84.94
662.75	80.94
662.953	84.94
663.156	74.94
663.36	81.94
663.563	86.94
663.766	88.94
663.969	92.94
664.173	91.94
664.376	80.94
664.579	93.94
664.782	71.94
664.985	82.94
665.188	93.94
665.391	83.94
665.594	85.94
665.797	76.94
666	86.94
666.203	86.94
666.406	101.94
666.609	87.94
666.812	83.94
667.015	75.94
667.218	96.94
667.421	83.94
667.624	75.94
667.827	91.94
668.03	88.94
668.232	79.94
668.435	92.94
668.638	85.94
668.841	83.94
669.043	89.94
669.246	98.94
669.449	84.94
669.651	70.94
669.854	91.94
670.057	91.94
670.259	68.94
670.462	86.94
670.665	86.94
670.867	88.94
671.07	80.94
671.272	93.94
671.475	92.94
671.677	70.94
671.88	81.94
672.082	72.94
672.284	79.94
672.487	84.94
672.689	91.94
672.892	83.94
