Data from Fe(NO3)3@0.1M.TitratingCurve.Agarose3%dH2O.NegLispCup.LampEnergy10.LIBS07252019_HRD10591_16-40-52-333.txt Node
Date: Thu Jul 25 16:40:52 EDT 2019
User: cochatt
Spectrometer: HR+D1059
Trigger mode: 1
Integration Time (sec): 1.000000E-1
Scans to average: 1
Electric dark correction enabled: true
Nonlinearity correction enabled: false
Boxcar width: 0
XAxis mode: Wavelengths
Number of Pixels in Spectrum: 2048
>>>>>Begin Spectral Data<<<<<
223.165	-20.12
223.4	-20.12
223.635	-20.12
223.869	-24.12
224.104	-16.12
224.338	-13.12
224.573	-17.12
224.808	-19.12
225.042	-8.12
225.277	-0.12
225.511	3.88
225.746	7.88
225.98	8.88
226.215	10.88
226.449	11.88
226.683	24.88
226.918	20.88
227.152	28.88
227.387	27.88
227.621	40.88
227.856	35.88
228.09	37.88
228.324	42.88
228.559	55.88
228.793	64.88
229.027	85.88
229.262	90.88
229.496	76.88
229.73	88.88
229.964	84.88
230.199	83.88
230.433	99.88
230.667	101.88
230.901	108.88
231.136	96.88
231.37	101.88
231.604	104.88
231.838	99.88
232.072	108.88
232.306	108.88
232.541	111.88
232.775	113.88
233.009	101.88
233.243	97.88
233.477	92.88
233.711	101.88
233.945	103.88
234.179	108.88
234.413	106.88
234.647	112.88
234.881	95.88
235.115	112.88
235.349	95.88
235.583	107.88
235.817	100.88
236.051	100.88
236.285	109.88
236.519	119.88
236.753	103.88
236.987	115.88
237.221	117.88
237.455	106.88
237.689	89.88
237.922	104.88
238.156	102.88
238.39	118.88
238.624	101.88
238.858	106.88
239.091	100.88
239.325	98.88
239.559	123.88
239.793	98.88
240.027	111.88
240.26	101.88
240.494	117.88
240.728	116.88
240.961	121.88
241.195	117.88
241.429	118.88
241.662	113.88
241.896	115.88
242.13	107.88
242.363	112.88
242.597	111.88
242.83	109.88
243.064	115.88
243.298	124.88
243.531	125.88
243.765	133.88
243.998	136.88
244.232	120.88
244.465	130.88
244.699	126.88
244.932	128.88
245.166	126.88
245.399	125.88
245.633	128.88
245.866	141.88
246.099	132.88
246.333	134.88
246.566	128.88
246.8	103.88
247.033	131.88
247.266	131.88
247.5	127.88
247.733	130.88
247.966	118.88
248.2	142.88
248.433	133.88
248.666	140.88
248.899	145.88
249.133	139.88
249.366	129.88
249.599	139.88
249.832	124.88
250.066	133.88
250.299	132.88
250.532	137.88
250.765	139.88
250.998	142.88
251.231	143.88
251.465	146.88
251.698	154.88
251.931	144.88
252.164	144.88
252.397	142.88
252.63	147.88
252.863	146.88
253.096	160.88
253.329	150.88
253.562	147.88
253.795	161.88
254.028	161.88
254.261	168.88
254.494	151.88
254.727	169.88
254.96	159.88
255.193	168.88
255.426	135.88
255.659	157.88
255.892	138.88
256.124	129.88
256.357	153.88
256.59	148.88
256.823	143.88
257.056	169.88
257.289	165.88
257.521	155.88
257.754	164.88
257.987	157.88
258.22	156.88
258.452	167.88
258.685	160.88
258.918	164.88
259.151	165.88
259.383	169.88
259.616	161.88
259.849	188.88
260.081	183.88
260.314	174.88
260.547	169.88
260.779	168.88
261.012	161.88
261.244	165.88
261.477	167.88
261.71	169.88
261.942	184.88
262.175	177.88
262.407	168.88
262.64	169.88
262.872	175.88
263.105	172.88
263.337	163.88
263.57	178.88
263.802	163.88
264.035	163.88
264.267	183.88
264.499	165.88
264.732	177.88
264.964	177.88
265.197	184.88
265.429	184.88
265.661	168.88
265.894	176.88
266.126	179.88
266.358	180.88
266.591	170.88
266.823	191.88
267.055	159.88
267.287	186.88
267.52	199.88
267.752	197.88
267.984	185.88
268.216	197.88
268.448	200.88
268.681	194.88
268.913	187.88
269.145	192.88
269.377	188.88
269.609	166.88
269.841	183.88
270.073	183.88
270.306	202.88
270.538	183.88
270.77	192.88
271.002	173.88
271.234	190.88
271.466	184.88
271.698	196.88
271.93	188.88
272.162	205.88
272.394	193.88
272.626	201.88
272.858	184.88
273.09	189.88
273.322	204.88
273.553	185.88
273.785	191.88
274.017	206.88
274.249	197.88
274.481	199.88
274.713	199.88
274.945	204.88
275.176	210.88
275.408	211.88
275.64	227.88
275.872	211.88
276.104	189.88
276.335	203.88
276.567	199.88
276.799	201.88
277.031	221.88
277.262	212.88
277.494	209.88
277.726	216.88
277.957	207.88
278.189	216.88
278.421	207.88
278.652	215.88
278.884	211.88
279.115	225.88
279.347	232.88
279.579	216.88
279.81	207.88
280.042	218.88
280.273	224.88
280.505	215.88
280.736	197.88
280.968	228.88
281.199	241.88
281.431	220.88
281.662	231.88
281.894	221.88
282.125	215.88
282.356	211.88
282.588	226.88
282.819	221.88
283.051	232.88
283.282	246.88
283.513	240.88
283.745	218.88
283.976	235.88
284.207	229.88
284.439	229.88
284.67	218.88
284.901	217.88
285.132	250.88
285.364	246.88
285.595	245.88
285.826	239.88
286.057	253.88
286.288	225.88
286.52	227.88
286.751	236.88
286.982	244.88
287.213	240.88
287.444	249.88
287.675	247.88
287.906	256.88
288.138	236.88
288.369	231.88
288.6	254.88
288.831	252.88
289.062	255.88
289.293	244.88
289.524	247.88
289.755	258.88
289.986	248.88
290.217	237.88
290.448	250.88
290.679	244.88
290.91	235.88
291.141	259.88
291.371	251.88
291.602	249.88
291.833	249.88
292.064	256.88
292.295	260.88
292.526	259.88
292.757	240.88
292.987	239.88
293.218	236.88
293.449	239.88
293.68	257.88
293.91	260.88
294.141	250.88
294.372	255.88
294.603	269.88
294.833	251.88
295.064	247.88
295.295	252.88
295.525	268.88
295.756	260.88
295.987	232.88
296.217	245.88
296.448	251.88
296.679	260.88
296.909	253.88
297.14	250.88
297.37	274.88
297.601	265.88
297.831	262.88
298.062	251.88
298.292	280.88
298.523	276.88
298.753	268.88
298.984	282.88
299.214	283.88
299.445	263.88
299.675	249.88
299.905	267.88
300.136	276.88
300.366	274.88
300.597	270.88
300.827	269.88
301.057	273.88
301.288	291.88
301.518	267.88
301.748	277.88
301.979	291.88
302.209	282.88
302.439	289.88
302.669	299.88
302.9	273.88
303.13	283.88
303.36	284.88
303.59	285.88
303.82	272.88
304.051	289.88
304.281	275.88
304.511	285.88
304.741	271.88
304.971	282.88
305.201	278.88
305.431	279.88
305.661	271.88
305.891	272.88
306.121	260.88
306.352	291.88
306.582	276.88
306.812	268.88
307.042	282.88
307.272	293.88
307.502	288.88
307.731	292.88
307.961	293.88
308.191	275.88
308.421	288.88
308.651	303.88
308.881	261.88
309.111	275.88
309.341	283.88
309.571	272.88
309.8	287.88
310.03	270.88
310.26	277.88
310.49	285.88
310.72	285.88
310.949	278.88
311.179	279.88
311.409	288.88
311.639	289.88
311.868	283.88
312.098	304.88
312.328	294.88
312.557	312.88
312.787	305.88
313.017	289.88
313.246	304.88
313.476	266.88
313.706	320.88
313.935	303.88
314.165	275.88
314.394	310.88
314.624	299.88
314.853	298.88
315.083	294.88
315.312	291.88
315.542	289.88
315.771	284.88
316.001	308.88
316.23	287.88
316.46	303.88
316.689	296.88
316.919	293.88
317.148	269.88
317.377	305.88
317.607	285.88
317.836	300.88
318.065	312.88
318.295	304.88
318.524	297.88
318.753	284.88
318.983	289.88
319.212	284.88
319.441	300.88
319.67	307.88
319.9	291.88
320.129	307.88
320.358	272.88
320.587	294.88
320.816	299.88
321.046	313.88
321.275	292.88
321.504	309.88
321.733	303.88
321.962	317.88
322.191	300.88
322.42	298.88
322.649	296.88
322.878	295.88
323.108	287.88
323.337	292.88
323.566	305.88
323.795	305.88
324.024	296.88
324.253	298.88
324.482	287.88
324.71	313.88
324.939	318.88
325.168	321.88
325.397	299.88
325.626	311.88
325.855	319.88
326.084	328.88
326.313	307.88
326.542	329.88
326.77	315.88
326.999	314.88
327.228	306.88
327.457	300.88
327.686	319.88
327.914	318.88
328.143	322.88
328.372	351.88
328.6	322.88
328.829	335.88
329.058	326.88
329.287	331.88
329.515	318.88
329.744	337.88
329.972	334.88
330.201	339.88
330.43	333.88
330.658	341.88
330.887	337.88
331.115	344.88
331.344	326.88
331.572	332.88
331.801	345.88
332.03	354.88
332.258	378.88
332.486	385.88
332.715	375.88
332.943	379.88
333.172	384.88
333.4	418.88
333.629	426.88
333.857	415.88
334.085	403.88
334.314	401.88
334.542	409.88
334.771	403.88
334.999	400.88
335.227	392.88
335.455	405.88
335.684	387.88
335.912	376.88
336.14	383.88
336.369	380.88
336.597	395.88
336.825	390.88
337.053	378.88
337.281	363.88
337.51	387.88
337.738	379.88
337.966	360.88
338.194	351.88
338.422	350.88
338.65	340.88
338.878	344.88
339.106	347.88
339.334	346.88
339.562	345.88
339.79	347.88
340.018	341.88
340.246	333.88
340.474	343.88
340.702	319.88
340.93	333.88
341.158	346.88
341.386	343.88
341.614	332.88
341.842	352.88
342.07	336.88
342.298	321.88
342.526	344.88
342.754	352.88
342.981	348.88
343.209	352.88
343.437	367.88
343.665	372.88
343.893	397.88
344.12	408.88
344.348	397.88
344.576	372.88
344.804	344.88
345.031	356.88
345.259	339.88
345.487	336.88
345.714	331.88
345.942	354.88
346.17	344.88
346.397	336.88
346.625	349.88
346.853	334.88
347.08	326.88
347.308	336.88
347.535	334.88
347.763	328.88
347.99	347.88
348.218	340.88
348.445	330.88
348.673	324.88
348.9	340.88
349.128	337.88
349.355	316.88
349.583	337.88
349.81	312.88
350.037	317.88
350.265	323.88
350.492	326.88
350.72	309.88
350.947	328.88
351.174	333.88
351.402	312.88
351.629	333.88
351.856	313.88
352.083	332.88
352.311	333.88
352.538	321.88
352.765	305.88
352.992	313.88
353.22	317.88
353.447	300.88
353.674	319.88
353.901	314.88
354.128	350.88
354.355	309.88
354.583	322.88
354.81	331.88
355.037	326.88
355.264	333.88
355.491	312.88
355.718	316.88
355.945	319.88
356.172	322.88
356.399	313.88
356.626	329.88
356.853	338.88
357.08	323.88
357.307	341.88
357.534	318.88
357.761	316.88
357.988	305.88
358.215	324.88
358.441	333.88
358.668	312.88
358.895	328.88
359.122	295.88
359.349	315.88
359.576	328.88
359.802	343.88
360.029	316.88
360.256	340.88
360.483	337.88
360.709	334.88
360.936	328.88
361.163	335.88
361.39	328.88
361.616	326.88
361.843	296.88
362.07	328.88
362.296	314.88
362.523	309.88
362.749	332.88
362.976	321.88
363.203	317.88
363.429	322.88
363.656	316.88
363.882	319.88
364.109	324.88
364.335	329.88
364.562	337.88
364.788	327.88
365.015	329.88
365.241	353.88
365.468	320.88
365.694	314.88
365.92	325.88
366.147	339.88
366.373	332.88
366.599	315.88
366.826	321.88
367.052	337.88
367.278	314.88
367.505	313.88
367.731	339.88
367.957	317.88
368.184	333.88
368.41	337.88
368.636	329.88
368.862	340.88
369.089	339.88
369.315	323.88
369.541	316.88
369.767	343.88
369.993	334.88
370.219	344.88
370.445	328.88
370.672	349.88
370.898	344.88
371.124	353.88
371.35	366.88
371.576	366.88
371.802	356.88
372.028	341.88
372.254	343.88
372.48	357.88
372.706	385.88
372.932	371.88
373.158	369.88
373.384	373.88
373.61	356.88
373.835	363.88
374.061	348.88
374.287	369.88
374.513	357.88
374.739	387.88
374.965	389.88
375.191	397.88
375.416	386.88
375.642	381.88
375.868	377.88
376.094	371.88
376.319	367.88
376.545	368.88
376.771	344.88
376.997	353.88
377.222	355.88
377.448	370.88
377.674	348.88
377.899	356.88
378.125	364.88
378.35	372.88
378.576	351.88
378.802	372.88
379.027	365.88
379.253	373.88
379.478	349.88
379.704	346.88
379.929	344.88
380.155	346.88
380.38	367.88
380.606	347.88
380.831	323.88
381.057	368.88
381.282	368.88
381.507	349.88
381.733	346.88
381.958	367.88
382.184	367.88
382.409	382.88
382.634	375.88
382.86	368.88
383.085	397.88
383.31	402.88
383.535	375.88
383.761	384.88
383.986	395.88
384.211	385.88
384.436	393.88
384.662	403.88
384.887	411.88
385.112	413.88
385.337	421.88
385.562	396.88
385.787	398.88
386.013	397.88
386.238	432.88
386.463	435.88
386.688	420.88
386.913	433.88
387.138	430.88
387.363	418.88
387.588	422.88
387.813	394.88
388.038	421.88
388.263	412.88
388.488	437.88
388.713	447.88
388.938	415.88
389.163	399.88
389.387	423.88
389.612	426.88
389.837	434.88
390.062	405.88
390.287	422.88
390.512	406.88
390.736	425.88
390.961	438.88
391.186	441.88
391.411	445.88
391.636	453.88
391.86	460.88
392.085	490.88
392.31	459.88
392.534	452.88
392.759	451.88
392.984	444.88
393.208	435.88
393.433	431.88
393.658	449.88
393.882	443.88
394.107	453.88
394.331	442.88
394.556	467.88
394.78	452.88
395.005	449.88
395.229	456.88
395.454	441.88
395.678	482.88
395.903	471.88
396.127	452.88
396.352	448.88
396.576	472.88
396.801	455.88
397.025	438.88
397.249	466.88
397.474	462.88
397.698	468.88
397.922	460.88
398.147	452.88
398.371	477.88
398.595	493.88
398.82	521.88
399.044	557.88
399.268	611.88
399.492	680.88
399.717	732.88
399.941	725.88
400.165	647.88
400.389	604.88
400.613	577.88
400.837	547.88
401.062	519.88
401.286	519.88
401.51	517.88
401.734	529.88
401.958	513.88
402.182	543.88
402.406	544.88
402.63	564.88
402.854	548.88
403.078	545.88
403.302	550.88
403.526	575.88
403.75	573.88
403.974	584.88
404.198	574.88
404.422	593.88
404.645	590.88
404.869	565.88
405.093	579.88
405.317	572.88
405.541	575.88
405.765	571.88
405.988	581.88
406.212	571.88
406.436	567.88
406.66	584.88
406.883	607.88
407.107	646.88
407.331	644.88
407.555	669.88
407.778	641.88
408.002	620.88
408.226	636.88
408.449	624.88
408.673	600.88
408.896	602.88
409.12	599.88
409.344	585.88
409.567	571.88
409.791	597.88
410.014	615.88
410.238	607.88
410.461	599.88
410.685	594.88
410.908	559.88
411.132	556.88
411.355	547.88
411.578	560.88
411.802	559.88
412.025	553.88
412.249	559.88
412.472	560.88
412.695	537.88
412.919	518.88
413.142	548.88
413.365	528.88
413.589	527.88
413.812	556.88
414.035	511.88
414.258	549.88
414.482	504.88
414.705	540.88
414.928	529.88
415.151	534.88
415.374	520.88
415.597	530.88
415.821	535.88
416.044	517.88
416.267	495.88
416.49	488.88
416.713	501.88
416.936	504.88
417.159	552.88
417.382	514.88
417.605	528.88
417.828	530.88
418.051	530.88
418.274	526.88
418.497	556.88
418.72	575.88
418.943	537.88
419.166	556.88
419.389	595.88
419.611	570.88
419.834	565.88
420.057	536.88
420.28	540.88
420.503	522.88
420.726	534.88
420.948	514.88
421.171	513.88
421.394	503.88
421.617	524.88
421.839	515.88
422.062	522.88
422.285	529.88
422.507	550.88
422.73	520.88
422.953	517.88
423.175	541.88
423.398	559.88
423.621	556.88
423.843	562.88
424.066	564.88
424.288	531.88
424.511	543.88
424.733	527.88
424.956	521.88
425.178	526.88
425.401	521.88
425.623	531.88
425.846	505.88
426.068	517.88
426.291	523.88
426.513	519.88
426.735	486.88
426.958	482.88
427.18	482.88
427.402	513.88
427.625	501.88
427.847	492.88
428.069	479.88
428.292	463.88
428.514	451.88
428.736	480.88
428.958	480.88
429.181	466.88
429.403	451.88
429.625	487.88
429.847	471.88
430.069	486.88
430.292	465.88
430.514	471.88
430.736	480.88
430.958	470.88
431.18	479.88
431.402	472.88
431.624	464.88
431.846	490.88
432.068	501.88
432.29	489.88
432.512	446.88
432.734	457.88
432.956	489.88
433.178	498.88
433.4	478.88
433.622	478.88
433.844	479.88
434.066	484.88
434.287	508.88
434.509	493.88
434.731	518.88
434.953	538.88
435.175	519.88
435.397	556.88
435.618	508.88
435.84	487.88
436.062	497.88
436.284	483.88
436.505	481.88
436.727	499.88
436.949	487.88
437.17	482.88
437.392	456.88
437.614	453.88
437.835	458.88
438.057	454.88
438.278	442.88
438.5	479.88
438.721	459.88
438.943	483.88
439.165	478.88
439.386	478.88
439.608	486.88
439.829	475.88
440.05	469.88
440.272	511.88
440.493	470.88
440.715	495.88
440.936	508.88
441.158	509.88
441.379	509.88
441.6	545.88
441.822	560.88
442.043	557.88
442.264	530.88
442.486	511.88
442.707	525.88
442.928	528.88
443.149	529.88
443.371	535.88
443.592	537.88
443.813	529.88
444.034	522.88
444.255	550.88
444.476	578.88
444.698	604.88
444.919	629.88
445.14	696.88
445.361	617.88
445.582	562.88
445.803	511.88
446.024	495.88
446.245	514.88
446.466	489.88
446.687	492.88
446.908	504.88
447.129	497.88
447.35	482.88
447.571	451.88
447.792	469.88
448.013	477.88
448.234	466.88
448.455	472.88
448.675	454.88
448.896	466.88
449.117	452.88
449.338	465.88
449.559	449.88
449.779	450.88
450	466.88
450.221	448.88
450.442	452.88
450.662	474.88
450.883	436.88
451.104	460.88
451.324	460.88
451.545	460.88
451.766	467.88
451.986	476.88
452.207	459.88
452.428	452.88
452.648	448.88
452.869	438.88
453.089	422.88
453.31	426.88
453.53	446.88
453.751	429.88
453.971	452.88
454.192	412.88
454.412	403.88
454.633	423.88
454.853	424.88
455.073	431.88
455.294	408.88
455.514	411.88
455.734	429.88
455.955	424.88
456.175	409.88
456.395	425.88
456.616	404.88
456.836	423.88
457.056	436.88
457.276	425.88
457.497	409.88
457.717	420.88
457.937	402.88
458.157	435.88
458.377	427.88
458.598	431.88
458.818	448.88
459.038	461.88
459.258	477.88
459.478	468.88
459.698	493.88
459.918	497.88
460.138	537.88
460.358	543.88
460.578	543.88
460.798	562.88
461.018	525.88
461.238	533.88
461.458	565.88
461.678	531.88
461.898	548.88
462.118	579.88
462.338	560.88
462.558	623.88
462.777	628.88
462.997	657.88
463.217	700.88
463.437	694.88
463.657	678.88
463.876	623.88
464.096	626.88
464.316	627.88
464.536	644.88
464.755	615.88
464.975	593.88
465.195	568.88
465.414	553.88
465.634	517.88
465.854	486.88
466.073	506.88
466.293	471.88
466.512	473.88
466.732	481.88
466.951	461.88
467.171	441.88
467.391	469.88
467.61	474.88
467.829	454.88
468.049	463.88
468.268	438.88
468.488	439.88
468.707	460.88
468.927	473.88
469.146	447.88
469.365	460.88
469.585	446.88
469.804	446.88
470.023	471.88
470.243	484.88
470.462	477.88
470.681	449.88
470.901	495.88
471.12	456.88
471.339	452.88
471.558	461.88
471.777	444.88
471.997	489.88
472.216	449.88
472.435	448.88
472.654	426.88
472.873	437.88
473.092	432.88
473.311	423.88
473.53	431.88
473.749	435.88
473.968	424.88
474.187	433.88
474.406	419.88
474.625	453.88
474.844	434.88
475.063	418.88
475.282	434.88
475.501	425.88
475.72	444.88
475.939	447.88
476.158	441.88
476.377	439.88
476.596	459.88
476.814	451.88
477.033	459.88
477.252	462.88
477.471	461.88
477.69	488.88
477.908	470.88
478.127	519.88
478.346	515.88
478.564	525.88
478.783	517.88
479.002	514.88
479.22	533.88
479.439	538.88
479.658	519.88
479.876	517.88
480.095	521.88
480.313	556.88
480.532	569.88
480.751	554.88
480.969	510.88
481.188	483.88
481.406	489.88
481.624	508.88
481.843	467.88
482.061	464.88
482.28	479.88
482.498	456.88
482.717	464.88
482.935	478.88
483.153	471.88
483.372	467.88
483.59	481.88
483.808	468.88
484.027	475.88
484.245	467.88
484.463	487.88
484.681	514.88
484.9	477.88
485.118	485.88
485.336	500.88
485.554	490.88
485.772	503.88
485.99	484.88
486.209	505.88
486.427	484.88
486.645	505.88
486.863	513.88
487.081	488.88
487.299	503.88
487.517	517.88
487.735	497.88
487.953	479.88
488.171	542.88
488.389	522.88
488.607	500.88
488.825	501.88
489.043	502.88
489.261	499.88
489.479	479.88
489.696	509.88
489.914	505.88
490.132	498.88
490.35	486.88
490.568	506.88
490.786	516.88
491.003	492.88
491.221	503.88
491.439	511.88
491.657	499.88
491.874	504.88
492.092	505.88
492.31	514.88
492.527	517.88
492.745	521.88
492.963	539.88
493.18	517.88
493.398	535.88
493.615	527.88
493.833	526.88
494.05	531.88
494.268	537.88
494.485	525.88
494.703	530.88
494.92	539.88
495.138	538.88
495.355	533.88
495.573	521.88
495.79	543.88
496.008	534.88
496.225	554.88
496.442	540.88
496.66	558.88
496.877	543.88
497.094	549.88
497.312	575.88
497.529	564.88
497.746	592.88
497.963	610.88
498.181	650.88
498.398	667.88
498.615	680.88
498.832	729.88
499.049	789.88
499.267	816.88
499.484	935.88
499.701	999.88
499.918	1097.88
500.135	1217.88
500.352	1393.88
500.569	1420.88
500.786	1428.88
501.003	1314.88
501.22	1183.88
501.437	1082.88
501.654	957.88
501.871	880.88
502.088	826.88
502.305	758.88
502.522	711.88
502.739	678.88
502.956	688.88
503.172	635.88
503.389	617.88
503.606	591.88
503.823	607.88
504.04	591.88
504.256	589.88
504.473	610.88
504.69	618.88
504.907	608.88
505.123	553.88
505.34	537.88
505.557	522.88
505.773	513.88
505.99	514.88
506.207	496.88
506.423	485.88
506.64	481.88
506.856	479.88
507.073	478.88
507.289	503.88
507.506	485.88
507.722	463.88
507.939	466.88
508.155	471.88
508.372	451.88
508.588	438.88
508.805	424.88
509.021	443.88
509.238	463.88
509.454	448.88
509.67	429.88
509.887	452.88
510.103	435.88
510.319	420.88
510.536	441.88
510.752	433.88
510.968	415.88
511.184	426.88
511.401	423.88
511.617	433.88
511.833	441.88
512.049	414.88
512.265	413.88
512.481	423.88
512.698	407.88
512.914	447.88
513.13	420.88
513.346	433.88
513.562	426.88
513.778	439.88
513.994	449.88
514.21	418.88
514.426	409.88
514.642	429.88
514.858	434.88
515.074	437.88
515.29	431.88
515.506	427.88
515.721	444.88
515.937	454.88
516.153	454.88
516.369	480.88
516.585	483.88
516.801	515.88
517.016	531.88
517.232	534.88
517.448	553.88
517.664	581.88
517.879	580.88
518.095	579.88
518.311	574.88
518.527	544.88
518.742	521.88
518.958	534.88
519.173	474.88
519.389	470.88
519.605	477.88
519.82	472.88
520.036	473.88
520.251	454.88
520.467	470.88
520.682	442.88
520.898	431.88
521.113	440.88
521.329	424.88
521.544	398.88
521.76	404.88
521.975	419.88
522.19	403.88
522.406	411.88
522.621	401.88
522.836	414.88
523.052	405.88
523.267	394.88
523.482	407.88
523.698	389.88
523.913	411.88
524.128	394.88
524.343	388.88
524.559	389.88
524.774	410.88
524.989	395.88
525.204	404.88
525.419	395.88
525.634	390.88
525.849	392.88
526.064	410.88
526.28	408.88
526.495	379.88
526.71	387.88
526.925	405.88
527.14	378.88
527.355	382.88
527.57	388.88
527.785	372.88
527.999	389.88
528.214	396.88
528.429	379.88
528.644	390.88
528.859	399.88
529.074	386.88
529.289	386.88
529.503	408.88
529.718	371.88
529.933	390.88
530.148	373.88
530.363	396.88
530.577	388.88
530.792	385.88
531.007	397.88
531.221	390.88
531.436	383.88
531.651	396.88
531.865	393.88
532.08	388.88
532.295	398.88
532.509	382.88
532.724	392.88
532.938	361.88
533.153	395.88
533.367	383.88
533.582	369.88
533.796	386.88
534.011	369.88
534.225	367.88
534.44	383.88
534.654	359.88
534.868	362.88
535.083	348.88
535.297	383.88
535.511	383.88
535.726	372.88
535.94	391.88
536.154	381.88
536.369	355.88
536.583	370.88
536.797	368.88
537.011	363.88
537.225	359.88
537.44	370.88
537.654	381.88
537.868	386.88
538.082	360.88
538.296	353.88
538.51	374.88
538.724	352.88
538.938	343.88
539.153	361.88
539.367	375.88
539.581	363.88
539.795	346.88
540.009	351.88
540.222	368.88
540.436	359.88
540.65	355.88
540.864	344.88
541.078	367.88
541.292	362.88
541.506	352.88
541.72	348.88
541.934	351.88
542.147	358.88
542.361	345.88
542.575	320.88
542.789	346.88
543.002	346.88
543.216	359.88
543.43	355.88
543.644	351.88
543.857	345.88
544.071	333.88
544.285	361.88
544.498	358.88
544.712	343.88
544.925	366.88
545.139	353.88
545.352	367.88
545.566	394.88
545.779	371.88
545.993	373.88
546.206	360.88
546.42	371.88
546.633	350.88
546.847	349.88
547.06	351.88
547.274	370.88
547.487	369.88
547.7	363.88
547.914	352.88
548.127	363.88
548.34	369.88
548.554	379.88
548.767	364.88
548.98	369.88
549.193	358.88
549.407	377.88
549.62	367.88
549.833	377.88
550.046	369.88
550.259	370.88
550.473	367.88
550.686	366.88
550.899	360.88
551.112	346.88
551.325	339.88
551.538	367.88
551.751	347.88
551.964	345.88
552.177	353.88
552.39	388.88
552.603	362.88
552.816	377.88
553.029	393.88
553.242	409.88
553.455	385.88
553.667	405.88
553.88	395.88
554.093	378.88
554.306	401.88
554.519	371.88
554.732	353.88
554.944	358.88
555.157	337.88
555.37	334.88
555.583	341.88
555.795	343.88
556.008	351.88
556.221	311.88
556.433	315.88
556.646	325.88
556.859	320.88
557.071	318.88
557.284	328.88
557.496	324.88
557.709	316.88
557.921	315.88
558.134	316.88
558.346	306.88
558.559	323.88
558.771	315.88
558.984	297.88
559.196	292.88
559.409	294.88
559.621	326.88
559.833	295.88
560.046	291.88
560.258	306.88
560.47	296.88
560.683	307.88
560.895	311.88
561.107	311.88
561.32	308.88
561.532	289.88
561.744	318.88
561.956	319.88
562.168	312.88
562.381	303.88
562.593	295.88
562.805	319.88
563.017	318.88
563.229	309.88
563.441	335.88
563.653	325.88
563.865	307.88
564.077	312.88
564.289	328.88
564.501	317.88
564.713	306.88
564.925	315.88
565.137	340.88
565.349	321.88
565.561	343.88
565.773	353.88
565.985	348.88
566.197	374.88
566.408	401.88
566.62	412.88
566.832	451.88
567.044	475.88
567.255	482.88
567.467	472.88
567.679	518.88
567.891	525.88
568.102	515.88
568.314	521.88
568.526	480.88
568.737	445.88
568.949	425.88
569.161	375.88
569.372	367.88
569.584	355.88
569.795	321.88
570.007	318.88
570.218	325.88
570.43	309.88
570.641	315.88
570.853	325.88
571.064	321.88
571.276	315.88
571.487	311.88
571.698	293.88
571.91	275.88
572.121	281.88
572.333	290.88
572.544	257.88
572.755	263.88
572.966	260.88
573.178	269.88
573.389	265.88
573.6	271.88
573.811	265.88
574.023	288.88
574.234	271.88
574.445	265.88
574.656	251.88
574.867	244.88
575.078	250.88
575.289	269.88
575.501	250.88
575.712	261.88
575.923	246.88
576.134	270.88
576.345	243.88
576.556	244.88
576.767	254.88
576.978	260.88
577.188	250.88
577.399	257.88
577.61	243.88
577.821	247.88
578.032	244.88
578.243	248.88
578.454	229.88
578.665	243.88
578.875	239.88
579.086	238.88
579.297	225.88
579.508	255.88
579.718	249.88
579.929	234.88
580.14	240.88
580.35	243.88
580.561	217.88
580.772	235.88
580.982	230.88
581.193	220.88
581.403	214.88
581.614	213.88
581.825	233.88
582.035	226.88
582.246	230.88
582.456	219.88
582.667	220.88
582.877	219.88
583.087	225.88
583.298	220.88
583.508	219.88
583.719	214.88
583.929	220.88
584.139	233.88
584.35	215.88
584.56	229.88
584.77	213.88
584.981	233.88
585.191	213.88
585.401	213.88
585.611	208.88
585.821	207.88
586.032	216.88
586.242	227.88
586.452	226.88
586.662	228.88
586.872	213.88
587.082	217.88
587.292	197.88
587.502	214.88
587.713	226.88
587.923	205.88
588.133	238.88
588.343	211.88
588.553	223.88
588.762	241.88
588.972	208.88
589.182	223.88
589.392	218.88
589.602	214.88
589.812	237.88
590.022	235.88
590.232	226.88
590.441	230.88
590.651	216.88
590.861	205.88
591.071	219.88
591.281	236.88
591.49	228.88
591.7	225.88
591.91	244.88
592.119	220.88
592.329	225.88
592.539	252.88
592.748	241.88
592.958	243.88
593.167	250.88
593.377	266.88
593.587	257.88
593.796	257.88
594.006	259.88
594.215	284.88
594.424	268.88
594.634	252.88
594.843	251.88
595.053	232.88
595.262	240.88
595.472	221.88
595.681	217.88
595.89	223.88
596.1	203.88
596.309	213.88
596.518	226.88
596.727	200.88
596.937	205.88
597.146	210.88
597.355	212.88
597.564	183.88
597.774	212.88
597.983	229.88
598.192	206.88
598.401	212.88
598.61	223.88
598.819	186.88
599.028	186.88
599.237	198.88
599.446	194.88
599.655	184.88
599.864	204.88
600.073	203.88
600.282	199.88
600.491	197.88
600.7	198.88
600.909	180.88
601.118	199.88
601.327	199.88
601.536	194.88
601.745	192.88
601.953	192.88
602.162	185.88
602.371	172.88
602.58	176.88
602.789	163.88
602.997	186.88
603.206	186.88
603.415	192.88
603.623	183.88
603.832	185.88
604.041	177.88
604.249	188.88
604.458	187.88
604.666	167.88
604.875	177.88
605.084	178.88
605.292	169.88
605.501	187.88
605.709	175.88
605.918	177.88
606.126	172.88
606.334	174.88
606.543	181.88
606.751	168.88
606.96	181.88
607.168	194.88
607.376	170.88
607.585	177.88
607.793	172.88
608.001	177.88
608.21	169.88
608.418	179.88
608.626	157.88
608.834	175.88
609.043	167.88
609.251	179.88
609.459	185.88
609.667	185.88
609.875	165.88
610.083	172.88
610.291	173.88
610.499	164.88
610.707	182.88
610.916	175.88
611.124	173.88
611.332	172.88
611.54	164.88
611.748	171.88
611.955	163.88
612.163	190.88
612.371	163.88
612.579	174.88
612.787	167.88
612.995	163.88
613.203	161.88
613.411	173.88
613.618	179.88
613.826	155.88
614.034	155.88
614.242	175.88
614.449	175.88
614.657	166.88
614.865	182.88
615.072	156.88
615.28	159.88
615.488	159.88
615.695	172.88
615.903	171.88
616.111	171.88
616.318	180.88
616.526	184.88
616.733	179.88
616.941	162.88
617.148	183.88
617.356	187.88
617.563	170.88
617.771	183.88
617.978	179.88
618.185	187.88
618.393	160.88
618.6	175.88
618.807	168.88
619.015	182.88
619.222	163.88
619.429	161.88
619.637	170.88
619.844	193.88
620.051	148.88
620.258	166.88
620.466	149.88
620.673	169.88
620.88	172.88
621.087	176.88
621.294	173.88
621.501	155.88
621.708	161.88
621.915	148.88
622.122	186.88
622.329	171.88
622.536	168.88
622.743	173.88
622.95	161.88
623.157	154.88
623.364	164.88
623.571	167.88
623.778	147.88
623.985	170.88
624.192	168.88
624.399	145.88
624.606	165.88
624.812	151.88
625.019	163.88
625.226	152.88
625.433	151.88
625.639	152.88
625.846	157.88
626.053	159.88
626.259	147.88
626.466	155.88
626.673	136.88
626.879	151.88
627.086	137.88
627.293	165.88
627.499	160.88
627.706	153.88
627.912	159.88
628.119	159.88
628.325	155.88
628.532	131.88
628.738	147.88
628.945	164.88
629.151	162.88
629.357	149.88
629.564	149.88
629.77	153.88
629.976	127.88
630.183	141.88
630.389	133.88
630.595	155.88
630.802	147.88
631.008	138.88
631.214	154.88
631.42	147.88
631.627	153.88
631.833	141.88
632.039	138.88
632.245	144.88
632.451	135.88
632.657	143.88
632.863	142.88
633.069	153.88
633.275	130.88
633.481	130.88
633.688	135.88
633.893	149.88
634.099	151.88
634.305	131.88
634.511	130.88
634.717	139.88
634.923	147.88
635.129	135.88
635.335	147.88
635.541	146.88
635.747	146.88
635.952	150.88
636.158	141.88
636.364	157.88
636.57	151.88
636.775	136.88
636.981	127.88
637.187	148.88
637.392	157.88
637.598	124.88
637.804	136.88
638.009	151.88
638.215	129.88
638.421	146.88
638.626	123.88
638.832	127.88
639.037	133.88
639.243	134.88
639.448	148.88
639.654	153.88
639.859	153.88
640.065	133.88
640.27	138.88
640.475	135.88
640.681	125.88
640.886	137.88
641.091	137.88
641.297	129.88
641.502	145.88
641.707	128.88
641.913	133.88
642.118	137.88
642.323	107.88
642.528	123.88
642.733	151.88
642.939	127.88
643.144	129.88
643.349	122.88
643.554	126.88
643.759	126.88
643.964	120.88
644.169	134.88
644.374	133.88
644.579	124.88
644.784	130.88
644.989	122.88
645.194	129.88
645.399	129.88
645.604	116.88
645.809	134.88
646.014	119.88
646.219	132.88
646.423	129.88
646.628	133.88
646.833	130.88
647.038	124.88
647.243	137.88
647.447	140.88
647.652	122.88
647.857	140.88
648.062	152.88
648.266	135.88
648.471	141.88
648.676	143.88
648.88	138.88
649.085	123.88
649.289	139.88
649.494	136.88
649.698	131.88
649.903	126.88
650.107	119.88
650.312	128.88
650.516	136.88
650.721	130.88
650.925	124.88
651.13	116.88
651.334	129.88
651.539	131.88
651.743	124.88
651.947	124.88
652.152	127.88
652.356	117.88
652.56	111.88
652.764	111.88
652.969	109.88
653.173	129.88
653.377	121.88
653.581	126.88
653.785	123.88
653.99	104.88
654.194	114.88
654.398	123.88
654.602	120.88
654.806	106.88
655.01	124.88
655.214	126.88
655.418	106.88
655.622	111.88
655.826	111.88
656.03	108.88
656.234	109.88
656.438	112.88
656.642	104.88
656.846	111.88
657.049	105.88
657.253	108.88
657.457	106.88
657.661	107.88
657.865	101.88
658.068	102.88
658.272	101.88
658.476	120.88
658.68	95.88
658.883	100.88
659.087	91.88
659.291	100.88
659.494	94.88
659.698	97.88
659.901	81.88
660.105	88.88
660.309	98.88
660.512	90.88
660.716	83.88
660.919	73.88
661.123	94.88
661.326	89.88
661.53	105.88
661.733	89.88
661.936	94.88
662.14	81.88
662.343	96.88
662.546	82.88
662.75	77.88
662.953	86.88
663.156	76.88
663.36	83.88
663.563	83.88
663.766	82.88
663.969	101.88
664.173	81.88
664.376	86.88
664.579	83.88
664.782	81.88
664.985	86.88
665.188	92.88
665.391	87.88
665.594	90.88
665.797	86.88
666	81.88
666.203	82.88
666.406	72.88
666.609	68.88
666.812	86.88
667.015	81.88
667.218	84.88
667.421	74.88
667.624	76.88
667.827	77.88
668.03	88.88
668.232	89.88
668.435	90.88
668.638	95.88
668.841	92.88
669.043	81.88
669.246	87.88
669.449	78.88
669.651	63.88
669.854	71.88
670.057	76.88
670.259	68.88
670.462	87.88
670.665	77.88
670.867	91.88
671.07	85.88
671.272	91.88
671.475	91.88
671.677	80.88
671.88	85.88
672.082	80.88
672.284	60.88
672.487	80.88
672.689	69.88
672.892	84.88
