Data from Fe(NO3)3@0.025M.TitratingCurve.Agarose3%dH2O.NegLispCup.LampEnergy10.LIBS07252019_HRD10591_16-53-40-334.txt Node
Date: Thu Jul 25 16:53:40 EDT 2019
User: cochatt
Spectrometer: HR+D1059
Trigger mode: 1
Integration Time (sec): 1.000000E-1
Scans to average: 1
Electric dark correction enabled: true
Nonlinearity correction enabled: false
Boxcar width: 0
XAxis mode: Wavelengths
Number of Pixels in Spectrum: 2048
>>>>>Begin Spectral Data<<<<<
223.165	-14.94
223.4	-14.94
223.635	-14.94
223.869	-13.94
224.104	-30.94
224.338	-22.94
224.573	-13.94
224.808	-9.94
225.042	-11.94
225.277	-8.94
225.511	8.06
225.746	10.06
225.98	9.06
226.215	7.06
226.449	14.06
226.683	19.06
226.918	19.06
227.152	41.06
227.387	31.06
227.621	32.06
227.856	35.06
228.09	33.06
228.324	42.06
228.559	35.06
228.793	53.06
229.027	101.06
229.262	115.06
229.496	108.06
229.73	96.06
229.964	95.06
230.199	98.06
230.433	103.06
230.667	120.06
230.901	113.06
231.136	119.06
231.37	117.06
231.604	128.06
231.838	121.06
232.072	143.06
232.306	114.06
232.541	135.06
232.775	122.06
233.009	130.06
233.243	135.06
233.477	130.06
233.711	122.06
233.945	126.06
234.179	136.06
234.413	131.06
234.647	120.06
234.881	140.06
235.115	143.06
235.349	125.06
235.583	128.06
235.817	135.06
236.051	114.06
236.285	136.06
236.519	130.06
236.753	143.06
236.987	122.06
237.221	142.06
237.455	131.06
237.689	143.06
237.922	129.06
238.156	140.06
238.39	135.06
238.624	138.06
238.858	139.06
239.091	137.06
239.325	146.06
239.559	143.06
239.793	143.06
240.027	159.06
240.26	149.06
240.494	150.06
240.728	158.06
240.961	188.06
241.195	149.06
241.429	152.06
241.662	146.06
241.896	151.06
242.13	151.06
242.363	160.06
242.597	159.06
242.83	153.06
243.064	154.06
243.298	163.06
243.531	165.06
243.765	157.06
243.998	158.06
244.232	161.06
244.465	171.06
244.699	160.06
244.932	180.06
245.166	185.06
245.399	175.06
245.633	170.06
245.866	192.06
246.099	178.06
246.333	159.06
246.566	174.06
246.8	176.06
247.033	175.06
247.266	188.06
247.5	189.06
247.733	190.06
247.966	188.06
248.2	199.06
248.433	189.06
248.666	200.06
248.899	196.06
249.133	183.06
249.366	183.06
249.599	187.06
249.832	173.06
250.066	194.06
250.299	198.06
250.532	205.06
250.765	195.06
250.998	206.06
251.231	190.06
251.465	191.06
251.698	192.06
251.931	193.06
252.164	190.06
252.397	199.06
252.63	217.06
252.863	228.06
253.096	218.06
253.329	213.06
253.562	222.06
253.795	221.06
254.028	224.06
254.261	230.06
254.494	212.06
254.727	222.06
254.96	219.06
255.193	231.06
255.426	227.06
255.659	215.06
255.892	225.06
256.124	241.06
256.357	228.06
256.59	235.06
256.823	225.06
257.056	212.06
257.289	223.06
257.521	240.06
257.754	224.06
257.987	226.06
258.22	224.06
258.452	208.06
258.685	230.06
258.918	233.06
259.151	236.06
259.383	246.06
259.616	228.06
259.849	253.06
260.081	267.06
260.314	281.06
260.547	252.06
260.779	258.06
261.012	257.06
261.244	266.06
261.477	268.06
261.71	266.06
261.942	260.06
262.175	264.06
262.407	258.06
262.64	270.06
262.872	271.06
263.105	264.06
263.337	288.06
263.57	302.06
263.802	276.06
264.035	281.06
264.267	276.06
264.499	273.06
264.732	274.06
264.964	266.06
265.197	253.06
265.429	281.06
265.661	267.06
265.894	263.06
266.126	275.06
266.358	269.06
266.591	279.06
266.823	272.06
267.055	283.06
267.287	273.06
267.52	264.06
267.752	266.06
267.984	278.06
268.216	284.06
268.448	299.06
268.681	291.06
268.913	278.06
269.145	286.06
269.377	294.06
269.609	280.06
269.841	296.06
270.073	296.06
270.306	291.06
270.538	299.06
270.77	298.06
271.002	320.06
271.234	292.06
271.466	304.06
271.698	300.06
271.93	293.06
272.162	300.06
272.394	297.06
272.626	315.06
272.858	307.06
273.09	335.06
273.322	302.06
273.553	304.06
273.785	327.06
274.017	325.06
274.249	333.06
274.481	330.06
274.713	352.06
274.945	360.06
275.176	386.06
275.408	360.06
275.64	346.06
275.872	353.06
276.104	354.06
276.335	351.06
276.567	332.06
276.799	335.06
277.031	360.06
277.262	364.06
277.494	320.06
277.726	331.06
277.957	345.06
278.189	346.06
278.421	323.06
278.652	328.06
278.884	345.06
279.115	352.06
279.347	361.06
279.579	331.06
279.81	350.06
280.042	345.06
280.273	348.06
280.505	342.06
280.736	320.06
280.968	360.06
281.199	368.06
281.431	368.06
281.662	364.06
281.894	349.06
282.125	354.06
282.356	372.06
282.588	343.06
282.819	343.06
283.051	371.06
283.282	355.06
283.513	374.06
283.745	371.06
283.976	375.06
284.207	378.06
284.439	371.06
284.67	361.06
284.901	376.06
285.132	394.06
285.364	402.06
285.595	362.06
285.826	388.06
286.057	386.06
286.288	371.06
286.52	391.06
286.751	390.06
286.982	387.06
287.213	387.06
287.444	389.06
287.675	395.06
287.906	394.06
288.138	387.06
288.369	400.06
288.6	394.06
288.831	390.06
289.062	397.06
289.293	401.06
289.524	406.06
289.755	386.06
289.986	389.06
290.217	386.06
290.448	396.06
290.679	397.06
290.91	403.06
291.141	395.06
291.371	394.06
291.602	414.06
291.833	411.06
292.064	409.06
292.295	398.06
292.526	392.06
292.757	420.06
292.987	411.06
293.218	415.06
293.449	429.06
293.68	422.06
293.91	425.06
294.141	402.06
294.372	421.06
294.603	419.06
294.833	425.06
295.064	419.06
295.295	407.06
295.525	429.06
295.756	425.06
295.987	434.06
296.217	434.06
296.448	420.06
296.679	432.06
296.909	418.06
297.14	426.06
297.37	439.06
297.601	444.06
297.831	450.06
298.062	407.06
298.292	443.06
298.523	444.06
298.753	441.06
298.984	454.06
299.214	448.06
299.445	456.06
299.675	437.06
299.905	443.06
300.136	441.06
300.366	448.06
300.597	449.06
300.827	444.06
301.057	452.06
301.288	457.06
301.518	462.06
301.748	482.06
301.979	473.06
302.209	479.06
302.439	471.06
302.669	469.06
302.9	464.06
303.13	464.06
303.36	482.06
303.59	473.06
303.82	478.06
304.051	476.06
304.281	482.06
304.511	466.06
304.741	468.06
304.971	449.06
305.201	485.06
305.431	494.06
305.661	486.06
305.891	465.06
306.121	474.06
306.352	468.06
306.582	490.06
306.812	483.06
307.042	492.06
307.272	482.06
307.502	471.06
307.731	477.06
307.961	468.06
308.191	491.06
308.421	472.06
308.651	457.06
308.881	494.06
309.111	476.06
309.341	482.06
309.571	486.06
309.8	481.06
310.03	497.06
310.26	493.06
310.49	484.06
310.72	486.06
310.949	500.06
311.179	500.06
311.409	520.06
311.639	500.06
311.868	475.06
312.098	513.06
312.328	524.06
312.557	500.06
312.787	488.06
313.017	500.06
313.246	492.06
313.476	506.06
313.706	507.06
313.935	526.06
314.165	493.06
314.394	528.06
314.624	516.06
314.853	509.06
315.083	513.06
315.312	524.06
315.542	534.06
315.771	524.06
316.001	515.06
316.23	479.06
316.46	505.06
316.689	522.06
316.919	527.06
317.148	521.06
317.377	538.06
317.607	530.06
317.836	518.06
318.065	536.06
318.295	520.06
318.524	521.06
318.753	532.06
318.983	516.06
319.212	513.06
319.441	530.06
319.67	539.06
319.9	545.06
320.129	544.06
320.358	547.06
320.587	533.06
320.816	536.06
321.046	560.06
321.275	563.06
321.504	521.06
321.733	548.06
321.962	537.06
322.191	548.06
322.42	546.06
322.649	558.06
322.878	545.06
323.108	539.06
323.337	534.06
323.566	550.06
323.795	546.06
324.024	553.06
324.253	549.06
324.482	552.06
324.71	551.06
324.939	553.06
325.168	550.06
325.397	546.06
325.626	573.06
325.855	578.06
326.084	574.06
326.313	572.06
326.542	564.06
326.77	571.06
326.999	574.06
327.228	590.06
327.457	570.06
327.686	574.06
327.914	594.06
328.143	595.06
328.372	589.06
328.6	574.06
328.829	565.06
329.058	585.06
329.287	584.06
329.515	589.06
329.744	589.06
329.972	593.06
330.201	586.06
330.43	601.06
330.658	601.06
330.887	617.06
331.115	593.06
331.344	599.06
331.572	605.06
331.801	594.06
332.03	605.06
332.258	590.06
332.486	625.06
332.715	628.06
332.943	631.06
333.172	625.06
333.4	627.06
333.629	628.06
333.857	653.06
334.085	666.06
334.314	665.06
334.542	654.06
334.771	682.06
334.999	650.06
335.227	675.06
335.455	678.06
335.684	691.06
335.912	664.06
336.14	666.06
336.369	645.06
336.597	642.06
336.825	662.06
337.053	664.06
337.281	650.06
337.51	660.06
337.738	654.06
337.966	646.06
338.194	645.06
338.422	645.06
338.65	662.06
338.878	626.06
339.106	636.06
339.334	634.06
339.562	630.06
339.79	644.06
340.018	637.06
340.246	617.06
340.474	638.06
340.702	650.06
340.93	634.06
341.158	614.06
341.386	640.06
341.614	649.06
341.842	632.06
342.07	619.06
342.298	634.06
342.526	638.06
342.754	622.06
342.981	631.06
343.209	625.06
343.437	633.06
343.665	646.06
343.893	650.06
344.12	640.06
344.348	678.06
344.576	681.06
344.804	669.06
345.031	658.06
345.259	644.06
345.487	628.06
345.714	625.06
345.942	633.06
346.17	628.06
346.397	621.06
346.625	638.06
346.853	601.06
347.08	632.06
347.308	610.06
347.535	621.06
347.763	618.06
347.99	601.06
348.218	596.06
348.445	586.06
348.673	608.06
348.9	628.06
349.128	591.06
349.355	600.06
349.583	589.06
349.81	608.06
350.037	599.06
350.265	578.06
350.492	600.06
350.72	621.06
350.947	617.06
351.174	605.06
351.402	583.06
351.629	607.06
351.856	597.06
352.083	593.06
352.311	613.06
352.538	610.06
352.765	590.06
352.992	604.06
353.22	584.06
353.447	590.06
353.674	583.06
353.901	596.06
354.128	594.06
354.355	594.06
354.583	597.06
354.81	617.06
355.037	584.06
355.264	599.06
355.491	619.06
355.718	610.06
355.945	609.06
356.172	603.06
356.399	594.06
356.626	592.06
356.853	605.06
357.08	600.06
357.307	622.06
357.534	593.06
357.761	587.06
357.988	620.06
358.215	613.06
358.441	639.06
358.668	599.06
358.895	604.06
359.122	603.06
359.349	602.06
359.576	609.06
359.802	595.06
360.029	590.06
360.256	598.06
360.483	600.06
360.709	618.06
360.936	629.06
361.163	607.06
361.39	620.06
361.616	611.06
361.843	614.06
362.07	603.06
362.296	615.06
362.523	617.06
362.749	596.06
362.976	626.06
363.203	606.06
363.429	613.06
363.656	620.06
363.882	640.06
364.109	638.06
364.335	630.06
364.562	633.06
364.788	612.06
365.015	628.06
365.241	618.06
365.468	619.06
365.694	623.06
365.92	617.06
366.147	615.06
366.373	617.06
366.599	629.06
366.826	612.06
367.052	619.06
367.278	614.06
367.505	627.06
367.731	625.06
367.957	614.06
368.184	634.06
368.41	656.06
368.636	630.06
368.862	625.06
369.089	634.06
369.315	612.06
369.541	640.06
369.767	637.06
369.993	640.06
370.219	645.06
370.445	656.06
370.672	658.06
370.898	642.06
371.124	655.06
371.35	674.06
371.576	640.06
371.802	665.06
372.028	658.06
372.254	644.06
372.48	692.06
372.706	666.06
372.932	679.06
373.158	664.06
373.384	688.06
373.61	680.06
373.835	702.06
374.061	677.06
374.287	680.06
374.513	676.06
374.739	690.06
374.965	713.06
375.191	714.06
375.416	698.06
375.642	648.06
375.868	679.06
376.094	662.06
376.319	683.06
376.545	683.06
376.771	664.06
376.997	648.06
377.222	650.06
377.448	657.06
377.674	645.06
377.899	655.06
378.125	681.06
378.35	644.06
378.576	657.06
378.802	669.06
379.027	645.06
379.253	686.06
379.478	668.06
379.704	657.06
379.929	652.06
380.155	666.06
380.38	648.06
380.606	662.06
380.831	653.06
381.057	678.06
381.282	703.06
381.507	684.06
381.733	675.06
381.958	675.06
382.184	682.06
382.409	706.06
382.634	684.06
382.86	683.06
383.085	714.06
383.31	688.06
383.535	694.06
383.761	688.06
383.986	676.06
384.211	706.06
384.436	704.06
384.662	706.06
384.887	705.06
385.112	739.06
385.337	718.06
385.562	735.06
385.787	753.06
386.013	750.06
386.238	766.06
386.463	747.06
386.688	760.06
386.913	734.06
387.138	757.06
387.363	749.06
387.588	752.06
387.813	772.06
388.038	785.06
388.263	748.06
388.488	773.06
388.713	764.06
388.938	757.06
389.163	745.06
389.387	782.06
389.612	774.06
389.837	753.06
390.062	761.06
390.287	767.06
390.512	756.06
390.736	737.06
390.961	788.06
391.186	782.06
391.411	776.06
391.636	780.06
391.86	791.06
392.085	807.06
392.31	784.06
392.534	779.06
392.759	826.06
392.984	816.06
393.208	807.06
393.433	825.06
393.658	838.06
393.882	806.06
394.107	781.06
394.331	782.06
394.556	781.06
394.78	807.06
395.005	798.06
395.229	804.06
395.454	806.06
395.678	805.06
395.903	809.06
396.127	810.06
396.352	812.06
396.576	816.06
396.801	805.06
397.025	849.06
397.249	844.06
397.474	844.06
397.698	830.06
397.922	830.06
398.147	846.06
398.371	861.06
398.595	857.06
398.82	872.06
399.044	912.06
399.268	946.06
399.492	966.06
399.717	997.06
399.941	1024.06
400.165	995.06
400.389	978.06
400.613	966.06
400.837	937.06
401.062	906.06
401.286	914.06
401.51	906.06
401.734	908.06
401.958	882.06
402.182	906.06
402.406	875.06
402.63	881.06
402.854	905.06
403.078	870.06
403.302	884.06
403.526	868.06
403.75	896.06
403.974	942.06
404.198	907.06
404.422	874.06
404.645	883.06
404.869	896.06
405.093	910.06
405.317	896.06
405.541	925.06
405.765	893.06
405.988	906.06
406.212	950.06
406.436	938.06
406.66	972.06
406.883	964.06
407.107	961.06
407.331	946.06
407.555	1034.06
407.778	977.06
408.002	984.06
408.226	986.06
408.449	963.06
408.673	964.06
408.896	955.06
409.12	973.06
409.344	972.06
409.567	956.06
409.791	949.06
410.014	934.06
410.238	936.06
410.461	937.06
410.685	917.06
410.908	926.06
411.132	904.06
411.355	909.06
411.578	924.06
411.802	897.06
412.025	861.06
412.249	933.06
412.472	937.06
412.695	909.06
412.919	898.06
413.142	893.06
413.365	892.06
413.589	899.06
413.812	882.06
414.035	885.06
414.258	888.06
414.482	877.06
414.705	894.06
414.928	874.06
415.151	877.06
415.374	899.06
415.597	851.06
415.821	834.06
416.044	846.06
416.267	834.06
416.49	874.06
416.713	869.06
416.936	867.06
417.159	853.06
417.382	854.06
417.605	837.06
417.828	836.06
418.051	844.06
418.274	844.06
418.497	826.06
418.72	817.06
418.943	835.06
419.166	876.06
419.389	953.06
419.611	924.06
419.834	883.06
420.057	871.06
420.28	830.06
420.503	852.06
420.726	823.06
420.948	836.06
421.171	816.06
421.394	837.06
421.617	859.06
421.839	824.06
422.062	836.06
422.285	800.06
422.507	836.06
422.73	827.06
422.953	825.06
423.175	817.06
423.398	853.06
423.621	817.06
423.843	844.06
424.066	812.06
424.288	818.06
424.511	816.06
424.733	817.06
424.956	792.06
425.178	814.06
425.401	841.06
425.623	844.06
425.846	790.06
426.068	813.06
426.291	819.06
426.513	835.06
426.735	804.06
426.958	832.06
427.18	821.06
427.402	795.06
427.625	820.06
427.847	806.06
428.069	790.06
428.292	813.06
428.514	822.06
428.736	803.06
428.958	818.06
429.181	803.06
429.403	769.06
429.625	793.06
429.847	777.06
430.069	789.06
430.292	804.06
430.514	786.06
430.736	804.06
430.958	819.06
431.18	816.06
431.402	810.06
431.624	782.06
431.846	778.06
432.068	817.06
432.29	818.06
432.512	779.06
432.734	802.06
432.956	797.06
433.178	813.06
433.4	779.06
433.622	819.06
433.844	806.06
434.066	828.06
434.287	807.06
434.509	826.06
434.731	837.06
434.953	799.06
435.175	803.06
435.397	836.06
435.618	801.06
435.84	799.06
436.062	798.06
436.284	817.06
436.505	782.06
436.727	782.06
436.949	811.06
437.17	806.06
437.392	798.06
437.614	793.06
437.835	776.06
438.057	776.06
438.278	765.06
438.5	762.06
438.721	782.06
438.943	761.06
439.165	756.06
439.386	743.06
439.608	774.06
439.829	763.06
440.05	762.06
440.272	748.06
440.493	762.06
440.715	775.06
440.936	786.06
441.158	780.06
441.379	779.06
441.6	812.06
441.822	827.06
442.043	790.06
442.264	796.06
442.486	789.06
442.707	805.06
442.928	806.06
443.149	818.06
443.371	812.06
443.592	810.06
443.813	806.06
444.034	801.06
444.255	814.06
444.476	802.06
444.698	861.06
444.919	850.06
445.14	946.06
445.361	858.06
445.582	834.06
445.803	818.06
446.024	797.06
446.245	800.06
446.466	782.06
446.687	800.06
446.908	790.06
447.129	771.06
447.35	747.06
447.571	753.06
447.792	755.06
448.013	768.06
448.234	767.06
448.455	763.06
448.675	736.06
448.896	756.06
449.117	731.06
449.338	713.06
449.559	713.06
449.779	726.06
450	734.06
450.221	706.06
450.442	701.06
450.662	728.06
450.883	716.06
451.104	728.06
451.324	697.06
451.545	723.06
451.766	733.06
451.986	694.06
452.207	696.06
452.428	716.06
452.648	723.06
452.869	696.06
453.089	681.06
453.31	722.06
453.53	699.06
453.751	701.06
453.971	698.06
454.192	714.06
454.412	686.06
454.633	682.06
454.853	696.06
455.073	690.06
455.294	694.06
455.514	683.06
455.734	701.06
455.955	665.06
456.175	685.06
456.395	675.06
456.616	693.06
456.836	701.06
457.056	704.06
457.276	690.06
457.497	713.06
457.717	717.06
457.937	725.06
458.157	738.06
458.377	709.06
458.598	738.06
458.818	731.06
459.038	739.06
459.258	761.06
459.478	758.06
459.698	790.06
459.918	780.06
460.138	770.06
460.358	790.06
460.578	851.06
460.798	831.06
461.018	836.06
461.238	825.06
461.458	854.06
461.678	830.06
461.898	861.06
462.118	867.06
462.338	846.06
462.558	880.06
462.777	904.06
462.997	894.06
463.217	928.06
463.437	938.06
463.657	909.06
463.876	915.06
464.096	928.06
464.316	905.06
464.536	906.06
464.755	861.06
464.975	879.06
465.195	845.06
465.414	857.06
465.634	798.06
465.854	805.06
466.073	804.06
466.293	806.06
466.512	772.06
466.732	783.06
466.951	786.06
467.171	786.06
467.391	766.06
467.61	765.06
467.829	785.06
468.049	760.06
468.268	757.06
468.488	728.06
468.707	761.06
468.927	752.06
469.146	764.06
469.365	753.06
469.585	733.06
469.804	761.06
470.023	758.06
470.243	772.06
470.462	762.06
470.681	761.06
470.901	775.06
471.12	779.06
471.339	778.06
471.558	788.06
471.777	759.06
471.997	752.06
472.216	748.06
472.435	770.06
472.654	758.06
472.873	740.06
473.092	768.06
473.311	779.06
473.53	755.06
473.749	765.06
473.968	772.06
474.187	775.06
474.406	777.06
474.625	785.06
474.844	788.06
475.063	809.06
475.282	794.06
475.501	782.06
475.72	794.06
475.939	798.06
476.158	823.06
476.377	832.06
476.596	832.06
476.814	859.06
477.033	854.06
477.252	827.06
477.471	840.06
477.69	845.06
477.908	846.06
478.127	858.06
478.346	855.06
478.564	884.06
478.783	885.06
479.002	873.06
479.22	911.06
479.439	906.06
479.658	888.06
479.876	893.06
480.095	910.06
480.313	922.06
480.532	937.06
480.751	929.06
480.969	899.06
481.188	918.06
481.406	916.06
481.624	916.06
481.843	915.06
482.061	906.06
482.28	936.06
482.498	900.06
482.717	904.06
482.935	889.06
483.153	900.06
483.372	882.06
483.59	908.06
483.808	912.06
484.027	910.06
484.245	900.06
484.463	911.06
484.681	892.06
484.9	922.06
485.118	931.06
485.336	919.06
485.554	944.06
485.772	941.06
485.99	936.06
486.209	918.06
486.427	904.06
486.645	956.06
486.863	930.06
487.081	926.06
487.299	934.06
487.517	937.06
487.735	903.06
487.953	930.06
488.171	941.06
488.389	953.06
488.607	906.06
488.825	945.06
489.043	910.06
489.261	943.06
489.479	960.06
489.696	943.06
489.914	957.06
490.132	934.06
490.35	956.06
490.568	925.06
490.786	935.06
491.003	938.06
491.221	945.06
491.439	942.06
491.657	942.06
491.874	954.06
492.092	955.06
492.31	970.06
492.527	931.06
492.745	936.06
492.963	965.06
493.18	945.06
493.398	977.06
493.615	967.06
493.833	972.06
494.05	947.06
494.268	979.06
494.485	962.06
494.703	1002.06
494.92	973.06
495.138	995.06
495.355	1005.06
495.573	986.06
495.79	1001.06
496.008	1027.06
496.225	996.06
496.442	1012.06
496.66	1057.06
496.877	1044.06
497.094	1070.06
497.312	1076.06
497.529	1084.06
497.746	1096.06
497.963	1129.06
498.181	1176.06
498.398	1185.06
498.615	1241.06
498.832	1222.06
499.049	1272.06
499.267	1261.06
499.484	1338.06
499.701	1413.06
499.918	1442.06
500.135	1470.06
500.352	1572.06
500.569	1552.06
500.786	1579.06
501.003	1545.06
501.22	1488.06
501.437	1436.06
501.654	1368.06
501.871	1346.06
502.088	1306.06
502.305	1260.06
502.522	1213.06
502.739	1208.06
502.956	1162.06
503.172	1173.06
503.389	1111.06
503.606	1112.06
503.823	1083.06
504.04	1084.06
504.256	1073.06
504.473	1049.06
504.69	1044.06
504.907	1058.06
505.123	1016.06
505.34	1004.06
505.557	1007.06
505.773	966.06
505.99	965.06
506.207	954.06
506.423	929.06
506.64	933.06
506.856	932.06
507.073	910.06
507.289	889.06
507.506	901.06
507.722	891.06
507.939	893.06
508.155	920.06
508.372	872.06
508.588	859.06
508.805	861.06
509.021	862.06
509.238	852.06
509.454	841.06
509.67	840.06
509.887	842.06
510.103	829.06
510.319	856.06
510.536	873.06
510.752	873.06
510.968	855.06
511.184	843.06
511.401	816.06
511.617	812.06
511.833	827.06
512.049	792.06
512.265	832.06
512.481	826.06
512.698	813.06
512.914	848.06
513.13	841.06
513.346	793.06
513.562	798.06
513.778	843.06
513.994	820.06
514.21	833.06
514.426	853.06
514.642	812.06
514.858	816.06
515.074	806.06
515.29	840.06
515.506	826.06
515.721	850.06
515.937	857.06
516.153	849.06
516.369	861.06
516.585	864.06
516.801	884.06
517.016	890.06
517.232	909.06
517.448	888.06
517.664	888.06
517.879	909.06
518.095	891.06
518.311	902.06
518.527	872.06
518.742	887.06
518.958	864.06
519.173	872.06
519.389	860.06
519.605	834.06
519.82	837.06
520.036	840.06
520.251	846.06
520.467	834.06
520.682	822.06
520.898	798.06
521.113	829.06
521.329	821.06
521.544	811.06
521.76	799.06
521.975	781.06
522.19	786.06
522.406	792.06
522.621	783.06
522.836	797.06
523.052	755.06
523.267	756.06
523.482	773.06
523.698	773.06
523.913	726.06
524.128	768.06
524.343	745.06
524.559	764.06
524.774	770.06
524.989	756.06
525.204	766.06
525.419	754.06
525.634	731.06
525.849	762.06
526.064	795.06
526.28	757.06
526.495	756.06
526.71	754.06
526.925	741.06
527.14	751.06
527.355	731.06
527.57	738.06
527.785	756.06
527.999	725.06
528.214	720.06
528.429	730.06
528.644	745.06
528.859	744.06
529.074	726.06
529.289	726.06
529.503	737.06
529.718	753.06
529.933	714.06
530.148	733.06
530.363	745.06
530.577	725.06
530.792	715.06
531.007	722.06
531.221	728.06
531.436	724.06
531.651	733.06
531.865	721.06
532.08	700.06
532.295	709.06
532.509	712.06
532.724	723.06
532.938	726.06
533.153	700.06
533.367	723.06
533.582	718.06
533.796	731.06
534.011	718.06
534.225	736.06
534.44	714.06
534.654	715.06
534.868	702.06
535.083	692.06
535.297	682.06
535.511	702.06
535.726	711.06
535.94	682.06
536.154	673.06
536.369	697.06
536.583	690.06
536.797	685.06
537.011	669.06
537.225	685.06
537.44	698.06
537.654	714.06
537.868	649.06
538.082	682.06
538.296	713.06
538.51	650.06
538.724	672.06
538.938	664.06
539.153	669.06
539.367	691.06
539.581	667.06
539.795	655.06
540.009	669.06
540.222	672.06
540.436	673.06
540.65	642.06
540.864	679.06
541.078	655.06
541.292	674.06
541.506	650.06
541.72	673.06
541.934	691.06
542.147	660.06
542.361	643.06
542.575	634.06
542.789	659.06
543.002	658.06
543.216	671.06
543.43	640.06
543.644	637.06
543.857	660.06
544.071	680.06
544.285	669.06
544.498	651.06
544.712	658.06
544.925	656.06
545.139	657.06
545.352	654.06
545.566	665.06
545.779	673.06
545.993	651.06
546.206	660.06
546.42	655.06
546.633	636.06
546.847	636.06
547.06	661.06
547.274	698.06
547.487	653.06
547.7	666.06
547.914	659.06
548.127	654.06
548.34	664.06
548.554	650.06
548.767	651.06
548.98	681.06
549.193	662.06
549.407	640.06
549.62	652.06
549.833	668.06
550.046	641.06
550.259	653.06
550.473	639.06
550.686	652.06
550.899	645.06
551.112	660.06
551.325	658.06
551.538	661.06
551.751	653.06
551.964	643.06
552.177	649.06
552.39	654.06
552.603	641.06
552.816	643.06
553.029	651.06
553.242	636.06
553.455	661.06
553.667	646.06
553.88	659.06
554.093	627.06
554.306	630.06
554.519	617.06
554.732	637.06
554.944	611.06
555.157	628.06
555.37	636.06
555.583	619.06
555.795	604.06
556.008	581.06
556.221	604.06
556.433	589.06
556.646	576.06
556.859	588.06
557.071	583.06
557.284	588.06
557.496	566.06
557.709	608.06
557.921	595.06
558.134	566.06
558.346	590.06
558.559	586.06
558.771	583.06
558.984	577.06
559.196	570.06
559.409	571.06
559.621	570.06
559.833	566.06
560.046	577.06
560.258	558.06
560.47	577.06
560.683	578.06
560.895	605.06
561.107	563.06
561.32	564.06
561.532	562.06
561.744	565.06
561.956	567.06
562.168	556.06
562.381	551.06
562.593	577.06
562.805	598.06
563.017	600.06
563.229	576.06
563.441	584.06
563.653	570.06
563.865	565.06
564.077	587.06
564.289	588.06
564.501	590.06
564.713	600.06
564.925	594.06
565.137	610.06
565.349	610.06
565.561	577.06
565.773	638.06
565.985	664.06
566.197	638.06
566.408	666.06
566.62	646.06
566.832	665.06
567.044	660.06
567.255	680.06
567.467	669.06
567.679	656.06
567.891	696.06
568.102	689.06
568.314	669.06
568.526	662.06
568.737	645.06
568.949	608.06
569.161	629.06
569.372	608.06
569.584	586.06
569.795	582.06
570.007	567.06
570.218	568.06
570.43	550.06
570.641	556.06
570.853	548.06
571.064	544.06
571.276	534.06
571.487	533.06
571.698	521.06
571.91	512.06
572.121	498.06
572.333	522.06
572.544	492.06
572.755	514.06
572.966	510.06
573.178	493.06
573.389	486.06
573.6	474.06
573.811	487.06
574.023	466.06
574.234	482.06
574.445	466.06
574.656	458.06
574.867	455.06
575.078	459.06
575.289	457.06
575.501	459.06
575.712	457.06
575.923	454.06
576.134	471.06
576.345	451.06
576.556	437.06
576.767	435.06
576.978	444.06
577.188	449.06
577.399	460.06
577.61	428.06
577.821	414.06
578.032	408.06
578.243	427.06
578.454	438.06
578.665	450.06
578.875	439.06
579.086	421.06
579.297	444.06
579.508	427.06
579.718	430.06
579.929	421.06
580.14	389.06
580.35	404.06
580.561	441.06
580.772	416.06
580.982	403.06
581.193	408.06
581.403	421.06
581.614	433.06
581.825	410.06
582.035	421.06
582.246	403.06
582.456	392.06
582.667	406.06
582.877	406.06
583.087	419.06
583.298	413.06
583.508	397.06
583.719	395.06
583.929	401.06
584.139	405.06
584.35	388.06
584.56	416.06
584.77	384.06
584.981	406.06
585.191	406.06
585.401	399.06
585.611	396.06
585.821	392.06
586.032	390.06
586.242	390.06
586.452	394.06
586.662	391.06
586.872	387.06
587.082	405.06
587.292	386.06
587.502	382.06
587.713	392.06
587.923	389.06
588.133	388.06
588.343	378.06
588.553	382.06
588.762	404.06
588.972	404.06
589.182	451.06
589.392	426.06
589.602	390.06
589.812	431.06
590.022	424.06
590.232	404.06
590.441	403.06
590.651	391.06
590.861	397.06
591.071	390.06
591.281	411.06
591.49	386.06
591.7	397.06
591.91	402.06
592.119	390.06
592.329	400.06
592.539	399.06
592.748	393.06
592.958	401.06
593.167	393.06
593.377	412.06
593.587	402.06
593.796	391.06
594.006	412.06
594.215	388.06
594.424	395.06
594.634	380.06
594.843	387.06
595.053	381.06
595.262	400.06
595.472	385.06
595.681	380.06
595.89	372.06
596.1	364.06
596.309	357.06
596.518	340.06
596.727	374.06
596.937	356.06
597.146	356.06
597.355	339.06
597.564	341.06
597.774	359.06
597.983	344.06
598.192	343.06
598.401	347.06
598.61	353.06
598.819	325.06
599.028	341.06
599.237	349.06
599.446	328.06
599.655	329.06
599.864	329.06
600.073	329.06
600.282	337.06
600.491	313.06
600.7	326.06
600.909	331.06
601.118	316.06
601.327	312.06
601.536	325.06
601.745	321.06
601.953	325.06
602.162	330.06
602.371	309.06
602.58	308.06
602.789	327.06
602.997	320.06
603.206	305.06
603.415	317.06
603.623	320.06
603.832	317.06
604.041	313.06
604.249	294.06
604.458	315.06
604.666	340.06
604.875	299.06
605.084	297.06
605.292	301.06
605.501	320.06
605.709	306.06
605.918	304.06
606.126	311.06
606.334	304.06
606.543	299.06
606.751	310.06
606.96	304.06
607.168	311.06
607.376	313.06
607.585	283.06
607.793	299.06
608.001	317.06
608.21	312.06
608.418	288.06
608.626	307.06
608.834	306.06
609.043	292.06
609.251	314.06
609.459	305.06
609.667	285.06
609.875	304.06
610.083	286.06
610.291	293.06
610.499	287.06
610.707	281.06
610.916	293.06
611.124	292.06
611.332	288.06
611.54	289.06
611.748	282.06
611.955	284.06
612.163	273.06
612.371	306.06
612.579	304.06
612.787	292.06
612.995	285.06
613.203	284.06
613.411	289.06
613.618	269.06
613.826	286.06
614.034	256.06
614.242	277.06
614.449	290.06
614.657	278.06
614.865	297.06
615.072	274.06
615.28	270.06
615.488	282.06
615.695	279.06
615.903	297.06
616.111	274.06
616.318	284.06
616.526	284.06
616.733	286.06
616.941	272.06
617.148	306.06
617.356	275.06
617.563	274.06
617.771	272.06
617.978	262.06
618.185	286.06
618.393	283.06
618.6	297.06
618.807	283.06
619.015	265.06
619.222	285.06
619.429	278.06
619.637	265.06
619.844	259.06
620.051	274.06
620.258	280.06
620.466	269.06
620.673	269.06
620.88	273.06
621.087	268.06
621.294	264.06
621.501	265.06
621.708	266.06
621.915	262.06
622.122	259.06
622.329	251.06
622.536	273.06
622.743	265.06
622.95	261.06
623.157	251.06
623.364	251.06
623.571	270.06
623.778	261.06
623.985	249.06
624.192	271.06
624.399	268.06
624.606	251.06
624.812	256.06
625.019	268.06
625.226	233.06
625.433	241.06
625.639	253.06
625.846	255.06
626.053	260.06
626.259	246.06
626.466	242.06
626.673	257.06
626.879	226.06
627.086	235.06
627.293	243.06
627.499	244.06
627.706	241.06
627.912	247.06
628.119	245.06
628.325	256.06
628.532	244.06
628.738	244.06
628.945	225.06
629.151	235.06
629.357	238.06
629.564	234.06
629.77	212.06
629.976	222.06
630.183	222.06
630.389	206.06
630.595	218.06
630.802	232.06
631.008	232.06
631.214	229.06
631.42	215.06
631.627	243.06
631.833	238.06
632.039	235.06
632.245	220.06
632.451	220.06
632.657	235.06
632.863	202.06
633.069	225.06
633.275	242.06
633.481	224.06
633.688	219.06
633.893	215.06
634.099	214.06
634.305	227.06
634.511	214.06
634.717	221.06
634.923	205.06
635.129	215.06
635.335	217.06
635.541	212.06
635.747	217.06
635.952	211.06
636.158	218.06
636.364	220.06
636.57	206.06
636.775	208.06
636.981	217.06
637.187	225.06
637.392	213.06
637.598	217.06
637.804	217.06
638.009	222.06
638.215	207.06
638.421	219.06
638.626	204.06
638.832	204.06
639.037	198.06
639.243	205.06
639.448	203.06
639.654	205.06
639.859	213.06
640.065	203.06
640.27	210.06
640.475	208.06
640.681	217.06
640.886	219.06
641.091	219.06
641.297	200.06
641.502	200.06
641.707	182.06
641.913	195.06
642.118	196.06
642.323	196.06
642.528	212.06
642.733	202.06
642.939	196.06
643.144	202.06
643.349	212.06
643.554	197.06
643.759	196.06
643.964	202.06
644.169	199.06
644.374	210.06
644.579	203.06
644.784	198.06
644.989	213.06
645.194	217.06
645.399	206.06
645.604	205.06
645.809	210.06
646.014	202.06
646.219	202.06
646.423	193.06
646.628	199.06
646.833	205.06
647.038	216.06
647.243	189.06
647.447	201.06
647.652	213.06
647.857	217.06
648.062	200.06
648.266	196.06
648.471	194.06
648.676	211.06
648.88	207.06
649.085	211.06
649.289	200.06
649.494	204.06
649.698	198.06
649.903	195.06
650.107	192.06
650.312	216.06
650.516	198.06
650.721	197.06
650.925	192.06
651.13	186.06
651.334	179.06
651.539	171.06
651.743	198.06
651.947	188.06
652.152	181.06
652.356	188.06
652.56	183.06
652.764	183.06
652.969	185.06
653.173	181.06
653.377	171.06
653.581	183.06
653.785	168.06
653.99	180.06
654.194	168.06
654.398	177.06
654.602	165.06
654.806	168.06
655.01	175.06
655.214	169.06
655.418	160.06
655.622	151.06
655.826	167.06
656.03	168.06
656.234	189.06
656.438	181.06
656.642	170.06
656.846	180.06
657.049	152.06
657.253	163.06
657.457	146.06
657.661	137.06
657.865	142.06
658.068	127.06
658.272	124.06
658.476	132.06
658.68	121.06
658.883	108.06
659.087	122.06
659.291	127.06
659.494	107.06
659.698	119.06
659.901	110.06
660.105	112.06
660.309	100.06
660.512	112.06
660.716	100.06
660.919	90.06
661.123	103.06
661.326	107.06
661.53	90.06
661.733	86.06
661.936	101.06
662.14	85.06
662.343	84.06
662.546	98.06
662.75	92.06
662.953	95.06
663.156	86.06
663.36	80.06
663.563	84.06
663.766	84.06
663.969	80.06
664.173	80.06
664.376	98.06
664.579	82.06
664.782	89.06
664.985	84.06
665.188	79.06
665.391	82.06
665.594	72.06
665.797	83.06
666	84.06
666.203	85.06
666.406	77.06
666.609	71.06
666.812	77.06
667.015	82.06
667.218	78.06
667.421	84.06
667.624	88.06
667.827	83.06
668.03	82.06
668.232	94.06
668.435	87.06
668.638	102.06
668.841	87.06
669.043	93.06
669.246	82.06
669.449	84.06
669.651	73.06
669.854	77.06
670.057	76.06
670.259	74.06
670.462	105.06
670.665	66.06
670.867	79.06
671.07	68.06
671.272	95.06
671.475	103.06
671.677	96.06
671.88	89.06
672.082	64.06
672.284	86.06
672.487	82.06
672.689	72.06
672.892	86.06
