Data from Fe(NO3)3@0.05M.TitratingCurve.Agarose3%dH2O.NegLispCup.LampEnergy10.LIBS07252019_HRD10591_16-47-05-334.txt Node
Date: Thu Jul 25 16:47:05 EDT 2019
User: cochatt
Spectrometer: HR+D1059
Trigger mode: 1
Integration Time (sec): 1.000000E-1
Scans to average: 1
Electric dark correction enabled: true
Nonlinearity correction enabled: false
Boxcar width: 0
XAxis mode: Wavelengths
Number of Pixels in Spectrum: 2048
>>>>>Begin Spectral Data<<<<<
223.165	-15.19
223.4	-15.19
223.635	-15.19
223.869	-16.19
224.104	-8.19
224.338	-20.19
224.573	-25.19
224.808	-15.19
225.042	-9.19
225.277	-2.19
225.511	-4.19
225.746	2.81
225.98	17.81
226.215	10.81
226.449	17.81
226.683	3.81
226.918	24.81
227.152	37.81
227.387	38.81
227.621	36.81
227.856	48.81
228.09	40.81
228.324	52.81
228.559	64.81
228.793	68.81
229.027	115.81
229.262	129.81
229.496	129.81
229.73	147.81
229.964	153.81
230.199	144.81
230.433	139.81
230.667	166.81
230.901	141.81
231.136	160.81
231.37	182.81
231.604	162.81
231.838	160.81
232.072	161.81
232.306	155.81
232.541	184.81
232.775	164.81
233.009	178.81
233.243	177.81
233.477	168.81
233.711	180.81
233.945	174.81
234.179	175.81
234.413	187.81
234.647	194.81
234.881	185.81
235.115	199.81
235.349	185.81
235.583	195.81
235.817	188.81
236.051	181.81
236.285	192.81
236.519	195.81
236.753	219.81
236.987	204.81
237.221	211.81
237.455	204.81
237.689	214.81
237.922	198.81
238.156	218.81
238.39	231.81
238.624	229.81
238.858	238.81
239.091	242.81
239.325	222.81
239.559	236.81
239.793	245.81
240.027	252.81
240.26	257.81
240.494	260.81
240.728	247.81
240.961	260.81
241.195	258.81
241.429	251.81
241.662	256.81
241.896	244.81
242.13	254.81
242.363	236.81
242.597	240.81
242.83	254.81
243.064	261.81
243.298	255.81
243.531	274.81
243.765	294.81
243.998	278.81
244.232	283.81
244.465	254.81
244.699	280.81
244.932	282.81
245.166	276.81
245.399	275.81
245.633	276.81
245.866	279.81
246.099	293.81
246.333	310.81
246.566	281.81
246.8	286.81
247.033	301.81
247.266	310.81
247.5	300.81
247.733	294.81
247.966	314.81
248.2	320.81
248.433	306.81
248.666	341.81
248.899	322.81
249.133	313.81
249.366	332.81
249.599	351.81
249.832	315.81
250.066	335.81
250.299	339.81
250.532	347.81
250.765	329.81
250.998	339.81
251.231	326.81
251.465	342.81
251.698	360.81
251.931	349.81
252.164	359.81
252.397	374.81
252.63	379.81
252.863	366.81
253.096	383.81
253.329	372.81
253.562	369.81
253.795	404.81
254.028	378.81
254.261	413.81
254.494	390.81
254.727	374.81
254.96	374.81
255.193	396.81
255.426	387.81
255.659	391.81
255.892	387.81
256.124	398.81
256.357	401.81
256.59	419.81
256.823	422.81
257.056	390.81
257.289	419.81
257.521	395.81
257.754	400.81
257.987	407.81
258.22	399.81
258.452	417.81
258.685	418.81
258.918	425.81
259.151	428.81
259.383	427.81
259.616	424.81
259.849	447.81
260.081	483.81
260.314	519.81
260.547	467.81
260.779	446.81
261.012	452.81
261.244	464.81
261.477	490.81
261.71	479.81
261.942	444.81
262.175	446.81
262.407	466.81
262.64	472.81
262.872	459.81
263.105	477.81
263.337	494.81
263.57	502.81
263.802	468.81
264.035	442.81
264.267	447.81
264.499	466.81
264.732	456.81
264.964	454.81
265.197	477.81
265.429	481.81
265.661	488.81
265.894	479.81
266.126	491.81
266.358	486.81
266.591	476.81
266.823	481.81
267.055	488.81
267.287	487.81
267.52	465.81
267.752	487.81
267.984	477.81
268.216	498.81
268.448	506.81
268.681	489.81
268.913	490.81
269.145	501.81
269.377	504.81
269.609	517.81
269.841	473.81
270.073	500.81
270.306	524.81
270.538	529.81
270.77	516.81
271.002	536.81
271.234	521.81
271.466	537.81
271.698	546.81
271.93	527.81
272.162	547.81
272.394	541.81
272.626	543.81
272.858	563.81
273.09	567.81
273.322	559.81
273.553	558.81
273.785	583.81
274.017	594.81
274.249	648.81
274.481	640.81
274.713	635.81
274.945	668.81
275.176	662.81
275.408	662.81
275.64	660.81
275.872	656.81
276.104	607.81
276.335	583.81
276.567	591.81
276.799	590.81
277.031	604.81
277.262	586.81
277.494	602.81
277.726	596.81
277.957	609.81
278.189	618.81
278.421	590.81
278.652	616.81
278.884	612.81
279.115	621.81
279.347	596.81
279.579	623.81
279.81	622.81
280.042	615.81
280.273	632.81
280.505	595.81
280.736	636.81
280.968	627.81
281.199	647.81
281.431	651.81
281.662	611.81
281.894	624.81
282.125	630.81
282.356	630.81
282.588	636.81
282.819	650.81
283.051	642.81
283.282	640.81
283.513	680.81
283.745	641.81
283.976	676.81
284.207	686.81
284.439	661.81
284.67	670.81
284.901	679.81
285.132	674.81
285.364	672.81
285.595	665.81
285.826	665.81
286.057	658.81
286.288	682.81
286.52	686.81
286.751	678.81
286.982	676.81
287.213	683.81
287.444	698.81
287.675	682.81
287.906	708.81
288.138	693.81
288.369	700.81
288.6	686.81
288.831	688.81
289.062	699.81
289.293	714.81
289.524	705.81
289.755	707.81
289.986	712.81
290.217	700.81
290.448	692.81
290.679	695.81
290.91	712.81
291.141	719.81
291.371	699.81
291.602	708.81
291.833	709.81
292.064	740.81
292.295	725.81
292.526	732.81
292.757	693.81
292.987	734.81
293.218	715.81
293.449	740.81
293.68	755.81
293.91	715.81
294.141	724.81
294.372	704.81
294.603	740.81
294.833	741.81
295.064	746.81
295.295	732.81
295.525	716.81
295.756	740.81
295.987	741.81
296.217	748.81
296.448	744.81
296.679	759.81
296.909	760.81
297.14	759.81
297.37	777.81
297.601	802.81
297.831	779.81
298.062	776.81
298.292	757.81
298.523	786.81
298.753	800.81
298.984	787.81
299.214	786.81
299.445	754.81
299.675	787.81
299.905	801.81
300.136	767.81
300.366	787.81
300.597	797.81
300.827	804.81
301.057	801.81
301.288	816.81
301.518	792.81
301.748	833.81
301.979	823.81
302.209	845.81
302.439	810.81
302.669	822.81
302.9	833.81
303.13	802.81
303.36	826.81
303.59	834.81
303.82	819.81
304.051	848.81
304.281	840.81
304.511	811.81
304.741	851.81
304.971	835.81
305.201	828.81
305.431	828.81
305.661	839.81
305.891	862.81
306.121	855.81
306.352	837.81
306.582	825.81
306.812	804.81
307.042	815.81
307.272	816.81
307.502	844.81
307.731	836.81
307.961	833.81
308.191	827.81
308.421	821.81
308.651	847.81
308.881	833.81
309.111	834.81
309.341	829.81
309.571	817.81
309.8	868.81
310.03	855.81
310.26	887.81
310.49	846.81
310.72	838.81
310.949	871.81
311.179	853.81
311.409	884.81
311.639	862.81
311.868	867.81
312.098	873.81
312.328	879.81
312.557	870.81
312.787	875.81
313.017	891.81
313.246	894.81
313.476	872.81
313.706	928.81
313.935	893.81
314.165	894.81
314.394	897.81
314.624	912.81
314.853	894.81
315.083	912.81
315.312	944.81
315.542	923.81
315.771	895.81
316.001	918.81
316.23	914.81
316.46	905.81
316.689	909.81
316.919	898.81
317.148	935.81
317.377	929.81
317.607	915.81
317.836	913.81
318.065	923.81
318.295	927.81
318.524	932.81
318.753	932.81
318.983	906.81
319.212	905.81
319.441	944.81
319.67	904.81
319.9	934.81
320.129	930.81
320.358	924.81
320.587	907.81
320.816	946.81
321.046	952.81
321.275	920.81
321.504	938.81
321.733	934.81
321.962	943.81
322.191	937.81
322.42	939.81
322.649	937.81
322.878	929.81
323.108	956.81
323.337	955.81
323.566	948.81
323.795	938.81
324.024	984.81
324.253	964.81
324.482	974.81
324.71	974.81
324.939	983.81
325.168	990.81
325.397	978.81
325.626	970.81
325.855	983.81
326.084	1002.81
326.313	1011.81
326.542	956.81
326.77	974.81
326.999	968.81
327.228	976.81
327.457	1004.81
327.686	999.81
327.914	1032.81
328.143	1028.81
328.372	1036.81
328.6	1028.81
328.829	1026.81
329.058	1026.81
329.287	1001.81
329.515	1034.81
329.744	1022.81
329.972	1027.81
330.201	1027.81
330.43	1028.81
330.658	1075.81
330.887	1044.81
331.115	1072.81
331.344	1066.81
331.572	1090.81
331.801	1075.81
332.03	1063.81
332.258	1083.81
332.486	1092.81
332.715	1107.81
332.943	1122.81
333.172	1109.81
333.4	1154.81
333.629	1140.81
333.857	1172.81
334.085	1176.81
334.314	1195.81
334.542	1178.81
334.771	1187.81
334.999	1205.81
335.227	1213.81
335.455	1166.81
335.684	1178.81
335.912	1210.81
336.14	1184.81
336.369	1200.81
336.597	1183.81
336.825	1158.81
337.053	1170.81
337.281	1161.81
337.51	1172.81
337.738	1161.81
337.966	1130.81
338.194	1134.81
338.422	1136.81
338.65	1119.81
338.878	1122.81
339.106	1144.81
339.334	1128.81
339.562	1129.81
339.79	1103.81
340.018	1094.81
340.246	1076.81
340.474	1072.81
340.702	1084.81
340.93	1099.81
341.158	1094.81
341.386	1072.81
341.614	1114.81
341.842	1072.81
342.07	1064.81
342.298	1092.81
342.526	1080.81
342.754	1084.81
342.981	1099.81
343.209	1101.81
343.437	1154.81
343.665	1141.81
343.893	1160.81
344.12	1228.81
344.348	1231.81
344.576	1171.81
344.804	1176.81
345.031	1118.81
345.259	1124.81
345.487	1103.81
345.714	1094.81
345.942	1099.81
346.17	1086.81
346.397	1080.81
346.625	1050.81
346.853	1054.81
347.08	1040.81
347.308	1050.81
347.535	1031.81
347.763	1040.81
347.99	1036.81
348.218	1031.81
348.445	1038.81
348.673	1047.81
348.9	1046.81
349.128	1026.81
349.355	1048.81
349.583	1037.81
349.81	1027.81
350.037	1001.81
350.265	1032.81
350.492	1026.81
350.72	1029.81
350.947	1008.81
351.174	1028.81
351.402	1017.81
351.629	1034.81
351.856	1038.81
352.083	1044.81
352.311	999.81
352.538	1039.81
352.765	1017.81
352.992	1013.81
353.22	1014.81
353.447	1018.81
353.674	993.81
353.901	1050.81
354.128	1014.81
354.355	1014.81
354.583	1028.81
354.81	1007.81
355.037	1012.81
355.264	1042.81
355.491	1020.81
355.718	1025.81
355.945	1012.81
356.172	1029.81
356.399	1052.81
356.626	1054.81
356.853	1044.81
357.08	1086.81
357.307	1051.81
357.534	1034.81
357.761	1058.81
357.988	1066.81
358.215	1072.81
358.441	1060.81
358.668	1079.81
358.895	1036.81
359.122	1001.81
359.349	1047.81
359.576	1031.81
359.802	1039.81
360.029	1027.81
360.256	1043.81
360.483	1064.81
360.709	1058.81
360.936	1088.81
361.163	1052.81
361.39	1044.81
361.616	1060.81
361.843	1054.81
362.07	1035.81
362.296	1052.81
362.523	1046.81
362.749	1060.81
362.976	1036.81
363.203	1046.81
363.429	1046.81
363.656	1055.81
363.882	1058.81
364.109	1073.81
364.335	1074.81
364.562	1053.81
364.788	1067.81
365.015	1064.81
365.241	1073.81
365.468	1060.81
365.694	1058.81
365.92	1062.81
366.147	1046.81
366.373	1088.81
366.599	1097.81
366.826	1037.81
367.052	1067.81
367.278	1079.81
367.505	1066.81
367.731	1067.81
367.957	1062.81
368.184	1060.81
368.41	1100.81
368.636	1083.81
368.862	1098.81
369.089	1081.81
369.315	1097.81
369.541	1052.81
369.767	1113.81
369.993	1122.81
370.219	1135.81
370.445	1112.81
370.672	1142.81
370.898	1105.81
371.124	1135.81
371.35	1127.81
371.576	1122.81
371.802	1135.81
372.028	1144.81
372.254	1178.81
372.48	1145.81
372.706	1163.81
372.932	1173.81
373.158	1169.81
373.384	1189.81
373.61	1208.81
373.835	1200.81
374.061	1167.81
374.287	1198.81
374.513	1175.81
374.739	1210.81
374.965	1235.81
375.191	1232.81
375.416	1212.81
375.642	1186.81
375.868	1192.81
376.094	1202.81
376.319	1157.81
376.545	1182.81
376.771	1158.81
376.997	1164.81
377.222	1153.81
377.448	1172.81
377.674	1182.81
377.899	1122.81
378.125	1155.81
378.35	1136.81
378.576	1146.81
378.802	1144.81
379.027	1154.81
379.253	1152.81
379.478	1157.81
379.704	1162.81
379.929	1149.81
380.155	1141.81
380.38	1107.81
380.606	1127.81
380.831	1148.81
381.057	1178.81
381.282	1170.81
381.507	1184.81
381.733	1216.81
381.958	1193.81
382.184	1230.81
382.409	1204.81
382.634	1250.81
382.86	1216.81
383.085	1268.81
383.31	1224.81
383.535	1194.81
383.761	1240.81
383.986	1247.81
384.211	1275.81
384.436	1260.81
384.662	1270.81
384.887	1306.81
385.112	1264.81
385.337	1295.81
385.562	1321.81
385.787	1355.81
386.013	1377.81
386.238	1367.81
386.463	1380.81
386.688	1348.81
386.913	1321.81
387.138	1355.81
387.363	1369.81
387.588	1345.81
387.813	1388.81
388.038	1365.81
388.263	1372.81
388.488	1399.81
388.713	1402.81
388.938	1398.81
389.163	1369.81
389.387	1399.81
389.612	1396.81
389.837	1357.81
390.062	1382.81
390.287	1366.81
390.512	1397.81
390.736	1403.81
390.961	1427.81
391.186	1464.81
391.411	1450.81
391.636	1422.81
391.86	1455.81
392.085	1459.81
392.31	1455.81
392.534	1462.81
392.759	1512.81
392.984	1440.81
393.208	1474.81
393.433	1454.81
393.658	1437.81
393.882	1456.81
394.107	1455.81
394.331	1423.81
394.556	1442.81
394.78	1427.81
395.005	1460.81
395.229	1462.81
395.454	1512.81
395.678	1498.81
395.903	1496.81
396.127	1482.81
396.352	1499.81
396.576	1481.81
396.801	1495.81
397.025	1538.81
397.249	1527.81
397.474	1538.81
397.698	1564.81
397.922	1578.81
398.147	1583.81
398.371	1646.81
398.595	1645.81
398.82	1697.81
399.044	1765.81
399.268	1818.81
399.492	1917.81
399.717	1958.81
399.941	2015.81
400.165	1962.81
400.389	1958.81
400.613	1885.81
400.837	1792.81
401.062	1791.81
401.286	1730.81
401.51	1721.81
401.734	1680.81
401.958	1675.81
402.182	1687.81
402.406	1675.81
402.63	1660.81
402.854	1714.81
403.078	1660.81
403.302	1667.81
403.526	1728.81
403.75	1677.81
403.974	1683.81
404.198	1698.81
404.422	1707.81
404.645	1691.81
404.869	1682.81
405.093	1715.81
405.317	1747.81
405.541	1747.81
405.765	1740.81
405.988	1751.81
406.212	1753.81
406.436	1765.81
406.66	1803.81
406.883	1796.81
407.107	1873.81
407.331	1892.81
407.555	1960.81
407.778	1940.81
408.002	1940.81
408.226	1893.81
408.449	1916.81
408.673	1872.81
408.896	1796.81
409.12	1845.81
409.344	1848.81
409.567	1761.81
409.791	1778.81
410.014	1770.81
410.238	1747.81
410.461	1736.81
410.685	1695.81
410.908	1705.81
411.132	1724.81
411.355	1736.81
411.578	1724.81
411.802	1720.81
412.025	1726.81
412.249	1758.81
412.472	1720.81
412.695	1680.81
412.919	1672.81
413.142	1738.81
413.365	1710.81
413.589	1658.81
413.812	1650.81
414.035	1646.81
414.258	1677.81
414.482	1635.81
414.705	1656.81
414.928	1676.81
415.151	1676.81
415.374	1657.81
415.597	1630.81
415.821	1633.81
416.044	1618.81
416.267	1560.81
416.49	1574.81
416.713	1578.81
416.936	1607.81
417.159	1633.81
417.382	1604.81
417.605	1623.81
417.828	1562.81
418.051	1627.81
418.274	1592.81
418.497	1611.81
418.72	1582.81
418.943	1618.81
419.166	1655.81
419.389	1800.81
419.611	1767.81
419.834	1694.81
420.057	1630.81
420.28	1600.81
420.503	1578.81
420.726	1571.81
420.948	1578.81
421.171	1580.81
421.394	1600.81
421.617	1568.81
421.839	1548.81
422.062	1587.81
422.285	1573.81
422.507	1590.81
422.73	1570.81
422.953	1568.81
423.175	1562.81
423.398	1608.81
423.621	1583.81
423.843	1600.81
424.066	1598.81
424.288	1591.81
424.511	1586.81
424.733	1571.81
424.956	1515.81
425.178	1588.81
425.401	1554.81
425.623	1608.81
425.846	1566.81
426.068	1548.81
426.291	1541.81
426.513	1583.81
426.735	1553.81
426.958	1578.81
427.18	1516.81
427.402	1555.81
427.625	1530.81
427.847	1485.81
428.069	1492.81
428.292	1536.81
428.514	1495.81
428.736	1495.81
428.958	1545.81
429.181	1491.81
429.403	1479.81
429.625	1500.81
429.847	1467.81
430.069	1460.81
430.292	1502.81
430.514	1447.81
430.736	1504.81
430.958	1488.81
431.18	1498.81
431.402	1489.81
431.624	1472.81
431.846	1481.81
432.068	1485.81
432.29	1511.81
432.512	1495.81
432.734	1511.81
432.956	1510.81
433.178	1549.81
433.4	1512.81
433.622	1535.81
433.844	1515.81
434.066	1505.81
434.287	1477.81
434.509	1543.81
434.731	1586.81
434.953	1545.81
435.175	1591.81
435.397	1586.81
435.618	1567.81
435.84	1543.81
436.062	1463.81
436.284	1483.81
436.505	1480.81
436.727	1496.81
436.949	1497.81
437.17	1463.81
437.392	1466.81
437.614	1448.81
437.835	1458.81
438.057	1473.81
438.278	1448.81
438.5	1433.81
438.721	1431.81
438.943	1460.81
439.165	1440.81
439.386	1440.81
439.608	1462.81
439.829	1477.81
440.05	1508.81
440.272	1486.81
440.493	1484.81
440.715	1505.81
440.936	1520.81
441.158	1494.81
441.379	1528.81
441.6	1578.81
441.822	1605.81
442.043	1588.81
442.264	1538.81
442.486	1550.81
442.707	1566.81
442.928	1568.81
443.149	1557.81
443.371	1547.81
443.592	1576.81
443.813	1574.81
444.034	1609.81
444.255	1592.81
444.476	1639.81
444.698	1616.81
444.919	1654.81
445.14	1740.81
445.361	1666.81
445.582	1613.81
445.803	1590.81
446.024	1550.81
446.245	1524.81
446.466	1521.81
446.687	1542.81
446.908	1514.81
447.129	1463.81
447.35	1456.81
447.571	1467.81
447.792	1402.81
448.013	1400.81
448.234	1394.81
448.455	1399.81
448.675	1400.81
448.896	1372.81
449.117	1373.81
449.338	1377.81
449.559	1345.81
449.779	1381.81
450	1360.81
450.221	1360.81
450.442	1380.81
450.662	1338.81
450.883	1354.81
451.104	1365.81
451.324	1354.81
451.545	1382.81
451.766	1358.81
451.986	1338.81
452.207	1323.81
452.428	1331.81
452.648	1316.81
452.869	1286.81
453.089	1302.81
453.31	1281.81
453.53	1290.81
453.751	1275.81
453.971	1295.81
454.192	1280.81
454.412	1284.81
454.633	1310.81
454.853	1291.81
455.073	1276.81
455.294	1318.81
455.514	1286.81
455.734	1321.81
455.955	1296.81
456.175	1280.81
456.395	1280.81
456.616	1289.81
456.836	1316.81
457.056	1319.81
457.276	1322.81
457.497	1354.81
457.717	1289.81
457.937	1327.81
458.157	1347.81
458.377	1379.81
458.598	1395.81
458.818	1405.81
459.038	1418.81
459.258	1430.81
459.478	1519.81
459.698	1532.81
459.918	1549.81
460.138	1572.81
460.358	1587.81
460.578	1587.81
460.798	1623.81
461.018	1634.81
461.238	1686.81
461.458	1660.81
461.678	1647.81
461.898	1704.81
462.118	1735.81
462.338	1753.81
462.558	1758.81
462.777	1808.81
462.997	1832.81
463.217	1866.81
463.437	1878.81
463.657	1843.81
463.876	1867.81
464.096	1848.81
464.316	1783.81
464.536	1752.81
464.755	1771.81
464.975	1732.81
465.195	1693.81
465.414	1648.81
465.634	1640.81
465.854	1559.81
466.073	1541.81
466.293	1500.81
466.512	1483.81
466.732	1481.81
466.951	1502.81
467.171	1486.81
467.391	1477.81
467.61	1413.81
467.829	1434.81
468.049	1426.81
468.268	1454.81
468.488	1409.81
468.707	1439.81
468.927	1459.81
469.146	1439.81
469.365	1444.81
469.585	1439.81
469.804	1418.81
470.023	1445.81
470.243	1447.81
470.462	1449.81
470.681	1490.81
470.901	1468.81
471.12	1495.81
471.339	1480.81
471.558	1442.81
471.777	1469.81
471.997	1481.81
472.216	1475.81
472.435	1442.81
472.654	1408.81
472.873	1447.81
473.092	1444.81
473.311	1402.81
473.53	1431.81
473.749	1430.81
473.968	1418.81
474.187	1423.81
474.406	1423.81
474.625	1423.81
474.844	1408.81
475.063	1457.81
475.282	1420.81
475.501	1443.81
475.72	1446.81
475.939	1484.81
476.158	1484.81
476.377	1509.81
476.596	1556.81
476.814	1570.81
477.033	1557.81
477.252	1588.81
477.471	1574.81
477.69	1587.81
477.908	1655.81
478.127	1670.81
478.346	1654.81
478.564	1687.81
478.783	1707.81
479.002	1753.81
479.22	1760.81
479.439	1781.81
479.658	1783.81
479.876	1758.81
480.095	1771.81
480.313	1814.81
480.532	1778.81
480.751	1737.81
480.969	1778.81
481.188	1712.81
481.406	1745.81
481.624	1748.81
481.843	1708.81
482.061	1720.81
482.28	1724.81
482.498	1712.81
482.717	1647.81
482.935	1718.81
483.153	1700.81
483.372	1694.81
483.59	1712.81
483.808	1712.81
484.027	1692.81
484.245	1698.81
484.463	1700.81
484.681	1712.81
484.9	1715.81
485.118	1728.81
485.336	1724.81
485.554	1727.81
485.772	1742.81
485.99	1720.81
486.209	1753.81
486.427	1720.81
486.645	1708.81
486.863	1747.81
487.081	1727.81
487.299	1722.81
487.517	1730.81
487.735	1721.81
487.953	1780.81
488.171	1742.81
488.389	1741.81
488.607	1748.81
488.825	1757.81
489.043	1731.81
489.261	1732.81
489.479	1690.81
489.696	1753.81
489.914	1751.81
490.132	1754.81
490.35	1736.81
490.568	1771.81
490.786	1750.81
491.003	1730.81
491.221	1760.81
491.439	1803.81
491.657	1750.81
491.874	1778.81
492.092	1786.81
492.31	1819.81
492.527	1791.81
492.745	1820.81
492.963	1816.81
493.18	1775.81
493.398	1804.81
493.615	1801.81
493.833	1825.81
494.05	1867.81
494.268	1839.81
494.485	1863.81
494.703	1810.81
494.92	1840.81
495.138	1847.81
495.355	1852.81
495.573	1889.81
495.79	1897.81
496.008	1897.81
496.225	1933.81
496.442	1946.81
496.66	1972.81
496.877	2013.81
497.094	1963.81
497.312	2059.81
497.529	2052.81
497.746	2121.81
497.963	2165.81
498.181	2230.81
498.398	2338.81
498.615	2432.81
498.832	2478.81
499.049	2562.81
499.267	2679.81
499.484	2855.81
499.701	2947.81
499.918	3026.81
500.135	3277.81
500.352	3297.81
500.569	3344.81
500.786	3365.81
501.003	3348.81
501.22	3222.81
501.437	3035.81
501.654	2905.81
501.871	2742.81
502.088	2650.81
502.305	2627.81
502.522	2430.81
502.739	2414.81
502.956	2291.81
503.172	2248.81
503.389	2204.81
503.606	2137.81
503.823	2111.81
504.04	2055.81
504.256	2053.81
504.473	2048.81
504.69	1968.81
504.907	1972.81
505.123	1915.81
505.34	1874.81
505.557	1850.81
505.773	1852.81
505.99	1786.81
506.207	1746.81
506.423	1726.81
506.64	1730.81
506.856	1667.81
507.073	1654.81
507.289	1646.81
507.506	1655.81
507.722	1632.81
507.939	1611.81
508.155	1574.81
508.372	1586.81
508.588	1594.81
508.805	1574.81
509.021	1546.81
509.238	1477.81
509.454	1518.81
509.67	1519.81
509.887	1492.81
510.103	1495.81
510.319	1483.81
510.536	1502.81
510.752	1486.81
510.968	1512.81
511.184	1462.81
511.401	1445.81
511.617	1468.81
511.833	1480.81
512.049	1457.81
512.265	1450.81
512.481	1428.81
512.698	1479.81
512.914	1467.81
513.13	1464.81
513.346	1476.81
513.562	1423.81
513.778	1468.81
513.994	1478.81
514.21	1455.81
514.426	1466.81
514.642	1512.81
514.858	1493.81
515.074	1483.81
515.29	1502.81
515.506	1483.81
515.721	1519.81
515.937	1563.81
516.153	1554.81
516.369	1583.81
516.585	1576.81
516.801	1609.81
517.016	1620.81
517.232	1678.81
517.448	1709.81
517.664	1702.81
517.879	1696.81
518.095	1691.81
518.311	1670.81
518.527	1676.81
518.742	1652.81
518.958	1591.81
519.173	1598.81
519.389	1586.81
519.605	1535.81
519.82	1518.81
520.036	1536.81
520.251	1537.81
520.467	1464.81
520.682	1434.81
520.898	1418.81
521.113	1432.81
521.329	1430.81
521.544	1421.81
521.76	1391.81
521.975	1388.81
522.19	1368.81
522.406	1348.81
522.621	1424.81
522.836	1366.81
523.052	1394.81
523.267	1360.81
523.482	1347.81
523.698	1342.81
523.913	1302.81
524.128	1354.81
524.343	1334.81
524.559	1338.81
524.774	1336.81
524.989	1331.81
525.204	1336.81
525.419	1321.81
525.634	1336.81
525.849	1334.81
526.064	1323.81
526.28	1328.81
526.495	1329.81
526.71	1303.81
526.925	1278.81
527.14	1275.81
527.355	1288.81
527.57	1264.81
527.785	1247.81
527.999	1257.81
528.214	1270.81
528.429	1306.81
528.644	1264.81
528.859	1286.81
529.074	1257.81
529.289	1313.81
529.503	1317.81
529.718	1272.81
529.933	1250.81
530.148	1225.81
530.363	1283.81
530.577	1255.81
530.792	1238.81
531.007	1212.81
531.221	1243.81
531.436	1275.81
531.651	1274.81
531.865	1221.81
532.08	1240.81
532.295	1253.81
532.509	1258.81
532.724	1246.81
532.938	1249.81
533.153	1238.81
533.367	1228.81
533.582	1228.81
533.796	1220.81
534.011	1234.81
534.225	1221.81
534.44	1228.81
534.654	1221.81
534.868	1251.81
535.083	1226.81
535.297	1209.81
535.511	1178.81
535.726	1207.81
535.94	1200.81
536.154	1172.81
536.369	1183.81
536.583	1174.81
536.797	1195.81
537.011	1180.81
537.225	1173.81
537.44	1191.81
537.654	1192.81
537.868	1172.81
538.082	1147.81
538.296	1160.81
538.51	1165.81
538.724	1181.81
538.938	1167.81
539.153	1153.81
539.367	1163.81
539.581	1120.81
539.795	1124.81
540.009	1139.81
540.222	1109.81
540.436	1128.81
540.65	1136.81
540.864	1153.81
541.078	1142.81
541.292	1146.81
541.506	1150.81
541.72	1158.81
541.934	1131.81
542.147	1154.81
542.361	1156.81
542.575	1127.81
542.789	1113.81
543.002	1125.81
543.216	1123.81
543.43	1140.81
543.644	1130.81
543.857	1130.81
544.071	1127.81
544.285	1118.81
544.498	1125.81
544.712	1116.81
544.925	1127.81
545.139	1132.81
545.352	1132.81
545.566	1140.81
545.779	1119.81
545.993	1144.81
546.206	1125.81
546.42	1132.81
546.633	1120.81
546.847	1124.81
547.06	1152.81
547.274	1150.81
547.487	1146.81
547.7	1163.81
547.914	1170.81
548.127	1123.81
548.34	1146.81
548.554	1147.81
548.767	1136.81
548.98	1114.81
549.193	1164.81
549.407	1141.81
549.62	1151.81
549.833	1154.81
550.046	1155.81
550.259	1174.81
550.473	1125.81
550.686	1114.81
550.899	1134.81
551.112	1120.81
551.325	1125.81
551.538	1133.81
551.751	1100.81
551.964	1108.81
552.177	1126.81
552.39	1143.81
552.603	1127.81
552.816	1173.81
553.029	1145.81
553.242	1141.81
553.455	1140.81
553.667	1157.81
553.88	1115.81
554.093	1122.81
554.306	1110.81
554.519	1094.81
554.732	1083.81
554.944	1079.81
555.157	1081.81
555.37	1075.81
555.583	1043.81
555.795	1045.81
556.008	1065.81
556.221	1011.81
556.433	1024.81
556.646	1024.81
556.859	1024.81
557.071	976.81
557.284	996.81
557.496	964.81
557.709	988.81
557.921	980.81
558.134	993.81
558.346	992.81
558.559	975.81
558.771	962.81
558.984	956.81
559.196	934.81
559.409	954.81
559.621	967.81
559.833	950.81
560.046	964.81
560.258	955.81
560.47	959.81
560.683	983.81
560.895	937.81
561.107	938.81
561.32	971.81
561.532	931.81
561.744	970.81
561.956	958.81
562.168	943.81
562.381	963.81
562.593	964.81
562.805	959.81
563.017	940.81
563.229	974.81
563.441	979.81
563.653	945.81
563.865	974.81
564.077	984.81
564.289	970.81
564.501	1004.81
564.713	1053.81
564.925	1015.81
565.137	1047.81
565.349	1089.81
565.561	1086.81
565.773	1123.81
565.985	1124.81
566.197	1142.81
566.408	1206.81
566.62	1214.81
566.832	1231.81
567.044	1281.81
567.255	1238.81
567.467	1306.81
567.679	1275.81
567.891	1315.81
568.102	1307.81
568.314	1259.81
568.526	1201.81
568.737	1178.81
568.949	1148.81
569.161	1079.81
569.372	1078.81
569.584	1053.81
569.795	1028.81
570.007	999.81
570.218	959.81
570.43	968.81
570.641	939.81
570.853	933.81
571.064	926.81
571.276	900.81
571.487	891.81
571.698	896.81
571.91	880.81
572.121	852.81
572.333	842.81
572.544	837.81
572.755	840.81
572.966	821.81
573.178	834.81
573.389	796.81
573.6	790.81
573.811	800.81
574.023	768.81
574.234	790.81
574.445	768.81
574.656	757.81
574.867	744.81
575.078	742.81
575.289	739.81
575.501	752.81
575.712	740.81
575.923	751.81
576.134	740.81
576.345	740.81
576.556	737.81
576.767	722.81
576.978	697.81
577.188	729.81
577.399	707.81
577.61	708.81
577.821	696.81
578.032	701.81
578.243	696.81
578.454	690.81
578.665	697.81
578.875	690.81
579.086	691.81
579.297	687.81
579.508	663.81
579.718	688.81
579.929	673.81
580.14	682.81
580.35	679.81
580.561	685.81
580.772	673.81
580.982	667.81
581.193	659.81
581.403	668.81
581.614	663.81
581.825	642.81
582.035	642.81
582.246	644.81
582.456	666.81
582.667	642.81
582.877	640.81
583.087	641.81
583.298	636.81
583.508	631.81
583.719	629.81
583.929	642.81
584.139	631.81
584.35	628.81
584.56	632.81
584.77	656.81
584.981	622.81
585.191	588.81
585.401	612.81
585.611	644.81
585.821	618.81
586.032	618.81
586.242	612.81
586.452	583.81
586.662	617.81
586.872	612.81
587.082	622.81
587.292	608.81
587.502	610.81
587.713	628.81
587.923	614.81
588.133	634.81
588.343	590.81
588.553	605.81
588.762	620.81
588.972	611.81
589.182	642.81
589.392	642.81
589.602	620.81
589.812	645.81
590.022	633.81
590.232	604.81
590.441	611.81
590.651	618.81
590.861	634.81
591.071	603.81
591.281	593.81
591.49	610.81
591.7	634.81
591.91	651.81
592.119	631.81
592.329	627.81
592.539	642.81
592.748	643.81
592.958	665.81
593.167	659.81
593.377	657.81
593.587	652.81
593.796	682.81
594.006	663.81
594.215	666.81
594.424	680.81
594.634	660.81
594.843	623.81
595.053	639.81
595.262	595.81
595.472	636.81
595.681	610.81
595.89	607.81
596.1	603.81
596.309	562.81
596.518	583.81
596.727	576.81
596.937	568.81
597.146	562.81
597.355	576.81
597.564	557.81
597.774	539.81
597.983	560.81
598.192	529.81
598.401	558.81
598.61	509.81
598.819	522.81
599.028	530.81
599.237	528.81
599.446	495.81
599.655	512.81
599.864	518.81
600.073	528.81
600.282	521.81
600.491	507.81
600.7	502.81
600.909	501.81
601.118	479.81
601.327	486.81
601.536	496.81
601.745	509.81
601.953	500.81
602.162	494.81
602.371	489.81
602.58	494.81
602.789	471.81
602.997	475.81
603.206	492.81
603.415	474.81
603.623	465.81
603.832	475.81
604.041	472.81
604.249	488.81
604.458	475.81
604.666	456.81
604.875	449.81
605.084	459.81
605.292	474.81
605.501	454.81
605.709	476.81
605.918	446.81
606.126	462.81
606.334	470.81
606.543	447.81
606.751	474.81
606.96	440.81
607.168	467.81
607.376	440.81
607.585	447.81
607.793	448.81
608.001	442.81
608.21	451.81
608.418	458.81
608.626	452.81
608.834	440.81
609.043	442.81
609.251	432.81
609.459	446.81
609.667	448.81
609.875	449.81
610.083	436.81
610.291	450.81
610.499	452.81
610.707	439.81
610.916	457.81
611.124	457.81
611.332	432.81
611.54	452.81
611.748	420.81
611.955	421.81
612.163	424.81
612.371	439.81
612.579	419.81
612.787	438.81
612.995	436.81
613.203	436.81
613.411	444.81
613.618	418.81
613.826	416.81
614.034	433.81
614.242	410.81
614.449	419.81
614.657	436.81
614.865	428.81
615.072	407.81
615.28	423.81
615.488	417.81
615.695	423.81
615.903	421.81
616.111	410.81
616.318	426.81
616.526	419.81
616.733	412.81
616.941	405.81
617.148	427.81
617.356	422.81
617.563	438.81
617.771	433.81
617.978	404.81
618.185	424.81
618.393	423.81
618.6	396.81
618.807	404.81
619.015	405.81
619.222	422.81
619.429	408.81
619.637	388.81
619.844	396.81
620.051	417.81
620.258	420.81
620.466	379.81
620.673	380.81
620.88	377.81
621.087	379.81
621.294	396.81
621.501	389.81
621.708	377.81
621.915	404.81
622.122	387.81
622.329	392.81
622.536	389.81
622.743	386.81
622.95	376.81
623.157	380.81
623.364	376.81
623.571	390.81
623.778	387.81
623.985	409.81
624.192	373.81
624.399	369.81
624.606	362.81
624.812	390.81
625.019	378.81
625.226	376.81
625.433	372.81
625.639	367.81
625.846	364.81
626.053	374.81
626.259	351.81
626.466	351.81
626.673	371.81
626.879	356.81
627.086	373.81
627.293	384.81
627.499	344.81
627.706	368.81
627.912	370.81
628.119	346.81
628.325	372.81
628.532	357.81
628.738	347.81
628.945	370.81
629.151	352.81
629.357	330.81
629.564	323.81
629.77	350.81
629.976	342.81
630.183	345.81
630.389	352.81
630.595	336.81
630.802	332.81
631.008	320.81
631.214	339.81
631.42	338.81
631.627	333.81
631.833	318.81
632.039	340.81
632.245	341.81
632.451	336.81
632.657	333.81
632.863	332.81
633.069	313.81
633.275	326.81
633.481	330.81
633.688	323.81
633.893	327.81
634.099	332.81
634.305	324.81
634.511	309.81
634.717	318.81
634.923	302.81
635.129	318.81
635.335	330.81
635.541	321.81
635.747	322.81
635.952	305.81
636.158	299.81
636.364	292.81
636.57	310.81
636.775	306.81
636.981	297.81
637.187	295.81
637.392	293.81
637.598	324.81
637.804	312.81
638.009	318.81
638.215	311.81
638.421	312.81
638.626	297.81
638.832	295.81
639.037	279.81
639.243	302.81
639.448	298.81
639.654	311.81
639.859	304.81
640.065	305.81
640.27	317.81
640.475	279.81
640.681	281.81
640.886	299.81
641.091	284.81
641.297	295.81
641.502	304.81
641.707	288.81
641.913	293.81
642.118	303.81
642.323	291.81
642.528	304.81
642.733	312.81
642.939	298.81
643.144	288.81
643.349	295.81
643.554	291.81
643.759	297.81
643.964	302.81
644.169	286.81
644.374	297.81
644.579	301.81
644.784	300.81
644.989	304.81
645.194	290.81
645.399	284.81
645.604	281.81
645.809	280.81
646.014	291.81
646.219	299.81
646.423	292.81
646.628	300.81
646.833	310.81
647.038	311.81
647.243	321.81
647.447	299.81
647.652	298.81
647.857	298.81
648.062	294.81
648.266	303.81
648.471	296.81
648.676	296.81
648.88	303.81
649.085	297.81
649.289	308.81
649.494	311.81
649.698	310.81
649.903	294.81
650.107	298.81
650.312	292.81
650.516	298.81
650.721	294.81
650.925	292.81
651.13	266.81
651.334	273.81
651.539	300.81
651.743	275.81
651.947	270.81
652.152	278.81
652.356	285.81
652.56	263.81
652.764	269.81
652.969	274.81
653.173	279.81
653.377	247.81
653.581	253.81
653.785	255.81
653.99	274.81
654.194	247.81
654.398	258.81
654.602	246.81
654.806	262.81
655.01	244.81
655.214	253.81
655.418	274.81
655.622	240.81
655.826	255.81
656.03	260.81
656.234	245.81
656.438	243.81
656.642	235.81
656.846	247.81
657.049	257.81
657.253	227.81
657.457	201.81
657.661	212.81
657.865	210.81
658.068	196.81
658.272	188.81
658.476	176.81
658.68	170.81
658.883	171.81
659.087	157.81
659.291	156.81
659.494	146.81
659.698	144.81
659.901	141.81
660.105	126.81
660.309	114.81
660.512	126.81
660.716	123.81
660.919	121.81
661.123	118.81
661.326	94.81
661.53	104.81
661.733	95.81
661.936	105.81
662.14	105.81
662.343	117.81
662.546	89.81
662.75	95.81
662.953	89.81
663.156	73.81
663.36	91.81
663.563	84.81
663.766	80.81
663.969	86.81
664.173	94.81
664.376	78.81
664.579	79.81
664.782	79.81
664.985	92.81
665.188	82.81
665.391	83.81
665.594	73.81
665.797	84.81
666	68.81
666.203	84.81
666.406	84.81
666.609	74.81
666.812	90.81
667.015	82.81
667.218	80.81
667.421	81.81
667.624	74.81
667.827	82.81
668.03	76.81
668.232	89.81
668.435	86.81
668.638	88.81
668.841	77.81
669.043	78.81
669.246	82.81
669.449	82.81
669.651	70.81
669.854	70.81
670.057	61.81
670.259	85.81
670.462	79.81
670.665	81.81
670.867	86.81
671.07	91.81
671.272	90.81
671.475	72.81
671.677	74.81
671.88	78.81
672.082	83.81
672.284	96.81
672.487	88.81
672.689	88.81
672.892	84.81
