Data from Fe(NO3)3@0.025M.TitratingCurve.Agarose3%dH2O.NegLispCup.LampEnergy10.LIBS07252019_HRD10591_16-55-59-335.txt Node
Date: Thu Jul 25 16:55:59 EDT 2019
User: cochatt
Spectrometer: HR+D1059
Trigger mode: 1
Integration Time (sec): 1.000000E-1
Scans to average: 1
Electric dark correction enabled: true
Nonlinearity correction enabled: false
Boxcar width: 0
XAxis mode: Wavelengths
Number of Pixels in Spectrum: 2048
>>>>>Begin Spectral Data<<<<<
223.165	-21.62
223.4	-21.62
223.635	-21.62
223.869	-13.62
224.104	-25.62
224.338	-16.62
224.573	-13.62
224.808	-12.62
225.042	-16.62
225.277	-4.62
225.511	-6.62
225.746	1.38
225.98	7.38
226.215	8.38
226.449	26.38
226.683	16.38
226.918	40.38
227.152	31.38
227.387	31.38
227.621	38.38
227.856	33.38
228.09	31.38
228.324	45.38
228.559	57.38
228.793	55.38
229.027	74.38
229.262	59.38
229.496	80.38
229.73	73.38
229.964	76.38
230.199	89.38
230.433	105.38
230.667	89.38
230.901	86.38
231.136	94.38
231.37	92.38
231.604	98.38
231.838	76.38
232.072	94.38
232.306	96.38
232.541	87.38
232.775	99.38
233.009	104.38
233.243	87.38
233.477	100.38
233.711	96.38
233.945	95.38
234.179	101.38
234.413	89.38
234.647	97.38
234.881	79.38
235.115	96.38
235.349	103.38
235.583	85.38
235.817	83.38
236.051	82.38
236.285	100.38
236.519	90.38
236.753	92.38
236.987	106.38
237.221	102.38
237.455	98.38
237.689	84.38
237.922	87.38
238.156	118.38
238.39	96.38
238.624	113.38
238.858	101.38
239.091	96.38
239.325	101.38
239.559	92.38
239.793	94.38
240.027	107.38
240.26	106.38
240.494	92.38
240.728	97.38
240.961	97.38
241.195	97.38
241.429	96.38
241.662	111.38
241.896	104.38
242.13	96.38
242.363	107.38
242.597	112.38
242.83	97.38
243.064	109.38
243.298	114.38
243.531	85.38
243.765	102.38
243.998	98.38
244.232	102.38
244.465	110.38
244.699	119.38
244.932	108.38
245.166	111.38
245.399	111.38
245.633	98.38
245.866	115.38
246.099	115.38
246.333	114.38
246.566	103.38
246.8	114.38
247.033	101.38
247.266	112.38
247.5	111.38
247.733	105.38
247.966	120.38
248.2	104.38
248.433	117.38
248.666	104.38
248.899	117.38
249.133	113.38
249.366	124.38
249.599	125.38
249.832	113.38
250.066	122.38
250.299	105.38
250.532	117.38
250.765	111.38
250.998	116.38
251.231	100.38
251.465	124.38
251.698	117.38
251.931	112.38
252.164	132.38
252.397	133.38
252.63	124.38
252.863	123.38
253.096	127.38
253.329	125.38
253.562	116.38
253.795	113.38
254.028	127.38
254.261	137.38
254.494	120.38
254.727	118.38
254.96	115.38
255.193	114.38
255.426	108.38
255.659	139.38
255.892	125.38
256.124	135.38
256.357	124.38
256.59	131.38
256.823	117.38
257.056	129.38
257.289	121.38
257.521	116.38
257.754	132.38
257.987	140.38
258.22	128.38
258.452	122.38
258.685	107.38
258.918	124.38
259.151	129.38
259.383	120.38
259.616	127.38
259.849	131.38
260.081	133.38
260.314	133.38
260.547	124.38
260.779	137.38
261.012	140.38
261.244	147.38
261.477	128.38
261.71	133.38
261.942	129.38
262.175	131.38
262.407	122.38
262.64	131.38
262.872	142.38
263.105	139.38
263.337	140.38
263.57	138.38
263.802	145.38
264.035	131.38
264.267	145.38
264.499	148.38
264.732	142.38
264.964	148.38
265.197	139.38
265.429	136.38
265.661	149.38
265.894	147.38
266.126	137.38
266.358	146.38
266.591	136.38
266.823	147.38
267.055	145.38
267.287	133.38
267.52	145.38
267.752	142.38
267.984	142.38
268.216	150.38
268.448	142.38
268.681	135.38
268.913	155.38
269.145	137.38
269.377	151.38
269.609	144.38
269.841	146.38
270.073	154.38
270.306	161.38
270.538	163.38
270.77	152.38
271.002	143.38
271.234	149.38
271.466	166.38
271.698	168.38
271.93	133.38
272.162	151.38
272.394	143.38
272.626	146.38
272.858	159.38
273.09	155.38
273.322	157.38
273.553	156.38
273.785	156.38
274.017	163.38
274.249	171.38
274.481	163.38
274.713	162.38
274.945	168.38
275.176	154.38
275.408	163.38
275.64	171.38
275.872	160.38
276.104	175.38
276.335	159.38
276.567	170.38
276.799	155.38
277.031	160.38
277.262	156.38
277.494	155.38
277.726	163.38
277.957	162.38
278.189	168.38
278.421	169.38
278.652	156.38
278.884	171.38
279.115	169.38
279.347	165.38
279.579	177.38
279.81	183.38
280.042	178.38
280.273	183.38
280.505	174.38
280.736	164.38
280.968	179.38
281.199	184.38
281.431	190.38
281.662	160.38
281.894	169.38
282.125	182.38
282.356	184.38
282.588	188.38
282.819	187.38
283.051	172.38
283.282	175.38
283.513	179.38
283.745	181.38
283.976	184.38
284.207	168.38
284.439	183.38
284.67	180.38
284.901	158.38
285.132	189.38
285.364	191.38
285.595	202.38
285.826	188.38
286.057	200.38
286.288	181.38
286.52	186.38
286.751	211.38
286.982	189.38
287.213	180.38
287.444	194.38
287.675	205.38
287.906	207.38
288.138	207.38
288.369	188.38
288.6	182.38
288.831	175.38
289.062	188.38
289.293	204.38
289.524	205.38
289.755	199.38
289.986	194.38
290.217	203.38
290.448	179.38
290.679	179.38
290.91	193.38
291.141	198.38
291.371	199.38
291.602	200.38
291.833	195.38
292.064	202.38
292.295	180.38
292.526	211.38
292.757	199.38
292.987	207.38
293.218	194.38
293.449	199.38
293.68	203.38
293.91	208.38
294.141	206.38
294.372	188.38
294.603	216.38
294.833	211.38
295.064	203.38
295.295	191.38
295.525	208.38
295.756	193.38
295.987	215.38
296.217	203.38
296.448	202.38
296.679	203.38
296.909	215.38
297.14	200.38
297.37	204.38
297.601	204.38
297.831	208.38
298.062	200.38
298.292	206.38
298.523	205.38
298.753	215.38
298.984	219.38
299.214	212.38
299.445	229.38
299.675	205.38
299.905	211.38
300.136	199.38
300.366	210.38
300.597	227.38
300.827	224.38
301.057	221.38
301.288	211.38
301.518	220.38
301.748	224.38
301.979	217.38
302.209	242.38
302.439	214.38
302.669	214.38
302.9	198.38
303.13	208.38
303.36	234.38
303.59	207.38
303.82	232.38
304.051	215.38
304.281	229.38
304.511	243.38
304.741	220.38
304.971	223.38
305.201	210.38
305.431	217.38
305.661	224.38
305.891	217.38
306.121	233.38
306.352	251.38
306.582	234.38
306.812	212.38
307.042	212.38
307.272	216.38
307.502	216.38
307.731	226.38
307.961	225.38
308.191	216.38
308.421	225.38
308.651	233.38
308.881	218.38
309.111	213.38
309.341	228.38
309.571	231.38
309.8	226.38
310.03	240.38
310.26	226.38
310.49	231.38
310.72	239.38
310.949	227.38
311.179	245.38
311.409	240.38
311.639	222.38
311.868	232.38
312.098	247.38
312.328	241.38
312.557	256.38
312.787	222.38
313.017	242.38
313.246	244.38
313.476	232.38
313.706	240.38
313.935	247.38
314.165	239.38
314.394	248.38
314.624	243.38
314.853	250.38
315.083	249.38
315.312	234.38
315.542	239.38
315.771	241.38
316.001	221.38
316.23	253.38
316.46	225.38
316.689	242.38
316.919	245.38
317.148	250.38
317.377	263.38
317.607	239.38
317.836	265.38
318.065	250.38
318.295	273.38
318.524	264.38
318.753	252.38
318.983	255.38
319.212	231.38
319.441	244.38
319.67	253.38
319.9	242.38
320.129	265.38
320.358	261.38
320.587	243.38
320.816	242.38
321.046	235.38
321.275	258.38
321.504	253.38
321.733	260.38
321.962	263.38
322.191	232.38
322.42	255.38
322.649	247.38
322.878	279.38
323.108	255.38
323.337	244.38
323.566	249.38
323.795	268.38
324.024	267.38
324.253	257.38
324.482	268.38
324.71	256.38
324.939	257.38
325.168	277.38
325.397	269.38
325.626	277.38
325.855	275.38
326.084	259.38
326.313	272.38
326.542	279.38
326.77	275.38
326.999	257.38
327.228	278.38
327.457	271.38
327.686	295.38
327.914	269.38
328.143	263.38
328.372	290.38
328.6	275.38
328.829	277.38
329.058	288.38
329.287	265.38
329.515	276.38
329.744	258.38
329.972	284.38
330.201	279.38
330.43	276.38
330.658	271.38
330.887	270.38
331.115	288.38
331.344	279.38
331.572	298.38
331.801	287.38
332.03	266.38
332.258	293.38
332.486	308.38
332.715	291.38
332.943	299.38
333.172	319.38
333.4	275.38
333.629	312.38
333.857	310.38
334.085	320.38
334.314	306.38
334.542	311.38
334.771	320.38
334.999	305.38
335.227	316.38
335.455	312.38
335.684	321.38
335.912	312.38
336.14	339.38
336.369	314.38
336.597	308.38
336.825	322.38
337.053	308.38
337.281	315.38
337.51	305.38
337.738	309.38
337.966	296.38
338.194	309.38
338.422	292.38
338.65	302.38
338.878	296.38
339.106	307.38
339.334	298.38
339.562	299.38
339.79	286.38
340.018	283.38
340.246	293.38
340.474	305.38
340.702	280.38
340.93	294.38
341.158	307.38
341.386	276.38
341.614	286.38
341.842	299.38
342.07	295.38
342.298	280.38
342.526	291.38
342.754	288.38
342.981	295.38
343.209	303.38
343.437	304.38
343.665	307.38
343.893	341.38
344.12	344.38
344.348	300.38
344.576	323.38
344.804	317.38
345.031	295.38
345.259	298.38
345.487	275.38
345.714	287.38
345.942	288.38
346.17	292.38
346.397	283.38
346.625	302.38
346.853	287.38
347.08	283.38
347.308	281.38
347.535	277.38
347.763	264.38
347.99	263.38
348.218	271.38
348.445	289.38
348.673	271.38
348.9	278.38
349.128	287.38
349.355	287.38
349.583	279.38
349.81	288.38
350.037	292.38
350.265	301.38
350.492	274.38
350.72	284.38
350.947	283.38
351.174	288.38
351.402	295.38
351.629	284.38
351.856	288.38
352.083	276.38
352.311	277.38
352.538	274.38
352.765	303.38
352.992	282.38
353.22	289.38
353.447	270.38
353.674	282.38
353.901	296.38
354.128	288.38
354.355	291.38
354.583	282.38
354.81	299.38
355.037	287.38
355.264	292.38
355.491	277.38
355.718	278.38
355.945	277.38
356.172	287.38
356.399	298.38
356.626	293.38
356.853	307.38
357.08	295.38
357.307	284.38
357.534	272.38
357.761	285.38
357.988	310.38
358.215	287.38
358.441	298.38
358.668	289.38
358.895	288.38
359.122	290.38
359.349	299.38
359.576	290.38
359.802	281.38
360.029	289.38
360.256	305.38
360.483	305.38
360.709	287.38
360.936	290.38
361.163	312.38
361.39	302.38
361.616	288.38
361.843	275.38
362.07	296.38
362.296	314.38
362.523	297.38
362.749	282.38
362.976	289.38
363.203	293.38
363.429	293.38
363.656	295.38
363.882	293.38
364.109	300.38
364.335	291.38
364.562	299.38
364.788	295.38
365.015	264.38
365.241	284.38
365.468	285.38
365.694	303.38
365.92	298.38
366.147	306.38
366.373	292.38
366.599	296.38
366.826	294.38
367.052	293.38
367.278	296.38
367.505	300.38
367.731	291.38
367.957	290.38
368.184	311.38
368.41	299.38
368.636	313.38
368.862	285.38
369.089	287.38
369.315	295.38
369.541	311.38
369.767	304.38
369.993	308.38
370.219	321.38
370.445	298.38
370.672	313.38
370.898	321.38
371.124	306.38
371.35	318.38
371.576	326.38
371.802	312.38
372.028	319.38
372.254	320.38
372.48	305.38
372.706	319.38
372.932	322.38
373.158	329.38
373.384	320.38
373.61	323.38
373.835	336.38
374.061	327.38
374.287	324.38
374.513	328.38
374.739	348.38
374.965	327.38
375.191	312.38
375.416	330.38
375.642	328.38
375.868	318.38
376.094	313.38
376.319	327.38
376.545	335.38
376.771	326.38
376.997	323.38
377.222	308.38
377.448	302.38
377.674	311.38
377.899	309.38
378.125	321.38
378.35	311.38
378.576	319.38
378.802	298.38
379.027	301.38
379.253	303.38
379.478	307.38
379.704	313.38
379.929	306.38
380.155	325.38
380.38	324.38
380.606	328.38
380.831	306.38
381.057	337.38
381.282	310.38
381.507	328.38
381.733	329.38
381.958	328.38
382.184	324.38
382.409	324.38
382.634	322.38
382.86	346.38
383.085	333.38
383.31	323.38
383.535	336.38
383.761	328.38
383.986	332.38
384.211	347.38
384.436	329.38
384.662	361.38
384.887	344.38
385.112	342.38
385.337	337.38
385.562	356.38
385.787	359.38
386.013	369.38
386.238	363.38
386.463	342.38
386.688	359.38
386.913	348.38
387.138	356.38
387.363	363.38
387.588	336.38
387.813	362.38
388.038	378.38
388.263	357.38
388.488	369.38
388.713	355.38
388.938	335.38
389.163	347.38
389.387	374.38
389.612	333.38
389.837	358.38
390.062	379.38
390.287	371.38
390.512	382.38
390.736	369.38
390.961	342.38
391.186	379.38
391.411	365.38
391.636	387.38
391.86	377.38
392.085	401.38
392.31	363.38
392.534	385.38
392.759	379.38
392.984	383.38
393.208	381.38
393.433	375.38
393.658	371.38
393.882	377.38
394.107	389.38
394.331	393.38
394.556	389.38
394.78	389.38
395.005	419.38
395.229	373.38
395.454	383.38
395.678	389.38
395.903	383.38
396.127	373.38
396.352	397.38
396.576	356.38
396.801	378.38
397.025	379.38
397.249	403.38
397.474	380.38
397.698	403.38
397.922	389.38
398.147	391.38
398.371	424.38
398.595	398.38
398.82	432.38
399.044	456.38
399.268	470.38
399.492	496.38
399.717	513.38
399.941	501.38
400.165	496.38
400.389	464.38
400.613	473.38
400.837	435.38
401.062	413.38
401.286	405.38
401.51	421.38
401.734	407.38
401.958	460.38
402.182	435.38
402.406	405.38
402.63	436.38
402.854	440.38
403.078	416.38
403.302	421.38
403.526	435.38
403.75	450.38
403.974	439.38
404.198	439.38
404.422	427.38
404.645	445.38
404.869	438.38
405.093	424.38
405.317	449.38
405.541	442.38
405.765	422.38
405.988	419.38
406.212	433.38
406.436	444.38
406.66	451.38
406.883	475.38
407.107	490.38
407.331	486.38
407.555	470.38
407.778	481.38
408.002	480.38
408.226	494.38
408.449	472.38
408.673	455.38
408.896	451.38
409.12	443.38
409.344	452.38
409.567	449.38
409.791	463.38
410.014	428.38
410.238	435.38
410.461	442.38
410.685	438.38
410.908	435.38
411.132	441.38
411.355	420.38
411.578	447.38
411.802	426.38
412.025	454.38
412.249	423.38
412.472	422.38
412.695	425.38
412.919	424.38
413.142	408.38
413.365	403.38
413.589	435.38
413.812	427.38
414.035	416.38
414.258	408.38
414.482	417.38
414.705	411.38
414.928	433.38
415.151	411.38
415.374	412.38
415.597	417.38
415.821	405.38
416.044	412.38
416.267	433.38
416.49	396.38
416.713	403.38
416.936	412.38
417.159	393.38
417.382	380.38
417.605	400.38
417.828	424.38
418.051	428.38
418.274	419.38
418.497	388.38
418.72	404.38
418.943	406.38
419.166	421.38
419.389	424.38
419.611	427.38
419.834	394.38
420.057	419.38
420.28	418.38
420.503	384.38
420.726	396.38
420.948	401.38
421.171	392.38
421.394	416.38
421.617	412.38
421.839	386.38
422.062	408.38
422.285	395.38
422.507	405.38
422.73	408.38
422.953	412.38
423.175	398.38
423.398	395.38
423.621	397.38
423.843	415.38
424.066	405.38
424.288	391.38
424.511	400.38
424.733	425.38
424.956	392.38
425.178	385.38
425.401	409.38
425.623	401.38
425.846	387.38
426.068	387.38
426.291	403.38
426.513	373.38
426.735	386.38
426.958	375.38
427.18	371.38
427.402	385.38
427.625	384.38
427.847	396.38
428.069	384.38
428.292	383.38
428.514	377.38
428.736	379.38
428.958	390.38
429.181	392.38
429.403	373.38
429.625	391.38
429.847	369.38
430.069	383.38
430.292	377.38
430.514	363.38
430.736	377.38
430.958	370.38
431.18	379.38
431.402	391.38
431.624	359.38
431.846	365.38
432.068	380.38
432.29	384.38
432.512	360.38
432.734	397.38
432.956	404.38
433.178	379.38
433.4	383.38
433.622	383.38
433.844	403.38
434.066	379.38
434.287	403.38
434.509	391.38
434.731	397.38
434.953	419.38
435.175	389.38
435.397	408.38
435.618	386.38
435.84	381.38
436.062	377.38
436.284	364.38
436.505	377.38
436.727	379.38
436.949	404.38
437.17	387.38
437.392	378.38
437.614	364.38
437.835	373.38
438.057	364.38
438.278	369.38
438.5	375.38
438.721	391.38
438.943	365.38
439.165	371.38
439.386	361.38
439.608	387.38
439.829	359.38
440.05	381.38
440.272	372.38
440.493	352.38
440.715	379.38
440.936	403.38
441.158	367.38
441.379	359.38
441.6	383.38
441.822	379.38
442.043	401.38
442.264	389.38
442.486	373.38
442.707	386.38
442.928	388.38
443.149	389.38
443.371	398.38
443.592	381.38
443.813	411.38
444.034	396.38
444.255	408.38
444.476	403.38
444.698	404.38
444.919	411.38
445.14	495.38
445.361	451.38
445.582	397.38
445.803	398.38
446.024	379.38
446.245	384.38
446.466	391.38
446.687	365.38
446.908	389.38
447.129	384.38
447.35	387.38
447.571	357.38
447.792	346.38
448.013	364.38
448.234	372.38
448.455	355.38
448.675	371.38
448.896	378.38
449.117	348.38
449.338	373.38
449.559	373.38
449.779	342.38
450	350.38
450.221	340.38
450.442	348.38
450.662	379.38
450.883	336.38
451.104	347.38
451.324	336.38
451.545	359.38
451.766	350.38
451.986	341.38
452.207	355.38
452.428	360.38
452.648	342.38
452.869	334.38
453.089	346.38
453.31	356.38
453.53	339.38
453.751	346.38
453.971	350.38
454.192	331.38
454.412	355.38
454.633	321.38
454.853	337.38
455.073	328.38
455.294	345.38
455.514	345.38
455.734	321.38
455.955	335.38
456.175	344.38
456.395	332.38
456.616	349.38
456.836	333.38
457.056	349.38
457.276	345.38
457.497	331.38
457.717	344.38
457.937	342.38
458.157	367.38
458.377	361.38
458.598	345.38
458.818	374.38
459.038	348.38
459.258	364.38
459.478	374.38
459.698	380.38
459.918	377.38
460.138	392.38
460.358	387.38
460.578	432.38
460.798	411.38
461.018	389.38
461.238	423.38
461.458	409.38
461.678	406.38
461.898	420.38
462.118	417.38
462.338	441.38
462.558	413.38
462.777	443.38
462.997	465.38
463.217	471.38
463.437	472.38
463.657	472.38
463.876	454.38
464.096	446.38
464.316	446.38
464.536	448.38
464.755	439.38
464.975	440.38
465.195	419.38
465.414	391.38
465.634	412.38
465.854	383.38
466.073	404.38
466.293	395.38
466.512	376.38
466.732	364.38
466.951	387.38
467.171	371.38
467.391	366.38
467.61	370.38
467.829	355.38
468.049	366.38
468.268	368.38
468.488	363.38
468.707	370.38
468.927	391.38
469.146	361.38
469.365	362.38
469.585	372.38
469.804	362.38
470.023	373.38
470.243	373.38
470.462	368.38
470.681	349.38
470.901	381.38
471.12	371.38
471.339	374.38
471.558	377.38
471.777	389.38
471.997	374.38
472.216	381.38
472.435	374.38
472.654	368.38
472.873	374.38
473.092	380.38
473.311	374.38
473.53	386.38
473.749	373.38
473.968	376.38
474.187	372.38
474.406	374.38
474.625	375.38
474.844	369.38
475.063	393.38
475.282	378.38
475.501	379.38
475.72	395.38
475.939	398.38
476.158	377.38
476.377	409.38
476.596	381.38
476.814	401.38
477.033	401.38
477.252	407.38
477.471	391.38
477.69	419.38
477.908	420.38
478.127	415.38
478.346	420.38
478.564	428.38
478.783	438.38
479.002	428.38
479.22	408.38
479.439	418.38
479.658	441.38
479.876	452.38
480.095	447.38
480.313	449.38
480.532	436.38
480.751	431.38
480.969	453.38
481.188	442.38
481.406	431.38
481.624	443.38
481.843	443.38
482.061	426.38
482.28	424.38
482.498	431.38
482.717	444.38
482.935	422.38
483.153	435.38
483.372	449.38
483.59	428.38
483.808	424.38
484.027	442.38
484.245	449.38
484.463	433.38
484.681	447.38
484.9	440.38
485.118	451.38
485.336	436.38
485.554	442.38
485.772	444.38
485.99	448.38
486.209	438.38
486.427	434.38
486.645	433.38
486.863	443.38
487.081	444.38
487.299	452.38
487.517	447.38
487.735	455.38
487.953	435.38
488.171	444.38
488.389	432.38
488.607	444.38
488.825	435.38
489.043	443.38
489.261	444.38
489.479	447.38
489.696	443.38
489.914	468.38
490.132	435.38
490.35	445.38
490.568	434.38
490.786	469.38
491.003	469.38
491.221	449.38
491.439	464.38
491.657	442.38
491.874	451.38
492.092	459.38
492.31	478.38
492.527	441.38
492.745	435.38
492.963	456.38
493.18	457.38
493.398	441.38
493.615	480.38
493.833	450.38
494.05	458.38
494.268	455.38
494.485	455.38
494.703	447.38
494.92	473.38
495.138	471.38
495.355	464.38
495.573	487.38
495.79	458.38
496.008	478.38
496.225	502.38
496.442	493.38
496.66	498.38
496.877	501.38
497.094	516.38
497.312	507.38
497.529	519.38
497.746	528.38
497.963	540.38
498.181	564.38
498.398	559.38
498.615	591.38
498.832	588.38
499.049	639.38
499.267	632.38
499.484	663.38
499.701	720.38
499.918	748.38
500.135	793.38
500.352	807.38
500.569	795.38
500.786	830.38
501.003	795.38
501.22	738.38
501.437	719.38
501.654	650.38
501.871	657.38
502.088	657.38
502.305	623.38
502.522	583.38
502.739	583.38
502.956	548.38
503.172	561.38
503.389	521.38
503.606	547.38
503.823	519.38
504.04	527.38
504.256	535.38
504.473	496.38
504.69	515.38
504.907	511.38
505.123	475.38
505.34	441.38
505.557	474.38
505.773	463.38
505.99	450.38
506.207	442.38
506.423	433.38
506.64	436.38
506.856	445.38
507.073	434.38
507.289	440.38
507.506	435.38
507.722	435.38
507.939	437.38
508.155	418.38
508.372	409.38
508.588	425.38
508.805	428.38
509.021	396.38
509.238	404.38
509.454	394.38
509.67	411.38
509.887	383.38
510.103	405.38
510.319	403.38
510.536	395.38
510.752	381.38
510.968	388.38
511.184	379.38
511.401	402.38
511.617	417.38
511.833	395.38
512.049	403.38
512.265	400.38
512.481	401.38
512.698	387.38
512.914	402.38
513.13	392.38
513.346	397.38
513.562	393.38
513.778	383.38
513.994	382.38
514.21	403.38
514.426	390.38
514.642	417.38
514.858	403.38
515.074	397.38
515.29	385.38
515.506	396.38
515.721	403.38
515.937	407.38
516.153	408.38
516.369	402.38
516.585	419.38
516.801	402.38
517.016	437.38
517.232	444.38
517.448	440.38
517.664	438.38
517.879	447.38
518.095	414.38
518.311	449.38
518.527	439.38
518.742	427.38
518.958	425.38
519.173	415.38
519.389	397.38
519.605	385.38
519.82	395.38
520.036	430.38
520.251	418.38
520.467	391.38
520.682	373.38
520.898	381.38
521.113	387.38
521.329	371.38
521.544	372.38
521.76	382.38
521.975	375.38
522.19	361.38
522.406	375.38
522.621	376.38
522.836	356.38
523.052	389.38
523.267	379.38
523.482	371.38
523.698	353.38
523.913	373.38
524.128	363.38
524.343	351.38
524.559	361.38
524.774	376.38
524.989	372.38
525.204	379.38
525.419	358.38
525.634	345.38
525.849	368.38
526.064	350.38
526.28	353.38
526.495	350.38
526.71	373.38
526.925	359.38
527.14	348.38
527.355	356.38
527.57	351.38
527.785	335.38
527.999	348.38
528.214	339.38
528.429	363.38
528.644	355.38
528.859	369.38
529.074	371.38
529.289	355.38
529.503	371.38
529.718	349.38
529.933	363.38
530.148	362.38
530.363	373.38
530.577	360.38
530.792	337.38
531.007	371.38
531.221	349.38
531.436	342.38
531.651	371.38
531.865	359.38
532.08	346.38
532.295	334.38
532.509	348.38
532.724	350.38
532.938	353.38
533.153	367.38
533.367	355.38
533.582	355.38
533.796	365.38
534.011	339.38
534.225	345.38
534.44	340.38
534.654	356.38
534.868	347.38
535.083	333.38
535.297	338.38
535.511	329.38
535.726	333.38
535.94	354.38
536.154	335.38
536.369	334.38
536.583	328.38
536.797	328.38
537.011	332.38
537.225	342.38
537.44	347.38
537.654	327.38
537.868	319.38
538.082	337.38
538.296	347.38
538.51	337.38
538.724	334.38
538.938	331.38
539.153	314.38
539.367	339.38
539.581	336.38
539.795	355.38
540.009	347.38
540.222	309.38
540.436	329.38
540.65	331.38
540.864	321.38
541.078	328.38
541.292	323.38
541.506	320.38
541.72	337.38
541.934	337.38
542.147	338.38
542.361	343.38
542.575	330.38
542.789	337.38
543.002	319.38
543.216	311.38
543.43	325.38
543.644	306.38
543.857	312.38
544.071	340.38
544.285	332.38
544.498	323.38
544.712	316.38
544.925	333.38
545.139	337.38
545.352	332.38
545.566	328.38
545.779	335.38
545.993	343.38
546.206	327.38
546.42	303.38
546.633	335.38
546.847	328.38
547.06	336.38
547.274	312.38
547.487	313.38
547.7	355.38
547.914	355.38
548.127	345.38
548.34	313.38
548.554	335.38
548.767	301.38
548.98	334.38
549.193	327.38
549.407	318.38
549.62	326.38
549.833	331.38
550.046	322.38
550.259	323.38
550.473	324.38
550.686	346.38
550.899	338.38
551.112	331.38
551.325	321.38
551.538	327.38
551.751	316.38
551.964	321.38
552.177	309.38
552.39	304.38
552.603	333.38
552.816	339.38
553.029	325.38
553.242	334.38
553.455	322.38
553.667	338.38
553.88	341.38
554.093	320.38
554.306	321.38
554.519	319.38
554.732	303.38
554.944	296.38
555.157	311.38
555.37	328.38
555.583	313.38
555.795	305.38
556.008	300.38
556.221	283.38
556.433	312.38
556.646	313.38
556.859	294.38
557.071	307.38
557.284	296.38
557.496	287.38
557.709	287.38
557.921	293.38
558.134	288.38
558.346	295.38
558.559	276.38
558.771	305.38
558.984	300.38
559.196	289.38
559.409	284.38
559.621	282.38
559.833	301.38
560.046	292.38
560.258	280.38
560.47	289.38
560.683	284.38
560.895	277.38
561.107	283.38
561.32	280.38
561.532	311.38
561.744	289.38
561.956	295.38
562.168	292.38
562.381	283.38
562.593	296.38
562.805	284.38
563.017	291.38
563.229	310.38
563.441	300.38
563.653	296.38
563.865	283.38
564.077	305.38
564.289	287.38
564.501	311.38
564.713	316.38
564.925	298.38
565.137	317.38
565.349	309.38
565.561	315.38
565.773	334.38
565.985	336.38
566.197	342.38
566.408	357.38
566.62	367.38
566.832	374.38
567.044	368.38
567.255	355.38
567.467	368.38
567.679	363.38
567.891	363.38
568.102	368.38
568.314	359.38
568.526	367.38
568.737	352.38
568.949	345.38
569.161	306.38
569.372	295.38
569.584	295.38
569.795	290.38
570.007	300.38
570.218	304.38
570.43	290.38
570.641	281.38
570.853	285.38
571.064	308.38
571.276	290.38
571.487	270.38
571.698	255.38
571.91	289.38
572.121	264.38
572.333	255.38
572.544	252.38
572.755	258.38
572.966	264.38
573.178	248.38
573.389	242.38
573.6	259.38
573.811	249.38
574.023	263.38
574.234	240.38
574.445	229.38
574.656	229.38
574.867	260.38
575.078	235.38
575.289	230.38
575.501	249.38
575.712	242.38
575.923	243.38
576.134	234.38
576.345	236.38
576.556	220.38
576.767	230.38
576.978	244.38
577.188	251.38
577.399	236.38
577.61	229.38
577.821	244.38
578.032	220.38
578.243	223.38
578.454	239.38
578.665	219.38
578.875	237.38
579.086	216.38
579.297	230.38
579.508	221.38
579.718	213.38
579.929	217.38
580.14	222.38
580.35	220.38
580.561	221.38
580.772	224.38
580.982	225.38
581.193	216.38
581.403	228.38
581.614	220.38
581.825	194.38
582.035	214.38
582.246	221.38
582.456	231.38
582.667	226.38
582.877	232.38
583.087	212.38
583.298	210.38
583.508	206.38
583.719	218.38
583.929	219.38
584.139	221.38
584.35	203.38
584.56	211.38
584.77	217.38
584.981	208.38
585.191	211.38
585.401	203.38
585.611	211.38
585.821	203.38
586.032	210.38
586.242	211.38
586.452	217.38
586.662	207.38
586.872	206.38
587.082	212.38
587.292	204.38
587.502	202.38
587.713	212.38
587.923	207.38
588.133	215.38
588.343	213.38
588.553	205.38
588.762	205.38
588.972	210.38
589.182	224.38
589.392	207.38
589.602	223.38
589.812	211.38
590.022	231.38
590.232	206.38
590.441	214.38
590.651	217.38
590.861	220.38
591.071	226.38
591.281	218.38
591.49	216.38
591.7	216.38
591.91	220.38
592.119	215.38
592.329	218.38
592.539	230.38
592.748	220.38
592.958	236.38
593.167	218.38
593.377	218.38
593.587	236.38
593.796	238.38
594.006	235.38
594.215	216.38
594.424	219.38
594.634	218.38
594.843	212.38
595.053	227.38
595.262	218.38
595.472	221.38
595.681	208.38
595.89	206.38
596.1	205.38
596.309	206.38
596.518	210.38
596.727	210.38
596.937	198.38
597.146	194.38
597.355	210.38
597.564	209.38
597.774	207.38
597.983	196.38
598.192	195.38
598.401	204.38
598.61	194.38
598.819	205.38
599.028	198.38
599.237	200.38
599.446	188.38
599.655	191.38
599.864	184.38
600.073	194.38
600.282	201.38
600.491	180.38
600.7	199.38
600.909	200.38
601.118	187.38
601.327	180.38
601.536	191.38
601.745	189.38
601.953	200.38
602.162	191.38
602.371	187.38
602.58	188.38
602.789	170.38
602.997	184.38
603.206	186.38
603.415	184.38
603.623	180.38
603.832	184.38
604.041	184.38
604.249	187.38
604.458	191.38
604.666	175.38
604.875	182.38
605.084	187.38
605.292	187.38
605.501	169.38
605.709	177.38
605.918	185.38
606.126	199.38
606.334	203.38
606.543	177.38
606.751	196.38
606.96	175.38
607.168	169.38
607.376	174.38
607.585	181.38
607.793	180.38
608.001	158.38
608.21	170.38
608.418	176.38
608.626	168.38
608.834	180.38
609.043	177.38
609.251	174.38
609.459	170.38
609.667	183.38
609.875	171.38
610.083	172.38
610.291	186.38
610.499	168.38
610.707	173.38
610.916	185.38
611.124	168.38
611.332	169.38
611.54	186.38
611.748	164.38
611.955	169.38
612.163	185.38
612.371	180.38
612.579	189.38
612.787	181.38
612.995	187.38
613.203	184.38
613.411	173.38
613.618	185.38
613.826	178.38
614.034	183.38
614.242	171.38
614.449	179.38
614.657	156.38
614.865	167.38
615.072	183.38
615.28	167.38
615.488	177.38
615.695	164.38
615.903	173.38
616.111	169.38
616.318	195.38
616.526	178.38
616.733	177.38
616.941	178.38
617.148	147.38
617.356	155.38
617.563	160.38
617.771	159.38
617.978	163.38
618.185	168.38
618.393	159.38
618.6	172.38
618.807	167.38
619.015	173.38
619.222	166.38
619.429	169.38
619.637	161.38
619.844	175.38
620.051	163.38
620.258	160.38
620.466	165.38
620.673	161.38
620.88	144.38
621.087	162.38
621.294	159.38
621.501	165.38
621.708	170.38
621.915	172.38
622.122	170.38
622.329	167.38
622.536	160.38
622.743	162.38
622.95	171.38
623.157	152.38
623.364	152.38
623.571	160.38
623.778	165.38
623.985	167.38
624.192	172.38
624.399	159.38
624.606	168.38
624.812	147.38
625.019	151.38
625.226	150.38
625.433	167.38
625.639	169.38
625.846	154.38
626.053	160.38
626.259	154.38
626.466	147.38
626.673	173.38
626.879	160.38
627.086	159.38
627.293	156.38
627.499	155.38
627.706	152.38
627.912	152.38
628.119	178.38
628.325	154.38
628.532	143.38
628.738	157.38
628.945	143.38
629.151	161.38
629.357	138.38
629.564	161.38
629.77	149.38
629.976	150.38
630.183	155.38
630.389	160.38
630.595	156.38
630.802	155.38
631.008	159.38
631.214	149.38
631.42	164.38
631.627	151.38
631.833	163.38
632.039	161.38
632.245	153.38
632.451	157.38
632.657	143.38
632.863	164.38
633.069	133.38
633.275	145.38
633.481	150.38
633.688	159.38
633.893	144.38
634.099	140.38
634.305	149.38
634.511	140.38
634.717	151.38
634.923	138.38
635.129	156.38
635.335	145.38
635.541	147.38
635.747	155.38
635.952	136.38
636.158	147.38
636.364	140.38
636.57	146.38
636.775	157.38
636.981	156.38
637.187	142.38
637.392	161.38
637.598	156.38
637.804	136.38
638.009	147.38
638.215	137.38
638.421	147.38
638.626	156.38
638.832	153.38
639.037	160.38
639.243	145.38
639.448	161.38
639.654	146.38
639.859	148.38
640.065	141.38
640.27	147.38
640.475	157.38
640.681	151.38
640.886	147.38
641.091	147.38
641.297	155.38
641.502	148.38
641.707	133.38
641.913	149.38
642.118	137.38
642.323	141.38
642.528	145.38
642.733	155.38
642.939	168.38
643.144	141.38
643.349	136.38
643.554	150.38
643.759	152.38
643.964	153.38
644.169	141.38
644.374	148.38
644.579	163.38
644.784	137.38
644.989	139.38
645.194	130.38
645.399	143.38
645.604	145.38
645.809	140.38
646.014	130.38
646.219	156.38
646.423	135.38
646.628	130.38
646.833	150.38
647.038	156.38
647.243	173.38
647.447	153.38
647.652	155.38
647.857	153.38
648.062	154.38
648.266	163.38
648.471	160.38
648.676	135.38
648.88	138.38
649.085	136.38
649.289	150.38
649.494	142.38
649.698	151.38
649.903	138.38
650.107	149.38
650.312	141.38
650.516	147.38
650.721	168.38
650.925	163.38
651.13	131.38
651.334	153.38
651.539	156.38
651.743	154.38
651.947	148.38
652.152	148.38
652.356	151.38
652.56	142.38
652.764	146.38
652.969	155.38
653.173	144.38
653.377	151.38
653.581	147.38
653.785	134.38
653.99	145.38
654.194	155.38
654.398	154.38
654.602	140.38
654.806	145.38
655.01	136.38
655.214	144.38
655.418	127.38
655.622	141.38
655.826	140.38
656.03	146.38
656.234	149.38
656.438	142.38
656.642	150.38
656.846	153.38
657.049	129.38
657.253	134.38
657.457	133.38
657.661	125.38
657.865	133.38
658.068	120.38
658.272	128.38
658.476	121.38
658.68	118.38
658.883	113.38
659.087	115.38
659.291	123.38
659.494	116.38
659.698	120.38
659.901	100.38
660.105	102.38
660.309	96.38
660.512	92.38
660.716	92.38
660.919	88.38
661.123	105.38
661.326	99.38
661.53	99.38
661.733	80.38
661.936	107.38
662.14	94.38
662.343	97.38
662.546	96.38
662.75	103.38
662.953	88.38
663.156	88.38
663.36	87.38
663.563	99.38
663.766	98.38
663.969	75.38
664.173	84.38
664.376	93.38
664.579	81.38
664.782	91.38
664.985	73.38
665.188	83.38
665.391	78.38
665.594	84.38
665.797	83.38
666	89.38
666.203	84.38
666.406	79.38
666.609	96.38
666.812	76.38
667.015	89.38
667.218	81.38
667.421	86.38
667.624	70.38
667.827	72.38
668.03	73.38
668.232	73.38
668.435	92.38
668.638	79.38
668.841	75.38
669.043	98.38
669.246	89.38
669.449	88.38
669.651	88.38
669.854	87.38
670.057	81.38
670.259	75.38
670.462	77.38
670.665	83.38
670.867	79.38
671.07	82.38
671.272	73.38
671.475	83.38
671.677	84.38
671.88	81.38
672.082	69.38
672.284	82.38
672.487	93.38
672.689	78.38
672.892	75.38
