Data from Fe(NO3)3@0.05M.TitratingCurve.Agarose3%dH2O.NegLispCup.LampEnergy10.LIBS07252019_HRD10591_16-46-36-333.txt Node
Date: Thu Jul 25 16:46:36 EDT 2019
User: cochatt
Spectrometer: HR+D1059
Trigger mode: 1
Integration Time (sec): 1.000000E-1
Scans to average: 1
Electric dark correction enabled: true
Nonlinearity correction enabled: false
Boxcar width: 0
XAxis mode: Wavelengths
Number of Pixels in Spectrum: 2048
>>>>>Begin Spectral Data<<<<<
223.165	-15.31
223.4	-15.31
223.635	-15.31
223.869	-8.31
224.104	-25.31
224.338	-18.31
224.573	-16.31
224.808	-9.31
225.042	-3.31
225.277	3.69
225.511	-8.31
225.746	5.69
225.98	-7.31
226.215	6.69
226.449	18.69
226.683	13.69
226.918	23.69
227.152	39.69
227.387	42.69
227.621	26.69
227.856	43.69
228.09	26.69
228.324	48.69
228.559	56.69
228.793	64.69
229.027	108.69
229.262	131.69
229.496	103.69
229.73	113.69
229.964	124.69
230.199	121.69
230.433	126.69
230.667	115.69
230.901	132.69
231.136	135.69
231.37	133.69
231.604	133.69
231.838	158.69
232.072	153.69
232.306	141.69
232.541	156.69
232.775	148.69
233.009	137.69
233.243	153.69
233.477	150.69
233.711	159.69
233.945	157.69
234.179	159.69
234.413	184.69
234.647	177.69
234.881	177.69
235.115	156.69
235.349	167.69
235.583	165.69
235.817	159.69
236.051	166.69
236.285	184.69
236.519	169.69
236.753	176.69
236.987	169.69
237.221	177.69
237.455	170.69
237.689	193.69
237.922	184.69
238.156	174.69
238.39	192.69
238.624	194.69
238.858	193.69
239.091	191.69
239.325	197.69
239.559	190.69
239.793	196.69
240.027	206.69
240.26	211.69
240.494	213.69
240.728	206.69
240.961	204.69
241.195	208.69
241.429	213.69
241.662	204.69
241.896	182.69
242.13	197.69
242.363	207.69
242.597	191.69
242.83	221.69
243.064	200.69
243.298	203.69
243.531	223.69
243.765	219.69
243.998	217.69
244.232	221.69
244.465	233.69
244.699	228.69
244.932	232.69
245.166	223.69
245.399	226.69
245.633	237.69
245.866	242.69
246.099	258.69
246.333	234.69
246.566	251.69
246.8	243.69
247.033	236.69
247.266	242.69
247.5	243.69
247.733	245.69
247.966	251.69
248.2	239.69
248.433	249.69
248.666	250.69
248.899	237.69
249.133	259.69
249.366	271.69
249.599	288.69
249.832	277.69
250.066	265.69
250.299	278.69
250.532	261.69
250.765	264.69
250.998	270.69
251.231	257.69
251.465	291.69
251.698	270.69
251.931	279.69
252.164	280.69
252.397	287.69
252.63	299.69
252.863	294.69
253.096	292.69
253.329	295.69
253.562	295.69
253.795	301.69
254.028	346.69
254.261	329.69
254.494	316.69
254.727	303.69
254.96	300.69
255.193	315.69
255.426	308.69
255.659	308.69
255.892	304.69
256.124	325.69
256.357	307.69
256.59	323.69
256.823	312.69
257.056	311.69
257.289	309.69
257.521	315.69
257.754	326.69
257.987	318.69
258.22	312.69
258.452	339.69
258.685	329.69
258.918	323.69
259.151	348.69
259.383	354.69
259.616	339.69
259.849	342.69
260.081	389.69
260.314	396.69
260.547	369.69
260.779	373.69
261.012	368.69
261.244	363.69
261.477	377.69
261.71	355.69
261.942	362.69
262.175	359.69
262.407	331.69
262.64	361.69
262.872	377.69
263.105	408.69
263.337	393.69
263.57	384.69
263.802	357.69
264.035	371.69
264.267	373.69
264.499	348.69
264.732	371.69
264.964	355.69
265.197	350.69
265.429	361.69
265.661	371.69
265.894	344.69
266.126	370.69
266.358	369.69
266.591	374.69
266.823	392.69
267.055	389.69
267.287	372.69
267.52	374.69
267.752	381.69
267.984	399.69
268.216	387.69
268.448	404.69
268.681	407.69
268.913	394.69
269.145	407.69
269.377	389.69
269.609	415.69
269.841	398.69
270.073	411.69
270.306	405.69
270.538	397.69
270.77	436.69
271.002	383.69
271.234	423.69
271.466	420.69
271.698	423.69
271.93	410.69
272.162	426.69
272.394	424.69
272.626	451.69
272.858	438.69
273.09	431.69
273.322	443.69
273.553	445.69
273.785	444.69
274.017	463.69
274.249	480.69
274.481	483.69
274.713	498.69
274.945	501.69
275.176	531.69
275.408	512.69
275.64	503.69
275.872	498.69
276.104	461.69
276.335	464.69
276.567	445.69
276.799	452.69
277.031	464.69
277.262	459.69
277.494	482.69
277.726	466.69
277.957	468.69
278.189	475.69
278.421	460.69
278.652	470.69
278.884	466.69
279.115	482.69
279.347	468.69
279.579	472.69
279.81	472.69
280.042	490.69
280.273	473.69
280.505	481.69
280.736	470.69
280.968	476.69
281.199	468.69
281.431	471.69
281.662	510.69
281.894	488.69
282.125	491.69
282.356	500.69
282.588	491.69
282.819	497.69
283.051	491.69
283.282	509.69
283.513	500.69
283.745	477.69
283.976	497.69
284.207	515.69
284.439	529.69
284.67	521.69
284.901	525.69
285.132	537.69
285.364	498.69
285.595	517.69
285.826	533.69
286.057	527.69
286.288	537.69
286.52	519.69
286.751	525.69
286.982	524.69
287.213	504.69
287.444	539.69
287.675	523.69
287.906	553.69
288.138	526.69
288.369	539.69
288.6	560.69
288.831	549.69
289.062	528.69
289.293	544.69
289.524	573.69
289.755	535.69
289.986	548.69
290.217	533.69
290.448	530.69
290.679	543.69
290.91	559.69
291.141	528.69
291.371	559.69
291.602	560.69
291.833	527.69
292.064	560.69
292.295	540.69
292.526	555.69
292.757	535.69
292.987	573.69
293.218	545.69
293.449	549.69
293.68	540.69
293.91	529.69
294.141	543.69
294.372	527.69
294.603	535.69
294.833	575.69
295.064	578.69
295.295	551.69
295.525	561.69
295.756	575.69
295.987	564.69
296.217	569.69
296.448	568.69
296.679	575.69
296.909	556.69
297.14	571.69
297.37	586.69
297.601	587.69
297.831	579.69
298.062	571.69
298.292	588.69
298.523	602.69
298.753	621.69
298.984	581.69
299.214	618.69
299.445	612.69
299.675	591.69
299.905	585.69
300.136	604.69
300.366	594.69
300.597	607.69
300.827	583.69
301.057	585.69
301.288	626.69
301.518	601.69
301.748	649.69
301.979	654.69
302.209	629.69
302.439	599.69
302.669	604.69
302.9	600.69
303.13	619.69
303.36	632.69
303.59	659.69
303.82	620.69
304.051	624.69
304.281	635.69
304.511	627.69
304.741	617.69
304.971	612.69
305.201	629.69
305.431	632.69
305.661	666.69
305.891	654.69
306.121	647.69
306.352	623.69
306.582	611.69
306.812	626.69
307.042	635.69
307.272	640.69
307.502	621.69
307.731	647.69
307.961	607.69
308.191	625.69
308.421	622.69
308.651	631.69
308.881	621.69
309.111	641.69
309.341	661.69
309.571	649.69
309.8	651.69
310.03	630.69
310.26	648.69
310.49	636.69
310.72	626.69
310.949	628.69
311.179	656.69
311.409	667.69
311.639	641.69
311.868	639.69
312.098	659.69
312.328	661.69
312.557	660.69
312.787	660.69
313.017	652.69
313.246	649.69
313.476	671.69
313.706	657.69
313.935	669.69
314.165	705.69
314.394	663.69
314.624	666.69
314.853	666.69
315.083	681.69
315.312	701.69
315.542	683.69
315.771	691.69
316.001	689.69
316.23	709.69
316.46	698.69
316.689	687.69
316.919	681.69
317.148	691.69
317.377	697.69
317.607	675.69
317.836	690.69
318.065	693.69
318.295	699.69
318.524	696.69
318.753	702.69
318.983	717.69
319.212	680.69
319.441	708.69
319.67	697.69
319.9	694.69
320.129	690.69
320.358	694.69
320.587	707.69
320.816	711.69
321.046	701.69
321.275	695.69
321.504	696.69
321.733	721.69
321.962	705.69
322.191	714.69
322.42	705.69
322.649	707.69
322.878	719.69
323.108	713.69
323.337	716.69
323.566	731.69
323.795	730.69
324.024	730.69
324.253	726.69
324.482	727.69
324.71	724.69
324.939	725.69
325.168	721.69
325.397	744.69
325.626	772.69
325.855	751.69
326.084	763.69
326.313	742.69
326.542	734.69
326.77	741.69
326.999	753.69
327.228	729.69
327.457	752.69
327.686	738.69
327.914	737.69
328.143	735.69
328.372	740.69
328.6	737.69
328.829	746.69
329.058	757.69
329.287	747.69
329.515	771.69
329.744	755.69
329.972	748.69
330.201	761.69
330.43	769.69
330.658	769.69
330.887	758.69
331.115	780.69
331.344	791.69
331.572	777.69
331.801	787.69
332.03	806.69
332.258	805.69
332.486	784.69
332.715	820.69
332.943	828.69
333.172	846.69
333.4	856.69
333.629	851.69
333.857	865.69
334.085	861.69
334.314	888.69
334.542	876.69
334.771	893.69
334.999	863.69
335.227	904.69
335.455	891.69
335.684	880.69
335.912	908.69
336.14	884.69
336.369	853.69
336.597	893.69
336.825	862.69
337.053	886.69
337.281	824.69
337.51	851.69
337.738	860.69
337.966	852.69
338.194	835.69
338.422	831.69
338.65	832.69
338.878	817.69
339.106	842.69
339.334	840.69
339.562	828.69
339.79	798.69
340.018	822.69
340.246	805.69
340.474	805.69
340.702	799.69
340.93	819.69
341.158	794.69
341.386	807.69
341.614	820.69
341.842	795.69
342.07	823.69
342.298	818.69
342.526	789.69
342.754	837.69
342.981	810.69
343.209	819.69
343.437	843.69
343.665	859.69
343.893	867.69
344.12	880.69
344.348	853.69
344.576	889.69
344.804	877.69
345.031	849.69
345.259	828.69
345.487	815.69
345.714	800.69
345.942	815.69
346.17	802.69
346.397	787.69
346.625	780.69
346.853	797.69
347.08	768.69
347.308	792.69
347.535	782.69
347.763	775.69
347.99	771.69
348.218	789.69
348.445	781.69
348.673	769.69
348.9	778.69
349.128	780.69
349.355	779.69
349.583	779.69
349.81	770.69
350.037	782.69
350.265	771.69
350.492	740.69
350.72	763.69
350.947	769.69
351.174	758.69
351.402	789.69
351.629	769.69
351.856	759.69
352.083	740.69
352.311	759.69
352.538	757.69
352.765	754.69
352.992	770.69
353.22	762.69
353.447	748.69
353.674	763.69
353.901	777.69
354.128	782.69
354.355	764.69
354.583	745.69
354.81	751.69
355.037	766.69
355.264	770.69
355.491	743.69
355.718	737.69
355.945	774.69
356.172	771.69
356.399	746.69
356.626	773.69
356.853	779.69
357.08	780.69
357.307	792.69
357.534	777.69
357.761	791.69
357.988	776.69
358.215	787.69
358.441	801.69
358.668	782.69
358.895	801.69
359.122	756.69
359.349	751.69
359.576	769.69
359.802	795.69
360.029	778.69
360.256	810.69
360.483	777.69
360.709	771.69
360.936	779.69
361.163	756.69
361.39	781.69
361.616	756.69
361.843	789.69
362.07	797.69
362.296	788.69
362.523	799.69
362.749	785.69
362.976	772.69
363.203	794.69
363.429	799.69
363.656	781.69
363.882	788.69
364.109	795.69
364.335	780.69
364.562	780.69
364.788	792.69
365.015	811.69
365.241	783.69
365.468	793.69
365.694	797.69
365.92	795.69
366.147	799.69
366.373	761.69
366.599	801.69
366.826	807.69
367.052	800.69
367.278	789.69
367.505	826.69
367.731	799.69
367.957	791.69
368.184	807.69
368.41	814.69
368.636	808.69
368.862	832.69
369.089	837.69
369.315	844.69
369.541	840.69
369.767	838.69
369.993	839.69
370.219	850.69
370.445	863.69
370.672	828.69
370.898	827.69
371.124	825.69
371.35	852.69
371.576	856.69
371.802	881.69
372.028	874.69
372.254	863.69
372.48	883.69
372.706	881.69
372.932	876.69
373.158	863.69
373.384	869.69
373.61	896.69
373.835	895.69
374.061	882.69
374.287	857.69
374.513	874.69
374.739	892.69
374.965	913.69
375.191	909.69
375.416	902.69
375.642	890.69
375.868	904.69
376.094	900.69
376.319	888.69
376.545	905.69
376.771	883.69
376.997	877.69
377.222	843.69
377.448	855.69
377.674	860.69
377.899	857.69
378.125	845.69
378.35	873.69
378.576	845.69
378.802	852.69
379.027	868.69
379.253	837.69
379.478	855.69
379.704	859.69
379.929	861.69
380.155	857.69
380.38	858.69
380.606	871.69
380.831	869.69
381.057	896.69
381.282	883.69
381.507	879.69
381.733	897.69
381.958	915.69
382.184	923.69
382.409	885.69
382.634	910.69
382.86	900.69
383.085	889.69
383.31	895.69
383.535	927.69
383.761	925.69
383.986	923.69
384.211	948.69
384.436	914.69
384.662	938.69
384.887	954.69
385.112	969.69
385.337	972.69
385.562	968.69
385.787	980.69
386.013	999.69
386.238	998.69
386.463	987.69
386.688	993.69
386.913	981.69
387.138	1008.69
387.363	1017.69
387.588	988.69
387.813	994.69
388.038	1012.69
388.263	1014.69
388.488	1025.69
388.713	1009.69
388.938	985.69
389.163	1003.69
389.387	1025.69
389.612	996.69
389.837	983.69
390.062	1009.69
390.287	1009.69
390.512	1032.69
390.736	1047.69
390.961	1027.69
391.186	1049.69
391.411	1036.69
391.636	1040.69
391.86	1084.69
392.085	1068.69
392.31	1035.69
392.534	1039.69
392.759	1066.69
392.984	1073.69
393.208	1050.69
393.433	1047.69
393.658	1077.69
393.882	1027.69
394.107	1077.69
394.331	1079.69
394.556	1055.69
394.78	1068.69
395.005	1085.69
395.229	1061.69
395.454	1072.69
395.678	1088.69
395.903	1094.69
396.127	1125.69
396.352	1104.69
396.576	1102.69
396.801	1114.69
397.025	1124.69
397.249	1102.69
397.474	1115.69
397.698	1143.69
397.922	1138.69
398.147	1139.69
398.371	1137.69
398.595	1198.69
398.82	1196.69
399.044	1216.69
399.268	1293.69
399.492	1320.69
399.717	1402.69
399.941	1443.69
400.165	1423.69
400.389	1359.69
400.613	1313.69
400.837	1284.69
401.062	1274.69
401.286	1225.69
401.51	1213.69
401.734	1213.69
401.958	1210.69
402.182	1202.69
402.406	1253.69
402.63	1203.69
402.854	1217.69
403.078	1226.69
403.302	1223.69
403.526	1225.69
403.75	1240.69
403.974	1239.69
404.198	1265.69
404.422	1228.69
404.645	1241.69
404.869	1264.69
405.093	1258.69
405.317	1247.69
405.541	1250.69
405.765	1283.69
405.988	1258.69
406.212	1297.69
406.436	1293.69
406.66	1316.69
406.883	1282.69
407.107	1338.69
407.331	1361.69
407.555	1415.69
407.778	1386.69
408.002	1366.69
408.226	1330.69
408.449	1412.69
408.673	1369.69
408.896	1333.69
409.12	1319.69
409.344	1320.69
409.567	1315.69
409.791	1289.69
410.014	1273.69
410.238	1291.69
410.461	1292.69
410.685	1307.69
410.908	1250.69
411.132	1290.69
411.355	1264.69
411.578	1267.69
411.802	1215.69
412.025	1251.69
412.249	1268.69
412.472	1261.69
412.695	1263.69
412.919	1259.69
413.142	1251.69
413.365	1237.69
413.589	1229.69
413.812	1206.69
414.035	1201.69
414.258	1212.69
414.482	1208.69
414.705	1237.69
414.928	1228.69
415.151	1225.69
415.374	1211.69
415.597	1217.69
415.821	1191.69
416.044	1208.69
416.267	1177.69
416.49	1192.69
416.713	1200.69
416.936	1166.69
417.159	1220.69
417.382	1143.69
417.605	1134.69
417.828	1164.69
418.051	1203.69
418.274	1171.69
418.497	1163.69
418.72	1186.69
418.943	1180.69
419.166	1215.69
419.389	1320.69
419.611	1290.69
419.834	1252.69
420.057	1217.69
420.28	1149.69
420.503	1146.69
420.726	1157.69
420.948	1144.69
421.171	1134.69
421.394	1201.69
421.617	1163.69
421.839	1136.69
422.062	1163.69
422.285	1159.69
422.507	1180.69
422.73	1143.69
422.953	1155.69
423.175	1181.69
423.398	1145.69
423.621	1148.69
423.843	1158.69
424.066	1167.69
424.288	1184.69
424.511	1137.69
424.733	1175.69
424.956	1143.69
425.178	1119.69
425.401	1158.69
425.623	1172.69
425.846	1133.69
426.068	1141.69
426.291	1130.69
426.513	1103.69
426.735	1131.69
426.958	1131.69
427.18	1104.69
427.402	1109.69
427.625	1127.69
427.847	1088.69
428.069	1110.69
428.292	1107.69
428.514	1096.69
428.736	1087.69
428.958	1134.69
429.181	1094.69
429.403	1096.69
429.625	1101.69
429.847	1080.69
430.069	1096.69
430.292	1116.69
430.514	1093.69
430.736	1129.69
430.958	1113.69
431.18	1086.69
431.402	1088.69
431.624	1070.69
431.846	1096.69
432.068	1087.69
432.29	1099.69
432.512	1105.69
432.734	1107.69
432.956	1106.69
433.178	1109.69
433.4	1123.69
433.622	1149.69
433.844	1136.69
434.066	1135.69
434.287	1110.69
434.509	1140.69
434.731	1137.69
434.953	1134.69
435.175	1153.69
435.397	1173.69
435.618	1130.69
435.84	1141.69
436.062	1127.69
436.284	1128.69
436.505	1107.69
436.727	1122.69
436.949	1126.69
437.17	1092.69
437.392	1089.69
437.614	1086.69
437.835	1092.69
438.057	1058.69
438.278	1059.69
438.5	1089.69
438.721	1057.69
438.943	1075.69
439.165	1065.69
439.386	1134.69
439.608	1065.69
439.829	1081.69
440.05	1083.69
440.272	1095.69
440.493	1084.69
440.715	1099.69
440.936	1101.69
441.158	1124.69
441.379	1107.69
441.6	1169.69
441.822	1135.69
442.043	1210.69
442.264	1143.69
442.486	1113.69
442.707	1145.69
442.928	1150.69
443.149	1143.69
443.371	1148.69
443.592	1138.69
443.813	1153.69
444.034	1120.69
444.255	1135.69
444.476	1167.69
444.698	1200.69
444.919	1174.69
445.14	1311.69
445.361	1244.69
445.582	1188.69
445.803	1137.69
446.024	1099.69
446.245	1112.69
446.466	1135.69
446.687	1085.69
446.908	1103.69
447.129	1083.69
447.35	1048.69
447.571	1077.69
447.792	1065.69
448.013	1041.69
448.234	1029.69
448.455	1045.69
448.675	1052.69
448.896	1040.69
449.117	1025.69
449.338	1035.69
449.559	1006.69
449.779	1018.69
450	1036.69
450.221	1005.69
450.442	1027.69
450.662	1002.69
450.883	976.69
451.104	1017.69
451.324	985.69
451.545	1026.69
451.766	1012.69
451.986	1007.69
452.207	991.69
452.428	962.69
452.648	1004.69
452.869	969.69
453.089	957.69
453.31	982.69
453.53	969.69
453.751	965.69
453.971	935.69
454.192	958.69
454.412	939.69
454.633	953.69
454.853	953.69
455.073	980.69
455.294	995.69
455.514	956.69
455.734	971.69
455.955	956.69
456.175	955.69
456.395	962.69
456.616	970.69
456.836	970.69
457.056	985.69
457.276	980.69
457.497	1001.69
457.717	975.69
457.937	968.69
458.157	964.69
458.377	1005.69
458.598	1009.69
458.818	1024.69
459.038	995.69
459.258	1062.69
459.478	1087.69
459.698	1099.69
459.918	1136.69
460.138	1136.69
460.358	1158.69
460.578	1172.69
460.798	1176.69
461.018	1191.69
461.238	1188.69
461.458	1189.69
461.678	1168.69
461.898	1219.69
462.118	1195.69
462.338	1219.69
462.558	1257.69
462.777	1274.69
462.997	1294.69
463.217	1329.69
463.437	1332.69
463.657	1313.69
463.876	1315.69
464.096	1299.69
464.316	1266.69
464.536	1264.69
464.755	1264.69
464.975	1236.69
465.195	1223.69
465.414	1180.69
465.634	1161.69
465.854	1128.69
466.073	1115.69
466.293	1094.69
466.512	1136.69
466.732	1116.69
466.951	1087.69
467.171	1051.69
467.391	1073.69
467.61	1049.69
467.829	1078.69
468.049	1092.69
468.268	1044.69
468.488	1044.69
468.707	1060.69
468.927	1090.69
469.146	1069.69
469.365	1088.69
469.585	1063.69
469.804	1075.69
470.023	1084.69
470.243	1048.69
470.462	1065.69
470.681	1083.69
470.901	1071.69
471.12	1101.69
471.339	1071.69
471.558	1057.69
471.777	1078.69
471.997	1069.69
472.216	1093.69
472.435	1075.69
472.654	1033.69
472.873	1029.69
473.092	1073.69
473.311	1076.69
473.53	1052.69
473.749	1047.69
473.968	1071.69
474.187	1059.69
474.406	1056.69
474.625	1067.69
474.844	1084.69
475.063	1112.69
475.282	1053.69
475.501	1090.69
475.72	1084.69
475.939	1095.69
476.158	1127.69
476.377	1141.69
476.596	1159.69
476.814	1173.69
477.033	1150.69
477.252	1155.69
477.471	1179.69
477.69	1202.69
477.908	1197.69
478.127	1206.69
478.346	1243.69
478.564	1221.69
478.783	1224.69
479.002	1257.69
479.22	1255.69
479.439	1287.69
479.658	1274.69
479.876	1276.69
480.095	1267.69
480.313	1311.69
480.532	1282.69
480.751	1272.69
480.969	1289.69
481.188	1299.69
481.406	1293.69
481.624	1281.69
481.843	1236.69
482.061	1281.69
482.28	1263.69
482.498	1274.69
482.717	1231.69
482.935	1240.69
483.153	1259.69
483.372	1267.69
483.59	1275.69
483.808	1252.69
484.027	1245.69
484.245	1267.69
484.463	1274.69
484.681	1300.69
484.9	1266.69
485.118	1298.69
485.336	1284.69
485.554	1256.69
485.772	1258.69
485.99	1302.69
486.209	1283.69
486.427	1315.69
486.645	1295.69
486.863	1288.69
487.081	1297.69
487.299	1316.69
487.517	1289.69
487.735	1305.69
487.953	1312.69
488.171	1291.69
488.389	1286.69
488.607	1276.69
488.825	1304.69
489.043	1300.69
489.261	1288.69
489.479	1313.69
489.696	1310.69
489.914	1296.69
490.132	1288.69
490.35	1284.69
490.568	1285.69
490.786	1317.69
491.003	1323.69
491.221	1306.69
491.439	1331.69
491.657	1335.69
491.874	1308.69
492.092	1324.69
492.31	1354.69
492.527	1364.69
492.745	1317.69
492.963	1317.69
493.18	1334.69
493.398	1335.69
493.615	1379.69
493.833	1322.69
494.05	1369.69
494.268	1358.69
494.485	1348.69
494.703	1364.69
494.92	1377.69
495.138	1360.69
495.355	1412.69
495.573	1375.69
495.79	1362.69
496.008	1401.69
496.225	1387.69
496.442	1402.69
496.66	1452.69
496.877	1438.69
497.094	1478.69
497.312	1494.69
497.529	1488.69
497.746	1548.69
497.963	1561.69
498.181	1584.69
498.398	1641.69
498.615	1667.69
498.832	1749.69
499.049	1800.69
499.267	1882.69
499.484	1937.69
499.701	2044.69
499.918	2111.69
500.135	2231.69
500.352	2325.69
500.569	2344.69
500.786	2338.69
501.003	2298.69
501.22	2274.69
501.437	2124.69
501.654	1978.69
501.871	1933.69
502.088	1868.69
502.305	1766.69
502.522	1721.69
502.739	1658.69
502.956	1659.69
503.172	1573.69
503.389	1539.69
503.606	1508.69
503.823	1476.69
504.04	1466.69
504.256	1479.69
504.473	1417.69
504.69	1410.69
504.907	1402.69
505.123	1392.69
505.34	1350.69
505.557	1318.69
505.773	1313.69
505.99	1287.69
506.207	1260.69
506.423	1249.69
506.64	1227.69
506.856	1224.69
507.073	1192.69
507.289	1189.69
507.506	1195.69
507.722	1163.69
507.939	1219.69
508.155	1169.69
508.372	1144.69
508.588	1145.69
508.805	1174.69
509.021	1146.69
509.238	1124.69
509.454	1105.69
509.67	1104.69
509.887	1133.69
510.103	1118.69
510.319	1088.69
510.536	1099.69
510.752	1051.69
510.968	1091.69
511.184	1015.69
511.401	1087.69
511.617	1059.69
511.833	1051.69
512.049	1105.69
512.265	1053.69
512.481	1068.69
512.698	1066.69
512.914	1072.69
513.13	1078.69
513.346	1074.69
513.562	1071.69
513.778	1090.69
513.994	1085.69
514.21	1106.69
514.426	1063.69
514.642	1101.69
514.858	1082.69
515.074	1089.69
515.29	1094.69
515.506	1119.69
515.721	1097.69
515.937	1109.69
516.153	1115.69
516.369	1126.69
516.585	1137.69
516.801	1166.69
517.016	1178.69
517.232	1210.69
517.448	1236.69
517.664	1209.69
517.879	1199.69
518.095	1224.69
518.311	1223.69
518.527	1180.69
518.742	1177.69
518.958	1167.69
519.173	1147.69
519.389	1143.69
519.605	1138.69
519.82	1111.69
520.036	1125.69
520.251	1093.69
520.467	1071.69
520.682	1045.69
520.898	1048.69
521.113	1052.69
521.329	1031.69
521.544	1041.69
521.76	1039.69
521.975	980.69
522.19	1027.69
522.406	1004.69
522.621	996.69
522.836	996.69
523.052	1043.69
523.267	979.69
523.482	967.69
523.698	981.69
523.913	993.69
524.128	983.69
524.343	951.69
524.559	956.69
524.774	968.69
524.989	962.69
525.204	967.69
525.419	968.69
525.634	955.69
525.849	949.69
526.064	927.69
526.28	972.69
526.495	967.69
526.71	980.69
526.925	939.69
527.14	906.69
527.355	949.69
527.57	947.69
527.785	944.69
527.999	925.69
528.214	909.69
528.429	919.69
528.644	948.69
528.859	916.69
529.074	917.69
529.289	933.69
529.503	917.69
529.718	914.69
529.933	922.69
530.148	891.69
530.363	943.69
530.577	887.69
530.792	929.69
531.007	905.69
531.221	921.69
531.436	918.69
531.651	916.69
531.865	901.69
532.08	897.69
532.295	922.69
532.509	898.69
532.724	921.69
532.938	909.69
533.153	901.69
533.367	888.69
533.582	913.69
533.796	916.69
534.011	917.69
534.225	874.69
534.44	898.69
534.654	889.69
534.868	881.69
535.083	867.69
535.297	880.69
535.511	837.69
535.726	856.69
535.94	869.69
536.154	846.69
536.369	856.69
536.583	864.69
536.797	854.69
537.011	860.69
537.225	832.69
537.44	836.69
537.654	858.69
537.868	860.69
538.082	818.69
538.296	853.69
538.51	862.69
538.724	862.69
538.938	840.69
539.153	839.69
539.367	855.69
539.581	859.69
539.795	842.69
540.009	833.69
540.222	827.69
540.436	821.69
540.65	849.69
540.864	839.69
541.078	834.69
541.292	817.69
541.506	823.69
541.72	858.69
541.934	852.69
542.147	831.69
542.361	826.69
542.575	823.69
542.789	821.69
543.002	852.69
543.216	829.69
543.43	798.69
543.644	813.69
543.857	858.69
544.071	838.69
544.285	854.69
544.498	819.69
544.712	813.69
544.925	807.69
545.139	829.69
545.352	839.69
545.566	824.69
545.779	826.69
545.993	860.69
546.206	846.69
546.42	831.69
546.633	819.69
546.847	824.69
547.06	831.69
547.274	813.69
547.487	841.69
547.7	820.69
547.914	819.69
548.127	845.69
548.34	870.69
548.554	845.69
548.767	865.69
548.98	872.69
549.193	835.69
549.407	858.69
549.62	845.69
549.833	838.69
550.046	866.69
550.259	858.69
550.473	810.69
550.686	810.69
550.899	833.69
551.112	830.69
551.325	864.69
551.538	819.69
551.751	801.69
551.964	823.69
552.177	823.69
552.39	826.69
552.603	838.69
552.816	827.69
553.029	840.69
553.242	861.69
553.455	829.69
553.667	834.69
553.88	842.69
554.093	809.69
554.306	787.69
554.519	801.69
554.732	813.69
554.944	783.69
555.157	773.69
555.37	774.69
555.583	756.69
555.795	776.69
556.008	754.69
556.221	739.69
556.433	734.69
556.646	728.69
556.859	733.69
557.071	757.69
557.284	739.69
557.496	743.69
557.709	737.69
557.921	722.69
558.134	718.69
558.346	711.69
558.559	720.69
558.771	717.69
558.984	707.69
559.196	713.69
559.409	689.69
559.621	689.69
559.833	694.69
560.046	703.69
560.258	689.69
560.47	704.69
560.683	708.69
560.895	719.69
561.107	706.69
561.32	720.69
561.532	693.69
561.744	704.69
561.956	686.69
562.168	697.69
562.381	701.69
562.593	721.69
562.805	685.69
563.017	736.69
563.229	692.69
563.441	688.69
563.653	690.69
563.865	706.69
564.077	712.69
564.289	727.69
564.501	713.69
564.713	721.69
564.925	720.69
565.137	747.69
565.349	747.69
565.561	768.69
565.773	787.69
565.985	801.69
566.197	817.69
566.408	827.69
566.62	864.69
566.832	892.69
567.044	911.69
567.255	897.69
567.467	898.69
567.679	914.69
567.891	944.69
568.102	907.69
568.314	875.69
568.526	858.69
568.737	815.69
568.949	781.69
569.161	760.69
569.372	749.69
569.584	691.69
569.795	703.69
570.007	726.69
570.218	714.69
570.43	681.69
570.641	679.69
570.853	689.69
571.064	691.69
571.276	639.69
571.487	632.69
571.698	616.69
571.91	627.69
572.121	630.69
572.333	617.69
572.544	621.69
572.755	614.69
572.966	613.69
573.178	589.69
573.389	589.69
573.6	568.69
573.811	563.69
574.023	570.69
574.234	572.69
574.445	565.69
574.656	564.69
574.867	546.69
575.078	557.69
575.289	561.69
575.501	539.69
575.712	546.69
575.923	545.69
576.134	560.69
576.345	519.69
576.556	557.69
576.767	525.69
576.978	528.69
577.188	521.69
577.399	482.69
577.61	531.69
577.821	538.69
578.032	521.69
578.243	518.69
578.454	515.69
578.665	519.69
578.875	518.69
579.086	489.69
579.297	502.69
579.508	486.69
579.718	515.69
579.929	520.69
580.14	495.69
580.35	490.69
580.561	487.69
580.772	468.69
580.982	495.69
581.193	480.69
581.403	466.69
581.614	491.69
581.825	483.69
582.035	478.69
582.246	483.69
582.456	472.69
582.667	494.69
582.877	497.69
583.087	476.69
583.298	465.69
583.508	470.69
583.719	485.69
583.929	472.69
584.139	462.69
584.35	468.69
584.56	459.69
584.77	465.69
584.981	452.69
585.191	463.69
585.401	444.69
585.611	452.69
585.821	453.69
586.032	460.69
586.242	446.69
586.452	475.69
586.662	453.69
586.872	441.69
587.082	457.69
587.292	454.69
587.502	480.69
587.713	460.69
587.923	444.69
588.133	466.69
588.343	443.69
588.553	462.69
588.762	466.69
588.972	460.69
589.182	466.69
589.392	466.69
589.602	444.69
589.812	466.69
590.022	467.69
590.232	436.69
590.441	466.69
590.651	453.69
590.861	433.69
591.071	435.69
591.281	453.69
591.49	457.69
591.7	483.69
591.91	463.69
592.119	471.69
592.329	468.69
592.539	481.69
592.748	484.69
592.958	475.69
593.167	468.69
593.377	473.69
593.587	482.69
593.796	477.69
594.006	481.69
594.215	499.69
594.424	480.69
594.634	487.69
594.843	478.69
595.053	493.69
595.262	454.69
595.472	461.69
595.681	427.69
595.89	448.69
596.1	417.69
596.309	423.69
596.518	432.69
596.727	422.69
596.937	419.69
597.146	411.69
597.355	411.69
597.564	403.69
597.774	414.69
597.983	405.69
598.192	388.69
598.401	396.69
598.61	397.69
598.819	395.69
599.028	363.69
599.237	398.69
599.446	398.69
599.655	384.69
599.864	387.69
600.073	371.69
600.282	376.69
600.491	380.69
600.7	374.69
600.909	379.69
601.118	380.69
601.327	377.69
601.536	389.69
601.745	378.69
601.953	383.69
602.162	374.69
602.371	368.69
602.58	365.69
602.789	351.69
602.997	360.69
603.206	378.69
603.415	361.69
603.623	350.69
603.832	359.69
604.041	354.69
604.249	373.69
604.458	349.69
604.666	359.69
604.875	354.69
605.084	348.69
605.292	334.69
605.501	360.69
605.709	356.69
605.918	355.69
606.126	353.69
606.334	364.69
606.543	358.69
606.751	343.69
606.96	354.69
607.168	341.69
607.376	347.69
607.585	345.69
607.793	344.69
608.001	337.69
608.21	346.69
608.418	360.69
608.626	350.69
608.834	332.69
609.043	345.69
609.251	332.69
609.459	338.69
609.667	334.69
609.875	327.69
610.083	329.69
610.291	333.69
610.499	354.69
610.707	342.69
610.916	342.69
611.124	343.69
611.332	339.69
611.54	347.69
611.748	341.69
611.955	336.69
612.163	324.69
612.371	346.69
612.579	328.69
612.787	338.69
612.995	342.69
613.203	340.69
613.411	335.69
613.618	316.69
613.826	313.69
614.034	340.69
614.242	333.69
614.449	316.69
614.657	325.69
614.865	328.69
615.072	339.69
615.28	325.69
615.488	319.69
615.695	333.69
615.903	318.69
616.111	326.69
616.318	314.69
616.526	320.69
616.733	325.69
616.941	321.69
617.148	325.69
617.356	332.69
617.563	321.69
617.771	324.69
617.978	310.69
618.185	315.69
618.393	325.69
618.6	307.69
618.807	327.69
619.015	315.69
619.222	301.69
619.429	325.69
619.637	313.69
619.844	295.69
620.051	305.69
620.258	285.69
620.466	309.69
620.673	292.69
620.88	285.69
621.087	286.69
621.294	301.69
621.501	283.69
621.708	305.69
621.915	293.69
622.122	303.69
622.329	308.69
622.536	290.69
622.743	283.69
622.95	286.69
623.157	292.69
623.364	301.69
623.571	316.69
623.778	309.69
623.985	299.69
624.192	309.69
624.399	296.69
624.606	276.69
624.812	285.69
625.019	289.69
625.226	291.69
625.433	285.69
625.639	269.69
625.846	284.69
626.053	281.69
626.259	283.69
626.466	293.69
626.673	269.69
626.879	278.69
627.086	291.69
627.293	275.69
627.499	266.69
627.706	270.69
627.912	280.69
628.119	283.69
628.325	277.69
628.532	261.69
628.738	270.69
628.945	273.69
629.151	252.69
629.357	266.69
629.564	265.69
629.77	252.69
629.976	260.69
630.183	252.69
630.389	263.69
630.595	259.69
630.802	265.69
631.008	272.69
631.214	260.69
631.42	282.69
631.627	264.69
631.833	263.69
632.039	267.69
632.245	264.69
632.451	281.69
632.657	258.69
632.863	258.69
633.069	260.69
633.275	256.69
633.481	252.69
633.688	257.69
633.893	257.69
634.099	253.69
634.305	256.69
634.511	255.69
634.717	246.69
634.923	244.69
635.129	257.69
635.335	230.69
635.541	255.69
635.747	249.69
635.952	256.69
636.158	236.69
636.364	236.69
636.57	256.69
636.775	263.69
636.981	230.69
637.187	229.69
637.392	236.69
637.598	258.69
637.804	257.69
638.009	244.69
638.215	241.69
638.421	245.69
638.626	253.69
638.832	241.69
639.037	223.69
639.243	239.69
639.448	229.69
639.654	245.69
639.859	224.69
640.065	233.69
640.27	252.69
640.475	243.69
640.681	225.69
640.886	230.69
641.091	228.69
641.297	244.69
641.502	242.69
641.707	219.69
641.913	228.69
642.118	243.69
642.323	233.69
642.528	229.69
642.733	229.69
642.939	230.69
643.144	217.69
643.349	237.69
643.554	236.69
643.759	228.69
643.964	228.69
644.169	229.69
644.374	224.69
644.579	232.69
644.784	229.69
644.989	241.69
645.194	239.69
645.399	245.69
645.604	241.69
645.809	230.69
646.014	240.69
646.219	243.69
646.423	244.69
646.628	221.69
646.833	228.69
647.038	227.69
647.243	223.69
647.447	220.69
647.652	234.69
647.857	242.69
648.062	223.69
648.266	241.69
648.471	239.69
648.676	239.69
648.88	226.69
649.085	244.69
649.289	227.69
649.494	236.69
649.698	245.69
649.903	242.69
650.107	240.69
650.312	234.69
650.516	242.69
650.721	240.69
650.925	239.69
651.13	235.69
651.334	229.69
651.539	218.69
651.743	234.69
651.947	219.69
652.152	217.69
652.356	229.69
652.56	211.69
652.764	229.69
652.969	208.69
653.173	241.69
653.377	220.69
653.581	230.69
653.785	208.69
653.99	205.69
654.194	211.69
654.398	220.69
654.602	223.69
654.806	227.69
655.01	215.69
655.214	234.69
655.418	212.69
655.622	213.69
655.826	239.69
656.03	204.69
656.234	221.69
656.438	216.69
656.642	227.69
656.846	203.69
657.049	205.69
657.253	208.69
657.457	199.69
657.661	166.69
657.865	169.69
658.068	179.69
658.272	167.69
658.476	156.69
658.68	135.69
658.883	140.69
659.087	143.69
659.291	143.69
659.494	148.69
659.698	132.69
659.901	125.69
660.105	112.69
660.309	123.69
660.512	103.69
660.716	112.69
660.919	109.69
661.123	106.69
661.326	99.69
661.53	90.69
661.733	100.69
661.936	96.69
662.14	102.69
662.343	96.69
662.546	93.69
662.75	93.69
662.953	77.69
663.156	90.69
663.36	84.69
663.563	99.69
663.766	77.69
663.969	78.69
664.173	77.69
664.376	85.69
664.579	89.69
664.782	88.69
664.985	92.69
665.188	82.69
665.391	93.69
665.594	76.69
665.797	75.69
666	77.69
666.203	95.69
666.406	91.69
666.609	87.69
666.812	75.69
667.015	91.69
667.218	74.69
667.421	81.69
667.624	75.69
667.827	83.69
668.03	73.69
668.232	79.69
668.435	98.69
668.638	84.69
668.841	91.69
669.043	78.69
669.246	86.69
669.449	76.69
669.651	77.69
669.854	83.69
670.057	85.69
670.259	87.69
670.462	86.69
670.665	87.69
670.867	78.69
671.07	74.69
671.272	80.69
671.475	75.69
671.677	83.69
671.88	89.69
672.082	82.69
672.284	77.69
672.487	81.69
672.689	94.69
672.892	75.69
