Data from FlinnAP5935BZINC.07152019.LAMPEdge.EN5.5scans.P1_HRD10591_15-00-01-579.txt Node
Date: Mon Jul 15 15:00:01 EDT 2019
User: cochatt
Spectrometer: HR+D1059
Trigger mode: 1
Integration Time (sec): 1.000000E-1
Scans to average: 1
Electric dark correction enabled: true
Nonlinearity correction enabled: false
Boxcar width: 0
XAxis mode: Wavelengths
Number of Pixels in Spectrum: 2048
>>>>>Begin Spectral Data<<<<<
223.165	-19.44
223.4	-19.44
223.635	-19.44
223.869	-17.44
224.104	-11.44
224.338	-16.44
224.573	-19.44
224.808	-17.44
225.042	-2.44
225.277	-12.44
225.511	5.56
225.746	3.56
225.98	4.56
226.215	3.56
226.449	10.56
226.683	36.56
226.918	25.56
227.152	26.56
227.387	34.56
227.621	45.56
227.856	46.56
228.09	54.56
228.324	46.56
228.559	65.56
228.793	64.56
229.027	105.56
229.262	117.56
229.496	113.56
229.73	124.56
229.964	119.56
230.199	125.56
230.433	147.56
230.667	140.56
230.901	127.56
231.136	129.56
231.37	147.56
231.604	132.56
231.838	130.56
232.072	131.56
232.306	132.56
232.541	136.56
232.775	142.56
233.009	137.56
233.243	149.56
233.477	139.56
233.711	142.56
233.945	138.56
234.179	145.56
234.413	149.56
234.647	147.56
234.881	148.56
235.115	145.56
235.349	144.56
235.583	137.56
235.817	156.56
236.051	152.56
236.285	142.56
236.519	152.56
236.753	150.56
236.987	169.56
237.221	167.56
237.455	147.56
237.689	169.56
237.922	155.56
238.156	169.56
238.39	172.56
238.624	170.56
238.858	155.56
239.091	164.56
239.325	158.56
239.559	150.56
239.793	173.56
240.027	164.56
240.26	181.56
240.494	169.56
240.728	181.56
240.961	196.56
241.195	182.56
241.429	178.56
241.662	159.56
241.896	196.56
242.13	176.56
242.363	186.56
242.597	177.56
242.83	208.56
243.064	196.56
243.298	193.56
243.531	196.56
243.765	189.56
243.998	192.56
244.232	210.56
244.465	203.56
244.699	221.56
244.932	210.56
245.166	216.56
245.399	206.56
245.633	217.56
245.866	224.56
246.099	203.56
246.333	224.56
246.566	220.56
246.8	233.56
247.033	229.56
247.266	232.56
247.5	240.56
247.733	234.56
247.966	241.56
248.2	244.56
248.433	244.56
248.666	245.56
248.899	241.56
249.133	264.56
249.366	274.56
249.599	276.56
249.832	287.56
250.066	322.56
250.299	369.56
250.532	484.56
250.765	536.56
250.998	466.56
251.231	386.56
251.465	358.56
251.698	334.56
251.931	318.56
252.164	319.56
252.397	306.56
252.63	310.56
252.863	305.56
253.096	301.56
253.329	320.56
253.562	308.56
253.795	314.56
254.028	330.56
254.261	312.56
254.494	319.56
254.727	322.56
254.96	328.56
255.193	350.56
255.426	394.56
255.659	449.56
255.892	595.56
256.124	813.56
256.357	906.56
256.59	735.56
256.823	564.56
257.056	513.56
257.289	437.56
257.521	442.56
257.754	389.56
257.987	398.56
258.22	387.56
258.452	392.56
258.685	387.56
258.918	358.56
259.151	364.56
259.383	332.56
259.616	359.56
259.849	349.56
260.081	350.56
260.314	358.56
260.547	352.56
260.779	329.56
261.012	366.56
261.244	361.56
261.477	353.56
261.71	349.56
261.942	369.56
262.175	362.56
262.407	358.56
262.64	348.56
262.872	348.56
263.105	368.56
263.337	360.56
263.57	335.56
263.802	354.56
264.035	351.56
264.267	357.56
264.499	377.56
264.732	369.56
264.964	385.56
265.197	360.56
265.429	368.56
265.661	376.56
265.894	361.56
266.126	383.56
266.358	384.56
266.591	353.56
266.823	364.56
267.055	379.56
267.287	364.56
267.52	388.56
267.752	376.56
267.984	378.56
268.216	378.56
268.448	395.56
268.681	404.56
268.913	403.56
269.145	400.56
269.377	369.56
269.609	398.56
269.841	370.56
270.073	400.56
270.306	404.56
270.538	401.56
270.77	408.56
271.002	414.56
271.234	419.56
271.466	418.56
271.698	397.56
271.93	423.56
272.162	407.56
272.394	428.56
272.626	428.56
272.858	432.56
273.09	431.56
273.322	445.56
273.553	450.56
273.785	451.56
274.017	467.56
274.249	453.56
274.481	470.56
274.713	466.56
274.945	492.56
275.176	479.56
275.408	500.56
275.64	509.56
275.872	536.56
276.104	515.56
276.335	516.56
276.567	514.56
276.799	529.56
277.031	591.56
277.262	641.56
277.494	643.56
277.726	597.56
277.957	569.56
278.189	538.56
278.421	554.56
278.652	538.56
278.884	529.56
279.115	538.56
279.347	531.56
279.579	579.56
279.81	615.56
280.042	652.56
280.273	728.56
280.505	748.56
280.736	678.56
280.968	614.56
281.199	581.56
281.431	555.56
281.662	575.56
281.894	556.56
282.125	541.56
282.356	524.56
282.588	529.56
282.819	518.56
283.051	530.56
283.282	534.56
283.513	533.56
283.745	500.56
283.976	514.56
284.207	528.56
284.439	540.56
284.67	541.56
284.901	541.56
285.132	538.56
285.364	534.56
285.595	556.56
285.826	509.56
286.057	543.56
286.288	534.56
286.52	547.56
286.751	554.56
286.982	546.56
287.213	551.56
287.444	563.56
287.675	561.56
287.906	567.56
288.138	554.56
288.369	557.56
288.6	538.56
288.831	559.56
289.062	553.56
289.293	553.56
289.524	577.56
289.755	559.56
289.986	561.56
290.217	550.56
290.448	565.56
290.679	533.56
290.91	549.56
291.141	562.56
291.371	565.56
291.602	561.56
291.833	578.56
292.064	558.56
292.295	550.56
292.526	549.56
292.757	556.56
292.987	552.56
293.218	529.56
293.449	530.56
293.68	567.56
293.91	516.56
294.141	553.56
294.372	545.56
294.603	541.56
294.833	538.56
295.064	557.56
295.295	579.56
295.525	571.56
295.756	543.56
295.987	546.56
296.217	559.56
296.448	547.56
296.679	575.56
296.909	554.56
297.14	548.56
297.37	575.56
297.601	578.56
297.831	561.56
298.062	581.56
298.292	574.56
298.523	606.56
298.753	594.56
298.984	569.56
299.214	584.56
299.445	600.56
299.675	597.56
299.905	590.56
300.136	602.56
300.366	592.56
300.597	603.56
300.827	605.56
301.057	624.56
301.288	619.56
301.518	624.56
301.748	654.56
301.979	649.56
302.209	657.56
302.439	660.56
302.669	629.56
302.9	622.56
303.13	632.56
303.36	625.56
303.59	663.56
303.82	684.56
304.051	693.56
304.281	669.56
304.511	638.56
304.741	611.56
304.971	634.56
305.201	626.56
305.431	620.56
305.661	632.56
305.891	627.56
306.121	640.56
306.352	617.56
306.582	622.56
306.812	626.56
307.042	686.56
307.272	713.56
307.502	751.56
307.731	766.56
307.961	698.56
308.191	665.56
308.421	651.56
308.651	640.56
308.881	618.56
309.111	607.56
309.341	616.56
309.571	627.56
309.8	655.56
310.03	640.56
310.26	616.56
310.49	628.56
310.72	656.56
310.949	648.56
311.179	671.56
311.409	638.56
311.639	635.56
311.868	659.56
312.098	658.56
312.328	649.56
312.557	674.56
312.787	662.56
313.017	645.56
313.246	646.56
313.476	662.56
313.706	674.56
313.935	674.56
314.165	673.56
314.394	665.56
314.624	706.56
314.853	661.56
315.083	671.56
315.312	687.56
315.542	683.56
315.771	663.56
316.001	676.56
316.23	645.56
316.46	677.56
316.689	658.56
316.919	673.56
317.148	675.56
317.377	680.56
317.607	691.56
317.836	688.56
318.065	683.56
318.295	691.56
318.524	708.56
318.753	705.56
318.983	698.56
319.212	692.56
319.441	692.56
319.67	672.56
319.9	694.56
320.129	702.56
320.358	682.56
320.587	720.56
320.816	699.56
321.046	682.56
321.275	712.56
321.504	693.56
321.733	698.56
321.962	709.56
322.191	732.56
322.42	722.56
322.649	704.56
322.878	733.56
323.108	763.56
323.337	742.56
323.566	781.56
323.795	798.56
324.024	815.56
324.253	832.56
324.482	812.56
324.71	807.56
324.939	823.56
325.168	833.56
325.397	838.56
325.626	837.56
325.855	885.56
326.084	894.56
326.313	914.56
326.542	906.56
326.77	965.56
326.999	977.56
327.228	1007.56
327.457	1097.56
327.686	1232.56
327.914	1469.56
328.143	1876.56
328.372	2242.56
328.6	2036.56
328.829	1500.56
329.058	1360.56
329.287	1370.56
329.515	1504.56
329.744	1760.56
329.972	2305.56
330.201	3261.56
330.43	4056.56
330.658	3325.56
330.887	2094.56
331.115	1515.56
331.344	1336.56
331.572	1261.56
331.801	1224.56
332.03	1217.56
332.258	1221.56
332.486	1277.56
332.715	1262.56
332.943	1338.56
333.172	1422.56
333.4	1560.56
333.629	1776.56
333.857	2076.56
334.085	2685.56
334.314	3716.56
334.542	5110.56
334.771	5504.56
334.999	3482.56
335.227	2144.56
335.455	1698.56
335.684	1482.56
335.912	1316.56
336.14	1228.56
336.369	1172.56
336.597	1140.56
336.825	1072.56
337.053	1064.56
337.281	1032.56
337.51	992.56
337.738	956.56
337.966	939.56
338.194	944.56
338.422	885.56
338.65	892.56
338.878	888.56
339.106	856.56
339.334	859.56
339.562	847.56
339.79	819.56
340.018	835.56
340.246	817.56
340.474	806.56
340.702	798.56
340.93	808.56
341.158	803.56
341.386	811.56
341.614	767.56
341.842	769.56
342.07	797.56
342.298	771.56
342.526	758.56
342.754	756.56
342.981	764.56
343.209	764.56
343.437	813.56
343.665	842.56
343.893	876.56
344.12	888.56
344.348	854.56
344.576	829.56
344.804	778.56
345.031	785.56
345.259	768.56
345.487	738.56
345.714	741.56
345.942	741.56
346.17	713.56
346.397	732.56
346.625	716.56
346.853	723.56
347.08	725.56
347.308	749.56
347.535	739.56
347.763	748.56
347.99	730.56
348.218	738.56
348.445	717.56
348.673	702.56
348.9	702.56
349.128	713.56
349.355	730.56
349.583	710.56
349.81	717.56
350.037	709.56
350.265	678.56
350.492	695.56
350.72	710.56
350.947	701.56
351.174	705.56
351.402	706.56
351.629	669.56
351.856	707.56
352.083	692.56
352.311	671.56
352.538	694.56
352.765	704.56
352.992	714.56
353.22	714.56
353.447	706.56
353.674	683.56
353.901	672.56
354.128	678.56
354.355	712.56
354.583	680.56
354.81	675.56
355.037	698.56
355.264	713.56
355.491	680.56
355.718	695.56
355.945	689.56
356.172	697.56
356.399	684.56
356.626	682.56
356.853	690.56
357.08	690.56
357.307	685.56
357.534	677.56
357.761	680.56
357.988	714.56
358.215	673.56
358.441	684.56
358.668	684.56
358.895	691.56
359.122	661.56
359.349	691.56
359.576	674.56
359.802	677.56
360.029	665.56
360.256	687.56
360.483	705.56
360.709	690.56
360.936	702.56
361.163	671.56
361.39	671.56
361.616	679.56
361.843	677.56
362.07	685.56
362.296	674.56
362.523	694.56
362.749	686.56
362.976	679.56
363.203	676.56
363.429	662.56
363.656	694.56
363.882	677.56
364.109	671.56
364.335	663.56
364.562	670.56
364.788	668.56
365.015	673.56
365.241	670.56
365.468	678.56
365.694	671.56
365.92	655.56
366.147	635.56
366.373	677.56
366.599	680.56
366.826	682.56
367.052	693.56
367.278	686.56
367.505	674.56
367.731	693.56
367.957	676.56
368.184	689.56
368.41	694.56
368.636	701.56
368.862	700.56
369.089	661.56
369.315	695.56
369.541	673.56
369.767	678.56
369.993	679.56
370.219	661.56
370.445	691.56
370.672	698.56
370.898	701.56
371.124	697.56
371.35	703.56
371.576	714.56
371.802	722.56
372.028	713.56
372.254	704.56
372.48	722.56
372.706	733.56
372.932	726.56
373.158	736.56
373.384	743.56
373.61	710.56
373.835	721.56
374.061	698.56
374.287	712.56
374.513	725.56
374.739	752.56
374.965	769.56
375.191	785.56
375.416	762.56
375.642	773.56
375.868	766.56
376.094	720.56
376.319	699.56
376.545	720.56
376.771	671.56
376.997	696.56
377.222	723.56
377.448	719.56
377.674	705.56
377.899	697.56
378.125	697.56
378.35	705.56
378.576	704.56
378.802	698.56
379.027	692.56
379.253	730.56
379.478	698.56
379.704	720.56
379.929	685.56
380.155	683.56
380.38	684.56
380.606	708.56
380.831	694.56
381.057	704.56
381.282	677.56
381.507	730.56
381.733	712.56
381.958	729.56
382.184	730.56
382.409	729.56
382.634	724.56
382.86	728.56
383.085	750.56
383.31	733.56
383.535	758.56
383.761	747.56
383.986	794.56
384.211	757.56
384.436	804.56
384.662	785.56
384.887	806.56
385.112	812.56
385.337	837.56
385.562	817.56
385.787	824.56
386.013	827.56
386.238	825.56
386.463	819.56
386.688	825.56
386.913	778.56
387.138	801.56
387.363	814.56
387.588	824.56
387.813	830.56
388.038	801.56
388.263	824.56
388.488	803.56
388.713	819.56
388.938	826.56
389.163	798.56
389.387	810.56
389.612	809.56
389.837	766.56
390.062	796.56
390.287	826.56
390.512	821.56
390.736	779.56
390.961	844.56
391.186	835.56
391.411	836.56
391.636	862.56
391.86	900.56
392.085	913.56
392.31	901.56
392.534	881.56
392.759	870.56
392.984	857.56
393.208	838.56
393.433	844.56
393.658	843.56
393.882	860.56
394.107	875.56
394.331	875.56
394.556	849.56
394.78	846.56
395.005	888.56
395.229	878.56
395.454	924.56
395.678	907.56
395.903	895.56
396.127	879.56
396.352	865.56
396.576	848.56
396.801	870.56
397.025	848.56
397.249	869.56
397.474	897.56
397.698	923.56
397.922	896.56
398.147	916.56
398.371	920.56
398.595	960.56
398.82	979.56
399.044	1036.56
399.268	1105.56
399.492	1275.56
399.717	1427.56
399.941	1383.56
400.165	1254.56
400.389	1124.56
400.613	1120.56
400.837	1036.56
401.062	1002.56
401.286	1001.56
401.51	990.56
401.734	1025.56
401.958	1012.56
402.182	1034.56
402.406	1016.56
402.63	1010.56
402.854	1082.56
403.078	1063.56
403.302	1117.56
403.526	1139.56
403.75	1146.56
403.974	1156.56
404.198	1126.56
404.422	1168.56
404.645	1215.56
404.869	1247.56
405.093	1322.56
405.317	1405.56
405.541	1428.56
405.765	1300.56
405.988	1224.56
406.212	1163.56
406.436	1138.56
406.66	1172.56
406.883	1138.56
407.107	1183.56
407.331	1238.56
407.555	1249.56
407.778	1274.56
408.002	1200.56
408.226	1219.56
408.449	1152.56
408.673	1146.56
408.896	1109.56
409.12	1110.56
409.344	1115.56
409.567	1106.56
409.791	1106.56
410.014	1106.56
410.238	1087.56
410.461	1088.56
410.685	1086.56
410.908	1070.56
411.132	1067.56
411.355	1077.56
411.578	1098.56
411.802	1094.56
412.025	1082.56
412.249	1202.56
412.472	1280.56
412.695	1420.56
412.919	1396.56
413.142	1320.56
413.365	1237.56
413.589	1166.56
413.812	1138.56
414.035	1100.56
414.258	1094.56
414.482	1082.56
414.705	1066.56
414.928	1054.56
415.151	1048.56
415.374	1015.56
415.597	1025.56
415.821	1029.56
416.044	1026.56
416.267	1006.56
416.49	997.56
416.713	992.56
416.936	1014.56
417.159	1007.56
417.382	1031.56
417.605	1084.56
417.828	1110.56
418.051	1080.56
418.274	1032.56
418.497	1037.56
418.72	1053.56
418.943	1049.56
419.166	1106.56
419.389	1160.56
419.611	1172.56
419.834	1152.56
420.057	1210.56
420.28	1257.56
420.503	1316.56
420.726	1249.56
420.948	1182.56
421.171	1129.56
421.394	1107.56
421.617	1050.56
421.839	1045.56
422.062	1037.56
422.285	1027.56
422.507	1059.56
422.73	1034.56
422.953	1007.56
423.175	1031.56
423.398	1049.56
423.621	1067.56
423.843	1064.56
424.066	1052.56
424.288	1046.56
424.511	1037.56
424.733	1049.56
424.956	1008.56
425.178	989.56
425.401	978.56
425.623	995.56
425.846	968.56
426.068	978.56
426.291	973.56
426.513	961.56
426.735	960.56
426.958	973.56
427.18	988.56
427.402	1049.56
427.625	1098.56
427.847	1227.56
428.069	1352.56
428.292	1235.56
428.514	1102.56
428.736	1018.56
428.958	988.56
429.181	931.56
429.403	924.56
429.625	918.56
429.847	886.56
430.069	923.56
430.292	901.56
430.514	866.56
430.736	909.56
430.958	877.56
431.18	886.56
431.402	876.56
431.624	874.56
431.846	912.56
432.068	884.56
432.29	901.56
432.512	883.56
432.734	897.56
432.956	902.56
433.178	881.56
433.4	884.56
433.622	886.56
433.844	889.56
434.066	884.56
434.287	885.56
434.509	922.56
434.731	962.56
434.953	963.56
435.175	949.56
435.397	949.56
435.618	905.56
435.84	897.56
436.062	897.56
436.284	856.56
436.505	856.56
436.727	887.56
436.949	873.56
437.17	849.56
437.392	860.56
437.614	848.56
437.835	817.56
438.057	850.56
438.278	833.56
438.5	868.56
438.721	840.56
438.943	830.56
439.165	846.56
439.386	853.56
439.608	879.56
439.829	845.56
440.05	843.56
440.272	866.56
440.493	870.56
440.715	913.56
440.936	904.56
441.158	906.56
441.379	915.56
441.6	958.56
441.822	932.56
442.043	944.56
442.264	920.56
442.486	920.56
442.707	914.56
442.928	921.56
443.149	944.56
443.371	941.56
443.592	947.56
443.813	953.56
444.034	985.56
444.255	1015.56
444.476	1034.56
444.698	1082.56
444.919	1081.56
445.14	1196.56
445.361	1085.56
445.582	976.56
445.803	895.56
446.024	918.56
446.245	907.56
446.466	892.56
446.687	892.56
446.908	861.56
447.129	852.56
447.35	844.56
447.571	849.56
447.792	834.56
448.013	824.56
448.234	809.56
448.455	811.56
448.675	809.56
448.896	796.56
449.117	804.56
449.338	811.56
449.559	781.56
449.779	771.56
450	772.56
450.221	794.56
450.442	798.56
450.662	797.56
450.883	806.56
451.104	824.56
451.324	807.56
451.545	781.56
451.766	777.56
451.986	817.56
452.207	777.56
452.428	810.56
452.648	792.56
452.869	754.56
453.089	748.56
453.31	762.56
453.53	777.56
453.751	781.56
453.971	772.56
454.192	748.56
454.412	744.56
454.633	748.56
454.853	774.56
455.073	731.56
455.294	743.56
455.514	734.56
455.734	747.56
455.955	724.56
456.175	753.56
456.395	745.56
456.616	739.56
456.836	755.56
457.056	727.56
457.276	720.56
457.497	760.56
457.717	757.56
457.937	772.56
458.157	756.56
458.377	789.56
458.598	762.56
458.818	825.56
459.038	820.56
459.258	838.56
459.478	841.56
459.698	880.56
459.918	923.56
460.138	933.56
460.358	978.56
460.578	966.56
460.798	1016.56
461.018	965.56
461.238	982.56
461.458	961.56
461.678	956.56
461.898	998.56
462.118	977.56
462.338	1065.56
462.558	1053.56
462.777	1103.56
462.997	1192.56
463.217	1275.56
463.437	1249.56
463.657	1156.56
463.876	1148.56
464.096	1106.56
464.316	1114.56
464.536	1114.56
464.755	1105.56
464.975	1057.56
465.195	1029.56
465.414	983.56
465.634	932.56
465.854	914.56
466.073	909.56
466.293	889.56
466.512	858.56
466.732	868.56
466.951	879.56
467.171	870.56
467.391	923.56
467.61	940.56
467.829	1027.56
468.049	1426.56
468.268	2145.56
468.488	1542.56
468.707	1185.56
468.927	1021.56
469.146	955.56
469.365	962.56
469.585	929.56
469.804	921.56
470.023	944.56
470.243	948.56
470.462	933.56
470.681	960.56
470.901	953.56
471.12	933.56
471.339	977.56
471.558	981.56
471.777	1089.56
471.997	1264.56
472.216	1973.56
472.435	3985.56
472.654	3141.56
472.873	1951.56
473.092	1502.56
473.311	1280.56
473.53	1152.56
473.749	1083.56
473.968	1067.56
474.187	1006.56
474.406	963.56
474.625	962.56
474.844	958.56
475.063	942.56
475.282	955.56
475.501	922.56
475.72	927.56
475.939	879.56
476.158	912.56
476.377	946.56
476.596	932.56
476.814	926.56
477.033	941.56
477.252	942.56
477.471	933.56
477.69	1002.56
477.908	1013.56
478.127	1037.56
478.346	998.56
478.564	1041.56
478.783	1067.56
479.002	1109.56
479.22	1086.56
479.439	1112.56
479.658	1103.56
479.876	1140.56
480.095	1188.56
480.313	1304.56
480.532	1441.56
480.751	1642.56
480.969	2308.56
481.188	5138.56
481.406	6608.56
481.624	3582.56
481.843	2440.56
482.061	1956.56
482.28	1712.56
482.498	1538.56
482.717	1426.56
482.935	1328.56
483.153	1286.56
483.372	1248.56
483.59	1238.56
483.808	1188.56
484.027	1148.56
484.245	1139.56
484.463	1162.56
484.681	1154.56
484.9	1146.56
485.118	1116.56
485.336	1098.56
485.554	1112.56
485.772	1157.56
485.99	1106.56
486.209	1140.56
486.427	1109.56
486.645	1147.56
486.863	1090.56
487.081	1102.56
487.299	1125.56
487.517	1107.56
487.735	1110.56
487.953	1156.56
488.171	1153.56
488.389	1100.56
488.607	1137.56
488.825	1160.56
489.043	1125.56
489.261	1133.56
489.479	1158.56
489.696	1180.56
489.914	1182.56
490.132	1220.56
490.35	1217.56
490.568	1222.56
490.786	1246.56
491.003	1353.56
491.221	1326.56
491.439	1416.56
491.657	1486.56
491.874	1500.56
492.092	1515.56
492.31	1548.56
492.527	1546.56
492.745	1609.56
492.963	1600.56
493.18	1596.56
493.398	1547.56
493.615	1521.56
493.833	1533.56
494.05	1505.56
494.268	1460.56
494.485	1423.56
494.703	1389.56
494.92	1367.56
495.138	1347.56
495.355	1320.56
495.573	1325.56
495.79	1318.56
496.008	1332.56
496.225	1279.56
496.442	1311.56
496.66	1246.56
496.877	1270.56
497.094	1249.56
497.312	1284.56
497.529	1281.56
497.746	1333.56
497.963	1327.56
498.181	1369.56
498.398	1411.56
498.615	1445.56
498.832	1494.56
499.049	1597.56
499.267	1680.56
499.484	1824.56
499.701	1951.56
499.918	2053.56
500.135	2336.56
500.352	2541.56
500.569	2697.56
500.786	2737.56
501.003	2598.56
501.22	2345.56
501.437	2109.56
501.654	1875.56
501.871	1752.56
502.088	1598.56
502.305	1534.56
502.522	1481.56
502.739	1396.56
502.956	1348.56
503.172	1325.56
503.389	1266.56
503.606	1250.56
503.823	1212.56
504.04	1216.56
504.256	1214.56
504.473	1257.56
504.69	1266.56
504.907	1249.56
505.123	1157.56
505.34	1117.56
505.557	1106.56
505.773	1061.56
505.99	1026.56
506.207	1000.56
506.423	1001.56
506.64	996.56
506.856	956.56
507.073	945.56
507.289	969.56
507.506	969.56
507.722	932.56
507.939	930.56
508.155	950.56
508.372	962.56
508.588	951.56
508.805	922.56
509.021	906.56
509.238	914.56
509.454	900.56
509.67	938.56
509.887	882.56
510.103	909.56
510.319	888.56
510.536	887.56
510.752	925.56
510.968	888.56
511.184	910.56
511.401	931.56
511.617	972.56
511.833	1117.56
512.049	1192.56
512.265	1123.56
512.481	1054.56
512.698	991.56
512.914	1011.56
513.13	954.56
513.346	946.56
513.562	949.56
513.778	886.56
513.994	924.56
514.21	893.56
514.426	917.56
514.642	922.56
514.858	906.56
515.074	933.56
515.29	939.56
515.506	916.56
515.721	890.56
515.937	949.56
516.153	944.56
516.369	966.56
516.585	1018.56
516.801	1010.56
517.016	1047.56
517.232	1092.56
517.448	1104.56
517.664	1089.56
517.879	1113.56
518.095	1124.56
518.311	1103.56
518.527	1069.56
518.742	1070.56
518.958	1017.56
519.173	994.56
519.389	932.56
519.605	916.56
519.82	915.56
520.036	921.56
520.251	904.56
520.467	917.56
520.682	875.56
520.898	856.56
521.113	837.56
521.329	842.56
521.544	851.56
521.76	865.56
521.975	826.56
522.19	828.56
522.406	853.56
522.621	819.56
522.836	830.56
523.052	818.56
523.267	818.56
523.482	818.56
523.698	811.56
523.913	828.56
524.128	812.56
524.343	806.56
524.559	792.56
524.774	798.56
524.989	797.56
525.204	790.56
525.419	806.56
525.634	775.56
525.849	817.56
526.064	778.56
526.28	796.56
526.495	750.56
526.71	761.56
526.925	790.56
527.14	763.56
527.355	784.56
527.57	779.56
527.785	772.56
527.999	765.56
528.214	782.56
528.429	758.56
528.644	811.56
528.859	788.56
529.074	825.56
529.289	796.56
529.503	788.56
529.718	805.56
529.933	782.56
530.148	752.56
530.363	769.56
530.577	781.56
530.792	761.56
531.007	788.56
531.221	754.56
531.436	770.56
531.651	773.56
531.865	774.56
532.08	785.56
532.295	788.56
532.509	764.56
532.724	754.56
532.938	766.56
533.153	770.56
533.367	763.56
533.582	765.56
533.796	755.56
534.011	802.56
534.225	765.56
534.44	785.56
534.654	756.56
534.868	774.56
535.083	760.56
535.297	760.56
535.511	765.56
535.726	752.56
535.94	748.56
536.154	739.56
536.369	756.56
536.583	736.56
536.797	709.56
537.011	741.56
537.225	729.56
537.44	730.56
537.654	730.56
537.868	708.56
538.082	704.56
538.296	749.56
538.51	708.56
538.724	730.56
538.938	722.56
539.153	739.56
539.367	707.56
539.581	706.56
539.795	696.56
540.009	728.56
540.222	731.56
540.436	712.56
540.65	725.56
540.864	698.56
541.078	694.56
541.292	700.56
541.506	734.56
541.72	718.56
541.934	721.56
542.147	759.56
542.361	738.56
542.575	730.56
542.789	723.56
543.002	751.56
543.216	737.56
543.43	729.56
543.644	744.56
543.857	741.56
544.071	751.56
544.285	728.56
544.498	728.56
544.712	739.56
544.925	724.56
545.139	758.56
545.352	762.56
545.566	766.56
545.779	748.56
545.993	784.56
546.206	776.56
546.42	801.56
546.633	729.56
546.847	716.56
547.06	719.56
547.274	726.56
547.487	741.56
547.7	734.56
547.914	746.56
548.127	760.56
548.34	746.56
548.554	739.56
548.767	753.56
548.98	724.56
549.193	754.56
549.407	746.56
549.62	771.56
549.833	741.56
550.046	736.56
550.259	741.56
550.473	747.56
550.686	741.56
550.899	743.56
551.112	721.56
551.325	723.56
551.538	730.56
551.751	724.56
551.964	722.56
552.177	718.56
552.39	731.56
552.603	758.56
552.816	769.56
553.029	792.56
553.242	793.56
553.455	809.56
553.667	797.56
553.88	772.56
554.093	742.56
554.306	763.56
554.519	776.56
554.732	761.56
554.944	721.56
555.157	718.56
555.37	678.56
555.583	689.56
555.795	703.56
556.008	665.56
556.221	682.56
556.433	641.56
556.646	636.56
556.859	654.56
557.071	639.56
557.284	635.56
557.496	638.56
557.709	631.56
557.921	649.56
558.134	641.56
558.346	624.56
558.559	602.56
558.771	626.56
558.984	641.56
559.196	623.56
559.409	625.56
559.621	612.56
559.833	620.56
560.046	624.56
560.258	641.56
560.47	640.56
560.683	666.56
560.895	624.56
561.107	635.56
561.32	636.56
561.532	636.56
561.744	632.56
561.956	619.56
562.168	628.56
562.381	604.56
562.593	618.56
562.805	607.56
563.017	606.56
563.229	621.56
563.441	618.56
563.653	625.56
563.865	638.56
564.077	637.56
564.289	627.56
564.501	646.56
564.713	670.56
564.925	661.56
565.137	684.56
565.349	678.56
565.561	673.56
565.773	681.56
565.985	752.56
566.197	772.56
566.408	827.56
566.62	888.56
566.832	926.56
567.044	948.56
567.255	948.56
567.467	961.56
567.679	976.56
567.891	1014.56
568.102	1050.56
568.314	1017.56
568.526	910.56
568.737	859.56
568.949	804.56
569.161	756.56
569.372	731.56
569.584	685.56
569.795	676.56
570.007	649.56
570.218	656.56
570.43	650.56
570.641	617.56
570.853	620.56
571.064	639.56
571.276	643.56
571.487	603.56
571.698	602.56
571.91	579.56
572.121	580.56
572.333	556.56
572.544	542.56
572.755	550.56
572.966	534.56
573.178	541.56
573.389	504.56
573.6	514.56
573.811	533.56
574.023	530.56
574.234	514.56
574.445	509.56
574.656	512.56
574.867	503.56
575.078	530.56
575.289	536.56
575.501	528.56
575.712	498.56
575.923	488.56
576.134	484.56
576.345	500.56
576.556	470.56
576.767	494.56
576.978	495.56
577.188	482.56
577.399	490.56
577.61	496.56
577.821	475.56
578.032	489.56
578.243	480.56
578.454	474.56
578.665	480.56
578.875	471.56
579.086	465.56
579.297	484.56
579.508	471.56
579.718	447.56
579.929	458.56
580.14	450.56
580.35	459.56
580.561	463.56
580.772	451.56
580.982	450.56
581.193	442.56
581.403	448.56
581.614	440.56
581.825	448.56
582.035	438.56
582.246	475.56
582.456	474.56
582.667	458.56
582.877	435.56
583.087	460.56
583.298	444.56
583.508	445.56
583.719	437.56
583.929	436.56
584.139	453.56
584.35	441.56
584.56	456.56
584.77	449.56
584.981	432.56
585.191	422.56
585.401	410.56
585.611	440.56
585.821	419.56
586.032	466.56
586.242	415.56
586.452	430.56
586.662	436.56
586.872	418.56
587.082	427.56
587.292	426.56
587.502	439.56
587.713	422.56
587.923	441.56
588.133	436.56
588.343	445.56
588.553	429.56
588.762	434.56
588.972	441.56
589.182	453.56
589.392	458.56
589.602	466.56
589.812	457.56
590.022	454.56
590.232	444.56
590.441	441.56
590.651	437.56
590.861	415.56
591.071	452.56
591.281	420.56
591.49	438.56
591.7	426.56
591.91	470.56
592.119	446.56
592.329	482.56
592.539	486.56
592.748	486.56
592.958	504.56
593.167	508.56
593.377	509.56
593.587	529.56
593.796	544.56
594.006	515.56
594.215	544.56
594.424	526.56
594.634	508.56
594.843	523.56
595.053	494.56
595.262	464.56
595.472	470.56
595.681	463.56
595.89	435.56
596.1	439.56
596.309	425.56
596.518	425.56
596.727	428.56
596.937	423.56
597.146	403.56
597.355	417.56
597.564	403.56
597.774	401.56
597.983	413.56
598.192	398.56
598.401	399.56
598.61	376.56
598.819	382.56
599.028	390.56
599.237	387.56
599.446	396.56
599.655	414.56
599.864	405.56
600.073	398.56
600.282	396.56
600.491	392.56
600.7	388.56
600.909	383.56
601.118	365.56
601.327	364.56
601.536	379.56
601.745	360.56
601.953	368.56
602.162	396.56
602.371	390.56
602.58	402.56
602.789	392.56
602.997	373.56
603.206	387.56
603.415	378.56
603.623	381.56
603.832	380.56
604.041	377.56
604.249	371.56
604.458	364.56
604.666	345.56
604.875	378.56
605.084	348.56
605.292	373.56
605.501	377.56
605.709	363.56
605.918	368.56
606.126	373.56
606.334	373.56
606.543	371.56
606.751	364.56
606.96	366.56
607.168	352.56
607.376	365.56
607.585	360.56
607.793	362.56
608.001	374.56
608.21	387.56
608.418	361.56
608.626	360.56
608.834	360.56
609.043	353.56
609.251	376.56
609.459	376.56
609.667	363.56
609.875	368.56
610.083	377.56
610.291	386.56
610.499	366.56
610.707	387.56
610.916	367.56
611.124	378.56
611.332	380.56
611.54	400.56
611.748	397.56
611.955	368.56
612.163	360.56
612.371	382.56
612.579	347.56
612.787	366.56
612.995	361.56
613.203	361.56
613.411	362.56
613.618	346.56
613.826	341.56
614.034	348.56
614.242	350.56
614.449	354.56
614.657	358.56
614.865	347.56
615.072	337.56
615.28	346.56
615.488	333.56
615.695	329.56
615.903	319.56
616.111	344.56
616.318	362.56
616.526	341.56
616.733	356.56
616.941	355.56
617.148	350.56
617.356	350.56
617.563	338.56
617.771	353.56
617.978	333.56
618.185	339.56
618.393	332.56
618.6	337.56
618.807	332.56
619.015	346.56
619.222	336.56
619.429	345.56
619.637	338.56
619.844	318.56
620.051	319.56
620.258	300.56
620.466	314.56
620.673	308.56
620.88	309.56
621.087	305.56
621.294	318.56
621.501	309.56
621.708	313.56
621.915	312.56
622.122	303.56
622.329	300.56
622.536	305.56
622.743	304.56
622.95	308.56
623.157	306.56
623.364	310.56
623.571	306.56
623.778	315.56
623.985	307.56
624.192	301.56
624.399	303.56
624.606	301.56
624.812	273.56
625.019	280.56
625.226	298.56
625.433	299.56
625.639	281.56
625.846	291.56
626.053	261.56
626.259	266.56
626.466	264.56
626.673	277.56
626.879	278.56
627.086	281.56
627.293	300.56
627.499	280.56
627.706	270.56
627.912	284.56
628.119	276.56
628.325	299.56
628.532	293.56
628.738	280.56
628.945	283.56
629.151	274.56
629.357	267.56
629.564	274.56
629.77	267.56
629.976	274.56
630.183	286.56
630.389	275.56
630.595	256.56
630.802	251.56
631.008	284.56
631.214	270.56
631.42	274.56
631.627	253.56
631.833	242.56
632.039	258.56
632.245	258.56
632.451	254.56
632.657	267.56
632.863	251.56
633.069	270.56
633.275	258.56
633.481	272.56
633.688	254.56
633.893	275.56
634.099	284.56
634.305	276.56
634.511	275.56
634.717	277.56
634.923	280.56
635.129	268.56
635.335	284.56
635.541	281.56
635.747	299.56
635.952	314.56
636.158	380.56
636.364	532.56
636.57	698.56
636.775	540.56
636.981	434.56
637.187	400.56
637.392	343.56
637.598	321.56
637.804	322.56
638.009	317.56
638.215	303.56
638.421	271.56
638.626	289.56
638.832	282.56
639.037	264.56
639.243	252.56
639.448	262.56
639.654	278.56
639.859	260.56
640.065	247.56
640.27	258.56
640.475	248.56
640.681	243.56
640.886	263.56
641.091	239.56
641.297	240.56
641.502	251.56
641.707	258.56
641.913	242.56
642.118	234.56
642.323	242.56
642.528	238.56
642.733	239.56
642.939	222.56
643.144	222.56
643.349	231.56
643.554	238.56
643.759	232.56
643.964	233.56
644.169	232.56
644.374	232.56
644.579	219.56
644.784	222.56
644.989	224.56
645.194	221.56
645.399	215.56
645.604	226.56
645.809	226.56
646.014	198.56
646.219	211.56
646.423	216.56
646.628	221.56
646.833	223.56
647.038	229.56
647.243	201.56
647.447	229.56
647.652	220.56
647.857	224.56
648.062	243.56
648.266	243.56
648.471	230.56
648.676	230.56
648.88	227.56
649.085	228.56
649.289	249.56
649.494	236.56
649.698	220.56
649.903	229.56
650.107	211.56
650.312	194.56
650.516	210.56
650.721	222.56
650.925	206.56
651.13	212.56
651.334	205.56
651.539	206.56
651.743	207.56
651.947	206.56
652.152	191.56
652.356	172.56
652.56	184.56
652.764	192.56
652.969	190.56
653.173	177.56
653.377	171.56
653.581	162.56
653.785	179.56
653.99	166.56
654.194	164.56
654.398	164.56
654.602	178.56
654.806	169.56
655.01	161.56
655.214	172.56
655.418	170.56
655.622	164.56
655.826	176.56
656.03	183.56
656.234	189.56
656.438	188.56
656.642	192.56
656.846	182.56
657.049	163.56
657.253	161.56
657.457	145.56
657.661	147.56
657.865	139.56
658.068	136.56
658.272	149.56
658.476	128.56
658.68	120.56
658.883	118.56
659.087	116.56
659.291	121.56
659.494	122.56
659.698	123.56
659.901	108.56
660.105	113.56
660.309	109.56
660.512	103.56
660.716	115.56
660.919	107.56
661.123	108.56
661.326	110.56
661.53	88.56
661.733	98.56
661.936	99.56
662.14	99.56
662.343	109.56
662.546	107.56
662.75	92.56
662.953	98.56
663.156	92.56
663.36	75.56
663.563	90.56
663.766	84.56
663.969	93.56
664.173	97.56
664.376	83.56
664.579	91.56
664.782	76.56
664.985	94.56
665.188	65.56
665.391	89.56
665.594	95.56
665.797	89.56
666	76.56
666.203	101.56
666.406	96.56
666.609	83.56
666.812	84.56
667.015	96.56
667.218	101.56
667.421	100.56
667.624	85.56
667.827	81.56
668.03	94.56
668.232	89.56
668.435	83.56
668.638	89.56
668.841	93.56
669.043	82.56
669.246	88.56
669.449	85.56
669.651	106.56
669.854	82.56
670.057	79.56
670.259	80.56
670.462	97.56
670.665	98.56
670.867	92.56
671.07	87.56
671.272	77.56
671.475	86.56
671.677	89.56
671.88	91.56
672.082	89.56
672.284	94.56
672.487	85.56
672.689	84.56
672.892	78.56
