Data from FlinnAP5935BZINC.07152019.LAMPEdge.EN5.5scans.P1_HRD10591_15-00-00-579.txt Node
Date: Mon Jul 15 15:00:00 EDT 2019
User: cochatt
Spectrometer: HR+D1059
Trigger mode: 1
Integration Time (sec): 1.000000E-1
Scans to average: 1
Electric dark correction enabled: true
Nonlinearity correction enabled: false
Boxcar width: 0
XAxis mode: Wavelengths
Number of Pixels in Spectrum: 2048
>>>>>Begin Spectral Data<<<<<
223.165	-13.12
223.4	-13.12
223.635	-13.12
223.869	-13.12
224.104	-7.12
224.338	-14.12
224.573	-22.12
224.808	-8.12
225.042	-11.12
225.277	0.88
225.511	-5.12
225.746	4.88
225.98	4.88
226.215	4.88
226.449	16.88
226.683	8.88
226.918	24.88
227.152	27.88
227.387	35.88
227.621	33.88
227.856	50.88
228.09	45.88
228.324	58.88
228.559	59.88
228.793	73.88
229.027	120.88
229.262	107.88
229.496	110.88
229.73	115.88
229.964	130.88
230.199	136.88
230.433	133.88
230.667	133.88
230.901	127.88
231.136	136.88
231.37	129.88
231.604	140.88
231.838	149.88
232.072	139.88
232.306	148.88
232.541	141.88
232.775	149.88
233.009	139.88
233.243	134.88
233.477	154.88
233.711	141.88
233.945	152.88
234.179	144.88
234.413	143.88
234.647	138.88
234.881	147.88
235.115	141.88
235.349	133.88
235.583	139.88
235.817	157.88
236.051	149.88
236.285	151.88
236.519	143.88
236.753	134.88
236.987	154.88
237.221	161.88
237.455	151.88
237.689	158.88
237.922	159.88
238.156	161.88
238.39	149.88
238.624	161.88
238.858	174.88
239.091	164.88
239.325	160.88
239.559	159.88
239.793	170.88
240.027	180.88
240.26	173.88
240.494	169.88
240.728	183.88
240.961	180.88
241.195	175.88
241.429	178.88
241.662	180.88
241.896	175.88
242.13	200.88
242.363	180.88
242.597	194.88
242.83	192.88
243.064	194.88
243.298	194.88
243.531	207.88
243.765	196.88
243.998	195.88
244.232	206.88
244.465	206.88
244.699	209.88
244.932	217.88
245.166	215.88
245.399	209.88
245.633	212.88
245.866	207.88
246.099	220.88
246.333	219.88
246.566	215.88
246.8	225.88
247.033	214.88
247.266	212.88
247.5	214.88
247.733	225.88
247.966	247.88
248.2	241.88
248.433	241.88
248.666	237.88
248.899	237.88
249.133	246.88
249.366	259.88
249.599	272.88
249.832	263.88
250.066	321.88
250.299	365.88
250.532	446.88
250.765	512.88
250.998	459.88
251.231	389.88
251.465	337.88
251.698	353.88
251.931	312.88
252.164	305.88
252.397	302.88
252.63	337.88
252.863	289.88
253.096	307.88
253.329	285.88
253.562	294.88
253.795	295.88
254.028	311.88
254.261	316.88
254.494	280.88
254.727	319.88
254.96	341.88
255.193	340.88
255.426	375.88
255.659	425.88
255.892	561.88
256.124	784.88
256.357	838.88
256.59	710.88
256.823	567.88
257.056	467.88
257.289	448.88
257.521	409.88
257.754	389.88
257.987	391.88
258.22	388.88
258.452	353.88
258.685	346.88
258.918	355.88
259.151	350.88
259.383	341.88
259.616	353.88
259.849	348.88
260.081	326.88
260.314	358.88
260.547	356.88
260.779	361.88
261.012	361.88
261.244	361.88
261.477	344.88
261.71	349.88
261.942	345.88
262.175	331.88
262.407	349.88
262.64	332.88
262.872	342.88
263.105	355.88
263.337	369.88
263.57	356.88
263.802	352.88
264.035	352.88
264.267	352.88
264.499	345.88
264.732	357.88
264.964	347.88
265.197	355.88
265.429	354.88
265.661	370.88
265.894	372.88
266.126	354.88
266.358	360.88
266.591	380.88
266.823	369.88
267.055	353.88
267.287	359.88
267.52	380.88
267.752	371.88
267.984	379.88
268.216	388.88
268.448	380.88
268.681	387.88
268.913	390.88
269.145	374.88
269.377	375.88
269.609	383.88
269.841	398.88
270.073	387.88
270.306	409.88
270.538	399.88
270.77	392.88
271.002	363.88
271.234	403.88
271.466	386.88
271.698	395.88
271.93	409.88
272.162	416.88
272.394	410.88
272.626	411.88
272.858	430.88
273.09	437.88
273.322	426.88
273.553	425.88
273.785	425.88
274.017	417.88
274.249	433.88
274.481	444.88
274.713	454.88
274.945	461.88
275.176	470.88
275.408	480.88
275.64	482.88
275.872	488.88
276.104	499.88
276.335	504.88
276.567	467.88
276.799	520.88
277.031	565.88
277.262	614.88
277.494	618.88
277.726	581.88
277.957	538.88
278.189	570.88
278.421	542.88
278.652	529.88
278.884	513.88
279.115	529.88
279.347	524.88
279.579	558.88
279.81	561.88
280.042	617.88
280.273	722.88
280.505	715.88
280.736	624.88
280.968	582.88
281.199	555.88
281.431	543.88
281.662	534.88
281.894	539.88
282.125	532.88
282.356	512.88
282.588	512.88
282.819	521.88
283.051	522.88
283.282	520.88
283.513	523.88
283.745	509.88
283.976	524.88
284.207	492.88
284.439	509.88
284.67	501.88
284.901	525.88
285.132	508.88
285.364	513.88
285.595	508.88
285.826	508.88
286.057	532.88
286.288	516.88
286.52	539.88
286.751	530.88
286.982	520.88
287.213	527.88
287.444	527.88
287.675	546.88
287.906	538.88
288.138	528.88
288.369	521.88
288.6	525.88
288.831	549.88
289.062	543.88
289.293	529.88
289.524	550.88
289.755	559.88
289.986	539.88
290.217	536.88
290.448	551.88
290.679	552.88
290.91	562.88
291.141	539.88
291.371	526.88
291.602	524.88
291.833	537.88
292.064	559.88
292.295	542.88
292.526	548.88
292.757	511.88
292.987	526.88
293.218	525.88
293.449	553.88
293.68	524.88
293.91	519.88
294.141	544.88
294.372	524.88
294.603	540.88
294.833	507.88
295.064	544.88
295.295	530.88
295.525	541.88
295.756	550.88
295.987	544.88
296.217	553.88
296.448	518.88
296.679	556.88
296.909	543.88
297.14	531.88
297.37	553.88
297.601	565.88
297.831	558.88
298.062	557.88
298.292	547.88
298.523	551.88
298.753	578.88
298.984	562.88
299.214	572.88
299.445	580.88
299.675	600.88
299.905	577.88
300.136	582.88
300.366	574.88
300.597	577.88
300.827	587.88
301.057	591.88
301.288	613.88
301.518	610.88
301.748	607.88
301.979	624.88
302.209	628.88
302.439	604.88
302.669	605.88
302.9	615.88
303.13	627.88
303.36	599.88
303.59	611.88
303.82	660.88
304.051	653.88
304.281	664.88
304.511	633.88
304.741	639.88
304.971	642.88
305.201	628.88
305.431	617.88
305.661	601.88
305.891	582.88
306.121	600.88
306.352	622.88
306.582	611.88
306.812	609.88
307.042	618.88
307.272	690.88
307.502	725.88
307.731	752.88
307.961	689.88
308.191	657.88
308.421	620.88
308.651	595.88
308.881	644.88
309.111	617.88
309.341	600.88
309.571	625.88
309.8	613.88
310.03	608.88
310.26	616.88
310.49	624.88
310.72	615.88
310.949	633.88
311.179	662.88
311.409	632.88
311.639	621.88
311.868	622.88
312.098	629.88
312.328	637.88
312.557	643.88
312.787	623.88
313.017	645.88
313.246	654.88
313.476	659.88
313.706	657.88
313.935	654.88
314.165	664.88
314.394	638.88
314.624	646.88
314.853	652.88
315.083	668.88
315.312	659.88
315.542	658.88
315.771	653.88
316.001	675.88
316.23	645.88
316.46	636.88
316.689	652.88
316.919	661.88
317.148	665.88
317.377	657.88
317.607	672.88
317.836	677.88
318.065	649.88
318.295	661.88
318.524	669.88
318.753	662.88
318.983	644.88
319.212	675.88
319.441	675.88
319.67	655.88
319.9	666.88
320.129	675.88
320.358	668.88
320.587	667.88
320.816	669.88
321.046	696.88
321.275	681.88
321.504	707.88
321.733	689.88
321.962	689.88
322.191	686.88
322.42	709.88
322.649	721.88
322.878	712.88
323.108	711.88
323.337	749.88
323.566	757.88
323.795	758.88
324.024	761.88
324.253	765.88
324.482	797.88
324.71	804.88
324.939	841.88
325.168	801.88
325.397	808.88
325.626	804.88
325.855	835.88
326.084	884.88
326.313	874.88
326.542	889.88
326.77	939.88
326.999	931.88
327.228	986.88
327.457	1056.88
327.686	1134.88
327.914	1372.88
328.143	1755.88
328.372	2091.88
328.6	1947.88
328.829	1409.88
329.058	1280.88
329.287	1295.88
329.515	1412.88
329.744	1703.88
329.972	2224.88
330.201	3064.88
330.43	3857.88
330.658	3137.88
330.887	1912.88
331.115	1460.88
331.344	1271.88
331.572	1198.88
331.801	1176.88
332.03	1158.88
332.258	1172.88
332.486	1181.88
332.715	1201.88
332.943	1297.88
333.172	1365.88
333.4	1495.88
333.629	1675.88
333.857	1981.88
334.085	2459.88
334.314	3460.88
334.542	4771.88
334.771	5103.88
334.999	3248.88
335.227	2089.88
335.455	1617.88
335.684	1395.88
335.912	1257.88
336.14	1188.88
336.369	1094.88
336.597	1096.88
336.825	1048.88
337.053	1016.88
337.281	978.88
337.51	977.88
337.738	947.88
337.966	909.88
338.194	896.88
338.422	873.88
338.65	866.88
338.878	857.88
339.106	820.88
339.334	834.88
339.562	807.88
339.79	801.88
340.018	798.88
340.246	797.88
340.474	779.88
340.702	782.88
340.93	792.88
341.158	779.88
341.386	763.88
341.614	767.88
341.842	774.88
342.07	749.88
342.298	760.88
342.526	741.88
342.754	733.88
342.981	746.88
343.209	759.88
343.437	788.88
343.665	837.88
343.893	840.88
344.12	865.88
344.348	822.88
344.576	789.88
344.804	795.88
345.031	721.88
345.259	751.88
345.487	723.88
345.714	750.88
345.942	719.88
346.17	742.88
346.397	716.88
346.625	710.88
346.853	706.88
347.08	691.88
347.308	709.88
347.535	723.88
347.763	728.88
347.99	698.88
348.218	715.88
348.445	694.88
348.673	682.88
348.9	701.88
349.128	712.88
349.355	671.88
349.583	702.88
349.81	706.88
350.037	693.88
350.265	681.88
350.492	682.88
350.72	711.88
350.947	671.88
351.174	674.88
351.402	708.88
351.629	693.88
351.856	680.88
352.083	657.88
352.311	692.88
352.538	694.88
352.765	672.88
352.992	652.88
353.22	679.88
353.447	667.88
353.674	677.88
353.901	678.88
354.128	660.88
354.355	659.88
354.583	689.88
354.81	667.88
355.037	687.88
355.264	691.88
355.491	657.88
355.718	665.88
355.945	696.88
356.172	677.88
356.399	664.88
356.626	695.88
356.853	664.88
357.08	665.88
357.307	667.88
357.534	648.88
357.761	679.88
357.988	697.88
358.215	672.88
358.441	677.88
358.668	695.88
358.895	672.88
359.122	662.88
359.349	690.88
359.576	658.88
359.802	644.88
360.029	659.88
360.256	661.88
360.483	652.88
360.709	652.88
360.936	662.88
361.163	668.88
361.39	664.88
361.616	651.88
361.843	668.88
362.07	677.88
362.296	662.88
362.523	645.88
362.749	684.88
362.976	672.88
363.203	670.88
363.429	647.88
363.656	651.88
363.882	666.88
364.109	658.88
364.335	678.88
364.562	655.88
364.788	661.88
365.015	671.88
365.241	670.88
365.468	677.88
365.694	659.88
365.92	652.88
366.147	620.88
366.373	667.88
366.599	671.88
366.826	637.88
367.052	658.88
367.278	641.88
367.505	653.88
367.731	654.88
367.957	654.88
368.184	661.88
368.41	665.88
368.636	677.88
368.862	685.88
369.089	671.88
369.315	662.88
369.541	657.88
369.767	665.88
369.993	675.88
370.219	688.88
370.445	680.88
370.672	698.88
370.898	695.88
371.124	687.88
371.35	688.88
371.576	702.88
371.802	711.88
372.028	677.88
372.254	699.88
372.48	699.88
372.706	705.88
372.932	731.88
373.158	725.88
373.384	721.88
373.61	681.88
373.835	703.88
374.061	706.88
374.287	723.88
374.513	679.88
374.739	719.88
374.965	755.88
375.191	737.88
375.416	739.88
375.642	742.88
375.868	711.88
376.094	710.88
376.319	707.88
376.545	690.88
376.771	708.88
376.997	689.88
377.222	692.88
377.448	688.88
377.674	691.88
377.899	666.88
378.125	705.88
378.35	703.88
378.576	694.88
378.802	719.88
379.027	686.88
379.253	686.88
379.478	673.88
379.704	679.88
379.929	686.88
380.155	685.88
380.38	679.88
380.606	687.88
380.831	690.88
381.057	675.88
381.282	698.88
381.507	707.88
381.733	724.88
381.958	713.88
382.184	705.88
382.409	704.88
382.634	737.88
382.86	733.88
383.085	725.88
383.31	733.88
383.535	743.88
383.761	744.88
383.986	742.88
384.211	763.88
384.436	787.88
384.662	808.88
384.887	811.88
385.112	803.88
385.337	786.88
385.562	787.88
385.787	822.88
386.013	809.88
386.238	831.88
386.463	820.88
386.688	806.88
386.913	804.88
387.138	791.88
387.363	809.88
387.588	787.88
387.813	797.88
388.038	768.88
388.263	813.88
388.488	816.88
388.713	775.88
388.938	789.88
389.163	807.88
389.387	791.88
389.612	780.88
389.837	775.88
390.062	746.88
390.287	756.88
390.512	788.88
390.736	807.88
390.961	809.88
391.186	836.88
391.411	827.88
391.636	851.88
391.86	893.88
392.085	869.88
392.31	864.88
392.534	848.88
392.759	852.88
392.984	836.88
393.208	834.88
393.433	853.88
393.658	839.88
393.882	845.88
394.107	849.88
394.331	856.88
394.556	840.88
394.78	835.88
395.005	822.88
395.229	829.88
395.454	875.88
395.678	865.88
395.903	893.88
396.127	866.88
396.352	839.88
396.576	836.88
396.801	834.88
397.025	852.88
397.249	863.88
397.474	888.88
397.698	867.88
397.922	901.88
398.147	880.88
398.371	904.88
398.595	917.88
398.82	969.88
399.044	1013.88
399.268	1132.88
399.492	1224.88
399.717	1363.88
399.941	1361.88
400.165	1227.88
400.389	1152.88
400.613	1083.88
400.837	1037.88
401.062	1011.88
401.286	984.88
401.51	973.88
401.734	966.88
401.958	998.88
402.182	1002.88
402.406	990.88
402.63	1014.88
402.854	1053.88
403.078	1074.88
403.302	1072.88
403.526	1084.88
403.75	1082.88
403.974	1133.88
404.198	1163.88
404.422	1160.88
404.645	1155.88
404.869	1241.88
405.093	1288.88
405.317	1355.88
405.541	1383.88
405.765	1309.88
405.988	1200.88
406.212	1175.88
406.436	1123.88
406.66	1130.88
406.883	1127.88
407.107	1166.88
407.331	1207.88
407.555	1224.88
407.778	1224.88
408.002	1211.88
408.226	1168.88
408.449	1175.88
408.673	1121.88
408.896	1105.88
409.12	1070.88
409.344	1090.88
409.567	1062.88
409.791	1057.88
410.014	1062.88
410.238	1061.88
410.461	1077.88
410.685	1051.88
410.908	1046.88
411.132	1035.88
411.355	1019.88
411.578	1081.88
411.802	1065.88
412.025	1108.88
412.249	1172.88
412.472	1257.88
412.695	1367.88
412.919	1343.88
413.142	1243.88
413.365	1211.88
413.589	1130.88
413.812	1064.88
414.035	1079.88
414.258	1071.88
414.482	1054.88
414.705	1052.88
414.928	1032.88
415.151	1005.88
415.374	1010.88
415.597	1008.88
415.821	986.88
416.044	999.88
416.267	1002.88
416.49	993.88
416.713	963.88
416.936	991.88
417.159	993.88
417.382	1005.88
417.605	1053.88
417.828	1095.88
418.051	1046.88
418.274	1025.88
418.497	1000.88
418.72	998.88
418.943	1016.88
419.166	1041.88
419.389	1165.88
419.611	1140.88
419.834	1167.88
420.057	1157.88
420.28	1237.88
420.503	1257.88
420.726	1165.88
420.948	1127.88
421.171	1109.88
421.394	1082.88
421.617	1027.88
421.839	1036.88
422.062	1011.88
422.285	999.88
422.507	1016.88
422.73	1012.88
422.953	1016.88
423.175	992.88
423.398	1015.88
423.621	1019.88
423.843	1036.88
424.066	1011.88
424.288	995.88
424.511	1013.88
424.733	996.88
424.956	992.88
425.178	968.88
425.401	967.88
425.623	988.88
425.846	964.88
426.068	944.88
426.291	947.88
426.513	941.88
426.735	944.88
426.958	928.88
427.18	949.88
427.402	1008.88
427.625	1049.88
427.847	1199.88
428.069	1272.88
428.292	1227.88
428.514	1077.88
428.736	989.88
428.958	935.88
429.181	908.88
429.403	910.88
429.625	862.88
429.847	903.88
430.069	904.88
430.292	872.88
430.514	874.88
430.736	863.88
430.958	845.88
431.18	867.88
431.402	871.88
431.624	857.88
431.846	884.88
432.068	867.88
432.29	886.88
432.512	890.88
432.734	873.88
432.956	879.88
433.178	855.88
433.4	851.88
433.622	856.88
433.844	855.88
434.066	863.88
434.287	864.88
434.509	901.88
434.731	918.88
434.953	968.88
435.175	952.88
435.397	932.88
435.618	893.88
435.84	907.88
436.062	893.88
436.284	841.88
436.505	844.88
436.727	840.88
436.949	840.88
437.17	850.88
437.392	845.88
437.614	821.88
437.835	822.88
438.057	795.88
438.278	782.88
438.5	804.88
438.721	784.88
438.943	849.88
439.165	799.88
439.386	803.88
439.608	848.88
439.829	839.88
440.05	840.88
440.272	827.88
440.493	851.88
440.715	873.88
440.936	855.88
441.158	868.88
441.379	893.88
441.6	941.88
441.822	950.88
442.043	918.88
442.264	920.88
442.486	927.88
442.707	924.88
442.928	887.88
443.149	916.88
443.371	919.88
443.592	918.88
443.813	921.88
444.034	951.88
444.255	956.88
444.476	993.88
444.698	1061.88
444.919	1077.88
445.14	1180.88
445.361	1053.88
445.582	964.88
445.803	911.88
446.024	889.88
446.245	876.88
446.466	911.88
446.687	853.88
446.908	872.88
447.129	836.88
447.35	823.88
447.571	847.88
447.792	815.88
448.013	812.88
448.234	796.88
448.455	779.88
448.675	745.88
448.896	779.88
449.117	787.88
449.338	764.88
449.559	787.88
449.779	783.88
450	777.88
450.221	769.88
450.442	779.88
450.662	784.88
450.883	787.88
451.104	768.88
451.324	791.88
451.545	754.88
451.766	769.88
451.986	776.88
452.207	787.88
452.428	791.88
452.648	795.88
452.869	745.88
453.089	734.88
453.31	756.88
453.53	763.88
453.751	760.88
453.971	745.88
454.192	739.88
454.412	736.88
454.633	739.88
454.853	773.88
455.073	741.88
455.294	745.88
455.514	725.88
455.734	731.88
455.955	720.88
456.175	729.88
456.395	713.88
456.616	734.88
456.836	715.88
457.056	736.88
457.276	715.88
457.497	765.88
457.717	749.88
457.937	759.88
458.157	749.88
458.377	746.88
458.598	780.88
458.818	784.88
459.038	827.88
459.258	834.88
459.478	837.88
459.698	848.88
459.918	873.88
460.138	897.88
460.358	944.88
460.578	927.88
460.798	953.88
461.018	963.88
461.238	915.88
461.458	955.88
461.678	928.88
461.898	974.88
462.118	961.88
462.338	1023.88
462.558	1012.88
462.777	1089.88
462.997	1152.88
463.217	1203.88
463.437	1209.88
463.657	1126.88
463.876	1107.88
464.096	1116.88
464.316	1088.88
464.536	1124.88
464.755	1063.88
464.975	996.88
465.195	1020.88
465.414	987.88
465.634	917.88
465.854	881.88
466.073	887.88
466.293	883.88
466.512	858.88
466.732	872.88
466.951	838.88
467.171	845.88
467.391	849.88
467.61	920.88
467.829	1029.88
468.049	1355.88
468.268	1983.88
468.488	1553.88
468.707	1169.88
468.927	1057.88
469.146	964.88
469.365	933.88
469.585	886.88
469.804	911.88
470.023	913.88
470.243	918.88
470.462	915.88
470.681	922.88
470.901	920.88
471.12	929.88
471.339	961.88
471.558	950.88
471.777	1044.88
471.997	1212.88
472.216	1909.88
472.435	3803.88
472.654	2980.88
472.873	1829.88
473.092	1429.88
473.311	1249.88
473.53	1104.88
473.749	1013.88
473.968	987.88
474.187	947.88
474.406	939.88
474.625	952.88
474.844	911.88
475.063	913.88
475.282	877.88
475.501	904.88
475.72	879.88
475.939	869.88
476.158	890.88
476.377	893.88
476.596	892.88
476.814	888.88
477.033	902.88
477.252	915.88
477.471	917.88
477.69	944.88
477.908	934.88
478.127	996.88
478.346	992.88
478.564	1024.88
478.783	1005.88
479.002	1038.88
479.22	1053.88
479.439	1086.88
479.658	1093.88
479.876	1103.88
480.095	1165.88
480.313	1272.88
480.532	1367.88
480.751	1565.88
480.969	2265.88
481.188	4881.88
481.406	6219.88
481.624	3429.88
481.843	2317.88
482.061	1902.88
482.28	1604.88
482.498	1459.88
482.717	1376.88
482.935	1278.88
483.153	1235.88
483.372	1176.88
483.59	1183.88
483.808	1139.88
484.027	1105.88
484.245	1093.88
484.463	1081.88
484.681	1106.88
484.9	1093.88
485.118	1113.88
485.336	1075.88
485.554	1077.88
485.772	1085.88
485.99	1093.88
486.209	1074.88
486.427	1058.88
486.645	1053.88
486.863	1083.88
487.081	1066.88
487.299	1088.88
487.517	1084.88
487.735	1091.88
487.953	1071.88
488.171	1086.88
488.389	1085.88
488.607	1096.88
488.825	1093.88
489.043	1075.88
489.261	1099.88
489.479	1071.88
489.696	1163.88
489.914	1135.88
490.132	1178.88
490.35	1196.88
490.568	1248.88
490.786	1256.88
491.003	1259.88
491.221	1331.88
491.439	1371.88
491.657	1380.88
491.874	1415.88
492.092	1439.88
492.31	1459.88
492.527	1516.88
492.745	1503.88
492.963	1522.88
493.18	1527.88
493.398	1517.88
493.615	1481.88
493.833	1439.88
494.05	1443.88
494.268	1399.88
494.485	1361.88
494.703	1360.88
494.92	1319.88
495.138	1304.88
495.355	1327.88
495.573	1272.88
495.79	1256.88
496.008	1286.88
496.225	1246.88
496.442	1228.88
496.66	1268.88
496.877	1264.88
497.094	1235.88
497.312	1248.88
497.529	1262.88
497.746	1276.88
497.963	1288.88
498.181	1335.88
498.398	1341.88
498.615	1393.88
498.832	1519.88
499.049	1550.88
499.267	1657.88
499.484	1761.88
499.701	1879.88
499.918	2028.88
500.135	2238.88
500.352	2499.88
500.569	2609.88
500.786	2671.88
501.003	2545.88
501.22	2249.88
501.437	2032.88
501.654	1823.88
501.871	1675.88
502.088	1571.88
502.305	1487.88
502.522	1444.88
502.739	1397.88
502.956	1323.88
503.172	1270.88
503.389	1221.88
503.606	1200.88
503.823	1179.88
504.04	1189.88
504.256	1192.88
504.473	1182.88
504.69	1204.88
504.907	1211.88
505.123	1130.88
505.34	1111.88
505.557	1059.88
505.773	1048.88
505.99	1011.88
506.207	1003.88
506.423	999.88
506.64	973.88
506.856	934.88
507.073	942.88
507.289	919.88
507.506	936.88
507.722	933.88
507.939	922.88
508.155	913.88
508.372	928.88
508.588	895.88
508.805	901.88
509.021	868.88
509.238	875.88
509.454	881.88
509.67	868.88
509.887	889.88
510.103	875.88
510.319	871.88
510.536	864.88
510.752	880.88
510.968	870.88
511.184	888.88
511.401	900.88
511.617	971.88
511.833	1057.88
512.049	1120.88
512.265	1103.88
512.481	1018.88
512.698	952.88
512.914	947.88
513.13	938.88
513.346	925.88
513.562	893.88
513.778	917.88
513.994	897.88
514.21	912.88
514.426	875.88
514.642	879.88
514.858	899.88
515.074	891.88
515.29	884.88
515.506	888.88
515.721	918.88
515.937	909.88
516.153	919.88
516.369	909.88
516.585	941.88
516.801	983.88
517.016	1007.88
517.232	1032.88
517.448	1107.88
517.664	1112.88
517.879	1072.88
518.095	1092.88
518.311	1093.88
518.527	1063.88
518.742	1015.88
518.958	971.88
519.173	944.88
519.389	945.88
519.605	891.88
519.82	861.88
520.036	857.88
520.251	865.88
520.467	876.88
520.682	849.88
520.898	837.88
521.113	820.88
521.329	837.88
521.544	807.88
521.76	825.88
521.975	834.88
522.19	805.88
522.406	790.88
522.621	811.88
522.836	800.88
523.052	819.88
523.267	781.88
523.482	788.88
523.698	779.88
523.913	770.88
524.128	790.88
524.343	780.88
524.559	769.88
524.774	753.88
524.989	764.88
525.204	787.88
525.419	755.88
525.634	760.88
525.849	756.88
526.064	795.88
526.28	771.88
526.495	789.88
526.71	735.88
526.925	761.88
527.14	767.88
527.355	766.88
527.57	756.88
527.785	747.88
527.999	768.88
528.214	753.88
528.429	753.88
528.644	775.88
528.859	764.88
529.074	783.88
529.289	723.88
529.503	791.88
529.718	770.88
529.933	782.88
530.148	747.88
530.363	745.88
530.577	764.88
530.792	752.88
531.007	760.88
531.221	757.88
531.436	754.88
531.651	748.88
531.865	768.88
532.08	743.88
532.295	761.88
532.509	737.88
532.724	766.88
532.938	735.88
533.153	757.88
533.367	744.88
533.582	746.88
533.796	751.88
534.011	745.88
534.225	722.88
534.44	728.88
534.654	718.88
534.868	739.88
535.083	712.88
535.297	736.88
535.511	731.88
535.726	736.88
535.94	731.88
536.154	730.88
536.369	704.88
536.583	718.88
536.797	723.88
537.011	707.88
537.225	724.88
537.44	704.88
537.654	701.88
537.868	705.88
538.082	711.88
538.296	725.88
538.51	704.88
538.724	707.88
538.938	703.88
539.153	695.88
539.367	710.88
539.581	689.88
539.795	698.88
540.009	700.88
540.222	686.88
540.436	672.88
540.65	688.88
540.864	689.88
541.078	680.88
541.292	696.88
541.506	709.88
541.72	700.88
541.934	713.88
542.147	725.88
542.361	731.88
542.575	737.88
542.789	714.88
543.002	692.88
543.216	719.88
543.43	690.88
543.644	702.88
543.857	719.88
544.071	689.88
544.285	730.88
544.498	726.88
544.712	737.88
544.925	732.88
545.139	747.88
545.352	739.88
545.566	723.88
545.779	727.88
545.993	734.88
546.206	760.88
546.42	757.88
546.633	726.88
546.847	739.88
547.06	717.88
547.274	712.88
547.487	708.88
547.7	710.88
547.914	726.88
548.127	723.88
548.34	742.88
548.554	723.88
548.767	703.88
548.98	719.88
549.193	695.88
549.407	717.88
549.62	751.88
549.833	740.88
550.046	733.88
550.259	709.88
550.473	723.88
550.686	725.88
550.899	706.88
551.112	709.88
551.325	696.88
551.538	704.88
551.751	700.88
551.964	725.88
552.177	723.88
552.39	710.88
552.603	727.88
552.816	738.88
553.029	754.88
553.242	780.88
553.455	792.88
553.667	766.88
553.88	748.88
554.093	756.88
554.306	757.88
554.519	751.88
554.732	770.88
554.944	706.88
555.157	686.88
555.37	684.88
555.583	686.88
555.795	671.88
556.008	652.88
556.221	641.88
556.433	653.88
556.646	648.88
556.859	633.88
557.071	635.88
557.284	623.88
557.496	618.88
557.709	628.88
557.921	606.88
558.134	625.88
558.346	617.88
558.559	620.88
558.771	600.88
558.984	597.88
559.196	611.88
559.409	605.88
559.621	596.88
559.833	605.88
560.046	616.88
560.258	629.88
560.47	644.88
560.683	655.88
560.895	593.88
561.107	597.88
561.32	592.88
561.532	596.88
561.744	606.88
561.956	605.88
562.168	614.88
562.381	609.88
562.593	606.88
562.805	611.88
563.017	608.88
563.229	605.88
563.441	614.88
563.653	616.88
563.865	616.88
564.077	625.88
564.289	609.88
564.501	615.88
564.713	655.88
564.925	641.88
565.137	653.88
565.349	669.88
565.561	682.88
565.773	667.88
565.985	706.88
566.197	754.88
566.408	785.88
566.62	844.88
566.832	898.88
567.044	883.88
567.255	884.88
567.467	938.88
567.679	961.88
567.891	1000.88
568.102	1022.88
568.314	986.88
568.526	919.88
568.737	841.88
568.949	797.88
569.161	719.88
569.372	697.88
569.584	668.88
569.795	641.88
570.007	611.88
570.218	621.88
570.43	610.88
570.641	589.88
570.853	599.88
571.064	606.88
571.276	617.88
571.487	595.88
571.698	594.88
571.91	564.88
572.121	551.88
572.333	538.88
572.544	528.88
572.755	536.88
572.966	536.88
573.178	509.88
573.389	536.88
573.6	511.88
573.811	479.88
574.023	488.88
574.234	506.88
574.445	491.88
574.656	501.88
574.867	489.88
575.078	524.88
575.289	503.88
575.501	516.88
575.712	480.88
575.923	476.88
576.134	487.88
576.345	473.88
576.556	474.88
576.767	489.88
576.978	476.88
577.188	482.88
577.399	478.88
577.61	464.88
577.821	479.88
578.032	469.88
578.243	470.88
578.454	477.88
578.665	468.88
578.875	462.88
579.086	471.88
579.297	459.88
579.508	455.88
579.718	450.88
579.929	464.88
580.14	465.88
580.35	443.88
580.561	451.88
580.772	440.88
580.982	463.88
581.193	437.88
581.403	448.88
581.614	458.88
581.825	428.88
582.035	437.88
582.246	441.88
582.456	447.88
582.667	450.88
582.877	443.88
583.087	433.88
583.298	440.88
583.508	439.88
583.719	441.88
583.929	438.88
584.139	429.88
584.35	435.88
584.56	431.88
584.77	418.88
584.981	435.88
585.191	438.88
585.401	415.88
585.611	440.88
585.821	443.88
586.032	433.88
586.242	424.88
586.452	403.88
586.662	435.88
586.872	422.88
587.082	414.88
587.292	421.88
587.502	421.88
587.713	431.88
587.923	411.88
588.133	419.88
588.343	418.88
588.553	424.88
588.762	416.88
588.972	419.88
589.182	431.88
589.392	435.88
589.602	461.88
589.812	447.88
590.022	455.88
590.232	437.88
590.441	433.88
590.651	434.88
590.861	454.88
591.071	453.88
591.281	441.88
591.49	438.88
591.7	446.88
591.91	446.88
592.119	471.88
592.329	489.88
592.539	464.88
592.748	505.88
592.958	528.88
593.167	513.88
593.377	517.88
593.587	545.88
593.796	515.88
594.006	511.88
594.215	506.88
594.424	512.88
594.634	509.88
594.843	505.88
595.053	487.88
595.262	455.88
595.472	481.88
595.681	456.88
595.89	425.88
596.1	431.88
596.309	407.88
596.518	398.88
596.727	408.88
596.937	408.88
597.146	383.88
597.355	408.88
597.564	379.88
597.774	397.88
597.983	401.88
598.192	400.88
598.401	388.88
598.61	388.88
598.819	390.88
599.028	380.88
599.237	385.88
599.446	392.88
599.655	387.88
599.864	364.88
600.073	387.88
600.282	376.88
600.491	387.88
600.7	384.88
600.909	372.88
601.118	381.88
601.327	366.88
601.536	385.88
601.745	385.88
601.953	361.88
602.162	371.88
602.371	383.88
602.58	374.88
602.789	371.88
602.997	365.88
603.206	382.88
603.415	384.88
603.623	381.88
603.832	373.88
604.041	365.88
604.249	367.88
604.458	360.88
604.666	363.88
604.875	371.88
605.084	358.88
605.292	361.88
605.501	356.88
605.709	356.88
605.918	357.88
606.126	362.88
606.334	381.88
606.543	358.88
606.751	367.88
606.96	366.88
607.168	375.88
607.376	343.88
607.585	359.88
607.793	343.88
608.001	360.88
608.21	357.88
608.418	359.88
608.626	352.88
608.834	349.88
609.043	360.88
609.251	358.88
609.459	362.88
609.667	361.88
609.875	366.88
610.083	371.88
610.291	380.88
610.499	375.88
610.707	361.88
610.916	370.88
611.124	364.88
611.332	384.88
611.54	382.88
611.748	374.88
611.955	356.88
612.163	370.88
612.371	367.88
612.579	328.88
612.787	359.88
612.995	374.88
613.203	365.88
613.411	340.88
613.618	340.88
613.826	325.88
614.034	347.88
614.242	340.88
614.449	339.88
614.657	351.88
614.865	334.88
615.072	338.88
615.28	355.88
615.488	343.88
615.695	349.88
615.903	341.88
616.111	328.88
616.318	342.88
616.526	344.88
616.733	347.88
616.941	339.88
617.148	348.88
617.356	343.88
617.563	335.88
617.771	326.88
617.978	343.88
618.185	319.88
618.393	344.88
618.6	315.88
618.807	343.88
619.015	327.88
619.222	336.88
619.429	335.88
619.637	328.88
619.844	335.88
620.051	307.88
620.258	325.88
620.466	317.88
620.673	302.88
620.88	303.88
621.087	297.88
621.294	305.88
621.501	315.88
621.708	307.88
621.915	301.88
622.122	298.88
622.329	327.88
622.536	308.88
622.743	294.88
622.95	301.88
623.157	305.88
623.364	315.88
623.571	273.88
623.778	298.88
623.985	311.88
624.192	305.88
624.399	278.88
624.606	317.88
624.812	280.88
625.019	283.88
625.226	279.88
625.433	277.88
625.639	275.88
625.846	273.88
626.053	272.88
626.259	279.88
626.466	268.88
626.673	269.88
626.879	260.88
627.086	279.88
627.293	280.88
627.499	283.88
627.706	289.88
627.912	272.88
628.119	275.88
628.325	280.88
628.532	284.88
628.738	275.88
628.945	278.88
629.151	254.88
629.357	273.88
629.564	270.88
629.77	280.88
629.976	265.88
630.183	277.88
630.389	249.88
630.595	277.88
630.802	262.88
631.008	241.88
631.214	268.88
631.42	268.88
631.627	261.88
631.833	270.88
632.039	254.88
632.245	260.88
632.451	264.88
632.657	277.88
632.863	260.88
633.069	256.88
633.275	269.88
633.481	269.88
633.688	272.88
633.893	260.88
634.099	269.88
634.305	237.88
634.511	260.88
634.717	276.88
634.923	287.88
635.129	273.88
635.335	268.88
635.541	287.88
635.747	320.88
635.952	335.88
636.158	378.88
636.364	541.88
636.57	710.88
636.775	512.88
636.981	433.88
637.187	360.88
637.392	343.88
637.598	305.88
637.804	341.88
638.009	304.88
638.215	285.88
638.421	290.88
638.626	302.88
638.832	256.88
639.037	273.88
639.243	284.88
639.448	243.88
639.654	240.88
639.859	255.88
640.065	254.88
640.27	259.88
640.475	254.88
640.681	241.88
640.886	238.88
641.091	238.88
641.297	241.88
641.502	259.88
641.707	250.88
641.913	229.88
642.118	227.88
642.323	221.88
642.528	232.88
642.733	218.88
642.939	229.88
643.144	233.88
643.349	221.88
643.554	235.88
643.759	215.88
643.964	231.88
644.169	227.88
644.374	222.88
644.579	225.88
644.784	211.88
644.989	220.88
645.194	211.88
645.399	226.88
645.604	219.88
645.809	233.88
646.014	220.88
646.219	223.88
646.423	233.88
646.628	235.88
646.833	216.88
647.038	235.88
647.243	228.88
647.447	224.88
647.652	211.88
647.857	223.88
648.062	239.88
648.266	230.88
648.471	237.88
648.676	227.88
648.88	212.88
649.085	227.88
649.289	229.88
649.494	228.88
649.698	213.88
649.903	220.88
650.107	203.88
650.312	221.88
650.516	225.88
650.721	212.88
650.925	203.88
651.13	192.88
651.334	203.88
651.539	189.88
651.743	207.88
651.947	201.88
652.152	193.88
652.356	192.88
652.56	178.88
652.764	198.88
652.969	197.88
653.173	181.88
653.377	184.88
653.581	163.88
653.785	175.88
653.99	168.88
654.194	171.88
654.398	169.88
654.602	170.88
654.806	157.88
655.01	173.88
655.214	182.88
655.418	172.88
655.622	172.88
655.826	182.88
656.03	183.88
656.234	183.88
656.438	183.88
656.642	183.88
656.846	160.88
657.049	168.88
657.253	160.88
657.457	141.88
657.661	156.88
657.865	142.88
658.068	141.88
658.272	142.88
658.476	133.88
658.68	145.88
658.883	123.88
659.087	124.88
659.291	119.88
659.494	120.88
659.698	109.88
659.901	121.88
660.105	107.88
660.309	119.88
660.512	109.88
660.716	98.88
660.919	107.88
661.123	119.88
661.326	111.88
661.53	112.88
661.733	107.88
661.936	93.88
662.14	89.88
662.343	109.88
662.546	96.88
662.75	108.88
662.953	108.88
663.156	101.88
663.36	99.88
663.563	96.88
663.766	99.88
663.969	85.88
664.173	90.88
664.376	83.88
664.579	104.88
664.782	82.88
664.985	91.88
665.188	87.88
665.391	88.88
665.594	95.88
665.797	91.88
666	103.88
666.203	101.88
666.406	92.88
666.609	98.88
666.812	85.88
667.015	93.88
667.218	85.88
667.421	94.88
667.624	83.88
667.827	93.88
668.03	92.88
668.232	83.88
668.435	88.88
668.638	88.88
668.841	100.88
669.043	97.88
669.246	100.88
669.449	91.88
669.651	83.88
669.854	82.88
670.057	100.88
670.259	99.88
670.462	99.88
670.665	86.88
670.867	106.88
671.07	88.88
671.272	99.88
671.475	87.88
671.677	100.88
671.88	104.88
672.082	99.88
672.284	80.88
672.487	89.88
672.689	93.88
672.892	92.88
