Data from FlinnAP9092KCOPPER.07152019.QSWITCHSynchronous.EN10.20scans.P1_HRD10591_14-49-22-574.txt Node
Date: Mon Jul 15 14:49:22 EDT 2019
User: cochatt
Spectrometer: HR+D1059
Trigger mode: 5
Integration Time (sec): 1.000000E-1
Scans to average: 1
Electric dark correction enabled: true
Nonlinearity correction enabled: false
Boxcar width: 0
XAxis mode: Wavelengths
Number of Pixels in Spectrum: 2048
>>>>>Begin Spectral Data<<<<<
223.165	-45.06
223.4	-45.06
223.635	-45.06
223.869	-34.06
224.104	-36.06
224.338	26.94
224.573	-25.06
224.808	-24.06
225.042	9.94
225.277	3.94
225.511	-2.06
225.746	20.94
225.98	9.94
226.215	9.94
226.449	15.94
226.683	8.94
226.918	24.94
227.152	34.94
227.387	42.94
227.621	50.94
227.856	59.94
228.09	60.94
228.324	53.94
228.559	83.94
228.793	99.94
229.027	200.94
229.262	213.94
229.496	236.94
229.73	283.94
229.964	347.94
230.199	265.94
230.433	208.94
230.667	220.94
230.901	221.94
231.136	195.94
231.37	206.94
231.604	191.94
231.838	196.94
232.072	207.94
232.306	206.94
232.541	200.94
232.775	196.94
233.009	224.94
233.243	220.94
233.477	223.94
233.711	219.94
233.945	210.94
234.179	207.94
234.413	223.94
234.647	218.94
234.881	223.94
235.115	221.94
235.349	221.94
235.583	246.94
235.817	231.94
236.051	258.94
236.285	242.94
236.519	256.94
236.753	244.94
236.987	286.94
237.221	359.94
237.455	518.94
237.689	398.94
237.922	292.94
238.156	263.94
238.39	244.94
238.624	236.94
238.858	259.94
239.091	255.94
239.325	233.94
239.559	258.94
239.793	285.94
240.027	287.94
240.26	280.94
240.494	357.94
240.728	331.94
240.961	323.94
241.195	341.94
241.429	305.94
241.662	278.94
241.896	261.94
242.13	265.94
242.363	276.94
242.597	269.94
242.83	284.94
243.064	290.94
243.298	291.94
243.531	284.94
243.765	289.94
243.998	289.94
244.232	311.94
244.465	287.94
244.699	313.94
244.932	298.94
245.166	295.94
245.399	305.94
245.633	296.94
245.866	302.94
246.099	293.94
246.333	315.94
246.566	291.94
246.8	298.94
247.033	305.94
247.266	311.94
247.5	341.94
247.733	351.94
247.966	377.94
248.2	357.94
248.433	347.94
248.666	362.94
248.899	391.94
249.133	448.94
249.366	511.94
249.599	430.94
249.832	391.94
250.066	392.94
250.299	364.94
250.532	387.94
250.765	437.94
250.998	471.94
251.231	545.94
251.465	474.94
251.698	424.94
251.931	419.94
252.164	398.94
252.397	423.94
252.63	408.94
252.863	410.94
253.096	474.94
253.329	515.94
253.562	484.94
253.795	464.94
254.028	479.94
254.261	460.94
254.494	487.94
254.727	607.94
254.96	679.94
255.193	588.94
255.426	519.94
255.659	490.94
255.892	489.94
256.124	459.94
256.357	439.94
256.59	427.94
256.823	438.94
257.056	459.94
257.289	431.94
257.521	433.94
257.754	443.94
257.987	446.94
258.22	462.94
258.452	436.94
258.685	435.94
258.918	441.94
259.151	450.94
259.383	471.94
259.616	473.94
259.849	488.94
260.081	517.94
260.314	595.94
260.547	598.94
260.779	543.94
261.012	511.94
261.244	497.94
261.477	507.94
261.71	456.94
261.942	489.94
262.175	532.94
262.407	523.94
262.64	471.94
262.872	464.94
263.105	481.94
263.337	501.94
263.57	465.94
263.802	461.94
264.035	471.94
264.267	472.94
264.499	480.94
264.732	495.94
264.964	486.94
265.197	488.94
265.429	506.94
265.661	480.94
265.894	473.94
266.126	507.94
266.358	477.94
266.591	491.94
266.823	523.94
267.055	504.94
267.287	518.94
267.52	492.94
267.752	526.94
267.984	499.94
268.216	508.94
268.448	531.94
268.681	533.94
268.913	582.94
269.145	608.94
269.377	686.94
269.609	646.94
269.841	613.94
270.073	640.94
270.306	685.94
270.538	775.94
270.77	736.94
271.002	685.94
271.234	691.94
271.466	717.94
271.698	729.94
271.93	759.94
272.162	752.94
272.394	766.94
272.626	714.94
272.858	662.94
273.09	636.94
273.322	606.94
273.553	577.94
273.785	598.94
274.017	600.94
274.249	613.94
274.481	590.94
274.713	569.94
274.945	589.94
275.176	612.94
275.408	599.94
275.64	634.94
275.872	603.94
276.104	607.94
276.335	616.94
276.567	635.94
276.799	640.94
277.031	737.94
277.262	773.94
277.494	806.94
277.726	721.94
277.957	643.94
278.189	645.94
278.421	621.94
278.652	638.94
278.884	615.94
279.115	643.94
279.347	624.94
279.579	592.94
279.81	596.94
280.042	631.94
280.273	610.94
280.505	614.94
280.736	619.94
280.968	628.94
281.199	635.94
281.431	621.94
281.662	582.94
281.894	636.94
282.125	649.94
282.356	702.94
282.588	716.94
282.819	745.94
283.051	661.94
283.282	622.94
283.513	690.94
283.745	651.94
283.976	655.94
284.207	698.94
284.439	675.94
284.67	671.94
284.901	683.94
285.132	664.94
285.364	657.94
285.595	668.94
285.826	640.94
286.057	675.94
286.288	640.94
286.52	675.94
286.751	672.94
286.982	675.94
287.213	661.94
287.444	680.94
287.675	692.94
287.906	751.94
288.138	745.94
288.369	774.94
288.6	743.94
288.831	674.94
289.062	724.94
289.293	718.94
289.524	678.94
289.755	685.94
289.986	673.94
290.217	686.94
290.448	665.94
290.679	675.94
290.91	703.94
291.141	657.94
291.371	710.94
291.602	675.94
291.833	695.94
292.064	701.94
292.295	687.94
292.526	705.94
292.757	701.94
292.987	701.94
293.218	679.94
293.449	705.94
293.68	703.94
293.91	692.94
294.141	679.94
294.372	697.94
294.603	672.94
294.833	703.94
295.064	696.94
295.295	684.94
295.525	707.94
295.756	725.94
295.987	707.94
296.217	769.94
296.448	811.94
296.679	746.94
296.909	721.94
297.14	717.94
297.37	742.94
297.601	721.94
297.831	718.94
298.062	738.94
298.292	711.94
298.523	759.94
298.753	752.94
298.984	731.94
299.214	752.94
299.445	771.94
299.675	775.94
299.905	779.94
300.136	769.94
300.366	753.94
300.597	758.94
300.827	759.94
301.057	777.94
301.288	836.94
301.518	826.94
301.748	781.94
301.979	773.94
302.209	791.94
302.439	798.94
302.669	765.94
302.9	774.94
303.13	758.94
303.36	800.94
303.59	784.94
303.82	810.94
304.051	814.94
304.281	797.94
304.511	824.94
304.741	767.94
304.971	743.94
305.201	789.94
305.431	791.94
305.661	760.94
305.891	761.94
306.121	784.94
306.352	765.94
306.582	783.94
306.812	763.94
307.042	788.94
307.272	776.94
307.502	758.94
307.731	766.94
307.961	769.94
308.191	738.94
308.421	773.94
308.651	761.94
308.881	804.94
309.111	768.94
309.341	778.94
309.571	809.94
309.8	834.94
310.03	837.94
310.26	856.94
310.49	860.94
310.72	858.94
310.949	921.94
311.179	957.94
311.409	885.94
311.639	878.94
311.868	854.94
312.098	886.94
312.328	899.94
312.557	925.94
312.787	966.94
313.017	972.94
313.246	926.94
313.476	863.94
313.706	865.94
313.935	888.94
314.165	933.94
314.394	931.94
314.624	963.94
314.853	907.94
315.083	899.94
315.312	883.94
315.542	848.94
315.771	852.94
316.001	846.94
316.23	842.94
316.46	838.94
316.689	869.94
316.919	868.94
317.148	895.94
317.377	913.94
317.607	889.94
317.836	865.94
318.065	882.94
318.295	843.94
318.524	843.94
318.753	855.94
318.983	844.94
319.212	849.94
319.441	840.94
319.67	912.94
319.9	846.94
320.129	832.94
320.358	849.94
320.587	862.94
320.816	834.94
321.046	878.94
321.275	935.94
321.504	857.94
321.733	900.94
321.962	891.94
322.191	935.94
322.42	937.94
322.649	1002.94
322.878	1008.94
323.108	990.94
323.337	1034.94
323.566	1068.94
323.795	1150.94
324.024	1263.94
324.253	1474.94
324.482	2199.94
324.71	3643.94
324.939	5647.94
325.168	4862.94
325.397	2050.94
325.626	1337.94
325.855	1125.94
326.084	1028.94
326.313	1052.94
326.542	1081.94
326.77	1229.94
326.999	1404.94
327.228	2017.94
327.457	3260.94
327.686	4327.94
327.914	2583.94
328.143	1527.94
328.372	1339.94
328.6	1246.94
328.829	1218.94
329.058	1291.94
329.287	1377.94
329.515	1260.94
329.744	1123.94
329.972	1061.94
330.201	1081.94
330.43	1116.94
330.658	1277.94
330.887	1449.94
331.115	1472.94
331.344	1208.94
331.572	1152.94
331.801	1158.94
332.03	1133.94
332.258	1145.94
332.486	1100.94
332.715	1041.94
332.943	1072.94
333.172	1139.94
333.4	1151.94
333.629	1168.94
333.857	1176.94
334.085	1192.94
334.314	1133.94
334.542	1143.94
334.771	1140.94
334.999	1128.94
335.227	1115.94
335.455	1091.94
335.684	1111.94
335.912	1095.94
336.14	1042.94
336.369	1051.94
336.597	1085.94
336.825	1070.94
337.053	1022.94
337.281	997.94
337.51	983.94
337.738	1072.94
337.966	1020.94
338.194	1018.94
338.422	1063.94
338.65	1026.94
338.878	1017.94
339.106	973.94
339.334	1005.94
339.562	971.94
339.79	951.94
340.018	948.94
340.246	972.94
340.474	998.94
340.702	1015.94
340.93	976.94
341.158	951.94
341.386	968.94
341.614	974.94
341.842	981.94
342.07	953.94
342.298	934.94
342.526	935.94
342.754	939.94
342.981	909.94
343.209	946.94
343.437	963.94
343.665	993.94
343.893	1033.94
344.12	1110.94
344.348	1067.94
344.576	1048.94
344.804	1008.94
345.031	1039.94
345.259	1049.94
345.487	1027.94
345.714	968.94
345.942	956.94
346.17	935.94
346.397	925.94
346.625	936.94
346.853	902.94
347.08	903.94
347.308	928.94
347.535	950.94
347.763	981.94
347.99	945.94
348.218	981.94
348.445	974.94
348.673	971.94
348.9	936.94
349.128	947.94
349.355	887.94
349.583	914.94
349.81	895.94
350.037	890.94
350.265	886.94
350.492	897.94
350.72	897.94
350.947	894.94
351.174	924.94
351.402	919.94
351.629	916.94
351.856	913.94
352.083	938.94
352.311	957.94
352.538	968.94
352.765	973.94
352.992	923.94
353.22	909.94
353.447	924.94
353.674	892.94
353.901	871.94
354.128	884.94
354.355	879.94
354.583	823.94
354.81	908.94
355.037	876.94
355.264	861.94
355.491	851.94
355.718	843.94
355.945	847.94
356.172	836.94
356.399	860.94
356.626	850.94
356.853	854.94
357.08	842.94
357.307	862.94
357.534	837.94
357.761	855.94
357.988	863.94
358.215	840.94
358.441	823.94
358.668	835.94
358.895	859.94
359.122	862.94
359.349	863.94
359.576	906.94
359.802	960.94
360.029	1068.94
360.256	1079.94
360.483	1041.94
360.709	927.94
360.936	953.94
361.163	900.94
361.39	890.94
361.616	912.94
361.843	901.94
362.07	913.94
362.296	938.94
362.523	901.94
362.749	900.94
362.976	864.94
363.203	912.94
363.429	879.94
363.656	883.94
363.882	853.94
364.109	861.94
364.335	877.94
364.562	844.94
364.788	870.94
365.015	893.94
365.241	831.94
365.468	921.94
365.694	863.94
365.92	876.94
366.147	881.94
366.373	854.94
366.599	859.94
366.826	834.94
367.052	831.94
367.278	842.94
367.505	885.94
367.731	899.94
367.957	879.94
368.184	871.94
368.41	899.94
368.636	913.94
368.862	961.94
369.089	898.94
369.315	869.94
369.541	871.94
369.767	868.94
369.993	872.94
370.219	870.94
370.445	892.94
370.672	855.94
370.898	871.94
371.124	900.94
371.35	879.94
371.576	908.94
371.802	894.94
372.028	897.94
372.254	899.94
372.48	903.94
372.706	924.94
372.932	952.94
373.158	921.94
373.384	942.94
373.61	918.94
373.835	907.94
374.061	908.94
374.287	907.94
374.513	948.94
374.739	957.94
374.965	944.94
375.191	960.94
375.416	960.94
375.642	939.94
375.868	981.94
376.094	917.94
376.319	918.94
376.545	915.94
376.771	909.94
376.997	896.94
377.222	912.94
377.448	955.94
377.674	888.94
377.899	896.94
378.125	888.94
378.35	910.94
378.576	895.94
378.802	887.94
379.027	904.94
379.253	921.94
379.478	895.94
379.704	883.94
379.929	913.94
380.155	916.94
380.38	885.94
380.606	924.94
380.831	914.94
381.057	949.94
381.282	914.94
381.507	903.94
381.733	938.94
381.958	921.94
382.184	932.94
382.409	959.94
382.634	974.94
382.86	944.94
383.085	968.94
383.31	960.94
383.535	995.94
383.761	1004.94
383.986	1025.94
384.211	1011.94
384.436	1031.94
384.662	1046.94
384.887	1055.94
385.112	1074.94
385.337	1061.94
385.562	1067.94
385.787	1085.94
386.013	1154.94
386.238	1117.94
386.463	1099.94
386.688	1077.94
386.913	1062.94
387.138	1049.94
387.363	1049.94
387.588	1086.94
387.813	1102.94
388.038	1088.94
388.263	1098.94
388.488	1097.94
388.713	1080.94
388.938	1091.94
389.163	1090.94
389.387	1102.94
389.612	1066.94
389.837	1081.94
390.062	1065.94
390.287	1061.94
390.512	1069.94
390.736	1070.94
390.961	1100.94
391.186	1075.94
391.411	1111.94
391.636	1161.94
391.86	1173.94
392.085	1173.94
392.31	1190.94
392.534	1184.94
392.759	1179.94
392.984	1159.94
393.208	1118.94
393.433	1123.94
393.658	1119.94
393.882	1104.94
394.107	1131.94
394.331	1143.94
394.556	1126.94
394.78	1167.94
395.005	1159.94
395.229	1124.94
395.454	1153.94
395.678	1180.94
395.903	1221.94
396.127	1288.94
396.352	1249.94
396.576	1151.94
396.801	1126.94
397.025	1159.94
397.249	1193.94
397.474	1254.94
397.698	1216.94
397.922	1283.94
398.147	1283.94
398.371	1311.94
398.595	1312.94
398.82	1305.94
399.044	1371.94
399.268	1475.94
399.492	1651.94
399.717	1812.94
399.941	1872.94
400.165	1822.94
400.389	1726.94
400.613	1544.94
400.837	1441.94
401.062	1415.94
401.286	1360.94
401.51	1366.94
401.734	1356.94
401.958	1364.94
402.182	1416.94
402.406	1443.94
402.63	1430.94
402.854	1412.94
403.078	1496.94
403.302	1455.94
403.526	1515.94
403.75	1505.94
403.974	1535.94
404.198	1511.94
404.422	1513.94
404.645	1545.94
404.869	1494.94
405.093	1520.94
405.317	1607.94
405.541	1619.94
405.765	1575.94
405.988	1542.94
406.212	1595.94
406.436	1613.94
406.66	1668.94
406.883	1620.94
407.107	1670.94
407.331	1779.94
407.555	2013.94
407.778	1990.94
408.002	1770.94
408.226	1640.94
408.449	1613.94
408.673	1603.94
408.896	1685.94
409.12	1723.94
409.344	1657.94
409.567	1489.94
409.791	1527.94
410.014	1459.94
410.238	1456.94
410.461	1484.94
410.685	1462.94
410.908	1536.94
411.132	1592.94
411.355	1634.94
411.578	1579.94
411.802	1444.94
412.025	1438.94
412.249	1448.94
412.472	1441.94
412.695	1421.94
412.919	1394.94
413.142	1427.94
413.365	1412.94
413.589	1379.94
413.812	1353.94
414.035	1397.94
414.258	1362.94
414.482	1383.94
414.705	1398.94
414.928	1400.94
415.151	1388.94
415.374	1419.94
415.597	1397.94
415.821	1357.94
416.044	1413.94
416.267	1424.94
416.49	1371.94
416.713	1405.94
416.936	1404.94
417.159	1376.94
417.382	1437.94
417.605	1415.94
417.828	1455.94
418.051	1482.94
418.274	1498.94
418.497	1454.94
418.72	1441.94
418.943	1446.94
419.166	1480.94
419.389	1558.94
419.611	1548.94
419.834	1526.94
420.057	1533.94
420.28	1527.94
420.503	1463.94
420.726	1472.94
420.948	1507.94
421.171	1619.94
421.394	1709.94
421.617	1554.94
421.839	1514.94
422.062	1497.94
422.285	1506.94
422.507	1671.94
422.73	1860.94
422.953	1748.94
423.175	1592.94
423.398	1568.94
423.621	1564.94
423.843	1662.94
424.066	1664.94
424.288	1655.94
424.511	1708.94
424.733	1807.94
424.956	2009.94
425.178	1901.94
425.401	1921.94
425.623	2009.94
425.846	1667.94
426.068	1608.94
426.291	1510.94
426.513	1511.94
426.735	1597.94
426.958	1676.94
427.18	1853.94
427.402	2245.94
427.625	2439.94
427.847	2019.94
428.069	1681.94
428.292	1527.94
428.514	1465.94
428.736	1454.94
428.958	1419.94
429.181	1395.94
429.403	1416.94
429.625	1419.94
429.847	1483.94
430.069	1676.94
430.292	1676.94
430.514	1455.94
430.736	1403.94
430.958	1398.94
431.18	1358.94
431.402	1369.94
431.624	1274.94
431.846	1252.94
432.068	1233.94
432.29	1215.94
432.512	1292.94
432.734	1367.94
432.956	1435.94
433.178	1449.94
433.4	1478.94
433.622	1435.94
433.844	1383.94
434.066	1323.94
434.287	1256.94
434.509	1266.94
434.731	1333.94
434.953	1398.94
435.175	1477.94
435.397	1604.94
435.618	1563.94
435.84	1635.94
436.062	1939.94
436.284	2031.94
436.505	1663.94
436.727	1589.94
436.949	1493.94
437.17	1456.94
437.392	1401.94
437.614	1438.94
437.835	1432.94
438.057	1663.94
438.278	1920.94
438.5	1918.94
438.721	2264.94
438.943	2155.94
439.165	1679.94
439.386	1612.94
439.608	1687.94
439.829	1666.94
440.05	1763.94
440.272	1941.94
440.493	1775.94
440.715	1625.94
440.936	1562.94
441.158	1559.94
441.379	1591.94
441.6	1647.94
441.822	1684.94
442.043	1783.94
442.264	1995.94
442.486	2124.94
442.707	1844.94
442.928	1704.94
443.149	1737.94
443.371	1873.94
443.592	1876.94
443.813	2137.94
444.034	2309.94
444.255	1937.94
444.476	1772.94
444.698	1766.94
444.919	1798.94
445.14	3287.94
445.361	2467.94
445.582	1926.94
445.803	2127.94
446.024	2389.94
446.245	2355.94
446.466	2125.94
446.687	1799.94
446.908	1681.94
447.129	1600.94
447.35	1564.94
447.571	1547.94
447.792	1478.94
448.013	1495.94
448.234	1521.94
448.455	1649.94
448.675	1951.94
448.896	2240.94
449.117	1860.94
449.338	1732.94
449.559	2114.94
449.779	2348.94
450	1840.94
450.221	1555.94
450.442	1450.94
450.662	1465.94
450.883	1423.94
451.104	1476.94
451.324	1488.94
451.545	1365.94
451.766	1356.94
451.986	1297.94
452.207	1285.94
452.428	1236.94
452.648	1258.94
452.869	1237.94
453.089	1257.94
453.31	1262.94
453.53	1179.94
453.751	1130.94
453.971	1203.94
454.192	1159.94
454.412	1204.94
454.633	1197.94
454.853	1184.94
455.073	1228.94
455.294	1296.94
455.514	1504.94
455.734	1422.94
455.955	1190.94
456.175	1183.94
456.395	1097.94
456.616	1075.94
456.836	1060.94
457.056	1108.94
457.276	1053.94
457.497	1076.94
457.717	1075.94
457.937	1085.94
458.157	1121.94
458.377	1136.94
458.598	1157.94
458.818	1289.94
459.038	1539.94
459.258	1578.94
459.478	1272.94
459.698	1211.94
459.918	1230.94
460.138	1267.94
460.358	1341.94
460.578	1378.94
460.798	1357.94
461.018	1394.94
461.238	1409.94
461.458	1357.94
461.678	1369.94
461.898	1373.94
462.118	1386.94
462.338	1393.94
462.558	1459.94
462.777	1463.94
462.997	1521.94
463.217	1612.94
463.437	1644.94
463.657	1541.94
463.876	1492.94
464.096	1484.94
464.316	1475.94
464.536	1551.94
464.755	1536.94
464.975	1516.94
465.195	1611.94
465.414	1804.94
465.634	1532.94
465.854	1369.94
466.073	1351.94
466.293	1308.94
466.512	1315.94
466.732	1316.94
466.951	1317.94
467.171	1331.94
467.391	1367.94
467.61	1415.94
467.829	1417.94
468.049	1354.94
468.268	1293.94
468.488	1292.94
468.707	1299.94
468.927	1319.94
469.146	1308.94
469.365	1360.94
469.585	1344.94
469.804	1377.94
470.023	1464.94
470.243	1441.94
470.462	1457.94
470.681	1519.94
470.901	1490.94
471.12	1424.94
471.339	1427.94
471.558	1439.94
471.777	1391.94
471.997	1315.94
472.216	1261.94
472.435	1161.94
472.654	1129.94
472.873	1134.94
473.092	1149.94
473.311	1214.94
473.53	1250.94
473.749	1307.94
473.968	1370.94
474.187	1613.94
474.406	1643.94
474.625	1423.94
474.844	1338.94
475.063	1287.94
475.282	1227.94
475.501	1231.94
475.72	1249.94
475.939	1279.94
476.158	1326.94
476.377	1293.94
476.596	1246.94
476.814	1233.94
477.033	1252.94
477.252	1243.94
477.471	1305.94
477.69	1408.94
477.908	1446.94
478.127	1480.94
478.346	1470.94
478.564	1467.94
478.783	1488.94
479.002	1550.94
479.22	1562.94
479.439	1561.94
479.658	1508.94
479.876	1474.94
480.095	1466.94
480.313	1622.94
480.532	1651.94
480.751	1511.94
480.969	1438.94
481.188	1399.94
481.406	1356.94
481.624	1317.94
481.843	1264.94
482.061	1327.94
482.28	1321.94
482.498	1328.94
482.717	1312.94
482.935	1371.94
483.153	1527.94
483.372	1548.94
483.59	1546.94
483.808	1470.94
484.027	1438.94
484.245	1471.94
484.463	1471.94
484.681	1584.94
484.9	1549.94
485.118	1517.94
485.336	1456.94
485.554	1407.94
485.772	1396.94
485.99	1411.94
486.209	1425.94
486.427	1406.94
486.645	1483.94
486.863	1679.94
487.081	1684.94
487.299	1589.94
487.517	1624.94
487.735	1759.94
487.953	1867.94
488.171	1877.94
488.389	1789.94
488.607	1728.94
488.825	1598.94
489.043	1524.94
489.261	1589.94
489.479	1600.94
489.696	1659.94
489.914	1637.94
490.132	1679.94
490.35	1733.94
490.568	1861.94
490.786	1982.94
491.003	1999.94
491.221	2080.94
491.439	2136.94
491.657	2218.94
491.874	2292.94
492.092	2395.94
492.31	2523.94
492.527	2407.94
492.745	2277.94
492.963	2223.94
493.18	2228.94
493.398	2247.94
493.615	2229.94
493.833	2198.94
494.05	2159.94
494.268	2128.94
494.485	2127.94
494.703	2131.94
494.92	2135.94
495.138	2099.94
495.355	2155.94
495.573	2103.94
495.79	2071.94
496.008	2106.94
496.225	2082.94
496.442	2086.94
496.66	2092.94
496.877	2110.94
497.094	2102.94
497.312	2061.94
497.529	2077.94
497.746	2031.94
497.963	2024.94
498.181	2028.94
498.398	2032.94
498.615	2056.94
498.832	2081.94
499.049	2165.94
499.267	2279.94
499.484	2442.94
499.701	2636.94
499.918	2867.94
500.135	3108.94
500.352	3355.94
500.569	3419.94
500.786	3495.94
501.003	3312.94
501.22	3148.94
501.437	2957.94
501.654	2742.94
501.871	2600.94
502.088	2407.94
502.305	2266.94
502.522	2145.94
502.739	2139.94
502.956	1994.94
503.172	1955.94
503.389	1865.94
503.606	1850.94
503.823	1862.94
504.04	1847.94
504.256	1846.94
504.473	1788.94
504.69	1804.94
504.907	1830.94
505.123	1756.94
505.34	1719.94
505.557	1696.94
505.773	1669.94
505.99	1699.94
506.207	1632.94
506.423	1654.94
506.64	1639.94
506.856	1583.94
507.073	1610.94
507.289	1570.94
507.506	1559.94
507.722	1583.94
507.939	1611.94
508.155	1574.94
508.372	1475.94
508.588	1484.94
508.805	1462.94
509.021	1484.94
509.238	1511.94
509.454	1535.94
509.67	1464.94
509.887	1379.94
510.103	1371.94
510.319	1394.94
510.536	1587.94
510.752	2696.94
510.968	1920.94
511.184	1287.94
511.401	1276.94
511.617	1294.94
511.833	1261.94
512.049	1239.94
512.265	1289.94
512.481	1281.94
512.698	1259.94
512.914	1253.94
513.13	1259.94
513.346	1242.94
513.562	1272.94
513.778	1285.94
513.994	1296.94
514.21	1295.94
514.426	1406.94
514.642	1513.94
514.858	1539.94
515.074	1611.94
515.29	2052.94
515.506	3102.94
515.721	2343.94
515.937	1573.94
516.153	1482.94
516.369	1440.94
516.585	1358.94
516.801	1379.94
517.016	1433.94
517.232	1473.94
517.448	1503.94
517.664	1556.94
517.879	1513.94
518.095	1550.94
518.311	1496.94
518.527	1486.94
518.742	1466.94
518.958	1451.94
519.173	1413.94
519.389	1440.94
519.605	1396.94
519.82	1431.94
520.036	1443.94
520.251	1495.94
520.467	1526.94
520.682	1450.94
520.898	1442.94
521.113	1474.94
521.329	1543.94
521.544	1785.94
521.76	2397.94
521.975	4213.94
522.19	3772.94
522.406	1988.94
522.621	1501.94
522.836	1384.94
523.052	1395.94
523.267	1343.94
523.482	1305.94
523.698	1262.94
523.913	1343.94
524.128	1303.94
524.343	1269.94
524.559	1277.94
524.774	1288.94
524.989	1309.94
525.204	1333.94
525.419	1272.94
525.634	1196.94
525.849	1153.94
526.064	1157.94
526.28	1158.94
526.495	1085.94
526.71	1071.94
526.925	1013.94
527.14	1003.94
527.355	1025.94
527.57	1063.94
527.785	1075.94
527.999	1042.94
528.214	1099.94
528.429	1168.94
528.644	1230.94
528.859	1317.94
529.074	1401.94
529.289	1494.94
529.503	1690.94
529.718	1533.94
529.933	1279.94
530.148	1139.94
530.363	1075.94
530.577	1028.94
530.792	994.94
531.007	1001.94
531.221	1021.94
531.436	997.94
531.651	1024.94
531.865	1015.94
532.08	1020.94
532.295	1018.94
532.509	974.94
532.724	1005.94
532.938	1022.94
533.153	1065.94
533.367	1117.94
533.582	1215.94
533.796	1167.94
534.011	1109.94
534.225	1033.94
534.44	992.94
534.654	1063.94
534.868	1041.94
535.083	1049.94
535.297	1065.94
535.511	1104.94
535.726	1129.94
535.94	1082.94
536.154	1025.94
536.369	1003.94
536.583	973.94
536.797	969.94
537.011	960.94
537.225	977.94
537.44	982.94
537.654	1003.94
537.868	993.94
538.082	978.94
538.296	1055.94
538.51	1075.94
538.724	1149.94
538.938	1197.94
539.153	1228.94
539.367	1244.94
539.581	1177.94
539.795	1081.94
540.009	1032.94
540.222	1086.94
540.436	1129.94
540.65	1190.94
540.864	1307.94
541.078	1407.94
541.292	1521.94
541.506	1599.94
541.72	1715.94
541.934	1776.94
542.147	1905.94
542.361	1819.94
542.575	1725.94
542.789	1607.94
543.002	1537.94
543.216	1404.94
543.43	1432.94
543.644	1499.94
543.857	1591.94
544.071	1709.94
544.285	1726.94
544.498	1749.94
544.712	1723.94
544.925	1711.94
545.139	1726.94
545.352	1713.94
545.566	1719.94
545.779	1759.94
545.993	1800.94
546.206	2028.94
546.42	2043.94
546.633	1725.94
546.847	1700.94
547.06	1674.94
547.274	1699.94
547.487	1765.94
547.7	1718.94
547.914	1717.94
548.127	1649.94
548.34	1666.94
548.554	1652.94
548.767	1646.94
548.98	1640.94
549.193	1602.94
549.407	1627.94
549.62	1662.94
549.833	1623.94
550.046	1597.94
550.259	1606.94
550.473	1548.94
550.686	1554.94
550.899	1511.94
551.112	1477.94
551.325	1431.94
551.538	1355.94
551.751	1235.94
551.964	1216.94
552.177	1328.94
552.39	1442.94
552.603	1513.94
552.816	1613.94
553.029	1630.94
553.242	1673.94
553.455	1719.94
553.667	1737.94
553.88	1693.94
554.093	1603.94
554.306	1644.94
554.519	1569.94
554.732	1527.94
554.944	1516.94
555.157	1456.94
555.37	1423.94
555.583	1411.94
555.795	1375.94
556.008	1304.94
556.221	1285.94
556.433	1285.94
556.646	1304.94
556.859	1278.94
557.071	1310.94
557.284	1357.94
557.496	1358.94
557.709	1303.94
557.921	1321.94
558.134	1333.94
558.346	1303.94
558.559	1252.94
558.771	1245.94
558.984	1226.94
559.196	1225.94
559.409	1181.94
559.621	1151.94
559.833	1157.94
560.046	1142.94
560.258	1212.94
560.47	1208.94
560.683	1215.94
560.895	1197.94
561.107	1200.94
561.32	1189.94
561.532	1229.94
561.744	1231.94
561.956	1248.94
562.168	1207.94
562.381	1213.94
562.593	1197.94
562.805	1220.94
563.017	1173.94
563.229	1171.94
563.441	1191.94
563.653	1154.94
563.865	1173.94
564.077	1122.94
564.289	1193.94
564.501	1176.94
564.713	1183.94
564.925	1183.94
565.137	1206.94
565.349	1236.94
565.561	1221.94
565.773	1275.94
565.985	1254.94
566.197	1318.94
566.408	1361.94
566.62	1451.94
566.832	1479.94
567.044	1500.94
567.255	1510.94
567.467	1472.94
567.679	1466.94
567.891	1531.94
568.102	1500.94
568.314	1396.94
568.526	1269.94
568.737	1167.94
568.949	1045.94
569.161	995.94
569.372	924.94
569.584	899.94
569.795	926.94
570.007	894.94
570.218	962.94
570.43	896.94
570.641	895.94
570.853	904.94
571.064	965.94
571.276	952.94
571.487	950.94
571.698	949.94
571.91	903.94
572.121	889.94
572.333	854.94
572.544	827.94
572.755	796.94
572.966	747.94
573.178	702.94
573.389	714.94
573.6	701.94
573.811	694.94
574.023	680.94
574.234	721.94
574.445	731.94
574.656	734.94
574.867	758.94
575.078	757.94
575.289	775.94
575.501	768.94
575.712	743.94
575.923	727.94
576.134	756.94
576.345	789.94
576.556	784.94
576.767	811.94
576.978	785.94
577.188	870.94
577.399	746.94
577.61	721.94
577.821	714.94
578.032	741.94
578.243	827.94
578.454	1171.94
578.665	876.94
578.875	669.94
579.086	695.94
579.297	698.94
579.508	652.94
579.718	658.94
579.929	660.94
580.14	666.94
580.35	655.94
580.561	686.94
580.772	700.94
580.982	672.94
581.193	689.94
581.403	698.94
581.614	708.94
581.825	689.94
582.035	687.94
582.246	705.94
582.456	668.94
582.667	701.94
582.877	675.94
583.087	665.94
583.298	710.94
583.508	687.94
583.719	687.94
583.929	704.94
584.139	632.94
584.35	666.94
584.56	683.94
584.77	660.94
584.981	659.94
585.191	665.94
585.401	661.94
585.611	664.94
585.821	654.94
586.032	643.94
586.242	624.94
586.452	636.94
586.662	597.94
586.872	618.94
587.082	625.94
587.292	637.94
587.502	680.94
587.713	682.94
587.923	685.94
588.133	658.94
588.343	628.94
588.553	643.94
588.762	668.94
588.972	625.94
589.182	583.94
589.392	599.94
589.602	612.94
589.812	602.94
590.022	661.94
590.232	625.94
590.441	602.94
590.651	624.94
590.861	625.94
591.071	624.94
591.281	629.94
591.49	627.94
591.7	648.94
591.91	657.94
592.119	654.94
592.329	673.94
592.539	728.94
592.748	708.94
592.958	724.94
593.167	756.94
593.377	764.94
593.587	815.94
593.796	759.94
594.006	738.94
594.215	760.94
594.424	768.94
594.634	786.94
594.843	771.94
595.053	766.94
595.262	758.94
595.472	702.94
595.681	665.94
595.89	654.94
596.1	645.94
596.309	691.94
596.518	669.94
596.727	702.94
596.937	671.94
597.146	681.94
597.355	668.94
597.564	652.94
597.774	623.94
597.983	571.94
598.192	567.94
598.401	557.94
598.61	571.94
598.819	592.94
599.028	614.94
599.237	642.94
599.446	631.94
599.655	631.94
599.864	628.94
600.073	617.94
600.282	622.94
600.491	597.94
600.7	606.94
600.909	620.94
601.118	659.94
601.327	742.94
601.536	768.94
601.745	791.94
601.953	810.94
602.162	823.94
602.371	811.94
602.58	800.94
602.789	792.94
602.997	837.94
603.206	809.94
603.415	820.94
603.623	786.94
603.832	793.94
604.041	763.94
604.249	718.94
604.458	654.94
604.666	633.94
604.875	616.94
605.084	678.94
605.292	744.94
605.501	821.94
605.709	880.94
605.918	872.94
606.126	916.94
606.334	872.94
606.543	891.94
606.751	879.94
606.96	863.94
607.168	872.94
607.376	834.94
607.585	885.94
607.793	870.94
608.001	849.94
608.21	895.94
608.418	879.94
608.626	893.94
608.834	913.94
609.043	921.94
609.251	911.94
609.459	896.94
609.667	975.94
609.875	957.94
610.083	965.94
610.291	954.94
610.499	969.94
610.707	1011.94
610.916	1063.94
611.124	1182.94
611.332	1301.94
611.54	1396.94
611.748	1342.94
611.955	1220.94
612.163	1123.94
612.371	1079.94
612.579	1029.94
612.787	1007.94
612.995	1035.94
613.203	1059.94
613.411	1014.94
613.618	949.94
613.826	947.94
614.034	971.94
614.242	961.94
614.449	975.94
614.657	974.94
614.865	983.94
615.072	949.94
615.28	959.94
615.488	948.94
615.695	954.94
615.903	914.94
616.111	963.94
616.318	998.94
616.526	954.94
616.733	987.94
616.941	969.94
617.148	964.94
617.356	911.94
617.563	908.94
617.771	896.94
617.978	852.94
618.185	876.94
618.393	916.94
618.6	905.94
618.807	917.94
619.015	901.94
619.222	896.94
619.429	872.94
619.637	808.94
619.844	719.94
620.051	771.94
620.258	829.94
620.466	857.94
620.673	866.94
620.88	836.94
621.087	810.94
621.294	801.94
621.501	765.94
621.708	771.94
621.915	810.94
622.122	823.94
622.329	863.94
622.536	872.94
622.743	828.94
622.95	835.94
623.157	827.94
623.364	842.94
623.571	855.94
623.778	849.94
623.985	871.94
624.192	859.94
624.399	814.94
624.606	841.94
624.812	815.94
625.019	767.94
625.226	740.94
625.433	714.94
625.639	652.94
625.846	612.94
626.053	585.94
626.259	559.94
626.466	549.94
626.673	541.94
626.879	524.94
627.086	591.94
627.293	650.94
627.499	696.94
627.706	751.94
627.912	781.94
628.119	763.94
628.325	786.94
628.532	743.94
628.738	729.94
628.945	710.94
629.151	691.94
629.357	674.94
629.564	678.94
629.77	688.94
629.976	670.94
630.183	615.94
630.389	617.94
630.595	695.94
630.802	707.94
631.008	733.94
631.214	725.94
631.42	702.94
631.627	691.94
631.833	629.94
632.039	638.94
632.245	647.94
632.451	645.94
632.657	662.94
632.863	635.94
633.069	651.94
633.275	629.94
633.481	616.94
633.688	595.94
633.893	636.94
634.099	595.94
634.305	587.94
634.511	596.94
634.717	556.94
634.923	518.94
635.129	514.94
635.335	530.94
635.541	536.94
635.747	569.94
635.952	593.94
636.158	610.94
636.364	661.94
636.57	627.94
636.775	622.94
636.981	625.94
637.187	625.94
637.392	635.94
637.598	653.94
637.804	641.94
638.009	609.94
638.215	598.94
638.421	613.94
638.626	613.94
638.832	616.94
639.037	566.94
639.243	577.94
639.448	580.94
639.654	603.94
639.859	558.94
640.065	591.94
640.27	646.94
640.475	573.94
640.681	578.94
640.886	593.94
641.091	604.94
641.297	632.94
641.502	605.94
641.707	600.94
641.913	621.94
642.118	567.94
642.323	568.94
642.528	627.94
642.733	599.94
642.939	573.94
643.144	591.94
643.349	568.94
643.554	575.94
643.759	567.94
643.964	542.94
644.169	563.94
644.374	550.94
644.579	563.94
644.784	546.94
644.989	570.94
645.194	560.94
645.399	596.94
645.604	568.94
645.809	568.94
646.014	568.94
646.219	570.94
646.423	561.94
646.628	554.94
646.833	587.94
647.038	579.94
647.243	593.94
647.447	560.94
647.652	563.94
647.857	556.94
648.062	569.94
648.266	586.94
648.471	598.94
648.676	596.94
648.88	568.94
649.085	560.94
649.289	568.94
649.494	556.94
649.698	639.94
649.903	612.94
650.107	567.94
650.312	548.94
650.516	548.94
650.721	530.94
650.925	511.94
651.13	504.94
651.334	496.94
651.539	485.94
651.743	475.94
651.947	485.94
652.152	468.94
652.356	483.94
652.56	460.94
652.764	432.94
652.969	437.94
653.173	433.94
653.377	427.94
653.581	414.94
653.785	436.94
653.99	419.94
654.194	402.94
654.398	401.94
654.602	381.94
654.806	397.94
655.01	423.94
655.214	385.94
655.418	374.94
655.622	380.94
655.826	367.94
656.03	371.94
656.234	375.94
656.438	380.94
656.642	367.94
656.846	359.94
657.049	360.94
657.253	353.94
657.457	315.94
657.661	291.94
657.865	297.94
658.068	278.94
658.272	253.94
658.476	266.94
658.68	235.94
658.883	225.94
659.087	237.94
659.291	231.94
659.494	217.94
659.698	214.94
659.901	218.94
660.105	217.94
660.309	204.94
660.512	182.94
660.716	189.94
660.919	182.94
661.123	206.94
661.326	156.94
661.53	147.94
661.733	163.94
661.936	163.94
662.14	135.94
662.343	144.94
662.546	134.94
662.75	137.94
662.953	146.94
663.156	128.94
663.36	137.94
663.563	128.94
663.766	103.94
663.969	131.94
664.173	117.94
664.376	113.94
664.579	118.94
664.782	126.94
664.985	120.94
665.188	122.94
665.391	128.94
665.594	84.94
665.797	119.94
666	121.94
666.203	105.94
666.406	111.94
666.609	110.94
666.812	120.94
667.015	106.94
667.218	127.94
667.421	122.94
667.624	107.94
667.827	113.94
668.03	105.94
668.232	101.94
668.435	110.94
668.638	128.94
668.841	135.94
669.043	101.94
669.246	106.94
669.449	127.94
669.651	135.94
669.854	122.94
670.057	116.94
670.259	107.94
670.462	115.94
670.665	121.94
670.867	118.94
671.07	120.94
671.272	139.94
671.475	159.94
671.677	106.94
671.88	108.94
672.082	108.94
672.284	142.94
672.487	115.94
672.689	104.94
672.892	101.94
