Data from FlinnAP9092KCOPPER.07152019.LAMP.EN10.P1_HRD10591_14-45-31-668.txt Node
Date: Mon Jul 15 14:45:31 EDT 2019
User: cochatt
Spectrometer: HR+D1059
Trigger mode: 3
Integration Time (sec): 1.000000E-1
Scans to average: 1
Electric dark correction enabled: true
Nonlinearity correction enabled: false
Boxcar width: 0
XAxis mode: Wavelengths
Number of Pixels in Spectrum: 2048
>>>>>Begin Spectral Data<<<<<
223.165	-11.56
223.4	-11.56
223.635	-11.56
223.869	-16.56
224.104	-17.56
224.338	-6.56
224.573	-13.56
224.808	-8.56
225.042	-11.56
225.277	-0.56
225.511	-13.56
225.746	-8.56
225.98	4.44
226.215	23.44
226.449	15.44
226.683	12.44
226.918	25.44
227.152	27.44
227.387	40.44
227.621	32.44
227.856	51.44
228.09	46.44
228.324	45.44
228.559	46.44
228.793	101.44
229.027	153.44
229.262	191.44
229.496	206.44
229.73	252.44
229.964	309.44
230.199	235.44
230.433	184.44
230.667	189.44
230.901	178.44
231.136	175.44
231.37	171.44
231.604	166.44
231.838	172.44
232.072	183.44
232.306	196.44
232.541	187.44
232.775	181.44
233.009	191.44
233.243	191.44
233.477	184.44
233.711	183.44
233.945	179.44
234.179	163.44
234.413	203.44
234.647	175.44
234.881	194.44
235.115	192.44
235.349	193.44
235.583	213.44
235.817	210.44
236.051	215.44
236.285	220.44
236.519	213.44
236.753	230.44
236.987	244.44
237.221	341.44
237.455	516.44
237.689	374.44
237.922	241.44
238.156	239.44
238.39	225.44
238.624	221.44
238.858	217.44
239.091	224.44
239.325	216.44
239.559	228.44
239.793	239.44
240.027	231.44
240.26	283.44
240.494	325.44
240.728	313.44
240.961	301.44
241.195	272.44
241.429	260.44
241.662	236.44
241.896	253.44
242.13	258.44
242.363	239.44
242.597	252.44
242.83	271.44
243.064	254.44
243.298	256.44
243.531	241.44
243.765	251.44
243.998	273.44
244.232	270.44
244.465	256.44
244.699	275.44
244.932	265.44
245.166	296.44
245.399	286.44
245.633	254.44
245.866	284.44
246.099	277.44
246.333	278.44
246.566	265.44
246.8	292.44
247.033	296.44
247.266	295.44
247.5	321.44
247.733	347.44
247.966	338.44
248.2	325.44
248.433	316.44
248.666	356.44
248.899	374.44
249.133	400.44
249.366	421.44
249.599	409.44
249.832	379.44
250.066	358.44
250.299	344.44
250.532	362.44
250.765	385.44
250.998	471.44
251.231	478.44
251.465	441.44
251.698	389.44
251.931	385.44
252.164	380.44
252.397	399.44
252.63	399.44
252.863	411.44
253.096	447.44
253.329	492.44
253.562	489.44
253.795	425.44
254.028	434.44
254.261	431.44
254.494	459.44
254.727	533.44
254.96	635.44
255.193	583.44
255.426	499.44
255.659	465.44
255.892	417.44
256.124	424.44
256.357	410.44
256.59	431.44
256.823	398.44
257.056	411.44
257.289	398.44
257.521	404.44
257.754	429.44
257.987	419.44
258.22	427.44
258.452	418.44
258.685	415.44
258.918	428.44
259.151	434.44
259.383	455.44
259.616	471.44
259.849	442.44
260.081	483.44
260.314	565.44
260.547	561.44
260.779	508.44
261.012	472.44
261.244	469.44
261.477	461.44
261.71	457.44
261.942	468.44
262.175	506.44
262.407	472.44
262.64	422.44
262.872	431.44
263.105	462.44
263.337	436.44
263.57	431.44
263.802	451.44
264.035	435.44
264.267	449.44
264.499	442.44
264.732	461.44
264.964	440.44
265.197	461.44
265.429	457.44
265.661	460.44
265.894	457.44
266.126	461.44
266.358	457.44
266.591	472.44
266.823	472.44
267.055	495.44
267.287	484.44
267.52	482.44
267.752	482.44
267.984	499.44
268.216	479.44
268.448	509.44
268.681	499.44
268.913	544.44
269.145	583.44
269.377	617.44
269.609	633.44
269.841	616.44
270.073	611.44
270.306	639.44
270.538	732.44
270.77	721.44
271.002	653.44
271.234	631.44
271.466	657.44
271.698	697.44
271.93	727.44
272.162	729.44
272.394	727.44
272.626	667.44
272.858	644.44
273.09	592.44
273.322	586.44
273.553	570.44
273.785	585.44
274.017	559.44
274.249	595.44
274.481	563.44
274.713	565.44
274.945	569.44
275.176	584.44
275.408	586.44
275.64	617.44
275.872	579.44
276.104	572.44
276.335	571.44
276.567	607.44
276.799	626.44
277.031	683.44
277.262	778.44
277.494	765.44
277.726	693.44
277.957	638.44
278.189	629.44
278.421	590.44
278.652	603.44
278.884	606.44
279.115	584.44
279.347	612.44
279.579	605.44
279.81	584.44
280.042	581.44
280.273	569.44
280.505	580.44
280.736	597.44
280.968	605.44
281.199	599.44
281.431	603.44
281.662	598.44
281.894	629.44
282.125	620.44
282.356	637.44
282.588	716.44
282.819	713.44
283.051	645.44
283.282	639.44
283.513	635.44
283.745	656.44
283.976	652.44
284.207	655.44
284.439	644.44
284.67	661.44
284.901	667.44
285.132	650.44
285.364	659.44
285.595	634.44
285.826	631.44
286.057	662.44
286.288	637.44
286.52	621.44
286.751	647.44
286.982	658.44
287.213	633.44
287.444	665.44
287.675	664.44
287.906	695.44
288.138	715.44
288.369	708.44
288.6	690.44
288.831	690.44
289.062	699.44
289.293	711.44
289.524	693.44
289.755	672.44
289.986	657.44
290.217	697.44
290.448	679.44
290.679	673.44
290.91	652.44
291.141	666.44
291.371	671.44
291.602	657.44
291.833	666.44
292.064	700.44
292.295	675.44
292.526	669.44
292.757	672.44
292.987	655.44
293.218	684.44
293.449	673.44
293.68	669.44
293.91	675.44
294.141	663.44
294.372	665.44
294.603	676.44
294.833	676.44
295.064	681.44
295.295	673.44
295.525	671.44
295.756	714.44
295.987	711.44
296.217	755.44
296.448	763.44
296.679	703.44
296.909	698.44
297.14	681.44
297.37	699.44
297.601	698.44
297.831	696.44
298.062	734.44
298.292	711.44
298.523	730.44
298.753	731.44
298.984	719.44
299.214	743.44
299.445	721.44
299.675	714.44
299.905	714.44
300.136	719.44
300.366	745.44
300.597	707.44
300.827	732.44
301.057	762.44
301.288	781.44
301.518	805.44
301.748	756.44
301.979	780.44
302.209	767.44
302.439	778.44
302.669	779.44
302.9	789.44
303.13	761.44
303.36	768.44
303.59	769.44
303.82	768.44
304.051	767.44
304.281	734.44
304.511	741.44
304.741	742.44
304.971	753.44
305.201	748.44
305.431	775.44
305.661	743.44
305.891	733.44
306.121	729.44
306.352	734.44
306.582	735.44
306.812	742.44
307.042	757.44
307.272	741.44
307.502	745.44
307.731	737.44
307.961	736.44
308.191	730.44
308.421	748.44
308.651	766.44
308.881	744.44
309.111	782.44
309.341	743.44
309.571	784.44
309.8	798.44
310.03	834.44
310.26	860.44
310.49	836.44
310.72	824.44
310.949	890.44
311.179	893.44
311.409	851.44
311.639	836.44
311.868	859.44
312.098	868.44
312.328	899.44
312.557	916.44
312.787	957.44
313.017	947.44
313.246	869.44
313.476	819.44
313.706	839.44
313.935	869.44
314.165	889.44
314.394	920.44
314.624	900.44
314.853	879.44
315.083	869.44
315.312	848.44
315.542	843.44
315.771	823.44
316.001	784.44
316.23	833.44
316.46	861.44
316.689	824.44
316.919	828.44
317.148	876.44
317.377	839.44
317.607	857.44
317.836	848.44
318.065	852.44
318.295	821.44
318.524	823.44
318.753	839.44
318.983	817.44
319.212	841.44
319.441	833.44
319.67	840.44
319.9	825.44
320.129	832.44
320.358	825.44
320.587	837.44
320.816	827.44
321.046	866.44
321.275	871.44
321.504	860.44
321.733	846.44
321.962	856.44
322.191	888.44
322.42	938.44
322.649	953.44
322.878	983.44
323.108	980.44
323.337	1027.44
323.566	1060.44
323.795	1126.44
324.024	1197.44
324.253	1439.44
324.482	2144.44
324.71	3626.44
324.939	5657.44
325.168	4929.44
325.397	1983.44
325.626	1257.44
325.855	1067.44
326.084	1035.44
326.313	1015.44
326.542	1035.44
326.77	1175.44
326.999	1420.44
327.228	2039.44
327.457	3295.44
327.686	4341.44
327.914	2539.44
328.143	1461.44
328.372	1249.44
328.6	1245.44
328.829	1187.44
329.058	1249.44
329.287	1323.44
329.515	1230.44
329.744	1051.44
329.972	1049.44
330.201	1048.44
330.43	1098.44
330.658	1197.44
330.887	1387.44
331.115	1395.44
331.344	1178.44
331.572	1106.44
331.801	1127.44
332.03	1099.44
332.258	1083.44
332.486	1033.44
332.715	1043.44
332.943	1041.44
333.172	1093.44
333.4	1138.44
333.629	1160.44
333.857	1172.44
334.085	1150.44
334.314	1151.44
334.542	1104.44
334.771	1101.44
334.999	1114.44
335.227	1091.44
335.455	1060.44
335.684	1039.44
335.912	1061.44
336.14	1032.44
336.369	1041.44
336.597	1070.44
336.825	1078.44
337.053	1033.44
337.281	977.44
337.51	1006.44
337.738	1009.44
337.966	1021.44
338.194	1017.44
338.422	1022.44
338.65	987.44
338.878	973.44
339.106	986.44
339.334	988.44
339.562	954.44
339.79	930.44
340.018	942.44
340.246	937.44
340.474	985.44
340.702	968.44
340.93	943.44
341.158	941.44
341.386	946.44
341.614	942.44
341.842	934.44
342.07	932.44
342.298	932.44
342.526	922.44
342.754	917.44
342.981	870.44
343.209	908.44
343.437	961.44
343.665	981.44
343.893	1056.44
344.12	1064.44
344.348	1073.44
344.576	1009.44
344.804	996.44
345.031	988.44
345.259	1019.44
345.487	1009.44
345.714	974.44
345.942	909.44
346.17	909.44
346.397	887.44
346.625	887.44
346.853	907.44
347.08	892.44
347.308	926.44
347.535	939.44
347.763	952.44
347.99	939.44
348.218	939.44
348.445	933.44
348.673	950.44
348.9	895.44
349.128	869.44
349.355	855.44
349.583	872.44
349.81	871.44
350.037	888.44
350.265	820.44
350.492	841.44
350.72	866.44
350.947	868.44
351.174	884.44
351.402	911.44
351.629	916.44
351.856	892.44
352.083	913.44
352.311	959.44
352.538	936.44
352.765	952.44
352.992	898.44
353.22	887.44
353.447	897.44
353.674	852.44
353.901	865.44
354.128	854.44
354.355	828.44
354.583	848.44
354.81	831.44
355.037	849.44
355.264	822.44
355.491	818.44
355.718	827.44
355.945	830.44
356.172	842.44
356.399	805.44
356.626	804.44
356.853	849.44
357.08	796.44
357.307	811.44
357.534	816.44
357.761	842.44
357.988	840.44
358.215	780.44
358.441	812.44
358.668	830.44
358.895	843.44
359.122	833.44
359.349	857.44
359.576	849.44
359.802	924.44
360.029	1008.44
360.256	1051.44
360.483	1013.44
360.709	900.44
360.936	892.44
361.163	877.44
361.39	896.44
361.616	875.44
361.843	900.44
362.07	860.44
362.296	901.44
362.523	892.44
362.749	887.44
362.976	847.44
363.203	827.44
363.429	827.44
363.656	843.44
363.882	856.44
364.109	813.44
364.335	812.44
364.562	840.44
364.788	842.44
365.015	824.44
365.241	829.44
365.468	850.44
365.694	863.44
365.92	884.44
366.147	866.44
366.373	822.44
366.599	849.44
366.826	829.44
367.052	827.44
367.278	823.44
367.505	843.44
367.731	858.44
367.957	848.44
368.184	863.44
368.41	874.44
368.636	896.44
368.862	900.44
369.089	864.44
369.315	873.44
369.541	863.44
369.767	857.44
369.993	860.44
370.219	881.44
370.445	873.44
370.672	867.44
370.898	863.44
371.124	890.44
371.35	890.44
371.576	874.44
371.802	877.44
372.028	881.44
372.254	864.44
372.48	871.44
372.706	891.44
372.932	901.44
373.158	884.44
373.384	903.44
373.61	880.44
373.835	894.44
374.061	919.44
374.287	919.44
374.513	917.44
374.739	919.44
374.965	934.44
375.191	950.44
375.416	947.44
375.642	921.44
375.868	949.44
376.094	905.44
376.319	898.44
376.545	913.44
376.771	877.44
376.997	880.44
377.222	880.44
377.448	895.44
377.674	869.44
377.899	882.44
378.125	884.44
378.35	879.44
378.576	903.44
378.802	872.44
379.027	857.44
379.253	898.44
379.478	891.44
379.704	898.44
379.929	916.44
380.155	907.44
380.38	894.44
380.606	904.44
380.831	915.44
381.057	906.44
381.282	916.44
381.507	893.44
381.733	903.44
381.958	926.44
382.184	931.44
382.409	950.44
382.634	928.44
382.86	963.44
383.085	939.44
383.31	959.44
383.535	964.44
383.761	959.44
383.986	985.44
384.211	1000.44
384.436	999.44
384.662	1034.44
384.887	1036.44
385.112	1026.44
385.337	1057.44
385.562	1020.44
385.787	1053.44
386.013	1068.44
386.238	1111.44
386.463	1107.44
386.688	1059.44
386.913	1017.44
387.138	1073.44
387.363	1033.44
387.588	1071.44
387.813	1061.44
388.038	1072.44
388.263	1052.44
388.488	1056.44
388.713	1064.44
388.938	1085.44
389.163	1067.44
389.387	1055.44
389.612	1028.44
389.837	1057.44
390.062	1013.44
390.287	1053.44
390.512	1047.44
390.736	1045.44
390.961	1081.44
391.186	1077.44
391.411	1087.44
391.636	1120.44
391.86	1168.44
392.085	1181.44
392.31	1185.44
392.534	1136.44
392.759	1117.44
392.984	1117.44
393.208	1079.44
393.433	1096.44
393.658	1098.44
393.882	1123.44
394.107	1118.44
394.331	1081.44
394.556	1111.44
394.78	1138.44
395.005	1138.44
395.229	1106.44
395.454	1170.44
395.678	1162.44
395.903	1213.44
396.127	1216.44
396.352	1208.44
396.576	1161.44
396.801	1148.44
397.025	1144.44
397.249	1140.44
397.474	1175.44
397.698	1191.44
397.922	1229.44
398.147	1263.44
398.371	1294.44
398.595	1257.44
398.82	1299.44
399.044	1341.44
399.268	1448.44
399.492	1625.44
399.717	1843.44
399.941	1827.44
400.165	1779.44
400.389	1735.44
400.613	1518.44
400.837	1400.44
401.062	1379.44
401.286	1365.44
401.51	1341.44
401.734	1337.44
401.958	1352.44
402.182	1364.44
402.406	1369.44
402.63	1420.44
402.854	1412.44
403.078	1415.44
403.302	1466.44
403.526	1522.44
403.75	1519.44
403.974	1480.44
404.198	1474.44
404.422	1505.44
404.645	1540.44
404.869	1491.44
405.093	1510.44
405.317	1557.44
405.541	1574.44
405.765	1499.44
405.988	1485.44
406.212	1545.44
406.436	1597.44
406.66	1659.44
406.883	1582.44
407.107	1666.44
407.331	1819.44
407.555	1991.44
407.778	1929.44
408.002	1769.44
408.226	1625.44
408.449	1609.44
408.673	1586.44
408.896	1599.44
409.12	1753.44
409.344	1660.44
409.567	1534.44
409.791	1493.44
410.014	1463.44
410.238	1465.44
410.461	1438.44
410.685	1483.44
410.908	1467.44
411.132	1583.44
411.355	1684.44
411.578	1559.44
411.802	1424.44
412.025	1436.44
412.249	1455.44
412.472	1428.44
412.695	1424.44
412.919	1383.44
413.142	1361.44
413.365	1357.44
413.589	1408.44
413.812	1363.44
414.035	1347.44
414.258	1357.44
414.482	1377.44
414.705	1368.44
414.928	1388.44
415.151	1367.44
415.374	1367.44
415.597	1371.44
415.821	1377.44
416.044	1380.44
416.267	1393.44
416.49	1403.44
416.713	1370.44
416.936	1390.44
417.159	1410.44
417.382	1417.44
417.605	1405.44
417.828	1470.44
418.051	1517.44
418.274	1469.44
418.497	1418.44
418.72	1437.44
418.943	1460.44
419.166	1510.44
419.389	1596.44
419.611	1548.44
419.834	1531.44
420.057	1523.44
420.28	1505.44
420.503	1457.44
420.726	1474.44
420.948	1507.44
421.171	1611.44
421.394	1687.44
421.617	1519.44
421.839	1544.44
422.062	1534.44
422.285	1533.44
422.507	1682.44
422.73	1890.44
422.953	1775.44
423.175	1602.44
423.398	1571.44
423.621	1611.44
423.843	1719.44
424.066	1686.44
424.288	1643.44
424.511	1705.44
424.733	1833.44
424.956	2019.44
425.178	1918.44
425.401	1920.44
425.623	1968.44
425.846	1653.44
426.068	1523.44
426.291	1501.44
426.513	1480.44
426.735	1557.44
426.958	1627.44
427.18	1880.44
427.402	2259.44
427.625	2457.44
427.847	2007.44
428.069	1660.44
428.292	1499.44
428.514	1428.44
428.736	1418.44
428.958	1419.44
429.181	1384.44
429.403	1383.44
429.625	1388.44
429.847	1493.44
430.069	1689.44
430.292	1691.44
430.514	1464.44
430.736	1451.44
430.958	1365.44
431.18	1348.44
431.402	1307.44
431.624	1269.44
431.846	1250.44
432.068	1207.44
432.29	1216.44
432.512	1234.44
432.734	1341.44
432.956	1394.44
433.178	1431.44
433.4	1452.44
433.622	1410.44
433.844	1351.44
434.066	1281.44
434.287	1215.44
434.509	1241.44
434.731	1265.44
434.953	1354.44
435.175	1505.44
435.397	1577.44
435.618	1536.44
435.84	1530.44
436.062	1865.44
436.284	2086.44
436.505	1704.44
436.727	1559.44
436.949	1459.44
437.17	1427.44
437.392	1390.44
437.614	1391.44
437.835	1412.44
438.057	1664.44
438.278	1970.44
438.5	1928.44
438.721	2258.44
438.943	2113.44
439.165	1681.44
439.386	1636.44
439.608	1633.44
439.829	1631.44
440.05	1784.44
440.272	1992.44
440.493	1806.44
440.715	1645.44
440.936	1576.44
441.158	1583.44
441.379	1593.44
441.6	1656.44
441.822	1691.44
442.043	1796.44
442.264	2004.44
442.486	2099.44
442.707	1811.44
442.928	1697.44
443.149	1729.44
443.371	1866.44
443.592	1895.44
443.813	2192.44
444.034	2377.44
444.255	1930.44
444.476	1790.44
444.698	1765.44
444.919	1777.44
445.14	1899.44
445.361	1843.44
445.582	1894.44
445.803	2123.44
446.024	2416.44
446.245	2401.44
446.466	2138.44
446.687	1831.44
446.908	1701.44
447.129	1602.44
447.35	1547.44
447.571	1551.44
447.792	1490.44
448.013	1480.44
448.234	1547.44
448.455	1649.44
448.675	2026.44
448.896	2279.44
449.117	1848.44
449.338	1775.44
449.559	2167.44
449.779	2393.44
450	1823.44
450.221	1543.44
450.442	1450.44
450.662	1438.44
450.883	1461.44
451.104	1480.44
451.324	1404.44
451.545	1339.44
451.766	1322.44
451.986	1278.44
452.207	1250.44
452.428	1254.44
452.648	1254.44
452.869	1241.44
453.089	1266.44
453.31	1254.44
453.53	1188.44
453.751	1122.44
453.971	1134.44
454.192	1220.44
454.412	1185.44
454.633	1208.44
454.853	1170.44
455.073	1177.44
455.294	1249.44
455.514	1482.44
455.734	1431.44
455.955	1200.44
456.175	1129.44
456.395	1097.44
456.616	1060.44
456.836	1101.44
457.056	1048.44
457.276	1050.44
457.497	1071.44
457.717	1055.44
457.937	1074.44
458.157	1091.44
458.377	1120.44
458.598	1140.44
458.818	1265.44
459.038	1540.44
459.258	1523.44
459.478	1231.44
459.698	1195.44
459.918	1177.44
460.138	1304.44
460.358	1304.44
460.578	1328.44
460.798	1378.44
461.018	1391.44
461.238	1389.44
461.458	1364.44
461.678	1307.44
461.898	1334.44
462.118	1361.44
462.338	1443.44
462.558	1442.44
462.777	1484.44
462.997	1527.44
463.217	1642.44
463.437	1599.44
463.657	1536.44
463.876	1469.44
464.096	1499.44
464.316	1482.44
464.536	1484.44
464.755	1506.44
464.975	1543.44
465.195	1601.44
465.414	1749.44
465.634	1513.44
465.854	1376.44
466.073	1342.44
466.293	1357.44
466.512	1303.44
466.732	1288.44
466.951	1342.44
467.171	1342.44
467.391	1336.44
467.61	1373.44
467.829	1383.44
468.049	1365.44
468.268	1282.44
468.488	1291.44
468.707	1319.44
468.927	1305.44
469.146	1325.44
469.365	1357.44
469.585	1354.44
469.804	1393.44
470.023	1449.44
470.243	1460.44
470.462	1465.44
470.681	1499.44
470.901	1469.44
471.12	1409.44
471.339	1434.44
471.558	1449.44
471.777	1399.44
471.997	1312.44
472.216	1259.44
472.435	1207.44
472.654	1150.44
472.873	1108.44
473.092	1152.44
473.311	1213.44
473.53	1243.44
473.749	1279.44
473.968	1387.44
474.187	1674.44
474.406	1717.44
474.625	1368.44
474.844	1303.44
475.063	1267.44
475.282	1250.44
475.501	1220.44
475.72	1241.44
475.939	1281.44
476.158	1295.44
476.377	1307.44
476.596	1261.44
476.814	1233.44
477.033	1218.44
477.252	1255.44
477.471	1328.44
477.69	1382.44
477.908	1455.44
478.127	1481.44
478.346	1456.44
478.564	1503.44
478.783	1489.44
479.002	1572.44
479.22	1569.44
479.439	1539.44
479.658	1518.44
479.876	1473.44
480.095	1499.44
480.313	1620.44
480.532	1597.44
480.751	1510.44
480.969	1399.44
481.188	1368.44
481.406	1336.44
481.624	1266.44
481.843	1259.44
482.061	1268.44
482.28	1317.44
482.498	1347.44
482.717	1303.44
482.935	1371.44
483.153	1492.44
483.372	1548.44
483.59	1512.44
483.808	1475.44
484.027	1406.44
484.245	1403.44
484.463	1500.44
484.681	1513.44
484.9	1484.44
485.118	1522.44
485.336	1451.44
485.554	1396.44
485.772	1349.44
485.99	1354.44
486.209	1416.44
486.427	1392.44
486.645	1481.44
486.863	1643.44
487.081	1662.44
487.299	1579.44
487.517	1581.44
487.735	1748.44
487.953	1839.44
488.171	1847.44
488.389	1757.44
488.607	1698.44
488.825	1605.44
489.043	1548.44
489.261	1583.44
489.479	1553.44
489.696	1626.44
489.914	1625.44
490.132	1674.44
490.35	1757.44
490.568	1846.44
490.786	1951.44
491.003	2021.44
491.221	2136.44
491.439	2176.44
491.657	2224.44
491.874	2340.44
492.092	2465.44
492.31	2547.44
492.527	2457.44
492.745	2332.44
492.963	2236.44
493.18	2241.44
493.398	2270.44
493.615	2215.44
493.833	2194.44
494.05	2187.44
494.268	2145.44
494.485	2127.44
494.703	2142.44
494.92	2152.44
495.138	2143.44
495.355	2145.44
495.573	2149.44
495.79	2164.44
496.008	2123.44
496.225	2107.44
496.442	2069.44
496.66	2060.44
496.877	2074.44
497.094	2085.44
497.312	2061.44
497.529	2113.44
497.746	2052.44
497.963	1987.44
498.181	2000.44
498.398	1957.44
498.615	2016.44
498.832	2121.44
499.049	2192.44
499.267	2249.44
499.484	2437.44
499.701	2665.44
499.918	2862.44
500.135	3162.44
500.352	3371.44
500.569	3435.44
500.786	3451.44
501.003	3375.44
501.22	3121.44
501.437	2941.44
501.654	2796.44
501.871	2597.44
502.088	2446.44
502.305	2276.44
502.522	2131.44
502.739	2096.44
502.956	2053.44
503.172	1952.44
503.389	1841.44
503.606	1856.44
503.823	1788.44
504.04	1795.44
504.256	1815.44
504.473	1836.44
504.69	1838.44
504.907	1807.44
505.123	1759.44
505.34	1715.44
505.557	1725.44
505.773	1692.44
505.99	1666.44
506.207	1664.44
506.423	1632.44
506.64	1645.44
506.856	1571.44
507.073	1594.44
507.289	1572.44
507.506	1549.44
507.722	1554.44
507.939	1584.44
508.155	1552.44
508.372	1529.44
508.588	1453.44
508.805	1436.44
509.021	1473.44
509.238	1521.44
509.454	1502.44
509.67	1442.44
509.887	1362.44
510.103	1330.44
510.319	1364.44
510.536	1547.44
510.752	2515.44
510.968	1839.44
511.184	1287.44
511.401	1227.44
511.617	1239.44
511.833	1275.44
512.049	1226.44
512.265	1275.44
512.481	1252.44
512.698	1231.44
512.914	1271.44
513.13	1260.44
513.346	1237.44
513.562	1218.44
513.778	1271.44
513.994	1261.44
514.21	1259.44
514.426	1356.44
514.642	1428.44
514.858	1515.44
515.074	1587.44
515.29	1945.44
515.506	2921.44
515.721	2178.44
515.937	1514.44
516.153	1444.44
516.369	1383.44
516.585	1392.44
516.801	1361.44
517.016	1404.44
517.232	1476.44
517.448	1541.44
517.664	1516.44
517.879	1562.44
518.095	1545.44
518.311	1515.44
518.527	1475.44
518.742	1457.44
518.958	1426.44
519.173	1401.44
519.389	1423.44
519.605	1408.44
519.82	1407.44
520.036	1411.44
520.251	1448.44
520.467	1505.44
520.682	1455.44
520.898	1432.44
521.113	1429.44
521.329	1525.44
521.544	1748.44
521.76	2302.44
521.975	4045.44
522.19	3485.44
522.406	1883.44
522.621	1478.44
522.836	1362.44
523.052	1304.44
523.267	1280.44
523.482	1258.44
523.698	1232.44
523.913	1291.44
524.128	1324.44
524.343	1292.44
524.559	1290.44
524.774	1263.44
524.989	1233.44
525.204	1297.44
525.419	1248.44
525.634	1194.44
525.849	1165.44
526.064	1157.44
526.28	1093.44
526.495	1051.44
526.71	1042.44
526.925	1007.44
527.14	1003.44
527.355	997.44
527.57	1024.44
527.785	1020.44
527.999	1062.44
528.214	1103.44
528.429	1175.44
528.644	1233.44
528.859	1295.44
529.074	1377.44
529.289	1504.44
529.503	1678.44
529.718	1489.44
529.933	1244.44
530.148	1145.44
530.363	1080.44
530.577	1024.44
530.792	1018.44
531.007	1010.44
531.221	1029.44
531.436	986.44
531.651	995.44
531.865	977.44
532.08	992.44
532.295	1023.44
532.509	1005.44
532.724	998.44
532.938	1046.44
533.153	1097.44
533.367	1151.44
533.582	1190.44
533.796	1215.44
534.011	1123.44
534.225	1027.44
534.44	1005.44
534.654	1024.44
534.868	1014.44
535.083	1001.44
535.297	1053.44
535.511	1073.44
535.726	1104.44
535.94	1058.44
536.154	1017.44
536.369	979.44
536.583	997.44
536.797	975.44
537.011	938.44
537.225	917.44
537.44	974.44
537.654	983.44
537.868	970.44
538.082	968.44
538.296	1003.44
538.51	1044.44
538.724	1103.44
538.938	1181.44
539.153	1175.44
539.367	1193.44
539.581	1133.44
539.795	1024.44
540.009	975.44
540.222	970.44
540.436	1057.44
540.65	1147.44
540.864	1269.44
541.078	1396.44
541.292	1430.44
541.506	1508.44
541.72	1588.44
541.934	1747.44
542.147	1768.44
542.361	1678.44
542.575	1572.44
542.789	1417.44
543.002	1301.44
543.216	1243.44
543.43	1265.44
543.644	1307.44
543.857	1401.44
544.071	1535.44
544.285	1599.44
544.498	1585.44
544.712	1611.44
544.925	1592.44
545.139	1574.44
545.352	1596.44
545.566	1599.44
545.779	1640.44
545.993	1668.44
546.206	1713.44
546.42	1708.44
546.633	1662.44
546.847	1646.44
547.06	1621.44
547.274	1712.44
547.487	1728.44
547.7	1772.44
547.914	1707.44
548.127	1650.44
548.34	1659.44
548.554	1631.44
548.767	1618.44
548.98	1591.44
549.193	1596.44
549.407	1649.44
549.62	1630.44
549.833	1646.44
550.046	1613.44
550.259	1615.44
550.473	1564.44
550.686	1562.44
550.899	1500.44
551.112	1494.44
551.325	1439.44
551.538	1359.44
551.751	1251.44
551.964	1185.44
552.177	1311.44
552.39	1436.44
552.603	1555.44
552.816	1600.44
553.029	1616.44
553.242	1733.44
553.455	1765.44
553.667	1743.44
553.88	1716.44
554.093	1697.44
554.306	1668.44
554.519	1600.44
554.732	1564.44
554.944	1548.44
555.157	1531.44
555.37	1477.44
555.583	1406.44
555.795	1380.44
556.008	1325.44
556.221	1321.44
556.433	1315.44
556.646	1333.44
556.859	1317.44
557.071	1352.44
557.284	1374.44
557.496	1311.44
557.709	1347.44
557.921	1368.44
558.134	1325.44
558.346	1329.44
558.559	1317.44
558.771	1307.44
558.984	1311.44
559.196	1243.44
559.409	1236.44
559.621	1220.44
559.833	1173.44
560.046	1225.44
560.258	1196.44
560.47	1207.44
560.683	1209.44
560.895	1214.44
561.107	1248.44
561.32	1192.44
561.532	1271.44
561.744	1228.44
561.956	1212.44
562.168	1248.44
562.381	1205.44
562.593	1211.44
562.805	1209.44
563.017	1194.44
563.229	1184.44
563.441	1209.44
563.653	1170.44
563.865	1185.44
564.077	1157.44
564.289	1165.44
564.501	1165.44
564.713	1155.44
564.925	1152.44
565.137	1176.44
565.349	1202.44
565.561	1194.44
565.773	1239.44
565.985	1279.44
566.197	1313.44
566.408	1393.44
566.62	1455.44
566.832	1487.44
567.044	1521.44
567.255	1490.44
567.467	1483.44
567.679	1529.44
567.891	1521.44
568.102	1503.44
568.314	1380.44
568.526	1242.44
568.737	1159.44
568.949	1056.44
569.161	972.44
569.372	918.44
569.584	905.44
569.795	850.44
570.007	879.44
570.218	898.44
570.43	897.44
570.641	876.44
570.853	929.44
571.064	955.44
571.276	968.44
571.487	975.44
571.698	942.44
571.91	923.44
572.121	917.44
572.333	864.44
572.544	826.44
572.755	766.44
572.966	736.44
573.178	700.44
573.389	695.44
573.6	690.44
573.811	685.44
574.023	699.44
574.234	678.44
574.445	733.44
574.656	759.44
574.867	740.44
575.078	766.44
575.289	755.44
575.501	720.44
575.712	713.44
575.923	727.44
576.134	731.44
576.345	737.44
576.556	790.44
576.767	790.44
576.978	783.44
577.188	756.44
577.399	727.44
577.61	703.44
577.821	705.44
578.032	731.44
578.243	793.44
578.454	1133.44
578.665	848.44
578.875	681.44
579.086	651.44
579.297	620.44
579.508	633.44
579.718	615.44
579.929	622.44
580.14	592.44
580.35	624.44
580.561	623.44
580.772	646.44
580.982	660.44
581.193	658.44
581.403	682.44
581.614	660.44
581.825	625.44
582.035	665.44
582.246	638.44
582.456	641.44
582.667	626.44
582.877	647.44
583.087	640.44
583.298	642.44
583.508	611.44
583.719	613.44
583.929	605.44
584.139	591.44
584.35	570.44
584.56	606.44
584.77	629.44
584.981	623.44
585.191	619.44
585.401	619.44
585.611	610.44
585.821	593.44
586.032	579.44
586.242	581.44
586.452	557.44
586.662	587.44
586.872	581.44
587.082	561.44
587.292	553.44
587.502	566.44
587.713	595.44
587.923	588.44
588.133	564.44
588.343	558.44
588.553	574.44
588.762	588.44
588.972	575.44
589.182	568.44
589.392	579.44
589.602	560.44
589.812	573.44
590.022	578.44
590.232	591.44
590.441	572.44
590.651	597.44
590.861	592.44
591.071	599.44
591.281	617.44
591.49	567.44
591.7	600.44
591.91	631.44
592.119	649.44
592.329	630.44
592.539	677.44
592.748	658.44
592.958	692.44
593.167	708.44
593.377	721.44
593.587	708.44
593.796	720.44
594.006	723.44
594.215	723.44
594.424	778.44
594.634	777.44
594.843	772.44
595.053	723.44
595.262	718.44
595.472	681.44
595.681	633.44
595.89	625.44
596.1	633.44
596.309	636.44
596.518	673.44
596.727	702.44
596.937	680.44
597.146	645.44
597.355	649.44
597.564	614.44
597.774	585.44
597.983	548.44
598.192	545.44
598.401	549.44
598.61	539.44
598.819	568.44
599.028	589.44
599.237	620.44
599.446	576.44
599.655	570.44
599.864	575.44
600.073	604.44
600.282	596.44
600.491	609.44
600.7	597.44
600.909	608.44
601.118	675.44
601.327	687.44
601.536	767.44
601.745	794.44
601.953	805.44
602.162	801.44
602.371	845.44
602.58	835.44
602.789	827.44
602.997	818.44
603.206	828.44
603.415	816.44
603.623	836.44
603.832	809.44
604.041	774.44
604.249	725.44
604.458	665.44
604.666	632.44
604.875	627.44
605.084	683.44
605.292	767.44
605.501	853.44
605.709	867.44
605.918	896.44
606.126	889.44
606.334	931.44
606.543	919.44
606.751	895.44
606.96	909.44
607.168	903.44
607.376	866.44
607.585	876.44
607.793	905.44
608.001	903.44
608.21	884.44
608.418	915.44
608.626	908.44
608.834	916.44
609.043	929.44
609.251	916.44
609.459	915.44
609.667	920.44
609.875	947.44
610.083	972.44
610.291	958.44
610.499	918.44
610.707	936.44
610.916	971.44
611.124	979.44
611.332	990.44
611.54	985.44
611.748	998.44
611.955	954.44
612.163	961.44
612.371	976.44
612.579	940.44
612.787	959.44
612.995	958.44
613.203	968.44
613.411	940.44
613.618	929.44
613.826	952.44
614.034	929.44
614.242	932.44
614.449	940.44
614.657	941.44
614.865	939.44
615.072	948.44
615.28	933.44
615.488	924.44
615.695	943.44
615.903	910.44
616.111	926.44
616.318	943.44
616.526	946.44
616.733	986.44
616.941	983.44
617.148	936.44
617.356	919.44
617.563	895.44
617.771	883.44
617.978	841.44
618.185	888.44
618.393	909.44
618.6	917.44
618.807	913.44
619.015	917.44
619.222	906.44
619.429	849.44
619.637	777.44
619.844	735.44
620.051	771.44
620.258	803.44
620.466	848.44
620.673	855.44
620.88	817.44
621.087	800.44
621.294	806.44
621.501	741.44
621.708	747.44
621.915	801.44
622.122	823.44
622.329	853.44
622.536	860.44
622.743	833.44
622.95	804.44
623.157	824.44
623.364	828.44
623.571	837.44
623.778	862.44
623.985	859.44
624.192	844.44
624.399	827.44
624.606	827.44
624.812	777.44
625.019	752.44
625.226	724.44
625.433	719.44
625.639	662.44
625.846	619.44
626.053	579.44
626.259	558.44
626.466	523.44
626.673	529.44
626.879	511.44
627.086	585.44
627.293	650.44
627.499	717.44
627.706	764.44
627.912	795.44
628.119	805.44
628.325	792.44
628.532	791.44
628.738	736.44
628.945	729.44
629.151	698.44
629.357	689.44
629.564	717.44
629.77	680.44
629.976	687.44
630.183	613.44
630.389	649.44
630.595	663.44
630.802	707.44
631.008	714.44
631.214	671.44
631.42	665.44
631.627	631.44
631.833	594.44
632.039	628.44
632.245	654.44
632.451	665.44
632.657	674.44
632.863	650.44
633.069	613.44
633.275	630.44
633.481	613.44
633.688	603.44
633.893	635.44
634.099	588.44
634.305	602.44
634.511	595.44
634.717	543.44
634.923	505.44
635.129	510.44
635.335	516.44
635.541	540.44
635.747	548.44
635.952	588.44
636.158	625.44
636.364	626.44
636.57	628.44
636.775	650.44
636.981	656.44
637.187	649.44
637.392	653.44
637.598	628.44
637.804	661.44
638.009	649.44
638.215	624.44
638.421	599.44
638.626	641.44
638.832	605.44
639.037	574.44
639.243	573.44
639.448	553.44
639.654	598.44
639.859	579.44
640.065	587.44
640.27	599.44
640.475	602.44
640.681	584.44
640.886	617.44
641.091	625.44
641.297	611.44
641.502	592.44
641.707	583.44
641.913	625.44
642.118	605.44
642.323	601.44
642.528	608.44
642.733	588.44
642.939	593.44
643.144	571.44
643.349	568.44
643.554	591.44
643.759	579.44
643.964	587.44
644.169	553.44
644.374	574.44
644.579	569.44
644.784	567.44
644.989	571.44
645.194	578.44
645.399	565.44
645.604	543.44
645.809	564.44
646.014	585.44
646.219	575.44
646.423	612.44
646.628	590.44
646.833	577.44
647.038	571.44
647.243	587.44
647.447	570.44
647.652	597.44
647.857	589.44
648.062	584.44
648.266	592.44
648.471	600.44
648.676	587.44
648.88	625.44
649.085	565.44
649.289	568.44
649.494	606.44
649.698	653.44
649.903	622.44
650.107	569.44
650.312	552.44
650.516	541.44
650.721	536.44
650.925	509.44
651.13	513.44
651.334	494.44
651.539	485.44
651.743	483.44
651.947	473.44
652.152	478.44
652.356	458.44
652.56	435.44
652.764	441.44
652.969	427.44
653.173	444.44
653.377	416.44
653.581	409.44
653.785	416.44
653.99	409.44
654.194	399.44
654.398	393.44
654.602	409.44
654.806	407.44
655.01	410.44
655.214	393.44
655.418	371.44
655.622	370.44
655.826	355.44
656.03	379.44
656.234	357.44
656.438	376.44
656.642	370.44
656.846	361.44
657.049	347.44
657.253	322.44
657.457	294.44
657.661	284.44
657.865	269.44
658.068	281.44
658.272	263.44
658.476	250.44
658.68	236.44
658.883	231.44
659.087	205.44
659.291	217.44
659.494	215.44
659.698	200.44
659.901	183.44
660.105	185.44
660.309	182.44
660.512	174.44
660.716	163.44
660.919	163.44
661.123	149.44
661.326	146.44
661.53	130.44
661.733	121.44
661.936	124.44
662.14	110.44
662.343	111.44
662.546	116.44
662.75	103.44
662.953	99.44
663.156	110.44
663.36	96.44
663.563	96.44
663.766	100.44
663.969	86.44
664.173	85.44
664.376	90.44
664.579	103.44
664.782	101.44
664.985	108.44
665.188	91.44
665.391	85.44
665.594	90.44
665.797	87.44
666	88.44
666.203	89.44
666.406	87.44
666.609	90.44
666.812	87.44
667.015	94.44
667.218	85.44
667.421	100.44
667.624	81.44
667.827	71.44
668.03	94.44
668.232	87.44
668.435	99.44
668.638	80.44
668.841	84.44
669.043	93.44
669.246	78.44
669.449	82.44
669.651	84.44
669.854	79.44
670.057	80.44
670.259	89.44
670.462	96.44
670.665	77.44
670.867	90.44
671.07	86.44
671.272	79.44
671.475	88.44
671.677	87.44
671.88	91.44
672.082	95.44
672.284	98.44
672.487	93.44
672.689	78.44
672.892	89.44
