Data from FlinnAP9092KCOPPER.07152019.QSWITCHSynchronous.EN10.20scans.P1_HRD10591_14-49-27-574.txt Node
Date: Mon Jul 15 14:49:27 EDT 2019
User: cochatt
Spectrometer: HR+D1059
Trigger mode: 5
Integration Time (sec): 1.000000E-1
Scans to average: 1
Electric dark correction enabled: true
Nonlinearity correction enabled: false
Boxcar width: 0
XAxis mode: Wavelengths
Number of Pixels in Spectrum: 2048
>>>>>Begin Spectral Data<<<<<
223.165	-39.88
223.4	-39.88
223.635	-39.88
223.869	-42.88
224.104	-38.88
224.338	1.12
224.573	-14.88
224.808	-16.88
225.042	3.12
225.277	0.12
225.511	-5.88
225.746	23.12
225.98	12.12
226.215	6.12
226.449	22.12
226.683	22.12
226.918	29.12
227.152	40.12
227.387	50.12
227.621	28.12
227.856	53.12
228.09	33.12
228.324	44.12
228.559	74.12
228.793	106.12
229.027	179.12
229.262	217.12
229.496	217.12
229.73	253.12
229.964	340.12
230.199	266.12
230.433	217.12
230.667	217.12
230.901	202.12
231.136	201.12
231.37	197.12
231.604	199.12
231.838	212.12
232.072	200.12
232.306	204.12
232.541	210.12
232.775	193.12
233.009	198.12
233.243	198.12
233.477	219.12
233.711	218.12
233.945	205.12
234.179	213.12
234.413	227.12
234.647	217.12
234.881	218.12
235.115	224.12
235.349	217.12
235.583	221.12
235.817	200.12
236.051	244.12
236.285	243.12
236.519	242.12
236.753	254.12
236.987	291.12
237.221	369.12
237.455	507.12
237.689	412.12
237.922	288.12
238.156	271.12
238.39	252.12
238.624	250.12
238.858	260.12
239.091	254.12
239.325	254.12
239.559	235.12
239.793	259.12
240.027	290.12
240.26	293.12
240.494	354.12
240.728	343.12
240.961	319.12
241.195	317.12
241.429	297.12
241.662	264.12
241.896	239.12
242.13	265.12
242.363	273.12
242.597	274.12
242.83	299.12
243.064	289.12
243.298	277.12
243.531	291.12
243.765	286.12
243.998	297.12
244.232	301.12
244.465	294.12
244.699	299.12
244.932	297.12
245.166	312.12
245.399	319.12
245.633	316.12
245.866	291.12
246.099	287.12
246.333	309.12
246.566	313.12
246.8	314.12
247.033	315.12
247.266	316.12
247.5	331.12
247.733	356.12
247.966	379.12
248.2	363.12
248.433	364.12
248.666	364.12
248.899	398.12
249.133	435.12
249.366	494.12
249.599	426.12
249.832	383.12
250.066	387.12
250.299	378.12
250.532	397.12
250.765	419.12
250.998	489.12
251.231	497.12
251.465	456.12
251.698	434.12
251.931	429.12
252.164	438.12
252.397	420.12
252.63	429.12
252.863	447.12
253.096	483.12
253.329	498.12
253.562	489.12
253.795	489.12
254.028	483.12
254.261	445.12
254.494	502.12
254.727	594.12
254.96	675.12
255.193	604.12
255.426	509.12
255.659	449.12
255.892	476.12
256.124	454.12
256.357	436.12
256.59	445.12
256.823	421.12
257.056	449.12
257.289	425.12
257.521	431.12
257.754	439.12
257.987	436.12
258.22	461.12
258.452	449.12
258.685	449.12
258.918	458.12
259.151	446.12
259.383	496.12
259.616	486.12
259.849	474.12
260.081	539.12
260.314	595.12
260.547	583.12
260.779	536.12
261.012	515.12
261.244	488.12
261.477	529.12
261.71	470.12
261.942	468.12
262.175	518.12
262.407	541.12
262.64	467.12
262.872	465.12
263.105	478.12
263.337	488.12
263.57	467.12
263.802	478.12
264.035	481.12
264.267	456.12
264.499	476.12
264.732	493.12
264.964	487.12
265.197	456.12
265.429	492.12
265.661	495.12
265.894	501.12
266.126	506.12
266.358	493.12
266.591	501.12
266.823	497.12
267.055	513.12
267.287	561.12
267.52	489.12
267.752	528.12
267.984	508.12
268.216	528.12
268.448	540.12
268.681	536.12
268.913	548.12
269.145	652.12
269.377	663.12
269.609	616.12
269.841	624.12
270.073	631.12
270.306	675.12
270.538	759.12
270.77	751.12
271.002	684.12
271.234	673.12
271.466	676.12
271.698	725.12
271.93	772.12
272.162	739.12
272.394	777.12
272.626	694.12
272.858	665.12
273.09	623.12
273.322	611.12
273.553	572.12
273.785	635.12
274.017	611.12
274.249	599.12
274.481	607.12
274.713	623.12
274.945	630.12
275.176	607.12
275.408	624.12
275.64	611.12
275.872	595.12
276.104	614.12
276.335	607.12
276.567	612.12
276.799	667.12
277.031	718.12
277.262	796.12
277.494	801.12
277.726	697.12
277.957	685.12
278.189	626.12
278.421	617.12
278.652	623.12
278.884	628.12
279.115	611.12
279.347	614.12
279.579	617.12
279.81	610.12
280.042	628.12
280.273	600.12
280.505	616.12
280.736	635.12
280.968	635.12
281.199	625.12
281.431	629.12
281.662	655.12
281.894	623.12
282.125	647.12
282.356	691.12
282.588	728.12
282.819	736.12
283.051	672.12
283.282	639.12
283.513	659.12
283.745	680.12
283.976	672.12
284.207	676.12
284.439	688.12
284.67	654.12
284.901	659.12
285.132	652.12
285.364	655.12
285.595	654.12
285.826	661.12
286.057	708.12
286.288	679.12
286.52	675.12
286.751	664.12
286.982	673.12
287.213	637.12
287.444	696.12
287.675	691.12
287.906	728.12
288.138	729.12
288.369	744.12
288.6	748.12
288.831	693.12
289.062	727.12
289.293	721.12
289.524	708.12
289.755	707.12
289.986	712.12
290.217	711.12
290.448	696.12
290.679	710.12
290.91	701.12
291.141	682.12
291.371	699.12
291.602	712.12
291.833	681.12
292.064	692.12
292.295	693.12
292.526	691.12
292.757	686.12
292.987	710.12
293.218	697.12
293.449	712.12
293.68	710.12
293.91	705.12
294.141	701.12
294.372	707.12
294.603	712.12
294.833	697.12
295.064	689.12
295.295	699.12
295.525	678.12
295.756	728.12
295.987	759.12
296.217	771.12
296.448	819.12
296.679	731.12
296.909	729.12
297.14	740.12
297.37	729.12
297.601	737.12
297.831	730.12
298.062	743.12
298.292	735.12
298.523	772.12
298.753	751.12
298.984	736.12
299.214	741.12
299.445	732.12
299.675	755.12
299.905	784.12
300.136	751.12
300.366	731.12
300.597	739.12
300.827	760.12
301.057	781.12
301.288	812.12
301.518	815.12
301.748	811.12
301.979	794.12
302.209	801.12
302.439	802.12
302.669	805.12
302.9	774.12
303.13	795.12
303.36	792.12
303.59	806.12
303.82	805.12
304.051	795.12
304.281	790.12
304.511	807.12
304.741	769.12
304.971	770.12
305.201	763.12
305.431	783.12
305.661	767.12
305.891	776.12
306.121	773.12
306.352	773.12
306.582	809.12
306.812	795.12
307.042	773.12
307.272	768.12
307.502	747.12
307.731	785.12
307.961	760.12
308.191	756.12
308.421	768.12
308.651	786.12
308.881	776.12
309.111	791.12
309.341	774.12
309.571	779.12
309.8	817.12
310.03	820.12
310.26	840.12
310.49	859.12
310.72	885.12
310.949	943.12
311.179	957.12
311.409	880.12
311.639	868.12
311.868	919.12
312.098	895.12
312.328	912.12
312.557	961.12
312.787	982.12
313.017	984.12
313.246	960.12
313.476	848.12
313.706	850.12
313.935	887.12
314.165	927.12
314.394	979.12
314.624	951.12
314.853	939.12
315.083	889.12
315.312	858.12
315.542	841.12
315.771	864.12
316.001	833.12
316.23	839.12
316.46	872.12
316.689	873.12
316.919	867.12
317.148	908.12
317.377	934.12
317.607	874.12
317.836	884.12
318.065	887.12
318.295	841.12
318.524	856.12
318.753	827.12
318.983	821.12
319.212	867.12
319.441	861.12
319.67	856.12
319.9	875.12
320.129	843.12
320.358	844.12
320.587	881.12
320.816	874.12
321.046	880.12
321.275	913.12
321.504	857.12
321.733	913.12
321.962	895.12
322.191	961.12
322.42	963.12
322.649	999.12
322.878	1023.12
323.108	1007.12
323.337	1071.12
323.566	1111.12
323.795	1167.12
324.024	1276.12
324.253	1483.12
324.482	2201.12
324.71	3573.12
324.939	5642.12
325.168	5004.12
325.397	2067.12
325.626	1342.12
325.855	1129.12
326.084	1103.12
326.313	1078.12
326.542	1068.12
326.77	1221.12
326.999	1425.12
327.228	2049.12
327.457	3347.12
327.686	4388.12
327.914	2629.12
328.143	1563.12
328.372	1354.12
328.6	1261.12
328.829	1197.12
329.058	1345.12
329.287	1392.12
329.515	1265.12
329.744	1129.12
329.972	1088.12
330.201	1061.12
330.43	1156.12
330.658	1233.12
330.887	1441.12
331.115	1519.12
331.344	1224.12
331.572	1141.12
331.801	1123.12
332.03	1171.12
332.258	1103.12
332.486	1078.12
332.715	1071.12
332.943	1098.12
333.172	1141.12
333.4	1149.12
333.629	1192.12
333.857	1175.12
334.085	1186.12
334.314	1160.12
334.542	1109.12
334.771	1145.12
334.999	1128.12
335.227	1111.12
335.455	1093.12
335.684	1126.12
335.912	1119.12
336.14	1082.12
336.369	1055.12
336.597	1089.12
336.825	1111.12
337.053	1097.12
337.281	1038.12
337.51	1059.12
337.738	1087.12
337.966	1027.12
338.194	1037.12
338.422	1037.12
338.65	1024.12
338.878	1005.12
339.106	984.12
339.334	997.12
339.562	983.12
339.79	1008.12
340.018	971.12
340.246	979.12
340.474	995.12
340.702	984.12
340.93	996.12
341.158	988.12
341.386	960.12
341.614	971.12
341.842	979.12
342.07	935.12
342.298	990.12
342.526	948.12
342.754	931.12
342.981	951.12
343.209	953.12
343.437	1033.12
343.665	1017.12
343.893	1057.12
344.12	1133.12
344.348	1063.12
344.576	1053.12
344.804	1022.12
345.031	1021.12
345.259	1079.12
345.487	1047.12
345.714	979.12
345.942	954.12
346.17	941.12
346.397	946.12
346.625	933.12
346.853	945.12
347.08	937.12
347.308	949.12
347.535	946.12
347.763	978.12
347.99	980.12
348.218	984.12
348.445	955.12
348.673	997.12
348.9	956.12
349.128	946.12
349.355	885.12
349.583	887.12
349.81	892.12
350.037	886.12
350.265	911.12
350.492	881.12
350.72	872.12
350.947	931.12
351.174	953.12
351.402	947.12
351.629	940.12
351.856	932.12
352.083	968.12
352.311	991.12
352.538	964.12
352.765	992.12
352.992	972.12
353.22	925.12
353.447	914.12
353.674	897.12
353.901	901.12
354.128	859.12
354.355	871.12
354.583	868.12
354.81	881.12
355.037	866.12
355.264	881.12
355.491	840.12
355.718	823.12
355.945	845.12
356.172	823.12
356.399	873.12
356.626	817.12
356.853	847.12
357.08	849.12
357.307	861.12
357.534	845.12
357.761	845.12
357.988	883.12
358.215	883.12
358.441	872.12
358.668	853.12
358.895	856.12
359.122	886.12
359.349	891.12
359.576	912.12
359.802	960.12
360.029	1067.12
360.256	1125.12
360.483	1067.12
360.709	959.12
360.936	954.12
361.163	901.12
361.39	916.12
361.616	948.12
361.843	905.12
362.07	911.12
362.296	949.12
362.523	887.12
362.749	928.12
362.976	875.12
363.203	925.12
363.429	885.12
363.656	867.12
363.882	867.12
364.109	877.12
364.335	865.12
364.562	875.12
364.788	862.12
365.015	884.12
365.241	879.12
365.468	896.12
365.694	909.12
365.92	898.12
366.147	857.12
366.373	893.12
366.599	859.12
366.826	869.12
367.052	861.12
367.278	876.12
367.505	865.12
367.731	921.12
367.957	860.12
368.184	877.12
368.41	889.12
368.636	925.12
368.862	932.12
369.089	915.12
369.315	884.12
369.541	920.12
369.767	901.12
369.993	899.12
370.219	879.12
370.445	898.12
370.672	885.12
370.898	869.12
371.124	897.12
371.35	893.12
371.576	890.12
371.802	904.12
372.028	879.12
372.254	901.12
372.48	893.12
372.706	906.12
372.932	906.12
373.158	929.12
373.384	937.12
373.61	923.12
373.835	928.12
374.061	920.12
374.287	922.12
374.513	963.12
374.739	994.12
374.965	957.12
375.191	998.12
375.416	980.12
375.642	980.12
375.868	953.12
376.094	935.12
376.319	885.12
376.545	927.12
376.771	891.12
376.997	924.12
377.222	927.12
377.448	921.12
377.674	877.12
377.899	916.12
378.125	897.12
378.35	916.12
378.576	892.12
378.802	901.12
379.027	883.12
379.253	933.12
379.478	899.12
379.704	905.12
379.929	930.12
380.155	911.12
380.38	922.12
380.606	917.12
380.831	931.12
381.057	983.12
381.282	967.12
381.507	921.12
381.733	941.12
381.958	929.12
382.184	944.12
382.409	976.12
382.634	986.12
382.86	955.12
383.085	972.12
383.31	991.12
383.535	1016.12
383.761	1011.12
383.986	1027.12
384.211	991.12
384.436	1057.12
384.662	1055.12
384.887	1110.12
385.112	1083.12
385.337	1091.12
385.562	1074.12
385.787	1107.12
386.013	1187.12
386.238	1145.12
386.463	1136.12
386.688	1093.12
386.913	1071.12
387.138	1086.12
387.363	1083.12
387.588	1093.12
387.813	1123.12
388.038	1052.12
388.263	1065.12
388.488	1090.12
388.713	1112.12
388.938	1079.12
389.163	1136.12
389.387	1082.12
389.612	1081.12
389.837	1077.12
390.062	1067.12
390.287	1063.12
390.512	1100.12
390.736	1052.12
390.961	1093.12
391.186	1122.12
391.411	1117.12
391.636	1195.12
391.86	1179.12
392.085	1195.12
392.31	1223.12
392.534	1161.12
392.759	1174.12
392.984	1185.12
393.208	1131.12
393.433	1106.12
393.658	1116.12
393.882	1115.12
394.107	1152.12
394.331	1153.12
394.556	1141.12
394.78	1162.12
395.005	1165.12
395.229	1169.12
395.454	1211.12
395.678	1211.12
395.903	1226.12
396.127	1297.12
396.352	1245.12
396.576	1183.12
396.801	1161.12
397.025	1193.12
397.249	1187.12
397.474	1236.12
397.698	1249.12
397.922	1263.12
398.147	1265.12
398.371	1337.12
398.595	1337.12
398.82	1339.12
399.044	1340.12
399.268	1491.12
399.492	1702.12
399.717	1831.12
399.941	1885.12
400.165	1835.12
400.389	1765.12
400.613	1576.12
400.837	1449.12
401.062	1445.12
401.286	1385.12
401.51	1359.12
401.734	1356.12
401.958	1434.12
402.182	1441.12
402.406	1432.12
402.63	1445.12
402.854	1449.12
403.078	1464.12
403.302	1553.12
403.526	1510.12
403.75	1515.12
403.974	1499.12
404.198	1528.12
404.422	1531.12
404.645	1517.12
404.869	1536.12
405.093	1578.12
405.317	1594.12
405.541	1651.12
405.765	1560.12
405.988	1537.12
406.212	1573.12
406.436	1629.12
406.66	1695.12
406.883	1624.12
407.107	1691.12
407.331	1815.12
407.555	2003.12
407.778	1983.12
408.002	1794.12
408.226	1692.12
408.449	1661.12
408.673	1618.12
408.896	1699.12
409.12	1766.12
409.344	1650.12
409.567	1503.12
409.791	1517.12
410.014	1495.12
410.238	1493.12
410.461	1506.12
410.685	1536.12
410.908	1508.12
411.132	1600.12
411.355	1651.12
411.578	1603.12
411.802	1463.12
412.025	1459.12
412.249	1487.12
412.472	1461.12
412.695	1435.12
412.919	1415.12
413.142	1437.12
413.365	1392.12
413.589	1421.12
413.812	1386.12
414.035	1449.12
414.258	1439.12
414.482	1388.12
414.705	1449.12
414.928	1446.12
415.151	1413.12
415.374	1438.12
415.597	1445.12
415.821	1418.12
416.044	1420.12
416.267	1434.12
416.49	1379.12
416.713	1400.12
416.936	1385.12
417.159	1415.12
417.382	1422.12
417.605	1420.12
417.828	1503.12
418.051	1510.12
418.274	1512.12
418.497	1474.12
418.72	1483.12
418.943	1473.12
419.166	1521.12
419.389	1646.12
419.611	1585.12
419.834	1542.12
420.057	1560.12
420.28	1532.12
420.503	1458.12
420.726	1452.12
420.948	1484.12
421.171	1634.12
421.394	1710.12
421.617	1607.12
421.839	1514.12
422.062	1523.12
422.285	1555.12
422.507	1724.12
422.73	1845.12
422.953	1759.12
423.175	1613.12
423.398	1591.12
423.621	1609.12
423.843	1701.12
424.066	1675.12
424.288	1677.12
424.511	1719.12
424.733	1859.12
424.956	2067.12
425.178	1927.12
425.401	1943.12
425.623	1929.12
425.846	1711.12
426.068	1575.12
426.291	1535.12
426.513	1555.12
426.735	1592.12
426.958	1679.12
427.18	1888.12
427.402	2215.12
427.625	2435.12
427.847	2039.12
428.069	1705.12
428.292	1603.12
428.514	1502.12
428.736	1433.12
428.958	1414.12
429.181	1395.12
429.403	1397.12
429.625	1439.12
429.847	1467.12
430.069	1719.12
430.292	1718.12
430.514	1481.12
430.736	1412.12
430.958	1436.12
431.18	1372.12
431.402	1367.12
431.624	1324.12
431.846	1240.12
432.068	1233.12
432.29	1252.12
432.512	1327.12
432.734	1400.12
432.956	1415.12
433.178	1477.12
433.4	1491.12
433.622	1448.12
433.844	1348.12
434.066	1332.12
434.287	1291.12
434.509	1271.12
434.731	1314.12
434.953	1428.12
435.175	1545.12
435.397	1619.12
435.618	1555.12
435.84	1639.12
436.062	1967.12
436.284	2099.12
436.505	1697.12
436.727	1593.12
436.949	1491.12
437.17	1471.12
437.392	1420.12
437.614	1433.12
437.835	1413.12
438.057	1688.12
438.278	1963.12
438.5	1975.12
438.721	2228.12
438.943	2111.12
439.165	1705.12
439.386	1635.12
439.608	1666.12
439.829	1655.12
440.05	1787.12
440.272	1954.12
440.493	1817.12
440.715	1656.12
440.936	1598.12
441.158	1576.12
441.379	1588.12
441.6	1673.12
441.822	1736.12
442.043	1837.12
442.264	2041.12
442.486	2116.12
442.707	1833.12
442.928	1771.12
443.149	1800.12
443.371	1882.12
443.592	1900.12
443.813	2178.12
444.034	2362.12
444.255	1939.12
444.476	1755.12
444.698	1809.12
444.919	1793.12
445.14	3340.12
445.361	2513.12
445.582	1967.12
445.803	2124.12
446.024	2412.12
446.245	2349.12
446.466	2164.12
446.687	1789.12
446.908	1652.12
447.129	1620.12
447.35	1577.12
447.571	1583.12
447.792	1533.12
448.013	1495.12
448.234	1557.12
448.455	1651.12
448.675	1948.12
448.896	2250.12
449.117	1876.12
449.338	1713.12
449.559	2126.12
449.779	2368.12
450	1860.12
450.221	1587.12
450.442	1471.12
450.662	1453.12
450.883	1456.12
451.104	1521.12
451.324	1471.12
451.545	1410.12
451.766	1355.12
451.986	1300.12
452.207	1305.12
452.428	1267.12
452.648	1310.12
452.869	1305.12
453.089	1300.12
453.31	1273.12
453.53	1209.12
453.751	1168.12
453.971	1195.12
454.192	1229.12
454.412	1207.12
454.633	1173.12
454.853	1200.12
455.073	1208.12
455.294	1291.12
455.514	1544.12
455.734	1463.12
455.955	1231.12
456.175	1188.12
456.395	1134.12
456.616	1106.12
456.836	1113.12
457.056	1107.12
457.276	1056.12
457.497	1085.12
457.717	1101.12
457.937	1105.12
458.157	1159.12
458.377	1113.12
458.598	1183.12
458.818	1285.12
459.038	1551.12
459.258	1575.12
459.478	1339.12
459.698	1228.12
459.918	1253.12
460.138	1255.12
460.358	1358.12
460.578	1397.12
460.798	1433.12
461.018	1447.12
461.238	1416.12
461.458	1394.12
461.678	1345.12
461.898	1371.12
462.118	1374.12
462.338	1448.12
462.558	1484.12
462.777	1505.12
462.997	1589.12
463.217	1651.12
463.437	1669.12
463.657	1543.12
463.876	1477.12
464.096	1499.12
464.316	1523.12
464.536	1559.12
464.755	1524.12
464.975	1536.12
465.195	1644.12
465.414	1802.12
465.634	1561.12
465.854	1417.12
466.073	1359.12
466.293	1297.12
466.512	1313.12
466.732	1297.12
466.951	1329.12
467.171	1347.12
467.391	1359.12
467.61	1361.12
467.829	1400.12
468.049	1347.12
468.268	1329.12
468.488	1304.12
468.707	1288.12
468.927	1290.12
469.146	1280.12
469.365	1343.12
469.585	1335.12
469.804	1420.12
470.023	1432.12
470.243	1456.12
470.462	1505.12
470.681	1520.12
470.901	1523.12
471.12	1450.12
471.339	1425.12
471.558	1424.12
471.777	1450.12
471.997	1341.12
472.216	1276.12
472.435	1189.12
472.654	1175.12
472.873	1174.12
473.092	1209.12
473.311	1248.12
473.53	1221.12
473.749	1283.12
473.968	1397.12
474.187	1682.12
474.406	1659.12
474.625	1381.12
474.844	1337.12
475.063	1281.12
475.282	1247.12
475.501	1223.12
475.72	1309.12
475.939	1269.12
476.158	1304.12
476.377	1307.12
476.596	1271.12
476.814	1263.12
477.033	1224.12
477.252	1267.12
477.471	1335.12
477.69	1422.12
477.908	1431.12
478.127	1525.12
478.346	1480.12
478.564	1506.12
478.783	1555.12
479.002	1547.12
479.22	1591.12
479.439	1599.12
479.658	1532.12
479.876	1501.12
480.095	1439.12
480.313	1653.12
480.532	1610.12
480.751	1531.12
480.969	1443.12
481.188	1426.12
481.406	1345.12
481.624	1287.12
481.843	1227.12
482.061	1289.12
482.28	1345.12
482.498	1373.12
482.717	1322.12
482.935	1397.12
483.153	1514.12
483.372	1567.12
483.59	1562.12
483.808	1487.12
484.027	1462.12
484.245	1455.12
484.463	1472.12
484.681	1610.12
484.9	1515.12
485.118	1517.12
485.336	1492.12
485.554	1444.12
485.772	1388.12
485.99	1427.12
486.209	1425.12
486.427	1413.12
486.645	1530.12
486.863	1650.12
487.081	1703.12
487.299	1639.12
487.517	1654.12
487.735	1795.12
487.953	1937.12
488.171	1916.12
488.389	1797.12
488.607	1713.12
488.825	1567.12
489.043	1567.12
489.261	1587.12
489.479	1609.12
489.696	1644.12
489.914	1669.12
490.132	1701.12
490.35	1813.12
490.568	1893.12
490.786	2027.12
491.003	2091.12
491.221	2099.12
491.439	2152.12
491.657	2240.12
491.874	2343.12
492.092	2451.12
492.31	2550.12
492.527	2421.12
492.745	2315.12
492.963	2305.12
493.18	2251.12
493.398	2219.12
493.615	2243.12
493.833	2245.12
494.05	2196.12
494.268	2150.12
494.485	2183.12
494.703	2153.12
494.92	2155.12
495.138	2160.12
495.355	2164.12
495.573	2150.12
495.79	2119.12
496.008	2137.12
496.225	2098.12
496.442	2087.12
496.66	2138.12
496.877	2067.12
497.094	2112.12
497.312	2136.12
497.529	2127.12
497.746	2086.12
497.963	1997.12
498.181	2033.12
498.398	1998.12
498.615	2080.12
498.832	2107.12
499.049	2231.12
499.267	2351.12
499.484	2444.12
499.701	2677.12
499.918	2869.12
500.135	3213.12
500.352	3335.12
500.569	3522.12
500.786	3531.12
501.003	3347.12
501.22	3133.12
501.437	2931.12
501.654	2778.12
501.871	2668.12
502.088	2477.12
502.305	2353.12
502.522	2173.12
502.739	2140.12
502.956	2047.12
503.172	1964.12
503.389	1881.12
503.606	1869.12
503.823	1870.12
504.04	1864.12
504.256	1815.12
504.473	1803.12
504.69	1839.12
504.907	1884.12
505.123	1772.12
505.34	1725.12
505.557	1740.12
505.773	1680.12
505.99	1707.12
506.207	1695.12
506.423	1659.12
506.64	1678.12
506.856	1618.12
507.073	1593.12
507.289	1592.12
507.506	1587.12
507.722	1597.12
507.939	1666.12
508.155	1573.12
508.372	1503.12
508.588	1479.12
508.805	1442.12
509.021	1482.12
509.238	1485.12
509.454	1541.12
509.67	1471.12
509.887	1385.12
510.103	1386.12
510.319	1401.12
510.536	1622.12
510.752	2614.12
510.968	1937.12
511.184	1323.12
511.401	1287.12
511.617	1305.12
511.833	1253.12
512.049	1255.12
512.265	1250.12
512.481	1277.12
512.698	1280.12
512.914	1286.12
513.13	1315.12
513.346	1227.12
513.562	1270.12
513.778	1318.12
513.994	1308.12
514.21	1325.12
514.426	1365.12
514.642	1488.12
514.858	1557.12
515.074	1616.12
515.29	1994.12
515.506	3119.12
515.721	2342.12
515.937	1603.12
516.153	1467.12
516.369	1449.12
516.585	1410.12
516.801	1407.12
517.016	1442.12
517.232	1441.12
517.448	1542.12
517.664	1585.12
517.879	1596.12
518.095	1557.12
518.311	1542.12
518.527	1545.12
518.742	1509.12
518.958	1481.12
519.173	1437.12
519.389	1448.12
519.605	1416.12
519.82	1398.12
520.036	1432.12
520.251	1508.12
520.467	1528.12
520.682	1465.12
520.898	1420.12
521.113	1469.12
521.329	1593.12
521.544	1768.12
521.76	2404.12
521.975	4267.12
522.19	3877.12
522.406	1969.12
522.621	1479.12
522.836	1391.12
523.052	1348.12
523.267	1301.12
523.482	1285.12
523.698	1267.12
523.913	1328.12
524.128	1320.12
524.343	1286.12
524.559	1299.12
524.774	1257.12
524.989	1259.12
525.204	1325.12
525.419	1251.12
525.634	1205.12
525.849	1217.12
526.064	1168.12
526.28	1133.12
526.495	1091.12
526.71	1064.12
526.925	1043.12
527.14	1019.12
527.355	1034.12
527.57	1028.12
527.785	1037.12
527.999	1036.12
528.214	1116.12
528.429	1185.12
528.644	1248.12
528.859	1300.12
529.074	1411.12
529.289	1512.12
529.503	1640.12
529.718	1524.12
529.933	1285.12
530.148	1155.12
530.363	1124.12
530.577	1049.12
530.792	1028.12
531.007	985.12
531.221	1021.12
531.436	1011.12
531.651	1037.12
531.865	1023.12
532.08	999.12
532.295	1051.12
532.509	1027.12
532.724	1055.12
532.938	1028.12
533.153	1060.12
533.367	1124.12
533.582	1235.12
533.796	1157.12
534.011	1085.12
534.225	1047.12
534.44	1013.12
534.654	1054.12
534.868	1071.12
535.083	1098.12
535.297	1077.12
535.511	1124.12
535.726	1123.12
535.94	1119.12
536.154	1058.12
536.369	1000.12
536.583	970.12
536.797	996.12
537.011	966.12
537.225	968.12
537.44	976.12
537.654	1022.12
537.868	1001.12
538.082	1014.12
538.296	1058.12
538.51	1084.12
538.724	1135.12
538.938	1206.12
539.153	1246.12
539.367	1250.12
539.581	1196.12
539.795	1078.12
540.009	1051.12
540.222	1071.12
540.436	1164.12
540.65	1207.12
540.864	1313.12
541.078	1432.12
541.292	1531.12
541.506	1563.12
541.72	1720.12
541.934	1847.12
542.147	1946.12
542.361	1841.12
542.575	1690.12
542.789	1621.12
543.002	1499.12
543.216	1413.12
543.43	1444.12
543.644	1486.12
543.857	1617.12
544.071	1736.12
544.285	1758.12
544.498	1729.12
544.712	1735.12
544.925	1769.12
545.139	1744.12
545.352	1765.12
545.566	1743.12
545.779	1759.12
545.993	1800.12
546.206	2025.12
546.42	2056.12
546.633	1771.12
546.847	1723.12
547.06	1665.12
547.274	1685.12
547.487	1786.12
547.7	1735.12
547.914	1697.12
548.127	1637.12
548.34	1659.12
548.554	1623.12
548.767	1639.12
548.98	1652.12
549.193	1650.12
549.407	1612.12
549.62	1675.12
549.833	1637.12
550.046	1589.12
550.259	1588.12
550.473	1617.12
550.686	1566.12
550.899	1571.12
551.112	1506.12
551.325	1447.12
551.538	1407.12
551.751	1256.12
551.964	1243.12
552.177	1346.12
552.39	1429.12
552.603	1522.12
552.816	1611.12
553.029	1655.12
553.242	1665.12
553.455	1728.12
553.667	1744.12
553.88	1682.12
554.093	1671.12
554.306	1669.12
554.519	1567.12
554.732	1547.12
554.944	1523.12
555.157	1457.12
555.37	1425.12
555.583	1414.12
555.795	1407.12
556.008	1343.12
556.221	1295.12
556.433	1299.12
556.646	1292.12
556.859	1275.12
557.071	1338.12
557.284	1339.12
557.496	1346.12
557.709	1335.12
557.921	1355.12
558.134	1359.12
558.346	1318.12
558.559	1288.12
558.771	1258.12
558.984	1223.12
559.196	1261.12
559.409	1216.12
559.621	1227.12
559.833	1151.12
560.046	1197.12
560.258	1213.12
560.47	1224.12
560.683	1211.12
560.895	1226.12
561.107	1215.12
561.32	1198.12
561.532	1193.12
561.744	1251.12
561.956	1243.12
562.168	1248.12
562.381	1232.12
562.593	1206.12
562.805	1202.12
563.017	1199.12
563.229	1199.12
563.441	1147.12
563.653	1148.12
563.865	1134.12
564.077	1159.12
564.289	1165.12
564.501	1180.12
564.713	1171.12
564.925	1181.12
565.137	1206.12
565.349	1212.12
565.561	1221.12
565.773	1250.12
565.985	1279.12
566.197	1311.12
566.408	1355.12
566.62	1435.12
566.832	1501.12
567.044	1537.12
567.255	1479.12
567.467	1517.12
567.679	1513.12
567.891	1505.12
568.102	1543.12
568.314	1434.12
568.526	1315.12
568.737	1196.12
568.949	1071.12
569.161	1025.12
569.372	931.12
569.584	932.12
569.795	871.12
570.007	863.12
570.218	937.12
570.43	935.12
570.641	889.12
570.853	937.12
571.064	977.12
571.276	982.12
571.487	965.12
571.698	963.12
571.91	948.12
572.121	893.12
572.333	875.12
572.544	853.12
572.755	813.12
572.966	741.12
573.178	725.12
573.389	725.12
573.6	689.12
573.811	688.12
574.023	693.12
574.234	715.12
574.445	745.12
574.656	756.12
574.867	753.12
575.078	784.12
575.289	781.12
575.501	790.12
575.712	720.12
575.923	746.12
576.134	748.12
576.345	742.12
576.556	805.12
576.767	810.12
576.978	802.12
577.188	869.12
577.399	788.12
577.61	729.12
577.821	705.12
578.032	727.12
578.243	795.12
578.454	1211.12
578.665	882.12
578.875	677.12
579.086	680.12
579.297	723.12
579.508	668.12
579.718	667.12
579.929	678.12
580.14	646.12
580.35	644.12
580.561	713.12
580.772	677.12
580.982	680.12
581.193	671.12
581.403	705.12
581.614	705.12
581.825	689.12
582.035	659.12
582.246	709.12
582.456	700.12
582.667	691.12
582.877	708.12
583.087	678.12
583.298	703.12
583.508	693.12
583.719	678.12
583.929	709.12
584.139	659.12
584.35	659.12
584.56	690.12
584.77	662.12
584.981	667.12
585.191	669.12
585.401	651.12
585.611	659.12
585.821	672.12
586.032	640.12
586.242	639.12
586.452	631.12
586.662	633.12
586.872	624.12
587.082	627.12
587.292	657.12
587.502	675.12
587.713	687.12
587.923	669.12
588.133	667.12
588.343	639.12
588.553	619.12
588.762	660.12
588.972	651.12
589.182	618.12
589.392	621.12
589.602	631.12
589.812	610.12
590.022	666.12
590.232	623.12
590.441	616.12
590.651	628.12
590.861	644.12
591.071	647.12
591.281	665.12
591.49	625.12
591.7	649.12
591.91	689.12
592.119	652.12
592.329	708.12
592.539	735.12
592.748	757.12
592.958	730.12
593.167	776.12
593.377	776.12
593.587	844.12
593.796	777.12
594.006	739.12
594.215	747.12
594.424	770.12
594.634	778.12
594.843	775.12
595.053	775.12
595.262	741.12
595.472	716.12
595.681	683.12
595.89	659.12
596.1	643.12
596.309	662.12
596.518	711.12
596.727	694.12
596.937	691.12
597.146	674.12
597.355	657.12
597.564	634.12
597.774	628.12
597.983	609.12
598.192	569.12
598.401	571.12
598.61	564.12
598.819	636.12
599.028	609.12
599.237	618.12
599.446	622.12
599.655	627.12
599.864	626.12
600.073	613.12
600.282	648.12
600.491	613.12
600.7	628.12
600.909	597.12
601.118	667.12
601.327	737.12
601.536	755.12
601.745	796.12
601.953	819.12
602.162	842.12
602.371	793.12
602.58	828.12
602.789	800.12
602.997	798.12
603.206	838.12
603.415	780.12
603.623	811.12
603.832	811.12
604.041	794.12
604.249	713.12
604.458	673.12
604.666	632.12
604.875	676.12
605.084	698.12
605.292	764.12
605.501	780.12
605.709	850.12
605.918	881.12
606.126	919.12
606.334	903.12
606.543	890.12
606.751	891.12
606.96	896.12
607.168	887.12
607.376	840.12
607.585	895.12
607.793	864.12
608.001	883.12
608.21	909.12
608.418	932.12
608.626	925.12
608.834	930.12
609.043	935.12
609.251	915.12
609.459	906.12
609.667	936.12
609.875	950.12
610.083	993.12
610.291	981.12
610.499	980.12
610.707	1026.12
610.916	1088.12
611.124	1171.12
611.332	1303.12
611.54	1436.12
611.748	1370.12
611.955	1228.12
612.163	1115.12
612.371	1083.12
612.579	1013.12
612.787	1003.12
612.995	1016.12
613.203	1027.12
613.411	992.12
613.618	985.12
613.826	943.12
614.034	965.12
614.242	1005.12
614.449	972.12
614.657	973.12
614.865	947.12
615.072	995.12
615.28	962.12
615.488	959.12
615.695	989.12
615.903	933.12
616.111	917.12
616.318	964.12
616.526	958.12
616.733	975.12
616.941	950.12
617.148	953.12
617.356	916.12
617.563	923.12
617.771	883.12
617.978	874.12
618.185	889.12
618.393	899.12
618.6	947.12
618.807	921.12
619.015	925.12
619.222	899.12
619.429	884.12
619.637	810.12
619.844	726.12
620.051	774.12
620.258	843.12
620.466	874.12
620.673	847.12
620.88	825.12
621.087	829.12
621.294	823.12
621.501	760.12
621.708	777.12
621.915	821.12
622.122	844.12
622.329	869.12
622.536	840.12
622.743	839.12
622.95	840.12
623.157	826.12
623.364	861.12
623.571	859.12
623.778	846.12
623.985	869.12
624.192	842.12
624.399	836.12
624.606	835.12
624.812	798.12
625.019	773.12
625.226	755.12
625.433	742.12
625.639	680.12
625.846	642.12
626.053	577.12
626.259	545.12
626.466	574.12
626.673	523.12
626.879	544.12
627.086	623.12
627.293	654.12
627.499	715.12
627.706	737.12
627.912	769.12
628.119	761.12
628.325	778.12
628.532	730.12
628.738	716.12
628.945	735.12
629.151	719.12
629.357	706.12
629.564	703.12
629.77	683.12
629.976	669.12
630.183	631.12
630.389	645.12
630.595	697.12
630.802	733.12
631.008	724.12
631.214	739.12
631.42	719.12
631.627	685.12
631.833	630.12
632.039	651.12
632.245	644.12
632.451	675.12
632.657	652.12
632.863	631.12
633.069	628.12
633.275	641.12
633.481	607.12
633.688	615.12
633.893	620.12
634.099	607.12
634.305	578.12
634.511	587.12
634.717	540.12
634.923	541.12
635.129	522.12
635.335	522.12
635.541	528.12
635.747	571.12
635.952	556.12
636.158	614.12
636.364	630.12
636.57	627.12
636.775	621.12
636.981	634.12
637.187	653.12
637.392	639.12
637.598	637.12
637.804	613.12
638.009	615.12
638.215	603.12
638.421	599.12
638.626	624.12
638.832	625.12
639.037	573.12
639.243	556.12
639.448	580.12
639.654	619.12
639.859	574.12
640.065	576.12
640.27	655.12
640.475	568.12
640.681	531.12
640.886	581.12
641.091	599.12
641.297	652.12
641.502	613.12
641.707	590.12
641.913	593.12
642.118	584.12
642.323	580.12
642.528	600.12
642.733	604.12
642.939	592.12
643.144	601.12
643.349	586.12
643.554	582.12
643.759	593.12
643.964	573.12
644.169	592.12
644.374	561.12
644.579	581.12
644.784	567.12
644.989	588.12
645.194	562.12
645.399	577.12
645.604	553.12
645.809	579.12
646.014	567.12
646.219	571.12
646.423	573.12
646.628	594.12
646.833	573.12
647.038	565.12
647.243	591.12
647.447	578.12
647.652	586.12
647.857	579.12
648.062	581.12
648.266	582.12
648.471	607.12
648.676	590.12
648.88	601.12
649.085	575.12
649.289	570.12
649.494	592.12
649.698	636.12
649.903	621.12
650.107	562.12
650.312	531.12
650.516	533.12
650.721	549.12
650.925	536.12
651.13	502.12
651.334	480.12
651.539	503.12
651.743	495.12
651.947	506.12
652.152	513.12
652.356	488.12
652.56	467.12
652.764	443.12
652.969	426.12
653.173	428.12
653.377	429.12
653.581	432.12
653.785	428.12
653.99	420.12
654.194	412.12
654.398	376.12
654.602	400.12
654.806	390.12
655.01	413.12
655.214	386.12
655.418	380.12
655.622	358.12
655.826	368.12
656.03	375.12
656.234	375.12
656.438	364.12
656.642	379.12
656.846	365.12
657.049	347.12
657.253	337.12
657.457	303.12
657.661	313.12
657.865	307.12
658.068	254.12
658.272	257.12
658.476	268.12
658.68	249.12
658.883	226.12
659.087	236.12
659.291	223.12
659.494	213.12
659.698	203.12
659.901	191.12
660.105	215.12
660.309	191.12
660.512	167.12
660.716	188.12
660.919	188.12
661.123	191.12
661.326	155.12
661.53	159.12
661.733	163.12
661.936	172.12
662.14	140.12
662.343	162.12
662.546	154.12
662.75	152.12
662.953	159.12
663.156	119.12
663.36	124.12
663.563	131.12
663.766	114.12
663.969	133.12
664.173	109.12
664.376	114.12
664.579	118.12
664.782	110.12
664.985	115.12
665.188	107.12
665.391	120.12
665.594	114.12
665.797	119.12
666	106.12
666.203	76.12
666.406	91.12
666.609	115.12
666.812	130.12
667.015	108.12
667.218	124.12
667.421	102.12
667.624	97.12
667.827	128.12
668.03	99.12
668.232	108.12
668.435	113.12
668.638	122.12
668.841	145.12
669.043	111.12
669.246	102.12
669.449	97.12
669.651	119.12
669.854	118.12
670.057	106.12
670.259	121.12
670.462	127.12
670.665	121.12
670.867	137.12
671.07	119.12
671.272	127.12
671.475	160.12
671.677	117.12
671.88	128.12
672.082	112.12
672.284	125.12
672.487	126.12
672.689	113.12
672.892	92.12
