Data from FlinnAP5935BZINC.07152019.LAMPEdge.EN7.5scans.P1_HRD10591_15-01-03-579.txt Node
Date: Mon Jul 15 15:01:03 EDT 2019
User: cochatt
Spectrometer: HR+D1059
Trigger mode: 1
Integration Time (sec): 1.000000E-1
Scans to average: 1
Electric dark correction enabled: true
Nonlinearity correction enabled: false
Boxcar width: 0
XAxis mode: Wavelengths
Number of Pixels in Spectrum: 2048
>>>>>Begin Spectral Data<<<<<
223.165	-9.31
223.4	-9.31
223.635	-9.31
223.869	-19.31
224.104	-18.31
224.338	-10.31
224.573	-3.31
224.808	-10.31
225.042	-10.31
225.277	-0.31
225.511	-4.31
225.746	0.69
225.98	9.69
226.215	3.69
226.449	0.69
226.683	15.69
226.918	22.69
227.152	32.69
227.387	33.69
227.621	46.69
227.856	34.69
228.09	44.69
228.324	44.69
228.559	47.69
228.793	76.69
229.027	118.69
229.262	136.69
229.496	133.69
229.73	144.69
229.964	125.69
230.199	138.69
230.433	140.69
230.667	149.69
230.901	145.69
231.136	141.69
231.37	157.69
231.604	149.69
231.838	157.69
232.072	164.69
232.306	160.69
232.541	178.69
232.775	167.69
233.009	163.69
233.243	192.69
233.477	172.69
233.711	170.69
233.945	175.69
234.179	162.69
234.413	166.69
234.647	174.69
234.881	173.69
235.115	169.69
235.349	172.69
235.583	179.69
235.817	164.69
236.051	185.69
236.285	167.69
236.519	165.69
236.753	199.69
236.987	182.69
237.221	180.69
237.455	188.69
237.689	176.69
237.922	189.69
238.156	191.69
238.39	204.69
238.624	186.69
238.858	194.69
239.091	195.69
239.325	210.69
239.559	193.69
239.793	217.69
240.027	197.69
240.26	208.69
240.494	206.69
240.728	223.69
240.961	223.69
241.195	222.69
241.429	225.69
241.662	226.69
241.896	233.69
242.13	235.69
242.363	233.69
242.597	235.69
242.83	249.69
243.064	245.69
243.298	244.69
243.531	250.69
243.765	245.69
243.998	265.69
244.232	255.69
244.465	250.69
244.699	256.69
244.932	277.69
245.166	254.69
245.399	273.69
245.633	272.69
245.866	280.69
246.099	281.69
246.333	270.69
246.566	264.69
246.8	275.69
247.033	323.69
247.266	285.69
247.5	310.69
247.733	304.69
247.966	304.69
248.2	293.69
248.433	311.69
248.666	328.69
248.899	321.69
249.133	317.69
249.366	353.69
249.599	358.69
249.832	369.69
250.066	406.69
250.299	462.69
250.532	639.69
250.765	718.69
250.998	602.69
251.231	530.69
251.465	470.69
251.698	428.69
251.931	404.69
252.164	409.69
252.397	412.69
252.63	388.69
252.863	405.69
253.096	403.69
253.329	414.69
253.562	403.69
253.795	396.69
254.028	398.69
254.261	414.69
254.494	405.69
254.727	415.69
254.96	449.69
255.193	452.69
255.426	498.69
255.659	612.69
255.892	780.69
256.124	1080.69
256.357	1212.69
256.59	954.69
256.823	773.69
257.056	653.69
257.289	596.69
257.521	561.69
257.754	533.69
257.987	487.69
258.22	494.69
258.452	486.69
258.685	481.69
258.918	477.69
259.151	493.69
259.383	464.69
259.616	467.69
259.849	461.69
260.081	463.69
260.314	473.69
260.547	472.69
260.779	476.69
261.012	469.69
261.244	485.69
261.477	474.69
261.71	450.69
261.942	457.69
262.175	452.69
262.407	446.69
262.64	448.69
262.872	453.69
263.105	460.69
263.337	459.69
263.57	458.69
263.802	484.69
264.035	459.69
264.267	471.69
264.499	444.69
264.732	477.69
264.964	475.69
265.197	484.69
265.429	470.69
265.661	484.69
265.894	476.69
266.126	493.69
266.358	489.69
266.591	491.69
266.823	495.69
267.055	485.69
267.287	497.69
267.52	506.69
267.752	495.69
267.984	510.69
268.216	477.69
268.448	501.69
268.681	515.69
268.913	508.69
269.145	494.69
269.377	494.69
269.609	522.69
269.841	509.69
270.073	530.69
270.306	530.69
270.538	517.69
270.77	511.69
271.002	542.69
271.234	533.69
271.466	545.69
271.698	520.69
271.93	528.69
272.162	540.69
272.394	556.69
272.626	544.69
272.858	564.69
273.09	576.69
273.322	579.69
273.553	576.69
273.785	569.69
274.017	582.69
274.249	590.69
274.481	618.69
274.713	592.69
274.945	628.69
275.176	623.69
275.408	660.69
275.64	677.69
275.872	693.69
276.104	678.69
276.335	707.69
276.567	683.69
276.799	707.69
277.031	783.69
277.262	797.69
277.494	858.69
277.726	782.69
277.957	766.69
278.189	737.69
278.421	734.69
278.652	688.69
278.884	710.69
279.115	719.69
279.347	738.69
279.579	741.69
279.81	793.69
280.042	835.69
280.273	973.69
280.505	948.69
280.736	851.69
280.968	790.69
281.199	739.69
281.431	744.69
281.662	733.69
281.894	738.69
282.125	700.69
282.356	699.69
282.588	714.69
282.819	672.69
283.051	688.69
283.282	723.69
283.513	679.69
283.745	700.69
283.976	709.69
284.207	700.69
284.439	675.69
284.67	718.69
284.901	707.69
285.132	724.69
285.364	693.69
285.595	715.69
285.826	707.69
286.057	702.69
286.288	704.69
286.52	716.69
286.751	713.69
286.982	742.69
287.213	726.69
287.444	702.69
287.675	730.69
287.906	731.69
288.138	729.69
288.369	709.69
288.6	718.69
288.831	712.69
289.062	741.69
289.293	732.69
289.524	733.69
289.755	711.69
289.986	733.69
290.217	723.69
290.448	719.69
290.679	741.69
290.91	712.69
291.141	735.69
291.371	736.69
291.602	749.69
291.833	709.69
292.064	736.69
292.295	738.69
292.526	715.69
292.757	729.69
292.987	727.69
293.218	714.69
293.449	731.69
293.68	740.69
293.91	748.69
294.141	732.69
294.372	723.69
294.603	730.69
294.833	754.69
295.064	718.69
295.295	732.69
295.525	744.69
295.756	729.69
295.987	724.69
296.217	746.69
296.448	744.69
296.679	744.69
296.909	757.69
297.14	740.69
297.37	765.69
297.601	771.69
297.831	767.69
298.062	751.69
298.292	780.69
298.523	797.69
298.753	754.69
298.984	779.69
299.214	759.69
299.445	772.69
299.675	773.69
299.905	770.69
300.136	773.69
300.366	756.69
300.597	779.69
300.827	824.69
301.057	815.69
301.288	801.69
301.518	786.69
301.748	841.69
301.979	844.69
302.209	849.69
302.439	840.69
302.669	842.69
302.9	840.69
303.13	827.69
303.36	824.69
303.59	866.69
303.82	881.69
304.051	918.69
304.281	893.69
304.511	832.69
304.741	846.69
304.971	820.69
305.201	816.69
305.431	820.69
305.661	826.69
305.891	814.69
306.121	829.69
306.352	821.69
306.582	842.69
306.812	846.69
307.042	863.69
307.272	928.69
307.502	960.69
307.731	1024.69
307.961	974.69
308.191	875.69
308.421	814.69
308.651	851.69
308.881	843.69
309.111	850.69
309.341	843.69
309.571	836.69
309.8	834.69
310.03	866.69
310.26	821.69
310.49	868.69
310.72	866.69
310.949	849.69
311.179	866.69
311.409	863.69
311.639	854.69
311.868	876.69
312.098	874.69
312.328	864.69
312.557	850.69
312.787	849.69
313.017	874.69
313.246	898.69
313.476	901.69
313.706	917.69
313.935	906.69
314.165	900.69
314.394	876.69
314.624	881.69
314.853	879.69
315.083	886.69
315.312	899.69
315.542	882.69
315.771	887.69
316.001	905.69
316.23	894.69
316.46	886.69
316.689	902.69
316.919	880.69
317.148	914.69
317.377	886.69
317.607	890.69
317.836	909.69
318.065	909.69
318.295	908.69
318.524	912.69
318.753	880.69
318.983	921.69
319.212	882.69
319.441	917.69
319.67	909.69
319.9	900.69
320.129	899.69
320.358	941.69
320.587	935.69
320.816	917.69
321.046	942.69
321.275	956.69
321.504	952.69
321.733	974.69
321.962	975.69
322.191	968.69
322.42	968.69
322.649	984.69
322.878	996.69
323.108	998.69
323.337	1038.69
323.566	1027.69
323.795	1050.69
324.024	1067.69
324.253	1076.69
324.482	1078.69
324.71	1061.69
324.939	1082.69
325.168	1100.69
325.397	1136.69
325.626	1152.69
325.855	1171.69
326.084	1200.69
326.313	1212.69
326.542	1243.69
326.77	1285.69
326.999	1281.69
327.228	1332.69
327.457	1473.69
327.686	1638.69
327.914	1941.69
328.143	2466.69
328.372	2993.69
328.6	2730.69
328.829	1991.69
329.058	1795.69
329.287	1836.69
329.515	1993.69
329.744	2377.69
329.972	3217.69
330.201	4444.69
330.43	5324.69
330.658	4375.69
330.887	2669.69
331.115	2029.69
331.344	1820.69
331.572	1635.69
331.801	1613.69
332.03	1669.69
332.258	1632.69
332.486	1694.69
332.715	1740.69
332.943	1790.69
333.172	1957.69
333.4	2073.69
333.629	2344.69
333.857	2830.69
334.085	3628.69
334.314	4972.69
334.542	6714.69
334.771	7150.69
334.999	4600.69
335.227	2941.69
335.455	2310.69
335.684	2009.69
335.912	1793.69
336.14	1641.69
336.369	1541.69
336.597	1498.69
336.825	1423.69
337.053	1418.69
337.281	1343.69
337.51	1304.69
337.738	1288.69
337.966	1234.69
338.194	1229.69
338.422	1199.69
338.65	1169.69
338.878	1177.69
339.106	1156.69
339.334	1134.69
339.562	1127.69
339.79	1086.69
340.018	1071.69
340.246	1071.69
340.474	1094.69
340.702	1080.69
340.93	1092.69
341.158	1054.69
341.386	1069.69
341.614	1065.69
341.842	1032.69
342.07	1055.69
342.298	1055.69
342.526	1018.69
342.754	1019.69
342.981	1030.69
343.209	1062.69
343.437	1053.69
343.665	1145.69
343.893	1153.69
344.12	1216.69
344.348	1166.69
344.576	1112.69
344.804	1092.69
345.031	1030.69
345.259	1026.69
345.487	1011.69
345.714	1000.69
345.942	961.69
346.17	968.69
346.397	982.69
346.625	981.69
346.853	945.69
347.08	954.69
347.308	969.69
347.535	970.69
347.763	979.69
347.99	961.69
348.218	956.69
348.445	949.69
348.673	941.69
348.9	944.69
349.128	944.69
349.355	934.69
349.583	946.69
349.81	945.69
350.037	963.69
350.265	916.69
350.492	960.69
350.72	940.69
350.947	914.69
351.174	933.69
351.402	928.69
351.629	932.69
351.856	936.69
352.083	936.69
352.311	920.69
352.538	916.69
352.765	916.69
352.992	921.69
353.22	910.69
353.447	891.69
353.674	906.69
353.901	915.69
354.128	923.69
354.355	944.69
354.583	951.69
354.81	921.69
355.037	909.69
355.264	924.69
355.491	937.69
355.718	932.69
355.945	912.69
356.172	902.69
356.399	932.69
356.626	883.69
356.853	916.69
357.08	940.69
357.307	961.69
357.534	920.69
357.761	930.69
357.988	910.69
358.215	882.69
358.441	899.69
358.668	876.69
358.895	906.69
359.122	932.69
359.349	898.69
359.576	894.69
359.802	912.69
360.029	903.69
360.256	927.69
360.483	900.69
360.709	937.69
360.936	890.69
361.163	885.69
361.39	894.69
361.616	894.69
361.843	917.69
362.07	928.69
362.296	901.69
362.523	905.69
362.749	900.69
362.976	924.69
363.203	898.69
363.429	919.69
363.656	892.69
363.882	906.69
364.109	900.69
364.335	901.69
364.562	886.69
364.788	910.69
365.015	899.69
365.241	910.69
365.468	883.69
365.694	874.69
365.92	904.69
366.147	876.69
366.373	884.69
366.599	913.69
366.826	910.69
367.052	890.69
367.278	894.69
367.505	883.69
367.731	888.69
367.957	891.69
368.184	888.69
368.41	926.69
368.636	925.69
368.862	916.69
369.089	902.69
369.315	919.69
369.541	911.69
369.767	941.69
369.993	900.69
370.219	912.69
370.445	913.69
370.672	938.69
370.898	902.69
371.124	951.69
371.35	950.69
371.576	924.69
371.802	939.69
372.028	947.69
372.254	975.69
372.48	981.69
372.706	954.69
372.932	975.69
373.158	946.69
373.384	986.69
373.61	934.69
373.835	932.69
374.061	961.69
374.287	962.69
374.513	968.69
374.739	992.69
374.965	1018.69
375.191	1038.69
375.416	1020.69
375.642	990.69
375.868	993.69
376.094	968.69
376.319	988.69
376.545	960.69
376.771	956.69
376.997	934.69
377.222	973.69
377.448	932.69
377.674	941.69
377.899	944.69
378.125	950.69
378.35	922.69
378.576	922.69
378.802	924.69
379.027	934.69
379.253	959.69
379.478	935.69
379.704	933.69
379.929	963.69
380.155	945.69
380.38	909.69
380.606	911.69
380.831	917.69
381.057	917.69
381.282	941.69
381.507	938.69
381.733	972.69
381.958	956.69
382.184	941.69
382.409	981.69
382.634	970.69
382.86	959.69
383.085	992.69
383.31	1007.69
383.535	1019.69
383.761	1011.69
383.986	1036.69
384.211	1047.69
384.436	1063.69
384.662	1090.69
384.887	1098.69
385.112	1112.69
385.337	1054.69
385.562	1104.69
385.787	1095.69
386.013	1116.69
386.238	1113.69
386.463	1093.69
386.688	1120.69
386.913	1076.69
387.138	1089.69
387.363	1087.69
387.588	1107.69
387.813	1109.69
388.038	1071.69
388.263	1086.69
388.488	1095.69
388.713	1068.69
388.938	1074.69
389.163	1093.69
389.387	1094.69
389.612	1075.69
389.837	1060.69
390.062	1084.69
390.287	1098.69
390.512	1070.69
390.736	1075.69
390.961	1081.69
391.186	1100.69
391.411	1160.69
391.636	1136.69
391.86	1151.69
392.085	1220.69
392.31	1184.69
392.534	1156.69
392.759	1155.69
392.984	1096.69
393.208	1136.69
393.433	1110.69
393.658	1109.69
393.882	1121.69
394.107	1138.69
394.331	1159.69
394.556	1165.69
394.78	1176.69
395.005	1154.69
395.229	1150.69
395.454	1174.69
395.678	1184.69
395.903	1182.69
396.127	1185.69
396.352	1136.69
396.576	1132.69
396.801	1164.69
397.025	1163.69
397.249	1174.69
397.474	1185.69
397.698	1200.69
397.922	1236.69
398.147	1208.69
398.371	1254.69
398.595	1260.69
398.82	1337.69
399.044	1366.69
399.268	1537.69
399.492	1724.69
399.717	1870.69
399.941	1849.69
400.165	1734.69
400.389	1586.69
400.613	1514.69
400.837	1373.69
401.062	1390.69
401.286	1365.69
401.51	1333.69
401.734	1342.69
401.958	1366.69
402.182	1333.69
402.406	1368.69
402.63	1397.69
402.854	1439.69
403.078	1438.69
403.302	1467.69
403.526	1509.69
403.75	1503.69
403.974	1541.69
404.198	1548.69
404.422	1580.69
404.645	1621.69
404.869	1690.69
405.093	1772.69
405.317	1881.69
405.541	1913.69
405.765	1757.69
405.988	1668.69
406.212	1573.69
406.436	1524.69
406.66	1544.69
406.883	1535.69
407.107	1635.69
407.331	1666.69
407.555	1682.69
407.778	1643.69
408.002	1628.69
408.226	1580.69
408.449	1573.69
408.673	1548.69
408.896	1472.69
409.12	1470.69
409.344	1492.69
409.567	1452.69
409.791	1469.69
410.014	1476.69
410.238	1456.69
410.461	1477.69
410.685	1436.69
410.908	1424.69
411.132	1445.69
411.355	1394.69
411.578	1456.69
411.802	1492.69
412.025	1491.69
412.249	1599.69
412.472	1704.69
412.695	1870.69
412.919	1847.69
413.142	1717.69
413.365	1622.69
413.589	1566.69
413.812	1510.69
414.035	1456.69
414.258	1448.69
414.482	1473.69
414.705	1461.69
414.928	1426.69
415.151	1394.69
415.374	1374.69
415.597	1363.69
415.821	1385.69
416.044	1343.69
416.267	1358.69
416.49	1334.69
416.713	1341.69
416.936	1381.69
417.159	1326.69
417.382	1393.69
417.605	1461.69
417.828	1480.69
418.051	1406.69
418.274	1408.69
418.497	1366.69
418.72	1367.69
418.943	1387.69
419.166	1447.69
419.389	1557.69
419.611	1553.69
419.834	1529.69
420.057	1596.69
420.28	1670.69
420.503	1708.69
420.726	1628.69
420.948	1532.69
421.171	1513.69
421.394	1513.69
421.617	1405.69
421.839	1404.69
422.062	1437.69
422.285	1338.69
422.507	1379.69
422.73	1390.69
422.953	1390.69
423.175	1393.69
423.398	1394.69
423.621	1385.69
423.843	1412.69
424.066	1392.69
424.288	1386.69
424.511	1352.69
424.733	1340.69
424.956	1389.69
425.178	1321.69
425.401	1337.69
425.623	1321.69
425.846	1279.69
426.068	1276.69
426.291	1324.69
426.513	1288.69
426.735	1320.69
426.958	1320.69
427.18	1280.69
427.402	1363.69
427.625	1488.69
427.847	1624.69
428.069	1773.69
428.292	1670.69
428.514	1426.69
428.736	1332.69
428.958	1323.69
429.181	1243.69
429.403	1228.69
429.625	1220.69
429.847	1172.69
430.069	1184.69
430.292	1167.69
430.514	1140.69
430.736	1199.69
430.958	1177.69
431.18	1172.69
431.402	1165.69
431.624	1157.69
431.846	1167.69
432.068	1200.69
432.29	1210.69
432.512	1139.69
432.734	1155.69
432.956	1185.69
433.178	1162.69
433.4	1178.69
433.622	1189.69
433.844	1218.69
434.066	1146.69
434.287	1180.69
434.509	1206.69
434.731	1248.69
434.953	1275.69
435.175	1294.69
435.397	1261.69
435.618	1240.69
435.84	1184.69
436.062	1177.69
436.284	1184.69
436.505	1149.69
436.727	1165.69
436.949	1161.69
437.17	1149.69
437.392	1121.69
437.614	1125.69
437.835	1121.69
438.057	1129.69
438.278	1082.69
438.5	1081.69
438.721	1137.69
438.943	1131.69
439.165	1085.69
439.386	1117.69
439.608	1131.69
439.829	1131.69
440.05	1130.69
440.272	1156.69
440.493	1182.69
440.715	1192.69
440.936	1172.69
441.158	1203.69
441.379	1191.69
441.6	1264.69
441.822	1277.69
442.043	1289.69
442.264	1248.69
442.486	1226.69
442.707	1238.69
442.928	1229.69
443.149	1230.69
443.371	1203.69
443.592	1250.69
443.813	1286.69
444.034	1263.69
444.255	1313.69
444.476	1382.69
444.698	1418.69
444.919	1447.69
445.14	1562.69
445.361	1412.69
445.582	1285.69
445.803	1232.69
446.024	1203.69
446.245	1226.69
446.466	1210.69
446.687	1152.69
446.908	1155.69
447.129	1131.69
447.35	1106.69
447.571	1120.69
447.792	1070.69
448.013	1085.69
448.234	1054.69
448.455	1068.69
448.675	1027.69
448.896	1070.69
449.117	1018.69
449.338	1035.69
449.559	1044.69
449.779	1040.69
450	1043.69
450.221	1051.69
450.442	1023.69
450.662	1027.69
450.883	1025.69
451.104	1061.69
451.324	1059.69
451.545	1042.69
451.766	1045.69
451.986	1040.69
452.207	1032.69
452.428	1029.69
452.648	1014.69
452.869	990.69
453.089	1010.69
453.31	1042.69
453.53	956.69
453.751	1001.69
453.971	1008.69
454.192	1024.69
454.412	979.69
454.633	964.69
454.853	986.69
455.073	1014.69
455.294	988.69
455.514	1005.69
455.734	995.69
455.955	981.69
456.175	974.69
456.395	992.69
456.616	990.69
456.836	987.69
457.056	1002.69
457.276	957.69
457.497	1001.69
457.717	981.69
457.937	1026.69
458.157	1015.69
458.377	1015.69
458.598	1032.69
458.818	1076.69
459.038	1062.69
459.258	1109.69
459.478	1118.69
459.698	1154.69
459.918	1210.69
460.138	1202.69
460.358	1241.69
460.578	1306.69
460.798	1345.69
461.018	1308.69
461.238	1296.69
461.458	1283.69
461.678	1308.69
461.898	1303.69
462.118	1325.69
462.338	1375.69
462.558	1416.69
462.777	1500.69
462.997	1543.69
463.217	1680.69
463.437	1654.69
463.657	1542.69
463.876	1522.69
464.096	1487.69
464.316	1486.69
464.536	1499.69
464.755	1413.69
464.975	1391.69
465.195	1361.69
465.414	1297.69
465.634	1205.69
465.854	1182.69
466.073	1181.69
466.293	1173.69
466.512	1190.69
466.732	1135.69
466.951	1154.69
467.171	1188.69
467.391	1198.69
467.61	1264.69
467.829	1330.69
468.049	1846.69
468.268	2724.69
468.488	2064.69
468.707	1562.69
468.927	1374.69
469.146	1307.69
469.365	1248.69
469.585	1232.69
469.804	1252.69
470.023	1294.69
470.243	1236.69
470.462	1253.69
470.681	1290.69
470.901	1269.69
471.12	1278.69
471.339	1273.69
471.558	1292.69
471.777	1409.69
471.997	1708.69
472.216	2657.69
472.435	5114.69
472.654	4066.69
472.873	2495.69
473.092	1968.69
473.311	1706.69
473.53	1568.69
473.749	1456.69
473.968	1405.69
474.187	1320.69
474.406	1260.69
474.625	1283.69
474.844	1251.69
475.063	1256.69
475.282	1208.69
475.501	1217.69
475.72	1226.69
475.939	1233.69
476.158	1240.69
476.377	1230.69
476.596	1220.69
476.814	1235.69
477.033	1238.69
477.252	1222.69
477.471	1267.69
477.69	1312.69
477.908	1290.69
478.127	1396.69
478.346	1374.69
478.564	1384.69
478.783	1361.69
479.002	1478.69
479.22	1447.69
479.439	1491.69
479.658	1498.69
479.876	1550.69
480.095	1614.69
480.313	1717.69
480.532	1907.69
480.751	2166.69
480.969	3146.69
481.188	6780.69
481.406	8566.69
481.624	4700.69
481.843	3258.69
482.061	2633.69
482.28	2296.69
482.498	2032.69
482.717	1910.69
482.935	1833.69
483.153	1735.69
483.372	1657.69
483.59	1612.69
483.808	1590.69
484.027	1541.69
484.245	1532.69
484.463	1546.69
484.681	1494.69
484.9	1506.69
485.118	1515.69
485.336	1485.69
485.554	1477.69
485.772	1511.69
485.99	1468.69
486.209	1503.69
486.427	1529.69
486.645	1508.69
486.863	1491.69
487.081	1504.69
487.299	1452.69
487.517	1489.69
487.735	1476.69
487.953	1514.69
488.171	1531.69
488.389	1509.69
488.607	1497.69
488.825	1519.69
489.043	1510.69
489.261	1525.69
489.479	1548.69
489.696	1576.69
489.914	1576.69
490.132	1616.69
490.35	1632.69
490.568	1699.69
490.786	1724.69
491.003	1778.69
491.221	1842.69
491.439	1928.69
491.657	1988.69
491.874	2032.69
492.092	2054.69
492.31	2106.69
492.527	2099.69
492.745	2220.69
492.963	2132.69
493.18	2189.69
493.398	2095.69
493.615	2096.69
493.833	2057.69
494.05	2028.69
494.268	2010.69
494.485	1942.69
494.703	1884.69
494.92	1882.69
495.138	1794.69
495.355	1823.69
495.573	1814.69
495.79	1794.69
496.008	1759.69
496.225	1745.69
496.442	1738.69
496.66	1740.69
496.877	1747.69
497.094	1722.69
497.312	1760.69
497.529	1798.69
497.746	1819.69
497.963	1834.69
498.181	1854.69
498.398	1902.69
498.615	1981.69
498.832	2057.69
499.049	2149.69
499.267	2274.69
499.484	2472.69
499.701	2594.69
499.918	2810.69
500.135	3102.69
500.352	3416.69
500.569	3586.69
500.786	3694.69
501.003	3469.69
501.22	3123.69
501.437	2779.69
501.654	2509.69
501.871	2332.69
502.088	2204.69
502.305	2076.69
502.522	1990.69
502.739	1935.69
502.956	1781.69
503.172	1748.69
503.389	1716.69
503.606	1584.69
503.823	1664.69
504.04	1620.69
504.256	1628.69
504.473	1658.69
504.69	1679.69
504.907	1648.69
505.123	1588.69
505.34	1499.69
505.557	1430.69
505.773	1452.69
505.99	1417.69
506.207	1356.69
506.423	1329.69
506.64	1345.69
506.856	1305.69
507.073	1322.69
507.289	1324.69
507.506	1318.69
507.722	1267.69
507.939	1279.69
508.155	1300.69
508.372	1230.69
508.588	1235.69
508.805	1229.69
509.021	1219.69
509.238	1224.69
509.454	1231.69
509.67	1213.69
509.887	1196.69
510.103	1188.69
510.319	1182.69
510.536	1215.69
510.752	1163.69
510.968	1226.69
511.184	1228.69
511.401	1271.69
511.617	1317.69
511.833	1463.69
512.049	1574.69
512.265	1532.69
512.481	1417.69
512.698	1321.69
512.914	1309.69
513.13	1281.69
513.346	1224.69
513.562	1271.69
513.778	1216.69
513.994	1221.69
514.21	1214.69
514.426	1221.69
514.642	1202.69
514.858	1225.69
515.074	1220.69
515.29	1248.69
515.506	1246.69
515.721	1260.69
515.937	1249.69
516.153	1237.69
516.369	1274.69
516.585	1285.69
516.801	1343.69
517.016	1406.69
517.232	1452.69
517.448	1480.69
517.664	1540.69
517.879	1521.69
518.095	1498.69
518.311	1523.69
518.527	1461.69
518.742	1373.69
518.958	1344.69
519.173	1289.69
519.389	1261.69
519.605	1253.69
519.82	1188.69
520.036	1205.69
520.251	1166.69
520.467	1151.69
520.682	1145.69
520.898	1143.69
521.113	1138.69
521.329	1126.69
521.544	1106.69
521.76	1117.69
521.975	1117.69
522.19	1100.69
522.406	1090.69
522.621	1070.69
522.836	1111.69
523.052	1076.69
523.267	1085.69
523.482	1068.69
523.698	1068.69
523.913	1073.69
524.128	1079.69
524.343	1042.69
524.559	1061.69
524.774	1047.69
524.989	1067.69
525.204	1070.69
525.419	1053.69
525.634	1077.69
525.849	1045.69
526.064	1049.69
526.28	1048.69
526.495	1052.69
526.71	1028.69
526.925	1028.69
527.14	1021.69
527.355	1036.69
527.57	1009.69
527.785	1029.69
527.999	1013.69
528.214	1028.69
528.429	1035.69
528.644	1027.69
528.859	1022.69
529.074	1044.69
529.289	1026.69
529.503	1044.69
529.718	1021.69
529.933	998.69
530.148	1002.69
530.363	1023.69
530.577	993.69
530.792	998.69
531.007	1006.69
531.221	1037.69
531.436	1036.69
531.651	1025.69
531.865	1017.69
532.08	1008.69
532.295	1028.69
532.509	1013.69
532.724	1020.69
532.938	1012.69
533.153	1025.69
533.367	1024.69
533.582	1058.69
533.796	1051.69
534.011	1020.69
534.225	1030.69
534.44	995.69
534.654	1024.69
534.868	1006.69
535.083	1008.69
535.297	996.69
535.511	955.69
535.726	985.69
535.94	1014.69
536.154	990.69
536.369	990.69
536.583	945.69
536.797	981.69
537.011	947.69
537.225	951.69
537.44	977.69
537.654	946.69
537.868	928.69
538.082	977.69
538.296	946.69
538.51	929.69
538.724	962.69
538.938	933.69
539.153	926.69
539.367	931.69
539.581	932.69
539.795	945.69
540.009	956.69
540.222	913.69
540.436	914.69
540.65	951.69
540.864	936.69
541.078	947.69
541.292	925.69
541.506	958.69
541.72	953.69
541.934	984.69
542.147	966.69
542.361	962.69
542.575	972.69
542.789	964.69
543.002	922.69
543.216	932.69
543.43	942.69
543.644	924.69
543.857	957.69
544.071	961.69
544.285	977.69
544.498	1011.69
544.712	952.69
544.925	974.69
545.139	981.69
545.352	968.69
545.566	984.69
545.779	981.69
545.993	998.69
546.206	999.69
546.42	1002.69
546.633	978.69
546.847	947.69
547.06	964.69
547.274	980.69
547.487	978.69
547.7	978.69
547.914	938.69
548.127	965.69
548.34	985.69
548.554	965.69
548.767	986.69
548.98	964.69
549.193	953.69
549.407	1000.69
549.62	975.69
549.833	990.69
550.046	982.69
550.259	961.69
550.473	961.69
550.686	965.69
550.899	949.69
551.112	966.69
551.325	941.69
551.538	933.69
551.751	961.69
551.964	975.69
552.177	960.69
552.39	972.69
552.603	978.69
552.816	1016.69
553.029	1036.69
553.242	1048.69
553.455	1052.69
553.667	1058.69
553.88	1041.69
554.093	995.69
554.306	1026.69
554.519	1003.69
554.732	977.69
554.944	939.69
555.157	915.69
555.37	923.69
555.583	915.69
555.795	901.69
556.008	892.69
556.221	868.69
556.433	833.69
556.646	841.69
556.859	865.69
557.071	876.69
557.284	852.69
557.496	827.69
557.709	844.69
557.921	830.69
558.134	811.69
558.346	809.69
558.559	816.69
558.771	808.69
558.984	837.69
559.196	835.69
559.409	804.69
559.621	801.69
559.833	810.69
560.046	817.69
560.258	837.69
560.47	844.69
560.683	850.69
560.895	804.69
561.107	816.69
561.32	812.69
561.532	781.69
561.744	824.69
561.956	800.69
562.168	829.69
562.381	841.69
562.593	800.69
562.805	806.69
563.017	810.69
563.229	827.69
563.441	813.69
563.653	797.69
563.865	824.69
564.077	801.69
564.289	833.69
564.501	820.69
564.713	838.69
564.925	842.69
565.137	861.69
565.349	873.69
565.561	908.69
565.773	920.69
565.985	979.69
566.197	1018.69
566.408	1062.69
566.62	1144.69
566.832	1214.69
567.044	1253.69
567.255	1248.69
567.467	1258.69
567.679	1308.69
567.891	1370.69
568.102	1362.69
568.314	1283.69
568.526	1200.69
568.737	1130.69
568.949	1041.69
569.161	980.69
569.372	939.69
569.584	896.69
569.795	852.69
570.007	842.69
570.218	818.69
570.43	804.69
570.641	800.69
570.853	798.69
571.064	812.69
571.276	792.69
571.487	795.69
571.698	776.69
571.91	766.69
572.121	720.69
572.333	741.69
572.544	714.69
572.755	728.69
572.966	693.69
573.178	692.69
573.389	688.69
573.6	688.69
573.811	672.69
574.023	673.69
574.234	660.69
574.445	673.69
574.656	688.69
574.867	679.69
575.078	691.69
575.289	664.69
575.501	676.69
575.712	648.69
575.923	664.69
576.134	622.69
576.345	624.69
576.556	643.69
576.767	652.69
576.978	650.69
577.188	657.69
577.399	628.69
577.61	650.69
577.821	620.69
578.032	618.69
578.243	604.69
578.454	624.69
578.665	621.69
578.875	598.69
579.086	600.69
579.297	596.69
579.508	611.69
579.718	605.69
579.929	615.69
580.14	606.69
580.35	600.69
580.561	594.69
580.772	596.69
580.982	590.69
581.193	597.69
581.403	594.69
581.614	584.69
581.825	566.69
582.035	584.69
582.246	582.69
582.456	552.69
582.667	586.69
582.877	587.69
583.087	585.69
583.298	574.69
583.508	564.69
583.719	569.69
583.929	576.69
584.139	572.69
584.35	558.69
584.56	574.69
584.77	573.69
584.981	566.69
585.191	601.69
585.401	550.69
585.611	546.69
585.821	548.69
586.032	566.69
586.242	549.69
586.452	551.69
586.662	551.69
586.872	554.69
587.082	556.69
587.292	564.69
587.502	562.69
587.713	571.69
587.923	548.69
588.133	565.69
588.343	571.69
588.553	558.69
588.762	562.69
588.972	555.69
589.182	584.69
589.392	577.69
589.602	619.69
589.812	626.69
590.022	574.69
590.232	577.69
590.441	578.69
590.651	560.69
590.861	574.69
591.071	592.69
591.281	589.69
591.49	556.69
591.7	591.69
591.91	592.69
592.119	613.69
592.329	598.69
592.539	618.69
592.748	629.69
592.958	649.69
593.167	668.69
593.377	670.69
593.587	715.69
593.796	670.69
594.006	676.69
594.215	685.69
594.424	698.69
594.634	688.69
594.843	637.69
595.053	644.69
595.262	615.69
595.472	605.69
595.681	584.69
595.89	597.69
596.1	563.69
596.309	556.69
596.518	566.69
596.727	534.69
596.937	539.69
597.146	528.69
597.355	510.69
597.564	513.69
597.774	504.69
597.983	512.69
598.192	505.69
598.401	503.69
598.61	485.69
598.819	501.69
599.028	504.69
599.237	497.69
599.446	499.69
599.655	508.69
599.864	492.69
600.073	516.69
600.282	498.69
600.491	497.69
600.7	471.69
600.909	491.69
601.118	499.69
601.327	497.69
601.536	521.69
601.745	494.69
601.953	490.69
602.162	491.69
602.371	493.69
602.58	497.69
602.789	510.69
602.997	499.69
603.206	486.69
603.415	486.69
603.623	492.69
603.832	496.69
604.041	468.69
604.249	473.69
604.458	466.69
604.666	478.69
604.875	486.69
605.084	470.69
605.292	444.69
605.501	466.69
605.709	452.69
605.918	435.69
606.126	462.69
606.334	466.69
606.543	464.69
606.751	464.69
606.96	468.69
607.168	452.69
607.376	476.69
607.585	476.69
607.793	449.69
608.001	453.69
608.21	469.69
608.418	466.69
608.626	457.69
608.834	460.69
609.043	455.69
609.251	468.69
609.459	449.69
609.667	458.69
609.875	482.69
610.083	480.69
610.291	466.69
610.499	480.69
610.707	497.69
610.916	494.69
611.124	473.69
611.332	513.69
611.54	495.69
611.748	494.69
611.955	489.69
612.163	480.69
612.371	448.69
612.579	433.69
612.787	464.69
612.995	444.69
613.203	448.69
613.411	450.69
613.618	430.69
613.826	446.69
614.034	433.69
614.242	456.69
614.449	428.69
614.657	443.69
614.865	462.69
615.072	439.69
615.28	442.69
615.488	430.69
615.695	429.69
615.903	444.69
616.111	428.69
616.318	446.69
616.526	440.69
616.733	434.69
616.941	398.69
617.148	435.69
617.356	419.69
617.563	418.69
617.771	458.69
617.978	432.69
618.185	416.69
618.393	436.69
618.6	430.69
618.807	438.69
619.015	419.69
619.222	411.69
619.429	426.69
619.637	410.69
619.844	406.69
620.051	401.69
620.258	396.69
620.466	400.69
620.673	386.69
620.88	404.69
621.087	396.69
621.294	409.69
621.501	395.69
621.708	410.69
621.915	407.69
622.122	393.69
622.329	399.69
622.536	384.69
622.743	392.69
622.95	380.69
623.157	372.69
623.364	390.69
623.571	353.69
623.778	368.69
623.985	383.69
624.192	378.69
624.399	363.69
624.606	378.69
624.812	356.69
625.019	362.69
625.226	354.69
625.433	370.69
625.639	389.69
625.846	344.69
626.053	354.69
626.259	346.69
626.466	342.69
626.673	366.69
626.879	360.69
627.086	364.69
627.293	350.69
627.499	337.69
627.706	361.69
627.912	350.69
628.119	350.69
628.325	350.69
628.532	337.69
628.738	327.69
628.945	347.69
629.151	353.69
629.357	340.69
629.564	341.69
629.77	332.69
629.976	336.69
630.183	338.69
630.389	335.69
630.595	340.69
630.802	321.69
631.008	340.69
631.214	332.69
631.42	331.69
631.627	346.69
631.833	342.69
632.039	328.69
632.245	336.69
632.451	344.69
632.657	323.69
632.863	325.69
633.069	318.69
633.275	326.69
633.481	318.69
633.688	344.69
633.893	339.69
634.099	351.69
634.305	322.69
634.511	353.69
634.717	340.69
634.923	334.69
635.129	339.69
635.335	358.69
635.541	367.69
635.747	383.69
635.952	417.69
636.158	459.69
636.364	665.69
636.57	871.69
636.775	662.69
636.981	545.69
637.187	468.69
637.392	431.69
637.598	412.69
637.804	412.69
638.009	394.69
638.215	378.69
638.421	358.69
638.626	366.69
638.832	354.69
639.037	341.69
639.243	342.69
639.448	337.69
639.654	328.69
639.859	308.69
640.065	308.69
640.27	314.69
640.475	282.69
640.681	303.69
640.886	296.69
641.091	300.69
641.297	294.69
641.502	310.69
641.707	292.69
641.913	313.69
642.118	298.69
642.323	285.69
642.528	292.69
642.733	282.69
642.939	294.69
643.144	286.69
643.349	252.69
643.554	284.69
643.759	258.69
643.964	262.69
644.169	284.69
644.374	264.69
644.579	279.69
644.784	265.69
644.989	277.69
645.194	279.69
645.399	287.69
645.604	267.69
645.809	268.69
646.014	262.69
646.219	286.69
646.423	284.69
646.628	274.69
646.833	272.69
647.038	294.69
647.243	277.69
647.447	274.69
647.652	277.69
647.857	276.69
648.062	263.69
648.266	284.69
648.471	298.69
648.676	276.69
648.88	279.69
649.085	282.69
649.289	265.69
649.494	259.69
649.698	281.69
649.903	282.69
650.107	257.69
650.312	253.69
650.516	260.69
650.721	252.69
650.925	264.69
651.13	252.69
651.334	238.69
651.539	245.69
651.743	244.69
651.947	259.69
652.152	234.69
652.356	232.69
652.56	209.69
652.764	203.69
652.969	215.69
653.173	207.69
653.377	204.69
653.581	204.69
653.785	223.69
653.99	207.69
654.194	195.69
654.398	208.69
654.602	194.69
654.806	216.69
655.01	205.69
655.214	194.69
655.418	191.69
655.622	207.69
655.826	217.69
656.03	230.69
656.234	223.69
656.438	223.69
656.642	221.69
656.846	217.69
657.049	194.69
657.253	204.69
657.457	192.69
657.661	172.69
657.865	158.69
658.068	173.69
658.272	146.69
658.476	150.69
658.68	134.69
658.883	146.69
659.087	137.69
659.291	123.69
659.494	140.69
659.698	122.69
659.901	134.69
660.105	132.69
660.309	127.69
660.512	112.69
660.716	119.69
660.919	138.69
661.123	120.69
661.326	110.69
661.53	107.69
661.733	107.69
661.936	122.69
662.14	85.69
662.343	92.69
662.546	90.69
662.75	99.69
662.953	81.69
663.156	94.69
663.36	102.69
663.563	93.69
663.766	95.69
663.969	102.69
664.173	94.69
664.376	97.69
664.579	95.69
664.782	96.69
664.985	97.69
665.188	89.69
665.391	94.69
665.594	85.69
665.797	102.69
666	90.69
666.203	88.69
666.406	84.69
666.609	86.69
666.812	93.69
667.015	96.69
667.218	84.69
667.421	94.69
667.624	86.69
667.827	82.69
668.03	85.69
668.232	89.69
668.435	76.69
668.638	88.69
668.841	104.69
669.043	74.69
669.246	78.69
669.449	83.69
669.651	87.69
669.854	85.69
670.057	88.69
670.259	99.69
670.462	93.69
670.665	88.69
670.867	84.69
671.07	92.69
671.272	103.69
671.475	90.69
671.677	78.69
671.88	95.69
672.082	88.69
672.284	102.69
672.487	80.69
672.689	82.69
672.892	106.69
