Data from FlinnAP5935BZINC.07152019.LAMPEdge.EN7.5scans.P1_HRD10591_15-01-01-579.txt Node
Date: Mon Jul 15 15:01:01 EDT 2019
User: cochatt
Spectrometer: HR+D1059
Trigger mode: 1
Integration Time (sec): 1.000000E-1
Scans to average: 1
Electric dark correction enabled: true
Nonlinearity correction enabled: false
Boxcar width: 0
XAxis mode: Wavelengths
Number of Pixels in Spectrum: 2048
>>>>>Begin Spectral Data<<<<<
223.165	-20.19
223.4	-20.19
223.635	-20.19
223.869	-24.19
224.104	-22.19
224.338	-21.19
224.573	-12.19
224.808	-10.19
225.042	-11.19
225.277	1.81
225.511	7.81
225.746	19.81
225.98	-5.19
226.215	9.81
226.449	13.81
226.683	21.81
226.918	33.81
227.152	17.81
227.387	15.81
227.621	25.81
227.856	35.81
228.09	51.81
228.324	48.81
228.559	53.81
228.793	68.81
229.027	124.81
229.262	118.81
229.496	125.81
229.73	137.81
229.964	152.81
230.199	137.81
230.433	140.81
230.667	144.81
230.901	156.81
231.136	165.81
231.37	165.81
231.604	157.81
231.838	154.81
232.072	164.81
232.306	168.81
232.541	162.81
232.775	162.81
233.009	155.81
233.243	164.81
233.477	191.81
233.711	168.81
233.945	166.81
234.179	170.81
234.413	167.81
234.647	174.81
234.881	177.81
235.115	172.81
235.349	180.81
235.583	172.81
235.817	164.81
236.051	183.81
236.285	176.81
236.519	188.81
236.753	187.81
236.987	173.81
237.221	189.81
237.455	185.81
237.689	172.81
237.922	192.81
238.156	189.81
238.39	207.81
238.624	198.81
238.858	213.81
239.091	208.81
239.325	209.81
239.559	193.81
239.793	218.81
240.027	194.81
240.26	203.81
240.494	216.81
240.728	216.81
240.961	226.81
241.195	217.81
241.429	223.81
241.662	213.81
241.896	223.81
242.13	238.81
242.363	238.81
242.597	224.81
242.83	232.81
243.064	235.81
243.298	270.81
243.531	251.81
243.765	248.81
243.998	252.81
244.232	261.81
244.465	264.81
244.699	288.81
244.932	285.81
245.166	273.81
245.399	296.81
245.633	280.81
245.866	294.81
246.099	290.81
246.333	284.81
246.566	298.81
246.8	285.81
247.033	299.81
247.266	290.81
247.5	310.81
247.733	306.81
247.966	309.81
248.2	307.81
248.433	341.81
248.666	332.81
248.899	335.81
249.133	349.81
249.366	368.81
249.599	365.81
249.832	386.81
250.066	417.81
250.299	484.81
250.532	646.81
250.765	735.81
250.998	649.81
251.231	529.81
251.465	482.81
251.698	453.81
251.931	448.81
252.164	424.81
252.397	412.81
252.63	400.81
252.863	404.81
253.096	389.81
253.329	396.81
253.562	386.81
253.795	404.81
254.028	421.81
254.261	431.81
254.494	426.81
254.727	440.81
254.96	452.81
255.193	489.81
255.426	546.81
255.659	634.81
255.892	821.81
256.124	1152.81
256.357	1246.81
256.59	993.81
256.823	795.81
257.056	668.81
257.289	627.81
257.521	568.81
257.754	532.81
257.987	540.81
258.22	505.81
258.452	504.81
258.685	515.81
258.918	502.81
259.151	482.81
259.383	464.81
259.616	466.81
259.849	463.81
260.081	476.81
260.314	490.81
260.547	455.81
260.779	500.81
261.012	496.81
261.244	484.81
261.477	493.81
261.71	476.81
261.942	461.81
262.175	458.81
262.407	459.81
262.64	456.81
262.872	484.81
263.105	454.81
263.337	462.81
263.57	484.81
263.802	471.81
264.035	465.81
264.267	488.81
264.499	490.81
264.732	469.81
264.964	472.81
265.197	475.81
265.429	474.81
265.661	470.81
265.894	488.81
266.126	478.81
266.358	486.81
266.591	492.81
266.823	498.81
267.055	499.81
267.287	522.81
267.52	497.81
267.752	520.81
267.984	508.81
268.216	501.81
268.448	509.81
268.681	548.81
268.913	521.81
269.145	525.81
269.377	533.81
269.609	511.81
269.841	534.81
270.073	549.81
270.306	547.81
270.538	556.81
270.77	549.81
271.002	542.81
271.234	546.81
271.466	554.81
271.698	539.81
271.93	571.81
272.162	566.81
272.394	559.81
272.626	574.81
272.858	584.81
273.09	589.81
273.322	589.81
273.553	589.81
273.785	602.81
274.017	632.81
274.249	610.81
274.481	610.81
274.713	614.81
274.945	624.81
275.176	651.81
275.408	662.81
275.64	703.81
275.872	694.81
276.104	714.81
276.335	692.81
276.567	692.81
276.799	743.81
277.031	806.81
277.262	823.81
277.494	848.81
277.726	817.81
277.957	780.81
278.189	743.81
278.421	731.81
278.652	737.81
278.884	725.81
279.115	725.81
279.347	729.81
279.579	780.81
279.81	798.81
280.042	857.81
280.273	1013.81
280.505	987.81
280.736	876.81
280.968	807.81
281.199	758.81
281.431	767.81
281.662	768.81
281.894	724.81
282.125	749.81
282.356	754.81
282.588	733.81
282.819	724.81
283.051	716.81
283.282	711.81
283.513	719.81
283.745	737.81
283.976	684.81
284.207	708.81
284.439	709.81
284.67	715.81
284.901	714.81
285.132	723.81
285.364	724.81
285.595	707.81
285.826	732.81
286.057	736.81
286.288	728.81
286.52	714.81
286.751	748.81
286.982	750.81
287.213	738.81
287.444	721.81
287.675	740.81
287.906	726.81
288.138	728.81
288.369	758.81
288.6	757.81
288.831	729.81
289.062	754.81
289.293	778.81
289.524	754.81
289.755	731.81
289.986	725.81
290.217	743.81
290.448	748.81
290.679	746.81
290.91	748.81
291.141	750.81
291.371	739.81
291.602	748.81
291.833	719.81
292.064	748.81
292.295	750.81
292.526	732.81
292.757	741.81
292.987	732.81
293.218	739.81
293.449	738.81
293.68	737.81
293.91	753.81
294.141	741.81
294.372	729.81
294.603	757.81
294.833	737.81
295.064	739.81
295.295	754.81
295.525	750.81
295.756	734.81
295.987	753.81
296.217	755.81
296.448	749.81
296.679	742.81
296.909	776.81
297.14	776.81
297.37	780.81
297.601	773.81
297.831	784.81
298.062	781.81
298.292	801.81
298.523	800.81
298.753	780.81
298.984	777.81
299.214	818.81
299.445	806.81
299.675	776.81
299.905	818.81
300.136	805.81
300.366	804.81
300.597	806.81
300.827	803.81
301.057	820.81
301.288	856.81
301.518	824.81
301.748	849.81
301.979	876.81
302.209	873.81
302.439	856.81
302.669	863.81
302.9	827.81
303.13	858.81
303.36	883.81
303.59	877.81
303.82	913.81
304.051	916.81
304.281	886.81
304.511	883.81
304.741	878.81
304.971	869.81
305.201	855.81
305.431	834.81
305.661	834.81
305.891	859.81
306.121	876.81
306.352	847.81
306.582	866.81
306.812	874.81
307.042	879.81
307.272	948.81
307.502	1012.81
307.731	1023.81
307.961	959.81
308.191	913.81
308.421	898.81
308.651	858.81
308.881	858.81
309.111	826.81
309.341	862.81
309.571	871.81
309.8	875.81
310.03	859.81
310.26	870.81
310.49	858.81
310.72	868.81
310.949	882.81
311.179	876.81
311.409	858.81
311.639	877.81
311.868	841.81
312.098	868.81
312.328	873.81
312.557	872.81
312.787	894.81
313.017	905.81
313.246	918.81
313.476	924.81
313.706	927.81
313.935	928.81
314.165	916.81
314.394	909.81
314.624	927.81
314.853	906.81
315.083	926.81
315.312	946.81
315.542	920.81
315.771	913.81
316.001	924.81
316.23	887.81
316.46	918.81
316.689	921.81
316.919	900.81
317.148	934.81
317.377	918.81
317.607	909.81
317.836	914.81
318.065	918.81
318.295	934.81
318.524	942.81
318.753	925.81
318.983	954.81
319.212	932.81
319.441	954.81
319.67	942.81
319.9	910.81
320.129	965.81
320.358	933.81
320.587	962.81
320.816	972.81
321.046	954.81
321.275	972.81
321.504	983.81
321.733	960.81
321.962	992.81
322.191	955.81
322.42	975.81
322.649	1004.81
322.878	1028.81
323.108	1025.81
323.337	1060.81
323.566	1064.81
323.795	1095.81
324.024	1070.81
324.253	1090.81
324.482	1109.81
324.71	1110.81
324.939	1140.81
325.168	1131.81
325.397	1164.81
325.626	1192.81
325.855	1201.81
326.084	1205.81
326.313	1234.81
326.542	1273.81
326.77	1333.81
326.999	1340.81
327.228	1384.81
327.457	1501.81
327.686	1634.81
327.914	2017.81
328.143	2551.81
328.372	3032.81
328.6	2794.81
328.829	2042.81
329.058	1882.81
329.287	1915.81
329.515	2126.81
329.744	2495.81
329.972	3248.81
330.201	4545.81
330.43	5488.81
330.658	4552.81
330.887	2811.81
331.115	2110.81
331.344	1856.81
331.572	1732.81
331.801	1676.81
332.03	1675.81
332.258	1675.81
332.486	1741.81
332.715	1745.81
332.943	1877.81
333.172	1996.81
333.4	2171.81
333.629	2438.81
333.857	2853.81
334.085	3682.81
334.314	5160.81
334.542	6908.81
334.771	7425.81
334.999	4741.81
335.227	2983.81
335.455	2342.81
335.684	1992.81
335.912	1836.81
336.14	1671.81
336.369	1604.81
336.597	1527.81
336.825	1516.81
337.053	1446.81
337.281	1389.81
337.51	1345.81
337.738	1312.81
337.966	1307.81
338.194	1260.81
338.422	1228.81
338.65	1227.81
338.878	1177.81
339.106	1205.81
339.334	1177.81
339.562	1148.81
339.79	1099.81
340.018	1100.81
340.246	1115.81
340.474	1111.81
340.702	1075.81
340.93	1110.81
341.158	1098.81
341.386	1079.81
341.614	1060.81
341.842	1070.81
342.07	1044.81
342.298	1046.81
342.526	1071.81
342.754	1052.81
342.981	1040.81
343.209	1074.81
343.437	1078.81
343.665	1169.81
343.893	1176.81
344.12	1226.81
344.348	1178.81
344.576	1168.81
344.804	1096.81
345.031	1063.81
345.259	1049.81
345.487	1023.81
345.714	998.81
345.942	1006.81
346.17	989.81
346.397	973.81
346.625	999.81
346.853	991.81
347.08	950.81
347.308	991.81
347.535	946.81
347.763	1004.81
347.99	974.81
348.218	990.81
348.445	966.81
348.673	934.81
348.9	969.81
349.128	965.81
349.355	948.81
349.583	956.81
349.81	965.81
350.037	938.81
350.265	943.81
350.492	960.81
350.72	926.81
350.947	962.81
351.174	944.81
351.402	930.81
351.629	962.81
351.856	963.81
352.083	974.81
352.311	956.81
352.538	933.81
352.765	959.81
352.992	936.81
353.22	944.81
353.447	940.81
353.674	961.81
353.901	928.81
354.128	930.81
354.355	946.81
354.583	931.81
354.81	938.81
355.037	940.81
355.264	966.81
355.491	955.81
355.718	946.81
355.945	959.81
356.172	934.81
356.399	938.81
356.626	952.81
356.853	938.81
357.08	955.81
357.307	926.81
357.534	931.81
357.761	948.81
357.988	934.81
358.215	933.81
358.441	921.81
358.668	917.81
358.895	939.81
359.122	909.81
359.349	914.81
359.576	933.81
359.802	921.81
360.029	935.81
360.256	948.81
360.483	940.81
360.709	913.81
360.936	950.81
361.163	914.81
361.39	920.81
361.616	918.81
361.843	912.81
362.07	902.81
362.296	911.81
362.523	924.81
362.749	918.81
362.976	907.81
363.203	912.81
363.429	893.81
363.656	916.81
363.882	906.81
364.109	897.81
364.335	885.81
364.562	902.81
364.788	902.81
365.015	897.81
365.241	928.81
365.468	916.81
365.694	873.81
365.92	916.81
366.147	878.81
366.373	913.81
366.599	922.81
366.826	899.81
367.052	922.81
367.278	934.81
367.505	913.81
367.731	917.81
367.957	924.81
368.184	958.81
368.41	926.81
368.636	935.81
368.862	933.81
369.089	894.81
369.315	912.81
369.541	972.81
369.767	932.81
369.993	916.81
370.219	933.81
370.445	965.81
370.672	953.81
370.898	934.81
371.124	970.81
371.35	977.81
371.576	973.81
371.802	956.81
372.028	946.81
372.254	977.81
372.48	980.81
372.706	974.81
372.932	1009.81
373.158	994.81
373.384	971.81
373.61	978.81
373.835	966.81
374.061	984.81
374.287	955.81
374.513	994.81
374.739	997.81
374.965	1044.81
375.191	1056.81
375.416	1032.81
375.642	1004.81
375.868	997.81
376.094	972.81
376.319	948.81
376.545	958.81
376.771	997.81
376.997	977.81
377.222	938.81
377.448	934.81
377.674	934.81
377.899	950.81
378.125	940.81
378.35	936.81
378.576	921.81
378.802	930.81
379.027	973.81
379.253	954.81
379.478	933.81
379.704	934.81
379.929	931.81
380.155	908.81
380.38	927.81
380.606	929.81
380.831	934.81
381.057	939.81
381.282	949.81
381.507	953.81
381.733	964.81
381.958	950.81
382.184	982.81
382.409	988.81
382.634	1006.81
382.86	1009.81
383.085	998.81
383.31	1004.81
383.535	1029.81
383.761	1070.81
383.986	1071.81
384.211	1079.81
384.436	1070.81
384.662	1116.81
384.887	1084.81
385.112	1118.81
385.337	1148.81
385.562	1103.81
385.787	1130.81
386.013	1110.81
386.238	1131.81
386.463	1133.81
386.688	1113.81
386.913	1134.81
387.138	1129.81
387.363	1089.81
387.588	1106.81
387.813	1101.81
388.038	1084.81
388.263	1091.81
388.488	1107.81
388.713	1132.81
388.938	1114.81
389.163	1097.81
389.387	1113.81
389.612	1091.81
389.837	1080.81
390.062	1068.81
390.287	1058.81
390.512	1071.81
390.736	1077.81
390.961	1134.81
391.186	1139.81
391.411	1180.81
391.636	1172.81
391.86	1209.81
392.085	1228.81
392.31	1220.81
392.534	1168.81
392.759	1185.81
392.984	1181.81
393.208	1152.81
393.433	1137.81
393.658	1144.81
393.882	1170.81
394.107	1148.81
394.331	1186.81
394.556	1152.81
394.78	1120.81
395.005	1163.81
395.229	1166.81
395.454	1201.81
395.678	1201.81
395.903	1221.81
396.127	1202.81
396.352	1166.81
396.576	1169.81
396.801	1182.81
397.025	1175.81
397.249	1178.81
397.474	1199.81
397.698	1216.81
397.922	1225.81
398.147	1237.81
398.371	1267.81
398.595	1261.81
398.82	1343.81
399.044	1429.81
399.268	1554.81
399.492	1728.81
399.717	1857.81
399.941	1869.81
400.165	1736.81
400.389	1600.81
400.613	1483.81
400.837	1413.81
401.062	1414.81
401.286	1397.81
401.51	1356.81
401.734	1348.81
401.958	1363.81
402.182	1393.81
402.406	1422.81
402.63	1388.81
402.854	1451.81
403.078	1442.81
403.302	1502.81
403.526	1533.81
403.75	1557.81
403.974	1541.81
404.198	1595.81
404.422	1613.81
404.645	1650.81
404.869	1701.81
405.093	1822.81
405.317	1894.81
405.541	1943.81
405.765	1788.81
405.988	1656.81
406.212	1595.81
406.436	1566.81
406.66	1584.81
406.883	1580.81
407.107	1635.81
407.331	1652.81
407.555	1700.81
407.778	1696.81
408.002	1611.81
408.226	1596.81
408.449	1575.81
408.673	1566.81
408.896	1493.81
409.12	1497.81
409.344	1500.81
409.567	1493.81
409.791	1484.81
410.014	1484.81
410.238	1452.81
410.461	1464.81
410.685	1473.81
410.908	1446.81
411.132	1491.81
411.355	1439.81
411.578	1464.81
411.802	1472.81
412.025	1521.81
412.249	1630.81
412.472	1815.81
412.695	1880.81
412.919	1928.81
413.142	1762.81
413.365	1696.81
413.589	1586.81
413.812	1498.81
414.035	1458.81
414.258	1500.81
414.482	1477.81
414.705	1428.81
414.928	1413.81
415.151	1397.81
415.374	1386.81
415.597	1383.81
415.821	1361.81
416.044	1395.81
416.267	1389.81
416.49	1365.81
416.713	1359.81
416.936	1358.81
417.159	1391.81
417.382	1419.81
417.605	1500.81
417.828	1563.81
418.051	1424.81
418.274	1399.81
418.497	1365.81
418.72	1390.81
418.943	1408.81
419.166	1484.81
419.389	1572.81
419.611	1599.81
419.834	1612.81
420.057	1608.81
420.28	1727.81
420.503	1744.81
420.726	1661.81
420.948	1573.81
421.171	1561.81
421.394	1516.81
421.617	1473.81
421.839	1470.81
422.062	1405.81
422.285	1364.81
422.507	1378.81
422.73	1409.81
422.953	1378.81
423.175	1382.81
423.398	1446.81
423.621	1394.81
423.843	1378.81
424.066	1443.81
424.288	1391.81
424.511	1405.81
424.733	1392.81
424.956	1354.81
425.178	1349.81
425.401	1325.81
425.623	1324.81
425.846	1344.81
426.068	1316.81
426.291	1333.81
426.513	1294.81
426.735	1293.81
426.958	1350.81
427.18	1321.81
427.402	1402.81
427.625	1492.81
427.847	1652.81
428.069	1822.81
428.292	1697.81
428.514	1466.81
428.736	1370.81
428.958	1333.81
429.181	1256.81
429.403	1288.81
429.625	1217.81
429.847	1201.81
430.069	1206.81
430.292	1218.81
430.514	1197.81
430.736	1213.81
430.958	1212.81
431.18	1178.81
431.402	1176.81
431.624	1184.81
431.846	1203.81
432.068	1198.81
432.29	1193.81
432.512	1178.81
432.734	1178.81
432.956	1166.81
433.178	1156.81
433.4	1170.81
433.622	1175.81
433.844	1190.81
434.066	1190.81
434.287	1208.81
434.509	1217.81
434.731	1269.81
434.953	1299.81
435.175	1268.81
435.397	1297.81
435.618	1243.81
435.84	1211.81
436.062	1214.81
436.284	1165.81
436.505	1173.81
436.727	1164.81
436.949	1202.81
437.17	1154.81
437.392	1134.81
437.614	1153.81
437.835	1104.81
438.057	1146.81
438.278	1109.81
438.5	1097.81
438.721	1126.81
438.943	1160.81
439.165	1104.81
439.386	1152.81
439.608	1177.81
439.829	1174.81
440.05	1147.81
440.272	1134.81
440.493	1165.81
440.715	1173.81
440.936	1173.81
441.158	1217.81
441.379	1248.81
441.6	1267.81
441.822	1263.81
442.043	1297.81
442.264	1257.81
442.486	1250.81
442.707	1259.81
442.928	1260.81
443.149	1272.81
443.371	1258.81
443.592	1257.81
443.813	1288.81
444.034	1280.81
444.255	1338.81
444.476	1376.81
444.698	1435.81
444.919	1456.81
445.14	1600.81
445.361	1402.81
445.582	1301.81
445.803	1282.81
446.024	1246.81
446.245	1210.81
446.466	1191.81
446.687	1176.81
446.908	1202.81
447.129	1174.81
447.35	1139.81
447.571	1130.81
447.792	1111.81
448.013	1068.81
448.234	1085.81
448.455	1069.81
448.675	1083.81
448.896	1061.81
449.117	1074.81
449.338	1049.81
449.559	1034.81
449.779	1073.81
450	1048.81
450.221	1060.81
450.442	1042.81
450.662	1041.81
450.883	1078.81
451.104	1052.81
451.324	1072.81
451.545	1034.81
451.766	1067.81
451.986	1083.81
452.207	1044.81
452.428	1072.81
452.648	1056.81
452.869	1029.81
453.089	1014.81
453.31	1041.81
453.53	1048.81
453.751	1012.81
453.971	1020.81
454.192	996.81
454.412	975.81
454.633	994.81
454.853	1025.81
455.073	996.81
455.294	1020.81
455.514	997.81
455.734	1027.81
455.955	993.81
456.175	975.81
456.395	983.81
456.616	988.81
456.836	1013.81
457.056	976.81
457.276	1017.81
457.497	1032.81
457.717	1010.81
457.937	1017.81
458.157	1020.81
458.377	1052.81
458.598	1047.81
458.818	1076.81
459.038	1101.81
459.258	1149.81
459.478	1114.81
459.698	1168.81
459.918	1185.81
460.138	1267.81
460.358	1321.81
460.578	1342.81
460.798	1343.81
461.018	1340.81
461.238	1312.81
461.458	1333.81
461.678	1316.81
461.898	1339.81
462.118	1334.81
462.338	1432.81
462.558	1474.81
462.777	1470.81
462.997	1597.81
463.217	1695.81
463.437	1696.81
463.657	1531.81
463.876	1536.81
464.096	1547.81
464.316	1488.81
464.536	1523.81
464.755	1464.81
464.975	1426.81
465.195	1357.81
465.414	1324.81
465.634	1267.81
465.854	1234.81
466.073	1206.81
466.293	1196.81
466.512	1191.81
466.732	1184.81
466.951	1194.81
467.171	1208.81
467.391	1222.81
467.61	1259.81
467.829	1398.81
468.049	1891.81
468.268	2761.81
468.488	2120.81
468.707	1616.81
468.927	1402.81
469.146	1342.81
469.365	1321.81
469.585	1251.81
469.804	1271.81
470.023	1284.81
470.243	1289.81
470.462	1262.81
470.681	1265.81
470.901	1292.81
471.12	1277.81
471.339	1326.81
471.558	1349.81
471.777	1452.81
471.997	1718.81
472.216	2715.81
472.435	5173.81
472.654	4132.81
472.873	2616.81
473.092	2035.81
473.311	1765.81
473.53	1596.81
473.749	1469.81
473.968	1439.81
474.187	1364.81
474.406	1354.81
474.625	1314.81
474.844	1268.81
475.063	1278.81
475.282	1252.81
475.501	1248.81
475.72	1274.81
475.939	1249.81
476.158	1233.81
476.377	1243.81
476.596	1250.81
476.814	1256.81
477.033	1250.81
477.252	1289.81
477.471	1261.81
477.69	1341.81
477.908	1352.81
478.127	1397.81
478.346	1396.81
478.564	1435.81
478.783	1452.81
479.002	1456.81
479.22	1492.81
479.439	1514.81
479.658	1524.81
479.876	1548.81
480.095	1627.81
480.313	1738.81
480.532	1937.81
480.751	2214.81
480.969	3218.81
481.188	6830.81
481.406	8723.81
481.624	4862.81
481.843	3364.81
482.061	2692.81
482.28	2338.81
482.498	2068.81
482.717	1943.81
482.935	1868.81
483.153	1754.81
483.372	1685.81
483.59	1680.81
483.808	1599.81
484.027	1589.81
484.245	1539.81
484.463	1534.81
484.681	1572.81
484.9	1547.81
485.118	1534.81
485.336	1515.81
485.554	1524.81
485.772	1503.81
485.99	1530.81
486.209	1514.81
486.427	1502.81
486.645	1513.81
486.863	1558.81
487.081	1537.81
487.299	1523.81
487.517	1508.81
487.735	1499.81
487.953	1529.81
488.171	1562.81
488.389	1552.81
488.607	1553.81
488.825	1514.81
489.043	1577.81
489.261	1560.81
489.479	1601.81
489.696	1634.81
489.914	1632.81
490.132	1649.81
490.35	1704.81
490.568	1742.81
490.786	1774.81
491.003	1849.81
491.221	1912.81
491.439	1990.81
491.657	2036.81
491.874	2073.81
492.092	2140.81
492.31	2170.81
492.527	2222.81
492.745	2308.81
492.963	2246.81
493.18	2245.81
493.398	2200.81
493.615	2144.81
493.833	2140.81
494.05	2036.81
494.268	1995.81
494.485	2016.81
494.703	1964.81
494.92	1948.81
495.138	1867.81
495.355	1839.81
495.573	1875.81
495.79	1808.81
496.008	1828.81
496.225	1816.81
496.442	1821.81
496.66	1788.81
496.877	1800.81
497.094	1786.81
497.312	1809.81
497.529	1866.81
497.746	1828.81
497.963	1832.81
498.181	1921.81
498.398	1896.81
498.615	1986.81
498.832	2094.81
499.049	2202.81
499.267	2329.81
499.484	2522.81
499.701	2687.81
499.918	2853.81
500.135	3178.81
500.352	3500.81
500.569	3657.81
500.786	3711.81
501.003	3507.81
501.22	3151.81
501.437	2840.81
501.654	2544.81
501.871	2385.81
502.088	2250.81
502.305	2086.81
502.522	2003.81
502.739	1973.81
502.956	1871.81
503.172	1793.81
503.389	1766.81
503.606	1669.81
503.823	1685.81
504.04	1676.81
504.256	1642.81
504.473	1682.81
504.69	1746.81
504.907	1711.81
505.123	1578.81
505.34	1525.81
505.557	1492.81
505.773	1452.81
505.99	1408.81
506.207	1404.81
506.423	1386.81
506.64	1387.81
506.856	1340.81
507.073	1316.81
507.289	1329.81
507.506	1312.81
507.722	1325.81
507.939	1300.81
508.155	1311.81
508.372	1241.81
508.588	1272.81
508.805	1253.81
509.021	1237.81
509.238	1262.81
509.454	1232.81
509.67	1227.81
509.887	1196.81
510.103	1239.81
510.319	1237.81
510.536	1230.81
510.752	1228.81
510.968	1218.81
511.184	1270.81
511.401	1305.81
511.617	1327.81
511.833	1532.81
512.049	1632.81
512.265	1556.81
512.481	1426.81
512.698	1405.81
512.914	1338.81
513.13	1297.81
513.346	1278.81
513.562	1276.81
513.778	1240.81
513.994	1253.81
514.21	1248.81
514.426	1253.81
514.642	1224.81
514.858	1238.81
515.074	1252.81
515.29	1256.81
515.506	1255.81
515.721	1246.81
515.937	1264.81
516.153	1314.81
516.369	1292.81
516.585	1352.81
516.801	1395.81
517.016	1418.81
517.232	1472.81
517.448	1482.81
517.664	1548.81
517.879	1561.81
518.095	1511.81
518.311	1525.81
518.527	1448.81
518.742	1442.81
518.958	1410.81
519.173	1322.81
519.389	1305.81
519.605	1262.81
519.82	1244.81
520.036	1210.81
520.251	1196.81
520.467	1182.81
520.682	1149.81
520.898	1130.81
521.113	1161.81
521.329	1147.81
521.544	1138.81
521.76	1138.81
521.975	1123.81
522.19	1127.81
522.406	1113.81
522.621	1108.81
522.836	1104.81
523.052	1082.81
523.267	1089.81
523.482	1072.81
523.698	1086.81
523.913	1113.81
524.128	1064.81
524.343	1087.81
524.559	1104.81
524.774	1078.81
524.989	1074.81
525.204	1065.81
525.419	1050.81
525.634	1063.81
525.849	1076.81
526.064	1090.81
526.28	1062.81
526.495	1067.81
526.71	1069.81
526.925	1057.81
527.14	1044.81
527.355	1034.81
527.57	1042.81
527.785	1062.81
527.999	1037.81
528.214	1032.81
528.429	1052.81
528.644	1070.81
528.859	1043.81
529.074	1062.81
529.289	1091.81
529.503	1092.81
529.718	1037.81
529.933	1048.81
530.148	1062.81
530.363	1048.81
530.577	1027.81
530.792	1048.81
531.007	1068.81
531.221	1032.81
531.436	1038.81
531.651	1059.81
531.865	1050.81
532.08	1070.81
532.295	1052.81
532.509	1061.81
532.724	1055.81
532.938	1040.81
533.153	1036.81
533.367	1024.81
533.582	1032.81
533.796	1048.81
534.011	1046.81
534.225	1022.81
534.44	1001.81
534.654	1021.81
534.868	1029.81
535.083	1034.81
535.297	1026.81
535.511	1009.81
535.726	1048.81
535.94	1006.81
536.154	974.81
536.369	986.81
536.583	985.81
536.797	972.81
537.011	980.81
537.225	991.81
537.44	991.81
537.654	975.81
537.868	978.81
538.082	939.81
538.296	954.81
538.51	954.81
538.724	966.81
538.938	978.81
539.153	1007.81
539.367	985.81
539.581	960.81
539.795	937.81
540.009	946.81
540.222	950.81
540.436	982.81
540.65	965.81
540.864	959.81
541.078	958.81
541.292	957.81
541.506	947.81
541.72	956.81
541.934	982.81
542.147	1010.81
542.361	960.81
542.575	964.81
542.789	991.81
543.002	983.81
543.216	961.81
543.43	931.81
543.644	988.81
543.857	984.81
544.071	989.81
544.285	958.81
544.498	974.81
544.712	969.81
544.925	964.81
545.139	981.81
545.352	985.81
545.566	1007.81
545.779	1011.81
545.993	1008.81
546.206	1034.81
546.42	986.81
546.633	1003.81
546.847	955.81
547.06	974.81
547.274	1018.81
547.487	969.81
547.7	976.81
547.914	970.81
548.127	981.81
548.34	1000.81
548.554	992.81
548.767	977.81
548.98	966.81
549.193	994.81
549.407	996.81
549.62	1004.81
549.833	985.81
550.046	994.81
550.259	994.81
550.473	972.81
550.686	961.81
550.899	985.81
551.112	946.81
551.325	959.81
551.538	955.81
551.751	960.81
551.964	968.81
552.177	976.81
552.39	1008.81
552.603	1011.81
552.816	992.81
553.029	1066.81
553.242	1044.81
553.455	1058.81
553.667	1048.81
553.88	1040.81
554.093	1048.81
554.306	984.81
554.519	1000.81
554.732	1004.81
554.944	960.81
555.157	927.81
555.37	957.81
555.583	922.81
555.795	901.81
556.008	900.81
556.221	866.81
556.433	872.81
556.646	900.81
556.859	886.81
557.071	839.81
557.284	844.81
557.496	822.81
557.709	845.81
557.921	842.81
558.134	820.81
558.346	837.81
558.559	844.81
558.771	842.81
558.984	809.81
559.196	795.81
559.409	820.81
559.621	818.81
559.833	812.81
560.046	835.81
560.258	860.81
560.47	883.81
560.683	870.81
560.895	861.81
561.107	832.81
561.32	840.81
561.532	852.81
561.744	820.81
561.956	826.81
562.168	824.81
562.381	831.81
562.593	807.81
562.805	836.81
563.017	834.81
563.229	846.81
563.441	840.81
563.653	820.81
563.865	835.81
564.077	858.81
564.289	836.81
564.501	856.81
564.713	860.81
564.925	867.81
565.137	884.81
565.349	902.81
565.561	934.81
565.773	950.81
565.985	1009.81
566.197	1037.81
566.408	1116.81
566.62	1157.81
566.832	1229.81
567.044	1250.81
567.255	1228.81
567.467	1264.81
567.679	1322.81
567.891	1396.81
568.102	1450.81
568.314	1354.81
568.526	1239.81
568.737	1142.81
568.949	1080.81
569.161	1011.81
569.372	966.81
569.584	907.81
569.795	865.81
570.007	852.81
570.218	852.81
570.43	830.81
570.641	854.81
570.853	837.81
571.064	841.81
571.276	854.81
571.487	831.81
571.698	780.81
571.91	767.81
572.121	756.81
572.333	730.81
572.544	712.81
572.755	704.81
572.966	737.81
573.178	696.81
573.389	698.81
573.6	679.81
573.811	685.81
574.023	703.81
574.234	662.81
574.445	690.81
574.656	675.81
574.867	687.81
575.078	677.81
575.289	684.81
575.501	685.81
575.712	675.81
575.923	659.81
576.134	672.81
576.345	666.81
576.556	636.81
576.767	635.81
576.978	642.81
577.188	644.81
577.399	647.81
577.61	643.81
577.821	612.81
578.032	637.81
578.243	628.81
578.454	604.81
578.665	612.81
578.875	624.81
579.086	617.81
579.297	621.81
579.508	644.81
579.718	652.81
579.929	613.81
580.14	610.81
580.35	603.81
580.561	623.81
580.772	611.81
580.982	591.81
581.193	603.81
581.403	600.81
581.614	596.81
581.825	589.81
582.035	598.81
582.246	596.81
582.456	598.81
582.667	575.81
582.877	577.81
583.087	573.81
583.298	564.81
583.508	568.81
583.719	574.81
583.929	586.81
584.139	578.81
584.35	581.81
584.56	580.81
584.77	564.81
584.981	554.81
585.191	571.81
585.401	560.81
585.611	558.81
585.821	564.81
586.032	570.81
586.242	568.81
586.452	561.81
586.662	558.81
586.872	584.81
587.082	585.81
587.292	562.81
587.502	575.81
587.713	606.81
587.923	590.81
588.133	538.81
588.343	563.81
588.553	558.81
588.762	561.81
588.972	568.81
589.182	576.81
589.392	581.81
589.602	625.81
589.812	635.81
590.022	608.81
590.232	589.81
590.441	585.81
590.651	569.81
590.861	576.81
591.071	586.81
591.281	586.81
591.49	579.81
591.7	580.81
591.91	595.81
592.119	613.81
592.329	631.81
592.539	633.81
592.748	648.81
592.958	676.81
593.167	670.81
593.377	689.81
593.587	715.81
593.796	691.81
594.006	691.81
594.215	717.81
594.424	730.81
594.634	696.81
594.843	661.81
595.053	652.81
595.262	628.81
595.472	619.81
595.681	617.81
595.89	574.81
596.1	582.81
596.309	584.81
596.518	554.81
596.727	568.81
596.937	546.81
597.146	528.81
597.355	529.81
597.564	528.81
597.774	500.81
597.983	529.81
598.192	503.81
598.401	520.81
598.61	501.81
598.819	508.81
599.028	513.81
599.237	505.81
599.446	512.81
599.655	486.81
599.864	496.81
600.073	495.81
600.282	508.81
600.491	492.81
600.7	523.81
600.909	491.81
601.118	510.81
601.327	492.81
601.536	507.81
601.745	508.81
601.953	510.81
602.162	521.81
602.371	514.81
602.58	493.81
602.789	502.81
602.997	499.81
603.206	487.81
603.415	493.81
603.623	500.81
603.832	479.81
604.041	477.81
604.249	485.81
604.458	484.81
604.666	468.81
604.875	483.81
605.084	480.81
605.292	464.81
605.501	490.81
605.709	477.81
605.918	468.81
606.126	478.81
606.334	464.81
606.543	460.81
606.751	472.81
606.96	479.81
607.168	482.81
607.376	471.81
607.585	466.81
607.793	475.81
608.001	462.81
608.21	485.81
608.418	483.81
608.626	477.81
608.834	457.81
609.043	472.81
609.251	474.81
609.459	453.81
609.667	478.81
609.875	482.81
610.083	464.81
610.291	466.81
610.499	479.81
610.707	471.81
610.916	497.81
611.124	501.81
611.332	490.81
611.54	496.81
611.748	491.81
611.955	486.81
612.163	490.81
612.371	483.81
612.579	454.81
612.787	450.81
612.995	478.81
613.203	469.81
613.411	461.81
613.618	472.81
613.826	450.81
614.034	434.81
614.242	456.81
614.449	443.81
614.657	449.81
614.865	458.81
615.072	460.81
615.28	418.81
615.488	449.81
615.695	445.81
615.903	451.81
616.111	463.81
616.318	452.81
616.526	436.81
616.733	434.81
616.941	467.81
617.148	447.81
617.356	451.81
617.563	430.81
617.771	431.81
617.978	417.81
618.185	421.81
618.393	446.81
618.6	435.81
618.807	432.81
619.015	425.81
619.222	426.81
619.429	414.81
619.637	410.81
619.844	406.81
620.051	417.81
620.258	409.81
620.466	403.81
620.673	377.81
620.88	404.81
621.087	396.81
621.294	385.81
621.501	378.81
621.708	396.81
621.915	405.81
622.122	405.81
622.329	382.81
622.536	404.81
622.743	382.81
622.95	397.81
623.157	407.81
623.364	389.81
623.571	380.81
623.778	400.81
623.985	394.81
624.192	371.81
624.399	381.81
624.606	374.81
624.812	366.81
625.019	372.81
625.226	355.81
625.433	344.81
625.639	379.81
625.846	376.81
626.053	370.81
626.259	336.81
626.466	360.81
626.673	358.81
626.879	364.81
627.086	363.81
627.293	361.81
627.499	352.81
627.706	352.81
627.912	362.81
628.119	346.81
628.325	346.81
628.532	357.81
628.738	341.81
628.945	334.81
629.151	349.81
629.357	336.81
629.564	354.81
629.77	341.81
629.976	352.81
630.183	340.81
630.389	347.81
630.595	355.81
630.802	334.81
631.008	354.81
631.214	342.81
631.42	357.81
631.627	336.81
631.833	357.81
632.039	324.81
632.245	322.81
632.451	310.81
632.657	308.81
632.863	340.81
633.069	327.81
633.275	328.81
633.481	336.81
633.688	338.81
633.893	363.81
634.099	328.81
634.305	358.81
634.511	345.81
634.717	346.81
634.923	359.81
635.129	350.81
635.335	342.81
635.541	373.81
635.747	396.81
635.952	412.81
636.158	473.81
636.364	670.81
636.57	870.81
636.775	659.81
636.981	544.81
637.187	471.81
637.392	454.81
637.598	448.81
637.804	421.81
638.009	379.81
638.215	370.81
638.421	351.81
638.626	362.81
638.832	341.81
639.037	341.81
639.243	337.81
639.448	320.81
639.654	309.81
639.859	308.81
640.065	330.81
640.27	321.81
640.475	328.81
640.681	300.81
640.886	292.81
641.091	306.81
641.297	309.81
641.502	298.81
641.707	298.81
641.913	305.81
642.118	290.81
642.323	286.81
642.528	294.81
642.733	302.81
642.939	289.81
643.144	292.81
643.349	267.81
643.554	278.81
643.759	283.81
643.964	279.81
644.169	301.81
644.374	271.81
644.579	264.81
644.784	274.81
644.989	271.81
645.194	276.81
645.399	269.81
645.604	272.81
645.809	273.81
646.014	265.81
646.219	283.81
646.423	277.81
646.628	261.81
646.833	261.81
647.038	289.81
647.243	284.81
647.447	272.81
647.652	283.81
647.857	273.81
648.062	304.81
648.266	305.81
648.471	306.81
648.676	305.81
648.88	291.81
649.085	280.81
649.289	261.81
649.494	264.81
649.698	290.81
649.903	249.81
650.107	254.81
650.312	262.81
650.516	267.81
650.721	251.81
650.925	245.81
651.13	247.81
651.334	251.81
651.539	240.81
651.743	248.81
651.947	234.81
652.152	237.81
652.356	230.81
652.56	240.81
652.764	216.81
652.969	206.81
653.173	224.81
653.377	211.81
653.581	198.81
653.785	226.81
653.99	222.81
654.194	220.81
654.398	207.81
654.602	222.81
654.806	210.81
655.01	217.81
655.214	198.81
655.418	201.81
655.622	216.81
655.826	205.81
656.03	222.81
656.234	234.81
656.438	243.81
656.642	236.81
656.846	226.81
657.049	203.81
657.253	201.81
657.457	180.81
657.661	170.81
657.865	162.81
658.068	167.81
658.272	148.81
658.476	148.81
658.68	145.81
658.883	136.81
659.087	121.81
659.291	133.81
659.494	126.81
659.698	130.81
659.901	121.81
660.105	123.81
660.309	123.81
660.512	132.81
660.716	126.81
660.919	121.81
661.123	125.81
661.326	108.81
661.53	94.81
661.733	90.81
661.936	104.81
662.14	114.81
662.343	92.81
662.546	84.81
662.75	104.81
662.953	97.81
663.156	97.81
663.36	101.81
663.563	102.81
663.766	92.81
663.969	89.81
664.173	86.81
664.376	93.81
664.579	113.81
664.782	94.81
664.985	90.81
665.188	91.81
665.391	85.81
665.594	92.81
665.797	78.81
666	86.81
666.203	89.81
666.406	100.81
666.609	100.81
666.812	105.81
667.015	80.81
667.218	95.81
667.421	91.81
667.624	94.81
667.827	100.81
668.03	94.81
668.232	99.81
668.435	92.81
668.638	103.81
668.841	90.81
669.043	110.81
669.246	92.81
669.449	79.81
669.651	97.81
669.854	86.81
670.057	90.81
670.259	78.81
670.462	81.81
670.665	92.81
670.867	94.81
671.07	82.81
671.272	88.81
671.475	96.81
671.677	98.81
671.88	86.81
672.082	90.81
672.284	96.81
672.487	102.81
672.689	86.81
672.892	109.81
