Data from FlinnAP5935BZINC.07152019.LAMPEdge.EN10.5scans.P1_HRD10591_15-01-54-579.txt Node
Date: Mon Jul 15 15:01:54 EDT 2019
User: cochatt
Spectrometer: HR+D1059
Trigger mode: 1
Integration Time (sec): 1.000000E-1
Scans to average: 1
Electric dark correction enabled: true
Nonlinearity correction enabled: false
Boxcar width: 0
XAxis mode: Wavelengths
Number of Pixels in Spectrum: 2048
>>>>>Begin Spectral Data<<<<<
223.165	-5.88
223.4	-5.88
223.635	-5.88
223.869	-11.88
224.104	-16.88
224.338	-2.88
224.573	-16.88
224.808	-19.88
225.042	-8.88
225.277	-0.88
225.511	-8.88
225.746	-1.88
225.98	13.12
226.215	4.12
226.449	11.12
226.683	14.12
226.918	33.12
227.152	19.12
227.387	35.12
227.621	34.12
227.856	56.12
228.09	53.12
228.324	63.12
228.559	54.12
228.793	77.12
229.027	149.12
229.262	165.12
229.496	171.12
229.73	173.12
229.964	170.12
230.199	181.12
230.433	190.12
230.667	186.12
230.901	171.12
231.136	196.12
231.37	182.12
231.604	189.12
231.838	208.12
232.072	195.12
232.306	198.12
232.541	202.12
232.775	203.12
233.009	214.12
233.243	205.12
233.477	214.12
233.711	226.12
233.945	211.12
234.179	216.12
234.413	218.12
234.647	218.12
234.881	215.12
235.115	237.12
235.349	232.12
235.583	226.12
235.817	225.12
236.051	250.12
236.285	228.12
236.519	232.12
236.753	241.12
236.987	252.12
237.221	237.12
237.455	244.12
237.689	247.12
237.922	249.12
238.156	238.12
238.39	244.12
238.624	271.12
238.858	255.12
239.091	276.12
239.325	269.12
239.559	256.12
239.793	262.12
240.027	257.12
240.26	281.12
240.494	271.12
240.728	294.12
240.961	285.12
241.195	314.12
241.429	305.12
241.662	295.12
241.896	315.12
242.13	308.12
242.363	299.12
242.597	324.12
242.83	318.12
243.064	332.12
243.298	311.12
243.531	313.12
243.765	333.12
243.998	351.12
244.232	350.12
244.465	370.12
244.699	339.12
244.932	356.12
245.166	366.12
245.399	375.12
245.633	364.12
245.866	381.12
246.099	374.12
246.333	387.12
246.566	383.12
246.8	377.12
247.033	382.12
247.266	383.12
247.5	399.12
247.733	407.12
247.966	402.12
248.2	412.12
248.433	419.12
248.666	448.12
248.899	453.12
249.133	448.12
249.366	459.12
249.599	495.12
249.832	521.12
250.066	576.12
250.299	667.12
250.532	827.12
250.765	918.12
250.998	799.12
251.231	671.12
251.465	629.12
251.698	601.12
251.931	592.12
252.164	559.12
252.397	561.12
252.63	552.12
252.863	555.12
253.096	560.12
253.329	569.12
253.562	539.12
253.795	554.12
254.028	567.12
254.261	569.12
254.494	588.12
254.727	589.12
254.96	612.12
255.193	651.12
255.426	690.12
255.659	812.12
255.892	1053.12
256.124	1411.12
256.357	1535.12
256.59	1265.12
256.823	1015.12
257.056	910.12
257.289	802.12
257.521	772.12
257.754	755.12
257.987	755.12
258.22	680.12
258.452	685.12
258.685	685.12
258.918	693.12
259.151	660.12
259.383	660.12
259.616	659.12
259.849	683.12
260.081	654.12
260.314	666.12
260.547	678.12
260.779	664.12
261.012	692.12
261.244	693.12
261.477	659.12
261.71	670.12
261.942	637.12
262.175	644.12
262.407	643.12
262.64	647.12
262.872	655.12
263.105	661.12
263.337	676.12
263.57	677.12
263.802	672.12
264.035	680.12
264.267	671.12
264.499	668.12
264.732	681.12
264.964	688.12
265.197	690.12
265.429	677.12
265.661	671.12
265.894	691.12
266.126	694.12
266.358	698.12
266.591	704.12
266.823	717.12
267.055	707.12
267.287	719.12
267.52	695.12
267.752	675.12
267.984	706.12
268.216	702.12
268.448	742.12
268.681	733.12
268.913	726.12
269.145	725.12
269.377	736.12
269.609	724.12
269.841	750.12
270.073	729.12
270.306	754.12
270.538	750.12
270.77	752.12
271.002	766.12
271.234	777.12
271.466	771.12
271.698	793.12
271.93	809.12
272.162	788.12
272.394	805.12
272.626	815.12
272.858	820.12
273.09	811.12
273.322	847.12
273.553	827.12
273.785	838.12
274.017	856.12
274.249	847.12
274.481	848.12
274.713	902.12
274.945	908.12
275.176	894.12
275.408	915.12
275.64	953.12
275.872	1003.12
276.104	989.12
276.335	983.12
276.567	993.12
276.799	1022.12
277.031	1097.12
277.262	1170.12
277.494	1193.12
277.726	1147.12
277.957	1077.12
278.189	1059.12
278.421	1005.12
278.652	1021.12
278.884	1029.12
279.115	1010.12
279.347	1038.12
279.579	1064.12
279.81	1148.12
280.042	1247.12
280.273	1370.12
280.505	1364.12
280.736	1220.12
280.968	1159.12
281.199	1099.12
281.431	1079.12
281.662	1045.12
281.894	1047.12
282.125	1052.12
282.356	1054.12
282.588	991.12
282.819	1017.12
283.051	1033.12
283.282	999.12
283.513	1042.12
283.745	990.12
283.976	1021.12
284.207	1020.12
284.439	1029.12
284.67	1049.12
284.901	1027.12
285.132	1014.12
285.364	1009.12
285.595	1027.12
285.826	1019.12
286.057	1039.12
286.288	1045.12
286.52	1048.12
286.751	1049.12
286.982	1050.12
287.213	1044.12
287.444	1062.12
287.675	1055.12
287.906	1054.12
288.138	1081.12
288.369	1053.12
288.6	1084.12
288.831	1099.12
289.062	1059.12
289.293	1088.12
289.524	1095.12
289.755	1102.12
289.986	1088.12
290.217	1084.12
290.448	1111.12
290.679	1095.12
290.91	1062.12
291.141	1038.12
291.371	1066.12
291.602	1086.12
291.833	1066.12
292.064	1064.12
292.295	1063.12
292.526	1063.12
292.757	1094.12
292.987	1075.12
293.218	1037.12
293.449	1062.12
293.68	1058.12
293.91	1075.12
294.141	1100.12
294.372	1079.12
294.603	1093.12
294.833	1081.12
295.064	1050.12
295.295	1085.12
295.525	1064.12
295.756	1106.12
295.987	1093.12
296.217	1081.12
296.448	1085.12
296.679	1089.12
296.909	1106.12
297.14	1137.12
297.37	1125.12
297.601	1108.12
297.831	1113.12
298.062	1129.12
298.292	1126.12
298.523	1171.12
298.753	1162.12
298.984	1180.12
299.214	1197.12
299.445	1158.12
299.675	1164.12
299.905	1169.12
300.136	1139.12
300.366	1173.12
300.597	1165.12
300.827	1197.12
301.057	1233.12
301.288	1204.12
301.518	1210.12
301.748	1252.12
301.979	1285.12
302.209	1273.12
302.439	1264.12
302.669	1234.12
302.9	1228.12
303.13	1241.12
303.36	1259.12
303.59	1292.12
303.82	1337.12
304.051	1320.12
304.281	1294.12
304.511	1229.12
304.741	1231.12
304.971	1223.12
305.201	1219.12
305.431	1250.12
305.661	1227.12
305.891	1273.12
306.121	1225.12
306.352	1242.12
306.582	1245.12
306.812	1252.12
307.042	1321.12
307.272	1375.12
307.502	1469.12
307.731	1459.12
307.961	1412.12
308.191	1313.12
308.421	1259.12
308.651	1254.12
308.881	1218.12
309.111	1283.12
309.341	1214.12
309.571	1250.12
309.8	1279.12
310.03	1248.12
310.26	1245.12
310.49	1273.12
310.72	1275.12
310.949	1287.12
311.179	1274.12
311.409	1243.12
311.639	1305.12
311.868	1273.12
312.098	1295.12
312.328	1313.12
312.557	1318.12
312.787	1340.12
313.017	1327.12
313.246	1334.12
313.476	1307.12
313.706	1301.12
313.935	1335.12
314.165	1295.12
314.394	1330.12
314.624	1357.12
314.853	1322.12
315.083	1304.12
315.312	1350.12
315.542	1355.12
315.771	1365.12
316.001	1306.12
316.23	1327.12
316.46	1343.12
316.689	1348.12
316.919	1328.12
317.148	1370.12
317.377	1317.12
317.607	1359.12
317.836	1367.12
318.065	1350.12
318.295	1374.12
318.524	1386.12
318.753	1394.12
318.983	1343.12
319.212	1361.12
319.441	1343.12
319.67	1343.12
319.9	1421.12
320.129	1356.12
320.358	1392.12
320.587	1380.12
320.816	1430.12
321.046	1385.12
321.275	1409.12
321.504	1445.12
321.733	1438.12
321.962	1440.12
322.191	1483.12
322.42	1494.12
322.649	1470.12
322.878	1446.12
323.108	1489.12
323.337	1526.12
323.566	1536.12
323.795	1565.12
324.024	1579.12
324.253	1619.12
324.482	1593.12
324.71	1606.12
324.939	1598.12
325.168	1675.12
325.397	1664.12
325.626	1709.12
325.855	1741.12
326.084	1792.12
326.313	1796.12
326.542	1820.12
326.77	1879.12
326.999	1904.12
327.228	1985.12
327.457	2137.12
327.686	2349.12
327.914	2817.12
328.143	3453.12
328.372	4166.12
328.6	3779.12
328.829	2905.12
329.058	2612.12
329.287	2585.12
329.515	2891.12
329.744	3394.12
329.972	4375.12
330.201	5902.12
330.43	7158.12
330.658	5817.12
330.887	3673.12
331.115	2898.12
331.344	2603.12
331.572	2448.12
331.801	2439.12
332.03	2365.12
332.258	2407.12
332.486	2441.12
332.715	2497.12
332.943	2649.12
333.172	2783.12
333.4	3059.12
333.629	3367.12
333.857	3990.12
334.085	4971.12
334.314	6649.12
334.542	8697.12
334.771	9143.12
334.999	6143.12
335.227	4051.12
335.455	3301.12
335.684	2869.12
335.912	2620.12
336.14	2402.12
336.369	2305.12
336.597	2244.12
336.825	2133.12
337.053	2112.12
337.281	1959.12
337.51	1968.12
337.738	1918.12
337.966	1882.12
338.194	1862.12
338.422	1765.12
338.65	1748.12
338.878	1785.12
339.106	1717.12
339.334	1719.12
339.562	1691.12
339.79	1638.12
340.018	1636.12
340.246	1616.12
340.474	1596.12
340.702	1597.12
340.93	1608.12
341.158	1595.12
341.386	1576.12
341.614	1586.12
341.842	1556.12
342.07	1573.12
342.298	1542.12
342.526	1535.12
342.754	1546.12
342.981	1550.12
343.209	1586.12
343.437	1628.12
343.665	1651.12
343.893	1773.12
344.12	1839.12
344.348	1772.12
344.576	1631.12
344.804	1632.12
345.031	1587.12
345.259	1555.12
345.487	1526.12
345.714	1498.12
345.942	1459.12
346.17	1433.12
346.397	1499.12
346.625	1438.12
346.853	1423.12
347.08	1421.12
347.308	1429.12
347.535	1407.12
347.763	1435.12
347.99	1438.12
348.218	1438.12
348.445	1414.12
348.673	1425.12
348.9	1441.12
349.128	1423.12
349.355	1377.12
349.583	1426.12
349.81	1419.12
350.037	1438.12
350.265	1400.12
350.492	1394.12
350.72	1395.12
350.947	1414.12
351.174	1396.12
351.402	1379.12
351.629	1399.12
351.856	1379.12
352.083	1381.12
352.311	1398.12
352.538	1396.12
352.765	1388.12
352.992	1391.12
353.22	1401.12
353.447	1402.12
353.674	1379.12
353.901	1354.12
354.128	1377.12
354.355	1349.12
354.583	1363.12
354.81	1387.12
355.037	1377.12
355.264	1414.12
355.491	1363.12
355.718	1358.12
355.945	1359.12
356.172	1370.12
356.399	1359.12
356.626	1383.12
356.853	1378.12
357.08	1349.12
357.307	1376.12
357.534	1382.12
357.761	1311.12
357.988	1378.12
358.215	1365.12
358.441	1383.12
358.668	1343.12
358.895	1353.12
359.122	1294.12
359.349	1345.12
359.576	1343.12
359.802	1383.12
360.029	1344.12
360.256	1361.12
360.483	1326.12
360.709	1363.12
360.936	1376.12
361.163	1357.12
361.39	1362.12
361.616	1381.12
361.843	1335.12
362.07	1361.12
362.296	1341.12
362.523	1383.12
362.749	1367.12
362.976	1373.12
363.203	1338.12
363.429	1357.12
363.656	1320.12
363.882	1347.12
364.109	1338.12
364.335	1342.12
364.562	1315.12
364.788	1371.12
365.015	1322.12
365.241	1311.12
365.468	1332.12
365.694	1325.12
365.92	1348.12
366.147	1319.12
366.373	1329.12
366.599	1313.12
366.826	1337.12
367.052	1341.12
367.278	1336.12
367.505	1334.12
367.731	1303.12
367.957	1300.12
368.184	1348.12
368.41	1343.12
368.636	1377.12
368.862	1353.12
369.089	1339.12
369.315	1341.12
369.541	1365.12
369.767	1349.12
369.993	1357.12
370.219	1335.12
370.445	1383.12
370.672	1395.12
370.898	1393.12
371.124	1407.12
371.35	1443.12
371.576	1402.12
371.802	1410.12
372.028	1408.12
372.254	1414.12
372.48	1432.12
372.706	1431.12
372.932	1467.12
373.158	1447.12
373.384	1467.12
373.61	1412.12
373.835	1430.12
374.061	1385.12
374.287	1423.12
374.513	1459.12
374.739	1476.12
374.965	1526.12
375.191	1535.12
375.416	1510.12
375.642	1453.12
375.868	1483.12
376.094	1421.12
376.319	1404.12
376.545	1405.12
376.771	1411.12
376.997	1392.12
377.222	1425.12
377.448	1371.12
377.674	1402.12
377.899	1394.12
378.125	1412.12
378.35	1356.12
378.576	1341.12
378.802	1371.12
379.027	1389.12
379.253	1391.12
379.478	1384.12
379.704	1347.12
379.929	1378.12
380.155	1377.12
380.38	1364.12
380.606	1366.12
380.831	1363.12
381.057	1382.12
381.282	1393.12
381.507	1435.12
381.733	1424.12
381.958	1391.12
382.184	1408.12
382.409	1449.12
382.634	1446.12
382.86	1456.12
383.085	1486.12
383.31	1469.12
383.535	1505.12
383.761	1527.12
383.986	1534.12
384.211	1567.12
384.436	1597.12
384.662	1598.12
384.887	1613.12
385.112	1611.12
385.337	1616.12
385.562	1632.12
385.787	1690.12
386.013	1646.12
386.238	1667.12
386.463	1660.12
386.688	1679.12
386.913	1623.12
387.138	1602.12
387.363	1630.12
387.588	1622.12
387.813	1599.12
388.038	1597.12
388.263	1653.12
388.488	1629.12
388.713	1628.12
388.938	1641.12
389.163	1588.12
389.387	1604.12
389.612	1584.12
389.837	1580.12
390.062	1573.12
390.287	1632.12
390.512	1604.12
390.736	1611.12
390.961	1667.12
391.186	1650.12
391.411	1668.12
391.636	1764.12
391.86	1795.12
392.085	1813.12
392.31	1757.12
392.534	1723.12
392.759	1751.12
392.984	1690.12
393.208	1670.12
393.433	1662.12
393.658	1668.12
393.882	1673.12
394.107	1725.12
394.331	1698.12
394.556	1677.12
394.78	1710.12
395.005	1706.12
395.229	1718.12
395.454	1770.12
395.678	1776.12
395.903	1807.12
396.127	1770.12
396.352	1726.12
396.576	1725.12
396.801	1717.12
397.025	1743.12
397.249	1743.12
397.474	1773.12
397.698	1770.12
397.922	1823.12
398.147	1825.12
398.371	1866.12
398.595	1945.12
398.82	1977.12
399.044	2110.12
399.268	2275.12
399.492	2584.12
399.717	2786.12
399.941	2791.12
400.165	2570.12
400.389	2367.12
400.613	2176.12
400.837	2076.12
401.062	2033.12
401.286	1986.12
401.51	2027.12
401.734	1967.12
401.958	2005.12
402.182	2060.12
402.406	2050.12
402.63	2060.12
402.854	2131.12
403.078	2143.12
403.302	2149.12
403.526	2253.12
403.75	2241.12
403.974	2263.12
404.198	2307.12
404.422	2308.12
404.645	2330.12
404.869	2453.12
405.093	2486.12
405.317	2603.12
405.541	2654.12
405.765	2490.12
405.988	2362.12
406.212	2291.12
406.436	2265.12
406.66	2285.12
406.883	2261.12
407.107	2345.12
407.331	2418.12
407.555	2492.12
407.778	2481.12
408.002	2390.12
408.226	2327.12
408.449	2282.12
408.673	2231.12
408.896	2221.12
409.12	2203.12
409.344	2149.12
409.567	2138.12
409.791	2166.12
410.014	2169.12
410.238	2142.12
410.461	2140.12
410.685	2141.12
410.908	2110.12
411.132	2106.12
411.355	2062.12
411.578	2124.12
411.802	2166.12
412.025	2150.12
412.249	2300.12
412.472	2425.12
412.695	2520.12
412.919	2480.12
413.142	2367.12
413.365	2313.12
413.589	2283.12
413.812	2167.12
414.035	2125.12
414.258	2147.12
414.482	2102.12
414.705	2115.12
414.928	2045.12
415.151	2079.12
415.374	2038.12
415.597	2013.12
415.821	2010.12
416.044	2005.12
416.267	1975.12
416.49	1971.12
416.713	1949.12
416.936	1985.12
417.159	1972.12
417.382	2011.12
417.605	2114.12
417.828	2155.12
418.051	2075.12
418.274	2024.12
418.497	1966.12
418.72	2032.12
418.943	1988.12
419.166	2140.12
419.389	2302.12
419.611	2247.12
419.834	2243.12
420.057	2279.12
420.28	2363.12
420.503	2377.12
420.726	2251.12
420.948	2209.12
421.171	2183.12
421.394	2088.12
421.617	2044.12
421.839	2051.12
422.062	2050.12
422.285	2014.12
422.507	2009.12
422.73	2022.12
422.953	2012.12
423.175	2063.12
423.398	2045.12
423.621	2051.12
423.843	2068.12
424.066	2079.12
424.288	2030.12
424.511	2009.12
424.733	2005.12
424.956	1947.12
425.178	1941.12
425.401	1939.12
425.623	1969.12
425.846	1918.12
426.068	1898.12
426.291	1906.12
426.513	1870.12
426.735	1878.12
426.958	1913.12
427.18	1885.12
427.402	1990.12
427.625	2081.12
427.847	2197.12
428.069	2349.12
428.292	2261.12
428.514	2047.12
428.736	1907.12
428.958	1867.12
429.181	1793.12
429.403	1757.12
429.625	1773.12
429.847	1733.12
430.069	1754.12
430.292	1766.12
430.514	1686.12
430.736	1745.12
430.958	1742.12
431.18	1718.12
431.402	1733.12
431.624	1757.12
431.846	1748.12
432.068	1687.12
432.29	1730.12
432.512	1695.12
432.734	1693.12
432.956	1666.12
433.178	1705.12
433.4	1710.12
433.622	1715.12
433.844	1731.12
434.066	1771.12
434.287	1728.12
434.509	1751.12
434.731	1811.12
434.953	1876.12
435.175	1877.12
435.397	1839.12
435.618	1796.12
435.84	1737.12
436.062	1701.12
436.284	1746.12
436.505	1717.12
436.727	1749.12
436.949	1705.12
437.17	1694.12
437.392	1665.12
437.614	1637.12
437.835	1627.12
438.057	1612.12
438.278	1584.12
438.5	1657.12
438.721	1620.12
438.943	1638.12
439.165	1611.12
439.386	1618.12
439.608	1645.12
439.829	1637.12
440.05	1630.12
440.272	1713.12
440.493	1704.12
440.715	1691.12
440.936	1761.12
441.158	1774.12
441.379	1732.12
441.6	1862.12
441.822	1836.12
442.043	1867.12
442.264	1875.12
442.486	1835.12
442.707	1785.12
442.928	1801.12
443.149	1821.12
443.371	1797.12
443.592	1845.12
443.813	1867.12
444.034	1898.12
444.255	1925.12
444.476	1998.12
444.698	2095.12
444.919	2160.12
445.14	2272.12
445.361	2044.12
445.582	1935.12
445.803	1803.12
446.024	1755.12
446.245	1755.12
446.466	1725.12
446.687	1668.12
446.908	1737.12
447.129	1647.12
447.35	1633.12
447.571	1648.12
447.792	1634.12
448.013	1584.12
448.234	1571.12
448.455	1563.12
448.675	1604.12
448.896	1555.12
449.117	1548.12
449.338	1564.12
449.559	1529.12
449.779	1513.12
450	1494.12
450.221	1515.12
450.442	1525.12
450.662	1508.12
450.883	1548.12
451.104	1563.12
451.324	1518.12
451.545	1547.12
451.766	1516.12
451.986	1483.12
452.207	1545.12
452.428	1464.12
452.648	1501.12
452.869	1468.12
453.089	1461.12
453.31	1490.12
453.53	1467.12
453.751	1473.12
453.971	1496.12
454.192	1464.12
454.412	1436.12
454.633	1481.12
454.853	1467.12
455.073	1427.12
455.294	1450.12
455.514	1421.12
455.734	1418.12
455.955	1411.12
456.175	1441.12
456.395	1422.12
456.616	1445.12
456.836	1475.12
457.056	1445.12
457.276	1451.12
457.497	1453.12
457.717	1439.12
457.937	1486.12
458.157	1506.12
458.377	1500.12
458.598	1533.12
458.818	1580.12
459.038	1609.12
459.258	1624.12
459.478	1686.12
459.698	1739.12
459.918	1739.12
460.138	1835.12
460.358	1899.12
460.578	1889.12
460.798	1965.12
461.018	1997.12
461.238	1920.12
461.458	1947.12
461.678	1906.12
461.898	1965.12
462.118	1990.12
462.338	2059.12
462.558	2095.12
462.777	2153.12
462.997	2287.12
463.217	2521.12
463.437	2489.12
463.657	2280.12
463.876	2200.12
464.096	2183.12
464.316	2231.12
464.536	2214.12
464.755	2117.12
464.975	2044.12
465.195	1989.12
465.414	1893.12
465.634	1790.12
465.854	1768.12
466.073	1766.12
466.293	1754.12
466.512	1732.12
466.732	1661.12
466.951	1687.12
467.171	1721.12
467.391	1732.12
467.61	1801.12
467.829	1986.12
468.049	2717.12
468.268	3939.12
468.488	2940.12
468.707	2225.12
468.927	2030.12
469.146	1897.12
469.365	1863.12
469.585	1817.12
469.804	1829.12
470.023	1864.12
470.243	1815.12
470.462	1873.12
470.681	1870.12
470.901	1889.12
471.12	1864.12
471.339	1867.12
471.558	1907.12
471.777	2052.12
471.997	2443.12
472.216	3789.12
472.435	7017.12
472.654	5332.12
472.873	3427.12
473.092	2759.12
473.311	2409.12
473.53	2213.12
473.749	2079.12
473.968	2018.12
474.187	1913.12
474.406	1858.12
474.625	1861.12
474.844	1837.12
475.063	1836.12
475.282	1805.12
475.501	1798.12
475.72	1783.12
475.939	1773.12
476.158	1830.12
476.377	1793.12
476.596	1829.12
476.814	1828.12
477.033	1819.12
477.252	1853.12
477.471	1888.12
477.69	1905.12
477.908	1995.12
478.127	2007.12
478.346	2054.12
478.564	2083.12
478.783	2075.12
479.002	2216.12
479.22	2191.12
479.439	2211.12
479.658	2199.12
479.876	2301.12
480.095	2361.12
480.313	2510.12
480.532	2759.12
480.751	3157.12
480.969	4453.12
481.188	9143.12
481.406	10833.12
481.624	6171.12
481.843	4459.12
482.061	3661.12
482.28	3198.12
482.498	2876.12
482.717	2753.12
482.935	2566.12
483.153	2470.12
483.372	2387.12
483.59	2370.12
483.808	2331.12
484.027	2258.12
484.245	2267.12
484.463	2225.12
484.681	2255.12
484.9	2228.12
485.118	2229.12
485.336	2179.12
485.554	2267.12
485.772	2170.12
485.99	2137.12
486.209	2138.12
486.427	2198.12
486.645	2193.12
486.863	2213.12
487.081	2195.12
487.299	2211.12
487.517	2181.12
487.735	2151.12
487.953	2215.12
488.171	2176.12
488.389	2205.12
488.607	2197.12
488.825	2222.12
489.043	2228.12
489.261	2238.12
489.479	2240.12
489.696	2252.12
489.914	2353.12
490.132	2371.12
490.35	2365.12
490.568	2432.12
490.786	2490.12
491.003	2503.12
491.221	2632.12
491.439	2717.12
491.657	2755.12
491.874	2803.12
492.092	2815.12
492.31	2887.12
492.527	2947.12
492.745	2996.12
492.963	2997.12
493.18	2969.12
493.398	2997.12
493.615	2917.12
493.833	2813.12
494.05	2775.12
494.268	2732.12
494.485	2726.12
494.703	2695.12
494.92	2605.12
495.138	2611.12
495.355	2569.12
495.573	2563.12
495.79	2549.12
496.008	2541.12
496.225	2499.12
496.442	2468.12
496.66	2530.12
496.877	2533.12
497.094	2517.12
497.312	2490.12
497.529	2557.12
497.746	2580.12
497.963	2698.12
498.181	2702.12
498.398	2819.12
498.615	2879.12
498.832	3022.12
499.049	3164.12
499.267	3429.12
499.484	3621.12
499.701	3901.12
499.918	4154.12
500.135	4658.12
500.352	4988.12
500.569	5258.12
500.786	5285.12
501.003	4994.12
501.22	4559.12
501.437	4197.12
501.654	3755.12
501.871	3433.12
502.088	3221.12
502.305	3064.12
502.522	2956.12
502.739	2796.12
502.956	2750.12
503.172	2615.12
503.389	2561.12
503.606	2427.12
503.823	2417.12
504.04	2429.12
504.256	2458.12
504.473	2511.12
504.69	2465.12
504.907	2476.12
505.123	2383.12
505.34	2261.12
505.557	2108.12
505.773	2144.12
505.99	2050.12
506.207	2031.12
506.423	2007.12
506.64	1987.12
506.856	1955.12
507.073	1938.12
507.289	1931.12
507.506	1917.12
507.722	1902.12
507.939	1888.12
508.155	1825.12
508.372	1875.12
508.588	1846.12
508.805	1832.12
509.021	1837.12
509.238	1794.12
509.454	1771.12
509.67	1818.12
509.887	1815.12
510.103	1775.12
510.319	1811.12
510.536	1788.12
510.752	1779.12
510.968	1808.12
511.184	1790.12
511.401	1869.12
511.617	1918.12
511.833	2103.12
512.049	2278.12
512.265	2112.12
512.481	1999.12
512.698	1942.12
512.914	1902.12
513.13	1859.12
513.346	1855.12
513.562	1845.12
513.778	1842.12
513.994	1832.12
514.21	1781.12
514.426	1782.12
514.642	1813.12
514.858	1785.12
515.074	1827.12
515.29	1822.12
515.506	1824.12
515.721	1844.12
515.937	1843.12
516.153	1861.12
516.369	1885.12
516.585	1951.12
516.801	2013.12
517.016	2084.12
517.232	2161.12
517.448	2185.12
517.664	2253.12
517.879	2277.12
518.095	2279.12
518.311	2236.12
518.527	2179.12
518.742	2069.12
518.958	1970.12
519.173	1900.12
519.389	1930.12
519.605	1929.12
519.82	1803.12
520.036	1796.12
520.251	1730.12
520.467	1718.12
520.682	1701.12
520.898	1706.12
521.113	1697.12
521.329	1661.12
521.544	1657.12
521.76	1654.12
521.975	1649.12
522.19	1633.12
522.406	1628.12
522.621	1610.12
522.836	1603.12
523.052	1586.12
523.267	1567.12
523.482	1570.12
523.698	1573.12
523.913	1586.12
524.128	1589.12
524.343	1551.12
524.559	1538.12
524.774	1534.12
524.989	1563.12
525.204	1571.12
525.419	1519.12
525.634	1540.12
525.849	1530.12
526.064	1544.12
526.28	1566.12
526.495	1581.12
526.71	1535.12
526.925	1515.12
527.14	1486.12
527.355	1507.12
527.57	1533.12
527.785	1533.12
527.999	1530.12
528.214	1510.12
528.429	1567.12
528.644	1538.12
528.859	1544.12
529.074	1511.12
529.289	1577.12
529.503	1513.12
529.718	1529.12
529.933	1490.12
530.148	1519.12
530.363	1494.12
530.577	1509.12
530.792	1516.12
531.007	1525.12
531.221	1513.12
531.436	1526.12
531.651	1515.12
531.865	1536.12
532.08	1479.12
532.295	1541.12
532.509	1485.12
532.724	1523.12
532.938	1509.12
533.153	1488.12
533.367	1490.12
533.582	1511.12
533.796	1557.12
534.011	1513.12
534.225	1487.12
534.44	1426.12
534.654	1505.12
534.868	1464.12
535.083	1476.12
535.297	1491.12
535.511	1489.12
535.726	1478.12
535.94	1469.12
536.154	1454.12
536.369	1466.12
536.583	1430.12
536.797	1438.12
537.011	1394.12
537.225	1425.12
537.44	1433.12
537.654	1426.12
537.868	1425.12
538.082	1401.12
538.296	1405.12
538.51	1423.12
538.724	1395.12
538.938	1398.12
539.153	1377.12
539.367	1385.12
539.581	1368.12
539.795	1362.12
540.009	1371.12
540.222	1363.12
540.436	1346.12
540.65	1377.12
540.864	1409.12
541.078	1382.12
541.292	1373.12
541.506	1387.12
541.72	1369.12
541.934	1362.12
542.147	1439.12
542.361	1405.12
542.575	1390.12
542.789	1383.12
543.002	1371.12
543.216	1363.12
543.43	1360.12
543.644	1394.12
543.857	1382.12
544.071	1377.12
544.285	1421.12
544.498	1389.12
544.712	1405.12
544.925	1402.12
545.139	1419.12
545.352	1387.12
545.566	1458.12
545.779	1419.12
545.993	1428.12
546.206	1433.12
546.42	1453.12
546.633	1393.12
546.847	1406.12
547.06	1414.12
547.274	1426.12
547.487	1378.12
547.7	1405.12
547.914	1421.12
548.127	1407.12
548.34	1406.12
548.554	1400.12
548.767	1427.12
548.98	1422.12
549.193	1418.12
549.407	1452.12
549.62	1434.12
549.833	1407.12
550.046	1455.12
550.259	1423.12
550.473	1415.12
550.686	1401.12
550.899	1408.12
551.112	1365.12
551.325	1399.12
551.538	1422.12
551.751	1374.12
551.964	1380.12
552.177	1398.12
552.39	1396.12
552.603	1428.12
552.816	1455.12
553.029	1475.12
553.242	1515.12
553.455	1548.12
553.667	1535.12
553.88	1514.12
554.093	1449.12
554.306	1478.12
554.519	1485.12
554.732	1431.12
554.944	1393.12
555.157	1371.12
555.37	1357.12
555.583	1307.12
555.795	1337.12
556.008	1310.12
556.221	1264.12
556.433	1265.12
556.646	1231.12
556.859	1241.12
557.071	1257.12
557.284	1259.12
557.496	1234.12
557.709	1214.12
557.921	1210.12
558.134	1178.12
558.346	1197.12
558.559	1197.12
558.771	1173.12
558.984	1173.12
559.196	1185.12
559.409	1182.12
559.621	1205.12
559.833	1170.12
560.046	1203.12
560.258	1222.12
560.47	1215.12
560.683	1217.12
560.895	1205.12
561.107	1215.12
561.32	1174.12
561.532	1172.12
561.744	1178.12
561.956	1196.12
562.168	1191.12
562.381	1174.12
562.593	1179.12
562.805	1159.12
563.017	1166.12
563.229	1179.12
563.441	1168.12
563.653	1191.12
563.865	1184.12
564.077	1199.12
564.289	1203.12
564.501	1228.12
564.713	1233.12
564.925	1194.12
565.137	1272.12
565.349	1279.12
565.561	1341.12
565.773	1380.12
565.985	1443.12
566.197	1497.12
566.408	1596.12
566.62	1664.12
566.832	1793.12
567.044	1817.12
567.255	1799.12
567.467	1863.12
567.679	1927.12
567.891	2073.12
568.102	2027.12
568.314	1955.12
568.526	1814.12
568.737	1682.12
568.949	1529.12
569.161	1420.12
569.372	1353.12
569.584	1292.12
569.795	1258.12
570.007	1217.12
570.218	1226.12
570.43	1221.12
570.641	1201.12
570.853	1177.12
571.064	1205.12
571.276	1175.12
571.487	1181.12
571.698	1124.12
571.91	1118.12
572.121	1084.12
572.333	1041.12
572.544	1041.12
572.755	1020.12
572.966	997.12
573.178	986.12
573.389	991.12
573.6	957.12
573.811	990.12
574.023	1012.12
574.234	961.12
574.445	966.12
574.656	979.12
574.867	955.12
575.078	949.12
575.289	956.12
575.501	933.12
575.712	945.12
575.923	945.12
576.134	933.12
576.345	928.12
576.556	923.12
576.767	924.12
576.978	940.12
577.188	918.12
577.399	916.12
577.61	911.12
577.821	938.12
578.032	905.12
578.243	878.12
578.454	893.12
578.665	881.12
578.875	855.12
579.086	859.12
579.297	887.12
579.508	837.12
579.718	878.12
579.929	861.12
580.14	854.12
580.35	855.12
580.561	859.12
580.772	854.12
580.982	839.12
581.193	878.12
581.403	860.12
581.614	820.12
581.825	821.12
582.035	830.12
582.246	828.12
582.456	818.12
582.667	826.12
582.877	813.12
583.087	815.12
583.298	834.12
583.508	814.12
583.719	811.12
583.929	793.12
584.139	847.12
584.35	807.12
584.56	821.12
584.77	808.12
584.981	791.12
585.191	795.12
585.401	795.12
585.611	801.12
585.821	831.12
586.032	791.12
586.242	821.12
586.452	831.12
586.662	786.12
586.872	795.12
587.082	791.12
587.292	792.12
587.502	806.12
587.713	765.12
587.923	806.12
588.133	772.12
588.343	811.12
588.553	793.12
588.762	813.12
588.972	790.12
589.182	831.12
589.392	830.12
589.602	896.12
589.812	866.12
590.022	816.12
590.232	797.12
590.441	816.12
590.651	817.12
590.861	806.12
591.071	842.12
591.281	828.12
591.49	804.12
591.7	865.12
591.91	847.12
592.119	861.12
592.329	889.12
592.539	885.12
592.748	911.12
592.958	957.12
593.167	973.12
593.377	992.12
593.587	1026.12
593.796	1003.12
594.006	953.12
594.215	993.12
594.424	1015.12
594.634	1010.12
594.843	920.12
595.053	906.12
595.262	891.12
595.472	925.12
595.681	831.12
595.89	834.12
596.1	786.12
596.309	807.12
596.518	770.12
596.727	772.12
596.937	767.12
597.146	747.12
597.355	744.12
597.564	732.12
597.774	709.12
597.983	731.12
598.192	704.12
598.401	702.12
598.61	723.12
598.819	743.12
599.028	722.12
599.237	705.12
599.446	697.12
599.655	708.12
599.864	683.12
600.073	699.12
600.282	680.12
600.491	658.12
600.7	681.12
600.909	667.12
601.118	686.12
601.327	708.12
601.536	694.12
601.745	714.12
601.953	697.12
602.162	685.12
602.371	668.12
602.58	675.12
602.789	692.12
602.997	688.12
603.206	658.12
603.415	661.12
603.623	659.12
603.832	687.12
604.041	675.12
604.249	638.12
604.458	659.12
604.666	658.12
604.875	677.12
605.084	669.12
605.292	651.12
605.501	655.12
605.709	644.12
605.918	653.12
606.126	669.12
606.334	655.12
606.543	625.12
606.751	637.12
606.96	650.12
607.168	667.12
607.376	662.12
607.585	642.12
607.793	649.12
608.001	667.12
608.21	636.12
608.418	647.12
608.626	645.12
608.834	646.12
609.043	642.12
609.251	666.12
609.459	643.12
609.667	667.12
609.875	662.12
610.083	644.12
610.291	651.12
610.499	663.12
610.707	665.12
610.916	657.12
611.124	632.12
611.332	638.12
611.54	654.12
611.748	661.12
611.955	666.12
612.163	652.12
612.371	659.12
612.579	635.12
612.787	637.12
612.995	614.12
613.203	647.12
613.411	615.12
613.618	628.12
613.826	610.12
614.034	610.12
614.242	630.12
614.449	598.12
614.657	631.12
614.865	646.12
615.072	613.12
615.28	600.12
615.488	617.12
615.695	611.12
615.903	583.12
616.111	603.12
616.318	624.12
616.526	586.12
616.733	622.12
616.941	600.12
617.148	604.12
617.356	585.12
617.563	587.12
617.771	590.12
617.978	605.12
618.185	603.12
618.393	589.12
618.6	579.12
618.807	589.12
619.015	603.12
619.222	572.12
619.429	571.12
619.637	591.12
619.844	569.12
620.051	578.12
620.258	548.12
620.466	566.12
620.673	549.12
620.88	518.12
621.087	517.12
621.294	534.12
621.501	529.12
621.708	564.12
621.915	541.12
622.122	540.12
622.329	541.12
622.536	538.12
622.743	512.12
622.95	538.12
623.157	528.12
623.364	550.12
623.571	527.12
623.778	516.12
623.985	516.12
624.192	537.12
624.399	510.12
624.606	493.12
624.812	502.12
625.019	498.12
625.226	509.12
625.433	511.12
625.639	508.12
625.846	511.12
626.053	482.12
626.259	490.12
626.466	490.12
626.673	486.12
626.879	492.12
627.086	465.12
627.293	466.12
627.499	474.12
627.706	482.12
627.912	466.12
628.119	467.12
628.325	477.12
628.532	461.12
628.738	493.12
628.945	466.12
629.151	478.12
629.357	458.12
629.564	490.12
629.77	470.12
629.976	458.12
630.183	457.12
630.389	471.12
630.595	454.12
630.802	470.12
631.008	439.12
631.214	453.12
631.42	443.12
631.627	431.12
631.833	444.12
632.039	444.12
632.245	422.12
632.451	471.12
632.657	438.12
632.863	444.12
633.069	439.12
633.275	453.12
633.481	436.12
633.688	445.12
633.893	455.12
634.099	441.12
634.305	442.12
634.511	450.12
634.717	469.12
634.923	477.12
635.129	479.12
635.335	479.12
635.541	500.12
635.747	504.12
635.952	563.12
636.158	647.12
636.364	927.12
636.57	1253.12
636.775	911.12
636.981	718.12
637.187	643.12
637.392	588.12
637.598	547.12
637.804	543.12
638.009	523.12
638.215	504.12
638.421	467.12
638.626	480.12
638.832	461.12
639.037	436.12
639.243	419.12
639.448	442.12
639.654	449.12
639.859	426.12
640.065	415.12
640.27	421.12
640.475	413.12
640.681	425.12
640.886	396.12
641.091	423.12
641.297	397.12
641.502	403.12
641.707	413.12
641.913	401.12
642.118	400.12
642.323	386.12
642.528	375.12
642.733	398.12
642.939	388.12
643.144	393.12
643.349	399.12
643.554	376.12
643.759	391.12
643.964	374.12
644.169	399.12
644.374	363.12
644.579	372.12
644.784	371.12
644.989	358.12
645.194	365.12
645.399	367.12
645.604	362.12
645.809	355.12
646.014	372.12
646.219	360.12
646.423	354.12
646.628	380.12
646.833	370.12
647.038	370.12
647.243	370.12
647.447	357.12
647.652	378.12
647.857	377.12
648.062	389.12
648.266	409.12
648.471	391.12
648.676	381.12
648.88	374.12
649.085	388.12
649.289	361.12
649.494	368.12
649.698	358.12
649.903	349.12
650.107	370.12
650.312	369.12
650.516	348.12
650.721	363.12
650.925	326.12
651.13	318.12
651.334	318.12
651.539	318.12
651.743	327.12
651.947	330.12
652.152	300.12
652.356	298.12
652.56	277.12
652.764	301.12
652.969	295.12
653.173	287.12
653.377	285.12
653.581	283.12
653.785	277.12
653.99	287.12
654.194	283.12
654.398	254.12
654.602	250.12
654.806	261.12
655.01	257.12
655.214	261.12
655.418	251.12
655.622	266.12
655.826	262.12
656.03	271.12
656.234	277.12
656.438	274.12
656.642	273.12
656.846	271.12
657.049	246.12
657.253	244.12
657.457	220.12
657.661	201.12
657.865	201.12
658.068	186.12
658.272	192.12
658.476	173.12
658.68	166.12
658.883	163.12
659.087	153.12
659.291	150.12
659.494	140.12
659.698	145.12
659.901	149.12
660.105	147.12
660.309	131.12
660.512	140.12
660.716	131.12
660.919	116.12
661.123	128.12
661.326	125.12
661.53	127.12
661.733	123.12
661.936	113.12
662.14	102.12
662.343	101.12
662.546	104.12
662.75	104.12
662.953	99.12
663.156	100.12
663.36	86.12
663.563	99.12
663.766	100.12
663.969	98.12
664.173	86.12
664.376	86.12
664.579	89.12
664.782	65.12
664.985	86.12
665.188	85.12
665.391	78.12
665.594	83.12
665.797	105.12
666	79.12
666.203	85.12
666.406	92.12
666.609	93.12
666.812	84.12
667.015	96.12
667.218	76.12
667.421	93.12
667.624	75.12
667.827	97.12
668.03	89.12
668.232	83.12
668.435	100.12
668.638	94.12
668.841	96.12
669.043	101.12
669.246	88.12
669.449	93.12
669.651	95.12
669.854	93.12
670.057	90.12
670.259	92.12
670.462	93.12
670.665	87.12
670.867	86.12
671.07	90.12
671.272	109.12
671.475	116.12
671.677	80.12
671.88	89.12
672.082	74.12
672.284	91.12
672.487	96.12
672.689	95.12
672.892	95.12
