Data from FlinnAP5935BZINC.07152019.QSWITCHedge.EN10.5scans.P1_HRD10591_15-05-43-552.txt Node
Date: Mon Jul 15 15:05:43 EDT 2019
User: cochatt
Spectrometer: HR+D1059
Trigger mode: 1
Integration Time (sec): 1.000000E-1
Scans to average: 1
Electric dark correction enabled: true
Nonlinearity correction enabled: false
Boxcar width: 0
XAxis mode: Wavelengths
Number of Pixels in Spectrum: 2048
>>>>>Begin Spectral Data<<<<<
223.165	-3.44
223.4	-3.44
223.635	-3.44
223.869	-17.44
224.104	-6.44
224.338	-13.44
224.573	-5.44
224.808	-13.44
225.042	-13.44
225.277	-23.44
225.511	-4.44
225.746	-3.44
225.98	7.56
226.215	8.56
226.449	26.56
226.683	13.56
226.918	19.56
227.152	28.56
227.387	35.56
227.621	39.56
227.856	33.56
228.09	36.56
228.324	52.56
228.559	49.56
228.793	69.56
229.027	58.56
229.262	66.56
229.496	85.56
229.73	86.56
229.964	79.56
230.199	72.56
230.433	83.56
230.667	90.56
230.901	78.56
231.136	94.56
231.37	82.56
231.604	88.56
231.838	80.56
232.072	81.56
232.306	84.56
232.541	97.56
232.775	95.56
233.009	74.56
233.243	80.56
233.477	75.56
233.711	100.56
233.945	76.56
234.179	72.56
234.413	85.56
234.647	74.56
234.881	76.56
235.115	74.56
235.349	84.56
235.583	71.56
235.817	75.56
236.051	74.56
236.285	83.56
236.519	75.56
236.753	76.56
236.987	78.56
237.221	71.56
237.455	66.56
237.689	76.56
237.922	86.56
238.156	86.56
238.39	93.56
238.624	84.56
238.858	77.56
239.091	88.56
239.325	72.56
239.559	80.56
239.793	71.56
240.027	82.56
240.26	71.56
240.494	83.56
240.728	79.56
240.961	86.56
241.195	83.56
241.429	70.56
241.662	76.56
241.896	84.56
242.13	85.56
242.363	86.56
242.597	81.56
242.83	80.56
243.064	66.56
243.298	81.56
243.531	90.56
243.765	86.56
243.998	78.56
244.232	63.56
244.465	83.56
244.699	96.56
244.932	94.56
245.166	93.56
245.399	85.56
245.633	77.56
245.866	73.56
246.099	81.56
246.333	74.56
246.566	91.56
246.8	84.56
247.033	80.56
247.266	83.56
247.5	98.56
247.733	90.56
247.966	86.56
248.2	96.56
248.433	84.56
248.666	84.56
248.899	84.56
249.133	90.56
249.366	75.56
249.599	89.56
249.832	89.56
250.066	86.56
250.299	90.56
250.532	76.56
250.765	84.56
250.998	81.56
251.231	96.56
251.465	97.56
251.698	84.56
251.931	94.56
252.164	99.56
252.397	86.56
252.63	70.56
252.863	82.56
253.096	96.56
253.329	91.56
253.562	92.56
253.795	88.56
254.028	68.56
254.261	83.56
254.494	76.56
254.727	99.56
254.96	85.56
255.193	78.56
255.426	78.56
255.659	77.56
255.892	96.56
256.124	77.56
256.357	80.56
256.59	95.56
256.823	78.56
257.056	89.56
257.289	93.56
257.521	88.56
257.754	81.56
257.987	80.56
258.22	93.56
258.452	82.56
258.685	103.56
258.918	86.56
259.151	89.56
259.383	92.56
259.616	85.56
259.849	83.56
260.081	85.56
260.314	78.56
260.547	100.56
260.779	84.56
261.012	83.56
261.244	86.56
261.477	95.56
261.71	85.56
261.942	96.56
262.175	95.56
262.407	87.56
262.64	82.56
262.872	82.56
263.105	78.56
263.337	79.56
263.57	79.56
263.802	89.56
264.035	94.56
264.267	85.56
264.499	95.56
264.732	71.56
264.964	82.56
265.197	74.56
265.429	88.56
265.661	90.56
265.894	72.56
266.126	86.56
266.358	84.56
266.591	86.56
266.823	92.56
267.055	90.56
267.287	90.56
267.52	83.56
267.752	87.56
267.984	85.56
268.216	83.56
268.448	93.56
268.681	87.56
268.913	101.56
269.145	82.56
269.377	77.56
269.609	89.56
269.841	104.56
270.073	88.56
270.306	99.56
270.538	90.56
270.77	94.56
271.002	102.56
271.234	92.56
271.466	93.56
271.698	66.56
271.93	84.56
272.162	82.56
272.394	93.56
272.626	78.56
272.858	90.56
273.09	91.56
273.322	98.56
273.553	85.56
273.785	89.56
274.017	84.56
274.249	74.56
274.481	99.56
274.713	95.56
274.945	87.56
275.176	83.56
275.408	82.56
275.64	95.56
275.872	120.56
276.104	114.56
276.335	92.56
276.567	85.56
276.799	100.56
277.031	111.56
277.262	140.56
277.494	124.56
277.726	94.56
277.957	85.56
278.189	91.56
278.421	92.56
278.652	82.56
278.884	88.56
279.115	90.56
279.347	88.56
279.579	106.56
279.81	121.56
280.042	130.56
280.273	150.56
280.505	154.56
280.736	109.56
280.968	93.56
281.199	89.56
281.431	97.56
281.662	89.56
281.894	89.56
282.125	85.56
282.356	92.56
282.588	83.56
282.819	85.56
283.051	95.56
283.282	102.56
283.513	90.56
283.745	92.56
283.976	85.56
284.207	98.56
284.439	79.56
284.67	91.56
284.901	93.56
285.132	83.56
285.364	66.56
285.595	89.56
285.826	84.56
286.057	84.56
286.288	91.56
286.52	102.56
286.751	91.56
286.982	92.56
287.213	89.56
287.444	84.56
287.675	82.56
287.906	102.56
288.138	103.56
288.369	88.56
288.6	81.56
288.831	87.56
289.062	94.56
289.293	94.56
289.524	89.56
289.755	96.56
289.986	97.56
290.217	90.56
290.448	90.56
290.679	83.56
290.91	83.56
291.141	85.56
291.371	93.56
291.602	91.56
291.833	103.56
292.064	82.56
292.295	92.56
292.526	90.56
292.757	92.56
292.987	94.56
293.218	87.56
293.449	82.56
293.68	92.56
293.91	91.56
294.141	93.56
294.372	101.56
294.603	99.56
294.833	84.56
295.064	77.56
295.295	85.56
295.525	90.56
295.756	88.56
295.987	92.56
296.217	91.56
296.448	98.56
296.679	98.56
296.909	100.56
297.14	98.56
297.37	73.56
297.601	95.56
297.831	81.56
298.062	79.56
298.292	92.56
298.523	88.56
298.753	96.56
298.984	84.56
299.214	91.56
299.445	89.56
299.675	81.56
299.905	99.56
300.136	96.56
300.366	80.56
300.597	97.56
300.827	86.56
301.057	94.56
301.288	96.56
301.518	94.56
301.748	100.56
301.979	101.56
302.209	94.56
302.439	93.56
302.669	103.56
302.9	100.56
303.13	90.56
303.36	83.56
303.59	94.56
303.82	102.56
304.051	88.56
304.281	82.56
304.511	100.56
304.741	92.56
304.971	78.56
305.201	90.56
305.431	92.56
305.661	93.56
305.891	90.56
306.121	89.56
306.352	92.56
306.582	94.56
306.812	85.56
307.042	94.56
307.272	131.56
307.502	124.56
307.731	120.56
307.961	113.56
308.191	100.56
308.421	83.56
308.651	77.56
308.881	82.56
309.111	104.56
309.341	90.56
309.571	82.56
309.8	100.56
310.03	92.56
310.26	78.56
310.49	96.56
310.72	80.56
310.949	87.56
311.179	93.56
311.409	80.56
311.639	98.56
311.868	89.56
312.098	83.56
312.328	71.56
312.557	102.56
312.787	103.56
313.017	96.56
313.246	88.56
313.476	83.56
313.706	87.56
313.935	78.56
314.165	105.56
314.394	93.56
314.624	89.56
314.853	86.56
315.083	96.56
315.312	98.56
315.542	82.56
315.771	92.56
316.001	98.56
316.23	76.56
316.46	86.56
316.689	84.56
316.919	84.56
317.148	99.56
317.377	107.56
317.607	83.56
317.836	95.56
318.065	79.56
318.295	87.56
318.524	86.56
318.753	82.56
318.983	82.56
319.212	99.56
319.441	95.56
319.67	96.56
319.9	89.56
320.129	98.56
320.358	108.56
320.587	95.56
320.816	81.56
321.046	91.56
321.275	87.56
321.504	86.56
321.733	91.56
321.962	103.56
322.191	100.56
322.42	82.56
322.649	86.56
322.878	94.56
323.108	96.56
323.337	97.56
323.566	83.56
323.795	85.56
324.024	90.56
324.253	99.56
324.482	92.56
324.71	84.56
324.939	87.56
325.168	83.56
325.397	86.56
325.626	88.56
325.855	92.56
326.084	86.56
326.313	106.56
326.542	92.56
326.77	100.56
326.999	89.56
327.228	94.56
327.457	101.56
327.686	110.56
327.914	142.56
328.143	208.56
328.372	284.56
328.6	252.56
328.829	132.56
329.058	101.56
329.287	111.56
329.515	101.56
329.744	127.56
329.972	219.56
330.201	375.56
330.43	578.56
330.658	441.56
330.887	168.56
331.115	101.56
331.344	111.56
331.572	85.56
331.801	105.56
332.03	93.56
332.258	86.56
332.486	90.56
332.715	98.56
332.943	95.56
333.172	99.56
333.4	108.56
333.629	109.56
333.857	125.56
334.085	163.56
334.314	344.56
334.542	616.56
334.771	745.56
334.999	389.56
335.227	150.56
335.455	98.56
335.684	90.56
335.912	87.56
336.14	90.56
336.369	96.56
336.597	99.56
336.825	100.56
337.053	98.56
337.281	102.56
337.51	88.56
337.738	95.56
337.966	90.56
338.194	85.56
338.422	94.56
338.65	83.56
338.878	88.56
339.106	81.56
339.334	91.56
339.562	83.56
339.79	100.56
340.018	84.56
340.246	90.56
340.474	94.56
340.702	94.56
340.93	98.56
341.158	90.56
341.386	95.56
341.614	79.56
341.842	79.56
342.07	92.56
342.298	87.56
342.526	80.56
342.754	88.56
342.981	85.56
343.209	87.56
343.437	90.56
343.665	82.56
343.893	86.56
344.12	93.56
344.348	86.56
344.576	97.56
344.804	92.56
345.031	94.56
345.259	91.56
345.487	96.56
345.714	94.56
345.942	84.56
346.17	88.56
346.397	84.56
346.625	87.56
346.853	61.56
347.08	81.56
347.308	88.56
347.535	84.56
347.763	84.56
347.99	92.56
348.218	92.56
348.445	95.56
348.673	87.56
348.9	91.56
349.128	93.56
349.355	90.56
349.583	88.56
349.81	88.56
350.037	84.56
350.265	87.56
350.492	90.56
350.72	91.56
350.947	108.56
351.174	88.56
351.402	91.56
351.629	89.56
351.856	101.56
352.083	94.56
352.311	98.56
352.538	94.56
352.765	98.56
352.992	97.56
353.22	99.56
353.447	92.56
353.674	104.56
353.901	94.56
354.128	109.56
354.355	79.56
354.583	95.56
354.81	93.56
355.037	80.56
355.264	76.56
355.491	86.56
355.718	93.56
355.945	95.56
356.172	83.56
356.399	78.56
356.626	90.56
356.853	93.56
357.08	86.56
357.307	84.56
357.534	94.56
357.761	99.56
357.988	97.56
358.215	95.56
358.441	83.56
358.668	83.56
358.895	87.56
359.122	103.56
359.349	96.56
359.576	82.56
359.802	93.56
360.029	94.56
360.256	80.56
360.483	85.56
360.709	78.56
360.936	97.56
361.163	92.56
361.39	102.56
361.616	106.56
361.843	90.56
362.07	92.56
362.296	91.56
362.523	89.56
362.749	77.56
362.976	91.56
363.203	108.56
363.429	93.56
363.656	96.56
363.882	81.56
364.109	95.56
364.335	81.56
364.562	79.56
364.788	78.56
365.015	88.56
365.241	70.56
365.468	84.56
365.694	83.56
365.92	84.56
366.147	87.56
366.373	83.56
366.599	101.56
366.826	78.56
367.052	80.56
367.278	88.56
367.505	87.56
367.731	96.56
367.957	86.56
368.184	83.56
368.41	91.56
368.636	87.56
368.862	93.56
369.089	74.56
369.315	91.56
369.541	83.56
369.767	92.56
369.993	89.56
370.219	87.56
370.445	88.56
370.672	88.56
370.898	84.56
371.124	85.56
371.35	98.56
371.576	98.56
371.802	96.56
372.028	93.56
372.254	88.56
372.48	79.56
372.706	105.56
372.932	92.56
373.158	75.56
373.384	83.56
373.61	96.56
373.835	86.56
374.061	92.56
374.287	102.56
374.513	88.56
374.739	83.56
374.965	92.56
375.191	80.56
375.416	85.56
375.642	83.56
375.868	98.56
376.094	93.56
376.319	79.56
376.545	93.56
376.771	95.56
376.997	81.56
377.222	91.56
377.448	99.56
377.674	83.56
377.899	76.56
378.125	88.56
378.35	80.56
378.576	79.56
378.802	88.56
379.027	93.56
379.253	92.56
379.478	97.56
379.704	85.56
379.929	85.56
380.155	95.56
380.38	91.56
380.606	91.56
380.831	81.56
381.057	94.56
381.282	94.56
381.507	90.56
381.733	86.56
381.958	83.56
382.184	91.56
382.409	83.56
382.634	79.56
382.86	83.56
383.085	90.56
383.31	90.56
383.535	104.56
383.761	90.56
383.986	87.56
384.211	86.56
384.436	98.56
384.662	85.56
384.887	85.56
385.112	83.56
385.337	98.56
385.562	87.56
385.787	84.56
386.013	90.56
386.238	91.56
386.463	95.56
386.688	83.56
386.913	87.56
387.138	86.56
387.363	98.56
387.588	87.56
387.813	96.56
388.038	85.56
388.263	78.56
388.488	87.56
388.713	82.56
388.938	104.56
389.163	101.56
389.387	93.56
389.612	86.56
389.837	76.56
390.062	95.56
390.287	81.56
390.512	90.56
390.736	84.56
390.961	84.56
391.186	84.56
391.411	70.56
391.636	93.56
391.86	96.56
392.085	93.56
392.31	100.56
392.534	91.56
392.759	87.56
392.984	87.56
393.208	85.56
393.433	105.56
393.658	89.56
393.882	90.56
394.107	82.56
394.331	85.56
394.556	96.56
394.78	91.56
395.005	90.56
395.229	93.56
395.454	82.56
395.678	100.56
395.903	87.56
396.127	93.56
396.352	94.56
396.576	76.56
396.801	85.56
397.025	84.56
397.249	81.56
397.474	81.56
397.698	104.56
397.922	74.56
398.147	83.56
398.371	80.56
398.595	78.56
398.82	74.56
399.044	95.56
399.268	92.56
399.492	87.56
399.717	98.56
399.941	90.56
400.165	83.56
400.389	92.56
400.613	89.56
400.837	84.56
401.062	82.56
401.286	84.56
401.51	83.56
401.734	83.56
401.958	95.56
402.182	85.56
402.406	90.56
402.63	87.56
402.854	85.56
403.078	84.56
403.302	89.56
403.526	94.56
403.75	89.56
403.974	75.56
404.198	85.56
404.422	83.56
404.645	88.56
404.869	86.56
405.093	91.56
405.317	85.56
405.541	97.56
405.765	86.56
405.988	105.56
406.212	93.56
406.436	97.56
406.66	93.56
406.883	97.56
407.107	80.56
407.331	82.56
407.555	95.56
407.778	92.56
408.002	84.56
408.226	79.56
408.449	76.56
408.673	73.56
408.896	92.56
409.12	96.56
409.344	84.56
409.567	88.56
409.791	96.56
410.014	86.56
410.238	92.56
410.461	76.56
410.685	87.56
410.908	95.56
411.132	98.56
411.355	94.56
411.578	79.56
411.802	86.56
412.025	96.56
412.249	77.56
412.472	95.56
412.695	99.56
412.919	77.56
413.142	96.56
413.365	84.56
413.589	82.56
413.812	79.56
414.035	91.56
414.258	90.56
414.482	95.56
414.705	93.56
414.928	78.56
415.151	77.56
415.374	96.56
415.597	94.56
415.821	80.56
416.044	78.56
416.267	96.56
416.49	98.56
416.713	93.56
416.936	98.56
417.159	81.56
417.382	94.56
417.605	89.56
417.828	87.56
418.051	93.56
418.274	93.56
418.497	90.56
418.72	88.56
418.943	87.56
419.166	95.56
419.389	83.56
419.611	83.56
419.834	86.56
420.057	102.56
420.28	77.56
420.503	82.56
420.726	86.56
420.948	83.56
421.171	77.56
421.394	98.56
421.617	84.56
421.839	85.56
422.062	83.56
422.285	80.56
422.507	97.56
422.73	82.56
422.953	78.56
423.175	83.56
423.398	75.56
423.621	89.56
423.843	85.56
424.066	79.56
424.288	102.56
424.511	84.56
424.733	85.56
424.956	75.56
425.178	86.56
425.401	93.56
425.623	93.56
425.846	71.56
426.068	92.56
426.291	71.56
426.513	78.56
426.735	107.56
426.958	76.56
427.18	86.56
427.402	93.56
427.625	88.56
427.847	119.56
428.069	125.56
428.292	104.56
428.514	104.56
428.736	96.56
428.958	91.56
429.181	94.56
429.403	77.56
429.625	86.56
429.847	81.56
430.069	80.56
430.292	84.56
430.514	99.56
430.736	96.56
430.958	81.56
431.18	85.56
431.402	86.56
431.624	83.56
431.846	87.56
432.068	95.56
432.29	93.56
432.512	92.56
432.734	86.56
432.956	87.56
433.178	95.56
433.4	71.56
433.622	86.56
433.844	82.56
434.066	83.56
434.287	79.56
434.509	90.56
434.731	68.56
434.953	87.56
435.175	86.56
435.397	95.56
435.618	100.56
435.84	96.56
436.062	105.56
436.284	96.56
436.505	85.56
436.727	93.56
436.949	86.56
437.17	90.56
437.392	84.56
437.614	80.56
437.835	82.56
438.057	73.56
438.278	88.56
438.5	78.56
438.721	95.56
438.943	91.56
439.165	89.56
439.386	97.56
439.608	82.56
439.829	88.56
440.05	76.56
440.272	86.56
440.493	96.56
440.715	92.56
440.936	99.56
441.158	90.56
441.379	88.56
441.6	92.56
441.822	82.56
442.043	79.56
442.264	95.56
442.486	94.56
442.707	92.56
442.928	83.56
443.149	71.56
443.371	82.56
443.592	78.56
443.813	90.56
444.034	98.56
444.255	94.56
444.476	74.56
444.698	88.56
444.919	92.56
445.14	242.56
445.361	143.56
445.582	76.56
445.803	92.56
446.024	98.56
446.245	88.56
446.466	86.56
446.687	89.56
446.908	94.56
447.129	92.56
447.35	81.56
447.571	87.56
447.792	91.56
448.013	94.56
448.234	102.56
448.455	84.56
448.675	72.56
448.896	98.56
449.117	86.56
449.338	95.56
449.559	103.56
449.779	102.56
450	88.56
450.221	86.56
450.442	95.56
450.662	88.56
450.883	80.56
451.104	91.56
451.324	96.56
451.545	85.56
451.766	95.56
451.986	94.56
452.207	98.56
452.428	95.56
452.648	107.56
452.869	87.56
453.089	78.56
453.31	98.56
453.53	101.56
453.751	99.56
453.971	82.56
454.192	90.56
454.412	97.56
454.633	101.56
454.853	98.56
455.073	90.56
455.294	77.56
455.514	84.56
455.734	95.56
455.955	86.56
456.175	80.56
456.395	86.56
456.616	88.56
456.836	87.56
457.056	82.56
457.276	93.56
457.497	90.56
457.717	92.56
457.937	88.56
458.157	95.56
458.377	84.56
458.598	92.56
458.818	71.56
459.038	89.56
459.258	100.56
459.478	89.56
459.698	87.56
459.918	94.56
460.138	95.56
460.358	93.56
460.578	101.56
460.798	76.56
461.018	85.56
461.238	90.56
461.458	78.56
461.678	107.56
461.898	95.56
462.118	116.56
462.338	89.56
462.558	85.56
462.777	86.56
462.997	89.56
463.217	99.56
463.437	109.56
463.657	77.56
463.876	82.56
464.096	106.56
464.316	90.56
464.536	91.56
464.755	91.56
464.975	96.56
465.195	82.56
465.414	92.56
465.634	86.56
465.854	79.56
466.073	87.56
466.293	83.56
466.512	75.56
466.732	99.56
466.951	99.56
467.171	92.56
467.391	86.56
467.61	101.56
467.829	117.56
468.049	275.56
468.268	469.56
468.488	182.56
468.707	101.56
468.927	98.56
469.146	86.56
469.365	83.56
469.585	95.56
469.804	86.56
470.023	90.56
470.243	80.56
470.462	103.56
470.681	88.56
470.901	91.56
471.12	90.56
471.339	90.56
471.558	109.56
471.777	113.56
471.997	166.56
472.216	434.56
472.435	1076.56
472.654	400.56
472.873	142.56
473.092	91.56
473.311	89.56
473.53	100.56
473.749	104.56
473.968	101.56
474.187	84.56
474.406	85.56
474.625	82.56
474.844	92.56
475.063	88.56
475.282	96.56
475.501	87.56
475.72	99.56
475.939	92.56
476.158	95.56
476.377	71.56
476.596	82.56
476.814	106.56
477.033	90.56
477.252	82.56
477.471	76.56
477.69	90.56
477.908	88.56
478.127	92.56
478.346	85.56
478.564	78.56
478.783	101.56
479.002	101.56
479.22	96.56
479.439	95.56
479.658	95.56
479.876	96.56
480.095	108.56
480.313	98.56
480.532	105.56
480.751	155.56
480.969	368.56
481.188	1388.56
481.406	1290.56
481.624	238.56
481.843	112.56
482.061	97.56
482.28	108.56
482.498	94.56
482.717	85.56
482.935	84.56
483.153	94.56
483.372	80.56
483.59	70.56
483.808	98.56
484.027	94.56
484.245	90.56
484.463	91.56
484.681	88.56
484.9	78.56
485.118	107.56
485.336	93.56
485.554	76.56
485.772	95.56
485.99	75.56
486.209	94.56
486.427	95.56
486.645	93.56
486.863	78.56
487.081	97.56
487.299	95.56
487.517	98.56
487.735	96.56
487.953	109.56
488.171	105.56
488.389	95.56
488.607	98.56
488.825	100.56
489.043	102.56
489.261	91.56
489.479	82.56
489.696	96.56
489.914	89.56
490.132	108.56
490.35	77.56
490.568	97.56
490.786	74.56
491.003	87.56
491.221	85.56
491.439	111.56
491.657	92.56
491.874	103.56
492.092	99.56
492.31	96.56
492.527	96.56
492.745	86.56
492.963	92.56
493.18	92.56
493.398	98.56
493.615	83.56
493.833	89.56
494.05	102.56
494.268	88.56
494.485	90.56
494.703	104.56
494.92	100.56
495.138	89.56
495.355	101.56
495.573	103.56
495.79	99.56
496.008	78.56
496.225	93.56
496.442	81.56
496.66	109.56
496.877	91.56
497.094	100.56
497.312	86.56
497.529	100.56
497.746	91.56
497.963	90.56
498.181	84.56
498.398	101.56
498.615	95.56
498.832	94.56
499.049	85.56
499.267	84.56
499.484	94.56
499.701	86.56
499.918	104.56
500.135	96.56
500.352	92.56
500.569	99.56
500.786	93.56
501.003	82.56
501.22	70.56
501.437	91.56
501.654	84.56
501.871	78.56
502.088	76.56
502.305	86.56
502.522	81.56
502.739	77.56
502.956	75.56
503.172	103.56
503.389	86.56
503.606	87.56
503.823	86.56
504.04	80.56
504.256	88.56
504.473	68.56
504.69	92.56
504.907	87.56
505.123	87.56
505.34	86.56
505.557	101.56
505.773	89.56
505.99	97.56
506.207	92.56
506.423	102.56
506.64	91.56
506.856	95.56
507.073	88.56
507.289	86.56
507.506	85.56
507.722	84.56
507.939	87.56
508.155	101.56
508.372	95.56
508.588	96.56
508.805	92.56
509.021	93.56
509.238	83.56
509.454	96.56
509.67	86.56
509.887	81.56
510.103	95.56
510.319	94.56
510.536	104.56
510.752	91.56
510.968	99.56
511.184	88.56
511.401	92.56
511.617	76.56
511.833	97.56
512.049	86.56
512.265	82.56
512.481	81.56
512.698	93.56
512.914	77.56
513.13	95.56
513.346	82.56
513.562	86.56
513.778	93.56
513.994	85.56
514.21	96.56
514.426	90.56
514.642	88.56
514.858	95.56
515.074	90.56
515.29	88.56
515.506	95.56
515.721	90.56
515.937	84.56
516.153	98.56
516.369	93.56
516.585	98.56
516.801	107.56
517.016	85.56
517.232	89.56
517.448	87.56
517.664	86.56
517.879	86.56
518.095	94.56
518.311	99.56
518.527	110.56
518.742	91.56
518.958	95.56
519.173	95.56
519.389	94.56
519.605	95.56
519.82	89.56
520.036	95.56
520.251	96.56
520.467	90.56
520.682	97.56
520.898	98.56
521.113	84.56
521.329	95.56
521.544	100.56
521.76	84.56
521.975	86.56
522.19	102.56
522.406	88.56
522.621	92.56
522.836	94.56
523.052	93.56
523.267	75.56
523.482	84.56
523.698	101.56
523.913	79.56
524.128	90.56
524.343	81.56
524.559	95.56
524.774	84.56
524.989	78.56
525.204	87.56
525.419	83.56
525.634	89.56
525.849	83.56
526.064	96.56
526.28	94.56
526.495	88.56
526.71	80.56
526.925	91.56
527.14	95.56
527.355	96.56
527.57	84.56
527.785	97.56
527.999	100.56
528.214	89.56
528.429	107.56
528.644	98.56
528.859	86.56
529.074	91.56
529.289	82.56
529.503	88.56
529.718	98.56
529.933	92.56
530.148	84.56
530.363	84.56
530.577	75.56
530.792	86.56
531.007	95.56
531.221	101.56
531.436	79.56
531.651	98.56
531.865	81.56
532.08	81.56
532.295	87.56
532.509	89.56
532.724	87.56
532.938	96.56
533.153	107.56
533.367	88.56
533.582	91.56
533.796	98.56
534.011	97.56
534.225	80.56
534.44	93.56
534.654	95.56
534.868	80.56
535.083	98.56
535.297	91.56
535.511	93.56
535.726	95.56
535.94	102.56
536.154	98.56
536.369	89.56
536.583	102.56
536.797	89.56
537.011	85.56
537.225	86.56
537.44	83.56
537.654	90.56
537.868	95.56
538.082	86.56
538.296	87.56
538.51	104.56
538.724	102.56
538.938	91.56
539.153	94.56
539.367	89.56
539.581	91.56
539.795	93.56
540.009	110.56
540.222	100.56
540.436	101.56
540.65	96.56
540.864	92.56
541.078	101.56
541.292	91.56
541.506	95.56
541.72	109.56
541.934	97.56
542.147	103.56
542.361	133.56
542.575	112.56
542.789	116.56
543.002	109.56
543.216	102.56
543.43	94.56
543.644	114.56
543.857	109.56
544.071	117.56
544.285	110.56
544.498	109.56
544.712	134.56
544.925	119.56
545.139	111.56
545.352	113.56
545.566	103.56
545.779	123.56
545.993	109.56
546.206	143.56
546.42	134.56
546.633	120.56
546.847	110.56
547.06	116.56
547.274	98.56
547.487	90.56
547.7	101.56
547.914	91.56
548.127	104.56
548.34	104.56
548.554	107.56
548.767	96.56
548.98	90.56
549.193	99.56
549.407	114.56
549.62	98.56
549.833	91.56
550.046	101.56
550.259	101.56
550.473	88.56
550.686	99.56
550.899	93.56
551.112	101.56
551.325	91.56
551.538	106.56
551.751	109.56
551.964	110.56
552.177	88.56
552.39	99.56
552.603	104.56
552.816	91.56
553.029	99.56
553.242	93.56
553.455	92.56
553.667	92.56
553.88	84.56
554.093	93.56
554.306	108.56
554.519	102.56
554.732	103.56
554.944	97.56
555.157	109.56
555.37	90.56
555.583	106.56
555.795	101.56
556.008	101.56
556.221	84.56
556.433	82.56
556.646	97.56
556.859	88.56
557.071	99.56
557.284	92.56
557.496	94.56
557.709	94.56
557.921	87.56
558.134	96.56
558.346	98.56
558.559	97.56
558.771	82.56
558.984	83.56
559.196	99.56
559.409	101.56
559.621	96.56
559.833	87.56
560.046	87.56
560.258	91.56
560.47	117.56
560.683	102.56
560.895	99.56
561.107	98.56
561.32	92.56
561.532	98.56
561.744	90.56
561.956	99.56
562.168	95.56
562.381	93.56
562.593	108.56
562.805	90.56
563.017	92.56
563.229	82.56
563.441	81.56
563.653	95.56
563.865	85.56
564.077	93.56
564.289	98.56
564.501	93.56
564.713	92.56
564.925	94.56
565.137	88.56
565.349	94.56
565.561	94.56
565.773	97.56
565.985	94.56
566.197	96.56
566.408	90.56
566.62	86.56
566.832	95.56
567.044	84.56
567.255	91.56
567.467	104.56
567.679	101.56
567.891	110.56
568.102	83.56
568.314	111.56
568.526	94.56
568.737	98.56
568.949	99.56
569.161	99.56
569.372	83.56
569.584	94.56
569.795	96.56
570.007	99.56
570.218	88.56
570.43	87.56
570.641	86.56
570.853	94.56
571.064	109.56
571.276	84.56
571.487	94.56
571.698	108.56
571.91	96.56
572.121	84.56
572.333	90.56
572.544	73.56
572.755	96.56
572.966	96.56
573.178	91.56
573.389	101.56
573.6	86.56
573.811	96.56
574.023	86.56
574.234	86.56
574.445	89.56
574.656	100.56
574.867	91.56
575.078	87.56
575.289	86.56
575.501	95.56
575.712	80.56
575.923	90.56
576.134	103.56
576.345	78.56
576.556	95.56
576.767	100.56
576.978	94.56
577.188	102.56
577.399	98.56
577.61	99.56
577.821	95.56
578.032	94.56
578.243	92.56
578.454	106.56
578.665	105.56
578.875	105.56
579.086	89.56
579.297	79.56
579.508	95.56
579.718	94.56
579.929	88.56
580.14	95.56
580.35	98.56
580.561	93.56
580.772	87.56
580.982	91.56
581.193	93.56
581.403	101.56
581.614	88.56
581.825	116.56
582.035	100.56
582.246	88.56
582.456	98.56
582.667	99.56
582.877	108.56
583.087	88.56
583.298	90.56
583.508	108.56
583.719	102.56
583.929	85.56
584.139	95.56
584.35	94.56
584.56	102.56
584.77	98.56
584.981	91.56
585.191	90.56
585.401	98.56
585.611	84.56
585.821	101.56
586.032	95.56
586.242	95.56
586.452	102.56
586.662	103.56
586.872	111.56
587.082	110.56
587.292	104.56
587.502	99.56
587.713	87.56
587.923	104.56
588.133	93.56
588.343	101.56
588.553	97.56
588.762	114.56
588.972	103.56
589.182	88.56
589.392	91.56
589.602	103.56
589.812	95.56
590.022	92.56
590.232	82.56
590.441	104.56
590.651	86.56
590.861	90.56
591.071	83.56
591.281	107.56
591.49	100.56
591.7	98.56
591.91	94.56
592.119	92.56
592.329	96.56
592.539	96.56
592.748	90.56
592.958	90.56
593.167	92.56
593.377	84.56
593.587	101.56
593.796	77.56
594.006	95.56
594.215	92.56
594.424	91.56
594.634	107.56
594.843	97.56
595.053	96.56
595.262	109.56
595.472	91.56
595.681	98.56
595.89	101.56
596.1	85.56
596.309	87.56
596.518	119.56
596.727	92.56
596.937	94.56
597.146	85.56
597.355	94.56
597.564	89.56
597.774	83.56
597.983	84.56
598.192	102.56
598.401	88.56
598.61	81.56
598.819	93.56
599.028	88.56
599.237	102.56
599.446	81.56
599.655	92.56
599.864	90.56
600.073	89.56
600.282	98.56
600.491	101.56
600.7	92.56
600.909	80.56
601.118	95.56
601.327	95.56
601.536	93.56
601.745	82.56
601.953	106.56
602.162	80.56
602.371	92.56
602.58	102.56
602.789	104.56
602.997	99.56
603.206	80.56
603.415	98.56
603.623	94.56
603.832	93.56
604.041	93.56
604.249	101.56
604.458	77.56
604.666	73.56
604.875	89.56
605.084	93.56
605.292	94.56
605.501	87.56
605.709	87.56
605.918	94.56
606.126	93.56
606.334	105.56
606.543	92.56
606.751	98.56
606.96	97.56
607.168	85.56
607.376	104.56
607.585	93.56
607.793	102.56
608.001	89.56
608.21	85.56
608.418	106.56
608.626	85.56
608.834	95.56
609.043	100.56
609.251	89.56
609.459	95.56
609.667	95.56
609.875	92.56
610.083	86.56
610.291	106.56
610.499	111.56
610.707	99.56
610.916	103.56
611.124	98.56
611.332	103.56
611.54	119.56
611.748	107.56
611.955	94.56
612.163	104.56
612.371	96.56
612.579	98.56
612.787	105.56
612.995	111.56
613.203	91.56
613.411	100.56
613.618	87.56
613.826	92.56
614.034	92.56
614.242	114.56
614.449	106.56
614.657	98.56
614.865	98.56
615.072	110.56
615.28	92.56
615.488	90.56
615.695	104.56
615.903	95.56
616.111	84.56
616.318	87.56
616.526	94.56
616.733	87.56
616.941	83.56
617.148	104.56
617.356	100.56
617.563	94.56
617.771	97.56
617.978	98.56
618.185	92.56
618.393	83.56
618.6	92.56
618.807	110.56
619.015	91.56
619.222	82.56
619.429	94.56
619.637	97.56
619.844	85.56
620.051	105.56
620.258	109.56
620.466	92.56
620.673	95.56
620.88	99.56
621.087	110.56
621.294	94.56
621.501	86.56
621.708	90.56
621.915	104.56
622.122	105.56
622.329	110.56
622.536	91.56
622.743	92.56
622.95	88.56
623.157	88.56
623.364	85.56
623.571	95.56
623.778	98.56
623.985	98.56
624.192	88.56
624.399	99.56
624.606	101.56
624.812	71.56
625.019	88.56
625.226	83.56
625.433	91.56
625.639	109.56
625.846	102.56
626.053	77.56
626.259	84.56
626.466	90.56
626.673	91.56
626.879	112.56
627.086	98.56
627.293	102.56
627.499	92.56
627.706	88.56
627.912	85.56
628.119	93.56
628.325	88.56
628.532	102.56
628.738	93.56
628.945	103.56
629.151	93.56
629.357	95.56
629.564	93.56
629.77	106.56
629.976	85.56
630.183	94.56
630.389	90.56
630.595	80.56
630.802	94.56
631.008	89.56
631.214	92.56
631.42	93.56
631.627	112.56
631.833	100.56
632.039	98.56
632.245	93.56
632.451	91.56
632.657	86.56
632.863	88.56
633.069	105.56
633.275	104.56
633.481	80.56
633.688	91.56
633.893	98.56
634.099	98.56
634.305	90.56
634.511	92.56
634.717	94.56
634.923	77.56
635.129	102.56
635.335	96.56
635.541	102.56
635.747	107.56
635.952	108.56
636.158	116.56
636.364	220.56
636.57	291.56
636.775	145.56
636.981	111.56
637.187	105.56
637.392	90.56
637.598	93.56
637.804	95.56
638.009	89.56
638.215	86.56
638.421	89.56
638.626	94.56
638.832	98.56
639.037	86.56
639.243	86.56
639.448	88.56
639.654	94.56
639.859	88.56
640.065	118.56
640.27	96.56
640.475	82.56
640.681	82.56
640.886	93.56
641.091	90.56
641.297	89.56
641.502	88.56
641.707	86.56
641.913	93.56
642.118	98.56
642.323	95.56
642.528	85.56
642.733	90.56
642.939	84.56
643.144	91.56
643.349	93.56
643.554	101.56
643.759	94.56
643.964	88.56
644.169	83.56
644.374	91.56
644.579	88.56
644.784	95.56
644.989	82.56
645.194	91.56
645.399	94.56
645.604	86.56
645.809	86.56
646.014	97.56
646.219	96.56
646.423	102.56
646.628	110.56
646.833	91.56
647.038	87.56
647.243	87.56
647.447	80.56
647.652	103.56
647.857	97.56
648.062	104.56
648.266	97.56
648.471	87.56
648.676	98.56
648.88	92.56
649.085	98.56
649.289	90.56
649.494	95.56
649.698	91.56
649.903	95.56
650.107	97.56
650.312	103.56
650.516	74.56
650.721	97.56
650.925	71.56
651.13	84.56
651.334	94.56
651.539	87.56
651.743	90.56
651.947	90.56
652.152	96.56
652.356	87.56
652.56	82.56
652.764	88.56
652.969	108.56
653.173	97.56
653.377	101.56
653.581	100.56
653.785	99.56
653.99	80.56
654.194	91.56
654.398	72.56
654.602	88.56
654.806	100.56
655.01	75.56
655.214	94.56
655.418	86.56
655.622	93.56
655.826	78.56
656.03	83.56
656.234	95.56
656.438	93.56
656.642	98.56
656.846	92.56
657.049	79.56
657.253	97.56
657.457	106.56
657.661	94.56
657.865	117.56
658.068	97.56
658.272	88.56
658.476	88.56
658.68	101.56
658.883	85.56
659.087	87.56
659.291	103.56
659.494	102.56
659.698	94.56
659.901	93.56
660.105	80.56
660.309	84.56
660.512	84.56
660.716	91.56
660.919	92.56
661.123	100.56
661.326	88.56
661.53	106.56
661.733	96.56
661.936	102.56
662.14	96.56
662.343	87.56
662.546	84.56
662.75	91.56
662.953	91.56
663.156	98.56
663.36	103.56
663.563	81.56
663.766	91.56
663.969	94.56
664.173	81.56
664.376	86.56
664.579	104.56
664.782	95.56
664.985	92.56
665.188	95.56
665.391	99.56
665.594	80.56
665.797	101.56
666	84.56
666.203	95.56
666.406	92.56
666.609	94.56
666.812	95.56
667.015	98.56
667.218	87.56
667.421	99.56
667.624	98.56
667.827	88.56
668.03	81.56
668.232	84.56
668.435	79.56
668.638	88.56
668.841	98.56
669.043	92.56
669.246	87.56
669.449	96.56
669.651	93.56
669.854	92.56
670.057	76.56
670.259	93.56
670.462	91.56
670.665	104.56
670.867	82.56
671.07	104.56
671.272	99.56
671.475	87.56
671.677	90.56
671.88	84.56
672.082	95.56
672.284	106.56
672.487	100.56
672.689	89.56
672.892	88.56
