Data from FlinnAP9092KCOPPER.07152019.LAMP.EN10.P1_HRD10591_14-45-28-668.txt Node
Date: Mon Jul 15 14:45:28 EDT 2019
User: cochatt
Spectrometer: HR+D1059
Trigger mode: 3
Integration Time (sec): 1.000000E-1
Scans to average: 1
Electric dark correction enabled: true
Nonlinearity correction enabled: false
Boxcar width: 0
XAxis mode: Wavelengths
Number of Pixels in Spectrum: 2048
>>>>>Begin Spectral Data<<<<<
223.165	-20.94
223.4	-20.94
223.635	-20.94
223.869	-12.94
224.104	-17.94
224.338	-13.94
224.573	-25.94
224.808	-16.94
225.042	-5.94
225.277	14.06
225.511	-4.94
225.746	-1.94
225.98	-0.94
226.215	11.06
226.449	21.06
226.683	23.06
226.918	29.06
227.152	24.06
227.387	38.06
227.621	45.06
227.856	38.06
228.09	41.06
228.324	37.06
228.559	62.06
228.793	62.06
229.027	168.06
229.262	197.06
229.496	205.06
229.73	236.06
229.964	300.06
230.199	253.06
230.433	210.06
230.667	171.06
230.901	160.06
231.136	171.06
231.37	167.06
231.604	180.06
231.838	178.06
232.072	182.06
232.306	178.06
232.541	180.06
232.775	173.06
233.009	184.06
233.243	183.06
233.477	171.06
233.711	181.06
233.945	204.06
234.179	196.06
234.413	185.06
234.647	216.06
234.881	190.06
235.115	205.06
235.349	189.06
235.583	202.06
235.817	203.06
236.051	239.06
236.285	223.06
236.519	221.06
236.753	212.06
236.987	249.06
237.221	363.06
237.455	481.06
237.689	378.06
237.922	267.06
238.156	245.06
238.39	244.06
238.624	228.06
238.858	222.06
239.091	216.06
239.325	223.06
239.559	230.06
239.793	238.06
240.027	248.06
240.26	283.06
240.494	323.06
240.728	324.06
240.961	305.06
241.195	265.06
241.429	250.06
241.662	229.06
241.896	212.06
242.13	252.06
242.363	241.06
242.597	251.06
242.83	261.06
243.064	273.06
243.298	249.06
243.531	262.06
243.765	249.06
243.998	259.06
244.232	252.06
244.465	267.06
244.699	269.06
244.932	289.06
245.166	279.06
245.399	281.06
245.633	304.06
245.866	292.06
246.099	277.06
246.333	283.06
246.566	285.06
246.8	295.06
247.033	292.06
247.266	311.06
247.5	322.06
247.733	331.06
247.966	349.06
248.2	330.06
248.433	346.06
248.666	362.06
248.899	397.06
249.133	421.06
249.366	431.06
249.599	421.06
249.832	365.06
250.066	365.06
250.299	346.06
250.532	384.06
250.765	405.06
250.998	473.06
251.231	466.06
251.465	447.06
251.698	417.06
251.931	373.06
252.164	393.06
252.397	385.06
252.63	402.06
252.863	409.06
253.096	446.06
253.329	505.06
253.562	473.06
253.795	429.06
254.028	423.06
254.261	439.06
254.494	479.06
254.727	570.06
254.96	638.06
255.193	588.06
255.426	490.06
255.659	473.06
255.892	439.06
256.124	429.06
256.357	427.06
256.59	417.06
256.823	406.06
257.056	403.06
257.289	417.06
257.521	422.06
257.754	423.06
257.987	429.06
258.22	429.06
258.452	450.06
258.685	429.06
258.918	428.06
259.151	431.06
259.383	465.06
259.616	460.06
259.849	466.06
260.081	514.06
260.314	582.06
260.547	558.06
260.779	514.06
261.012	496.06
261.244	484.06
261.477	490.06
261.71	452.06
261.942	471.06
262.175	521.06
262.407	503.06
262.64	451.06
262.872	453.06
263.105	457.06
263.337	459.06
263.57	446.06
263.802	463.06
264.035	441.06
264.267	451.06
264.499	463.06
264.732	469.06
264.964	444.06
265.197	488.06
265.429	445.06
265.661	452.06
265.894	474.06
266.126	463.06
266.358	461.06
266.591	485.06
266.823	497.06
267.055	486.06
267.287	503.06
267.52	487.06
267.752	504.06
267.984	508.06
268.216	508.06
268.448	493.06
268.681	536.06
268.913	538.06
269.145	599.06
269.377	628.06
269.609	629.06
269.841	593.06
270.073	604.06
270.306	653.06
270.538	727.06
270.77	738.06
271.002	670.06
271.234	647.06
271.466	675.06
271.698	707.06
271.93	715.06
272.162	750.06
272.394	739.06
272.626	663.06
272.858	615.06
273.09	605.06
273.322	607.06
273.553	588.06
273.785	582.06
274.017	585.06
274.249	588.06
274.481	552.06
274.713	585.06
274.945	605.06
275.176	587.06
275.408	590.06
275.64	626.06
275.872	590.06
276.104	607.06
276.335	585.06
276.567	646.06
276.799	660.06
277.031	736.06
277.262	755.06
277.494	761.06
277.726	709.06
277.957	652.06
278.189	624.06
278.421	602.06
278.652	598.06
278.884	609.06
279.115	614.06
279.347	600.06
279.579	610.06
279.81	587.06
280.042	603.06
280.273	582.06
280.505	606.06
280.736	601.06
280.968	615.06
281.199	600.06
281.431	578.06
281.662	609.06
281.894	606.06
282.125	643.06
282.356	671.06
282.588	733.06
282.819	739.06
283.051	658.06
283.282	615.06
283.513	621.06
283.745	638.06
283.976	650.06
284.207	654.06
284.439	661.06
284.67	652.06
284.901	657.06
285.132	626.06
285.364	640.06
285.595	662.06
285.826	655.06
286.057	658.06
286.288	649.06
286.52	661.06
286.751	659.06
286.982	641.06
287.213	650.06
287.444	675.06
287.675	683.06
287.906	696.06
288.138	721.06
288.369	699.06
288.6	723.06
288.831	679.06
289.062	683.06
289.293	681.06
289.524	657.06
289.755	685.06
289.986	655.06
290.217	673.06
290.448	670.06
290.679	661.06
290.91	692.06
291.141	669.06
291.371	690.06
291.602	675.06
291.833	657.06
292.064	667.06
292.295	638.06
292.526	670.06
292.757	684.06
292.987	657.06
293.218	690.06
293.449	693.06
293.68	659.06
293.91	672.06
294.141	665.06
294.372	669.06
294.603	682.06
294.833	661.06
295.064	689.06
295.295	693.06
295.525	683.06
295.756	699.06
295.987	748.06
296.217	785.06
296.448	797.06
296.679	740.06
296.909	674.06
297.14	690.06
297.37	686.06
297.601	701.06
297.831	715.06
298.062	710.06
298.292	746.06
298.523	740.06
298.753	731.06
298.984	708.06
299.214	721.06
299.445	693.06
299.675	713.06
299.905	740.06
300.136	732.06
300.366	753.06
300.597	731.06
300.827	761.06
301.057	780.06
301.288	784.06
301.518	783.06
301.748	777.06
301.979	786.06
302.209	777.06
302.439	793.06
302.669	775.06
302.9	765.06
303.13	773.06
303.36	774.06
303.59	748.06
303.82	751.06
304.051	787.06
304.281	772.06
304.511	747.06
304.741	744.06
304.971	739.06
305.201	745.06
305.431	743.06
305.661	747.06
305.891	756.06
306.121	745.06
306.352	756.06
306.582	775.06
306.812	756.06
307.042	747.06
307.272	759.06
307.502	726.06
307.731	764.06
307.961	765.06
308.191	733.06
308.421	758.06
308.651	742.06
308.881	788.06
309.111	783.06
309.341	781.06
309.571	782.06
309.8	807.06
310.03	796.06
310.26	844.06
310.49	833.06
310.72	871.06
310.949	893.06
311.179	896.06
311.409	882.06
311.639	859.06
311.868	841.06
312.098	862.06
312.328	845.06
312.557	919.06
312.787	948.06
313.017	947.06
313.246	898.06
313.476	853.06
313.706	849.06
313.935	884.06
314.165	911.06
314.394	925.06
314.624	935.06
314.853	885.06
315.083	859.06
315.312	848.06
315.542	860.06
315.771	811.06
316.001	851.06
316.23	831.06
316.46	819.06
316.689	824.06
316.919	863.06
317.148	895.06
317.377	887.06
317.607	832.06
317.836	853.06
318.065	820.06
318.295	825.06
318.524	821.06
318.753	815.06
318.983	826.06
319.212	828.06
319.441	869.06
319.67	832.06
319.9	817.06
320.129	831.06
320.358	822.06
320.587	819.06
320.816	825.06
321.046	879.06
321.275	876.06
321.504	869.06
321.733	855.06
321.962	898.06
322.191	876.06
322.42	937.06
322.649	972.06
322.878	967.06
323.108	983.06
323.337	1025.06
323.566	1074.06
323.795	1137.06
324.024	1235.06
324.253	1461.06
324.482	2258.06
324.71	3708.06
324.939	5821.06
325.168	5012.06
325.397	2047.06
325.626	1291.06
325.855	1090.06
326.084	1045.06
326.313	1023.06
326.542	1086.06
326.77	1196.06
326.999	1425.06
327.228	2071.06
327.457	3394.06
327.686	4491.06
327.914	2611.06
328.143	1474.06
328.372	1288.06
328.6	1285.06
328.829	1215.06
329.058	1260.06
329.287	1373.06
329.515	1243.06
329.744	1094.06
329.972	1058.06
330.201	1076.06
330.43	1097.06
330.658	1276.06
330.887	1430.06
331.115	1476.06
331.344	1167.06
331.572	1077.06
331.801	1117.06
332.03	1160.06
332.258	1143.06
332.486	1077.06
332.715	1052.06
332.943	1082.06
333.172	1118.06
333.4	1135.06
333.629	1175.06
333.857	1187.06
334.085	1175.06
334.314	1128.06
334.542	1105.06
334.771	1107.06
334.999	1102.06
335.227	1121.06
335.455	1090.06
335.684	1085.06
335.912	1031.06
336.14	1029.06
336.369	1065.06
336.597	1058.06
336.825	1074.06
337.053	1039.06
337.281	1021.06
337.51	1003.06
337.738	999.06
337.966	993.06
338.194	1031.06
338.422	992.06
338.65	1006.06
338.878	966.06
339.106	1000.06
339.334	962.06
339.562	961.06
339.79	939.06
340.018	951.06
340.246	971.06
340.474	983.06
340.702	960.06
340.93	978.06
341.158	943.06
341.386	969.06
341.614	960.06
341.842	948.06
342.07	919.06
342.298	926.06
342.526	910.06
342.754	910.06
342.981	895.06
343.209	923.06
343.437	959.06
343.665	998.06
343.893	993.06
344.12	1079.06
344.348	1042.06
344.576	1015.06
344.804	998.06
345.031	1021.06
345.259	1029.06
345.487	1001.06
345.714	964.06
345.942	931.06
346.17	916.06
346.397	911.06
346.625	924.06
346.853	893.06
347.08	897.06
347.308	905.06
347.535	923.06
347.763	975.06
347.99	958.06
348.218	931.06
348.445	939.06
348.673	963.06
348.9	900.06
349.128	880.06
349.355	876.06
349.583	878.06
349.81	913.06
350.037	873.06
350.265	866.06
350.492	876.06
350.72	859.06
350.947	874.06
351.174	915.06
351.402	952.06
351.629	896.06
351.856	895.06
352.083	909.06
352.311	936.06
352.538	948.06
352.765	969.06
352.992	919.06
353.22	923.06
353.447	890.06
353.674	884.06
353.901	859.06
354.128	849.06
354.355	841.06
354.583	862.06
354.81	832.06
355.037	852.06
355.264	813.06
355.491	813.06
355.718	848.06
355.945	817.06
356.172	827.06
356.399	805.06
356.626	832.06
356.853	799.06
357.08	819.06
357.307	807.06
357.534	827.06
357.761	829.06
357.988	833.06
358.215	822.06
358.441	848.06
358.668	833.06
358.895	854.06
359.122	867.06
359.349	859.06
359.576	899.06
359.802	927.06
360.029	1020.06
360.256	1126.06
360.483	1041.06
360.709	943.06
360.936	890.06
361.163	889.06
361.39	915.06
361.616	895.06
361.843	875.06
362.07	865.06
362.296	925.06
362.523	883.06
362.749	902.06
362.976	903.06
363.203	897.06
363.429	847.06
363.656	852.06
363.882	860.06
364.109	835.06
364.335	868.06
364.562	861.06
364.788	848.06
365.015	847.06
365.241	853.06
365.468	841.06
365.694	902.06
365.92	871.06
366.147	838.06
366.373	831.06
366.599	861.06
366.826	845.06
367.052	845.06
367.278	838.06
367.505	854.06
367.731	870.06
367.957	821.06
368.184	881.06
368.41	864.06
368.636	886.06
368.862	910.06
369.089	887.06
369.315	881.06
369.541	876.06
369.767	865.06
369.993	881.06
370.219	874.06
370.445	853.06
370.672	879.06
370.898	869.06
371.124	883.06
371.35	888.06
371.576	896.06
371.802	890.06
372.028	877.06
372.254	878.06
372.48	874.06
372.706	886.06
372.932	903.06
373.158	908.06
373.384	888.06
373.61	889.06
373.835	893.06
374.061	877.06
374.287	886.06
374.513	885.06
374.739	929.06
374.965	967.06
375.191	938.06
375.416	989.06
375.642	943.06
375.868	925.06
376.094	903.06
376.319	912.06
376.545	888.06
376.771	898.06
376.997	897.06
377.222	908.06
377.448	903.06
377.674	890.06
377.899	869.06
378.125	866.06
378.35	893.06
378.576	889.06
378.802	868.06
379.027	844.06
379.253	874.06
379.478	882.06
379.704	893.06
379.929	894.06
380.155	877.06
380.38	864.06
380.606	899.06
380.831	898.06
381.057	898.06
381.282	922.06
381.507	937.06
381.733	934.06
381.958	933.06
382.184	915.06
382.409	939.06
382.634	935.06
382.86	945.06
383.085	950.06
383.31	966.06
383.535	963.06
383.761	960.06
383.986	989.06
384.211	1027.06
384.436	1039.06
384.662	1027.06
384.887	1008.06
385.112	1014.06
385.337	1055.06
385.562	1051.06
385.787	1052.06
386.013	1084.06
386.238	1086.06
386.463	1105.06
386.688	1085.06
386.913	1039.06
387.138	1050.06
387.363	1045.06
387.588	1045.06
387.813	1059.06
388.038	1065.06
388.263	1049.06
388.488	1058.06
388.713	1081.06
388.938	1037.06
389.163	1078.06
389.387	1066.06
389.612	1045.06
389.837	1050.06
390.062	1035.06
390.287	1046.06
390.512	1050.06
390.736	1053.06
390.961	1074.06
391.186	1061.06
391.411	1116.06
391.636	1124.06
391.86	1154.06
392.085	1174.06
392.31	1165.06
392.534	1150.06
392.759	1158.06
392.984	1116.06
393.208	1104.06
393.433	1125.06
393.658	1103.06
393.882	1115.06
394.107	1074.06
394.331	1121.06
394.556	1105.06
394.78	1120.06
395.005	1134.06
395.229	1105.06
395.454	1159.06
395.678	1163.06
395.903	1199.06
396.127	1236.06
396.352	1235.06
396.576	1175.06
396.801	1116.06
397.025	1147.06
397.249	1167.06
397.474	1163.06
397.698	1178.06
397.922	1206.06
398.147	1277.06
398.371	1265.06
398.595	1236.06
398.82	1295.06
399.044	1404.06
399.268	1437.06
399.492	1626.06
399.717	1788.06
399.941	1851.06
400.165	1777.06
400.389	1727.06
400.613	1548.06
400.837	1445.06
401.062	1364.06
401.286	1357.06
401.51	1353.06
401.734	1323.06
401.958	1350.06
402.182	1370.06
402.406	1435.06
402.63	1411.06
402.854	1433.06
403.078	1445.06
403.302	1456.06
403.526	1514.06
403.75	1495.06
403.974	1497.06
404.198	1468.06
404.422	1532.06
404.645	1524.06
404.869	1505.06
405.093	1522.06
405.317	1539.06
405.541	1618.06
405.765	1567.06
405.988	1526.06
406.212	1518.06
406.436	1626.06
406.66	1685.06
406.883	1627.06
407.107	1669.06
407.331	1823.06
407.555	1974.06
407.778	1947.06
408.002	1743.06
408.226	1667.06
408.449	1635.06
408.673	1551.06
408.896	1645.06
409.12	1746.06
409.344	1635.06
409.567	1512.06
409.791	1477.06
410.014	1512.06
410.238	1475.06
410.461	1454.06
410.685	1452.06
410.908	1501.06
411.132	1578.06
411.355	1675.06
411.578	1565.06
411.802	1442.06
412.025	1421.06
412.249	1411.06
412.472	1378.06
412.695	1447.06
412.919	1381.06
413.142	1370.06
413.365	1391.06
413.589	1372.06
413.812	1377.06
414.035	1365.06
414.258	1357.06
414.482	1364.06
414.705	1338.06
414.928	1361.06
415.151	1386.06
415.374	1385.06
415.597	1379.06
415.821	1377.06
416.044	1395.06
416.267	1401.06
416.49	1397.06
416.713	1366.06
416.936	1389.06
417.159	1373.06
417.382	1390.06
417.605	1404.06
417.828	1480.06
418.051	1553.06
418.274	1503.06
418.497	1459.06
418.72	1471.06
418.943	1437.06
419.166	1504.06
419.389	1611.06
419.611	1557.06
419.834	1512.06
420.057	1490.06
420.28	1494.06
420.503	1487.06
420.726	1418.06
420.948	1507.06
421.171	1574.06
421.394	1657.06
421.617	1588.06
421.839	1546.06
422.062	1472.06
422.285	1530.06
422.507	1658.06
422.73	1830.06
422.953	1757.06
423.175	1567.06
423.398	1545.06
423.621	1556.06
423.843	1674.06
424.066	1658.06
424.288	1636.06
424.511	1660.06
424.733	1811.06
424.956	1959.06
425.178	1883.06
425.401	1874.06
425.623	1938.06
425.846	1616.06
426.068	1567.06
426.291	1518.06
426.513	1526.06
426.735	1513.06
426.958	1651.06
427.18	1852.06
427.402	2143.06
427.625	2404.06
427.847	2097.06
428.069	1666.06
428.292	1557.06
428.514	1468.06
428.736	1417.06
428.958	1428.06
429.181	1376.06
429.403	1388.06
429.625	1389.06
429.847	1491.06
430.069	1662.06
430.292	1659.06
430.514	1448.06
430.736	1386.06
430.958	1409.06
431.18	1358.06
431.402	1354.06
431.624	1258.06
431.846	1261.06
432.068	1202.06
432.29	1208.06
432.512	1297.06
432.734	1363.06
432.956	1396.06
433.178	1410.06
433.4	1461.06
433.622	1377.06
433.844	1394.06
434.066	1298.06
434.287	1233.06
434.509	1244.06
434.731	1267.06
434.953	1389.06
435.175	1474.06
435.397	1551.06
435.618	1493.06
435.84	1532.06
436.062	1843.06
436.284	2025.06
436.505	1647.06
436.727	1567.06
436.949	1458.06
437.17	1413.06
437.392	1437.06
437.614	1393.06
437.835	1401.06
438.057	1678.06
438.278	1959.06
438.5	1951.06
438.721	2157.06
438.943	2071.06
439.165	1685.06
439.386	1610.06
439.608	1636.06
439.829	1663.06
440.05	1749.06
440.272	1967.06
440.493	1761.06
440.715	1643.06
440.936	1564.06
441.158	1540.06
441.379	1582.06
441.6	1632.06
441.822	1725.06
442.043	1797.06
442.264	2044.06
442.486	2040.06
442.707	1753.06
442.928	1727.06
443.149	1789.06
443.371	1870.06
443.592	1905.06
443.813	2170.06
444.034	2274.06
444.255	1884.06
444.476	1755.06
444.698	1772.06
444.919	1830.06
445.14	1912.06
445.361	1866.06
445.582	1924.06
445.803	2085.06
446.024	2379.06
446.245	2331.06
446.466	2141.06
446.687	1790.06
446.908	1688.06
447.129	1565.06
447.35	1577.06
447.571	1541.06
447.792	1525.06
448.013	1497.06
448.234	1542.06
448.455	1660.06
448.675	1929.06
448.896	2251.06
449.117	1829.06
449.338	1727.06
449.559	2070.06
449.779	2321.06
450	1819.06
450.221	1542.06
450.442	1443.06
450.662	1445.06
450.883	1477.06
451.104	1511.06
451.324	1447.06
451.545	1387.06
451.766	1312.06
451.986	1311.06
452.207	1263.06
452.428	1250.06
452.648	1259.06
452.869	1254.06
453.089	1276.06
453.31	1275.06
453.53	1190.06
453.751	1157.06
453.971	1149.06
454.192	1210.06
454.412	1207.06
454.633	1191.06
454.853	1189.06
455.073	1182.06
455.294	1290.06
455.514	1487.06
455.734	1402.06
455.955	1152.06
456.175	1158.06
456.395	1084.06
456.616	1066.06
456.836	1068.06
457.056	1054.06
457.276	1026.06
457.497	1091.06
457.717	1093.06
457.937	1079.06
458.157	1088.06
458.377	1129.06
458.598	1154.06
458.818	1280.06
459.038	1558.06
459.258	1542.06
459.478	1292.06
459.698	1175.06
459.918	1229.06
460.138	1244.06
460.358	1340.06
460.578	1358.06
460.798	1363.06
461.018	1412.06
461.238	1384.06
461.458	1368.06
461.678	1321.06
461.898	1340.06
462.118	1355.06
462.338	1419.06
462.558	1439.06
462.777	1423.06
462.997	1555.06
463.217	1624.06
463.437	1624.06
463.657	1532.06
463.876	1479.06
464.096	1490.06
464.316	1483.06
464.536	1541.06
464.755	1526.06
464.975	1519.06
465.195	1627.06
465.414	1804.06
465.634	1507.06
465.854	1383.06
466.073	1348.06
466.293	1311.06
466.512	1325.06
466.732	1337.06
466.951	1325.06
467.171	1309.06
467.391	1348.06
467.61	1380.06
467.829	1430.06
468.049	1381.06
468.268	1339.06
468.488	1325.06
468.707	1317.06
468.927	1300.06
469.146	1315.06
469.365	1347.06
469.585	1342.06
469.804	1414.06
470.023	1447.06
470.243	1475.06
470.462	1496.06
470.681	1524.06
470.901	1490.06
471.12	1457.06
471.339	1414.06
471.558	1419.06
471.777	1389.06
471.997	1313.06
472.216	1250.06
472.435	1186.06
472.654	1119.06
472.873	1094.06
473.092	1137.06
473.311	1199.06
473.53	1263.06
473.749	1266.06
473.968	1346.06
474.187	1644.06
474.406	1711.06
474.625	1357.06
474.844	1319.06
475.063	1296.06
475.282	1224.06
475.501	1211.06
475.72	1238.06
475.939	1269.06
476.158	1287.06
476.377	1319.06
476.596	1265.06
476.814	1227.06
477.033	1252.06
477.252	1250.06
477.471	1311.06
477.69	1415.06
477.908	1482.06
478.127	1510.06
478.346	1499.06
478.564	1465.06
478.783	1509.06
479.002	1566.06
479.22	1574.06
479.439	1563.06
479.658	1539.06
479.876	1468.06
480.095	1487.06
480.313	1605.06
480.532	1532.06
480.751	1493.06
480.969	1421.06
481.188	1355.06
481.406	1311.06
481.624	1286.06
481.843	1259.06
482.061	1285.06
482.28	1344.06
482.498	1344.06
482.717	1305.06
482.935	1379.06
483.153	1458.06
483.372	1537.06
483.59	1550.06
483.808	1493.06
484.027	1404.06
484.245	1427.06
484.463	1485.06
484.681	1514.06
484.9	1487.06
485.118	1492.06
485.336	1431.06
485.554	1377.06
485.772	1340.06
485.99	1396.06
486.209	1397.06
486.427	1410.06
486.645	1504.06
486.863	1639.06
487.081	1661.06
487.299	1570.06
487.517	1587.06
487.735	1773.06
487.953	1909.06
488.171	1853.06
488.389	1757.06
488.607	1706.06
488.825	1579.06
489.043	1523.06
489.261	1578.06
489.479	1597.06
489.696	1615.06
489.914	1653.06
490.132	1677.06
490.35	1774.06
490.568	1892.06
490.786	2007.06
491.003	2042.06
491.221	2143.06
491.439	2174.06
491.657	2266.06
491.874	2321.06
492.092	2433.06
492.31	2541.06
492.527	2457.06
492.745	2346.06
492.963	2276.06
493.18	2241.06
493.398	2227.06
493.615	2285.06
493.833	2201.06
494.05	2171.06
494.268	2166.06
494.485	2134.06
494.703	2149.06
494.92	2135.06
495.138	2131.06
495.355	2137.06
495.573	2146.06
495.79	2122.06
496.008	2110.06
496.225	2078.06
496.442	2094.06
496.66	2063.06
496.877	2049.06
497.094	2046.06
497.312	2082.06
497.529	2120.06
497.746	2015.06
497.963	2014.06
498.181	2030.06
498.398	1975.06
498.615	2021.06
498.832	2065.06
499.049	2153.06
499.267	2293.06
499.484	2417.06
499.701	2681.06
499.918	2835.06
500.135	3101.06
500.352	3377.06
500.569	3497.06
500.786	3461.06
501.003	3300.06
501.22	3093.06
501.437	2877.06
501.654	2723.06
501.871	2620.06
502.088	2475.06
502.305	2250.06
502.522	2165.06
502.739	2097.06
502.956	2035.06
503.172	1951.06
503.389	1883.06
503.606	1853.06
503.823	1848.06
504.04	1823.06
504.256	1793.06
504.473	1803.06
504.69	1805.06
504.907	1817.06
505.123	1757.06
505.34	1725.06
505.557	1714.06
505.773	1684.06
505.99	1668.06
506.207	1681.06
506.423	1663.06
506.64	1629.06
506.856	1569.06
507.073	1605.06
507.289	1568.06
507.506	1562.06
507.722	1606.06
507.939	1652.06
508.155	1564.06
508.372	1470.06
508.588	1487.06
508.805	1433.06
509.021	1465.06
509.238	1534.06
509.454	1517.06
509.67	1462.06
509.887	1372.06
510.103	1353.06
510.319	1390.06
510.536	1621.06
510.752	2880.06
510.968	2004.06
511.184	1301.06
511.401	1258.06
511.617	1260.06
511.833	1251.06
512.049	1239.06
512.265	1246.06
512.481	1284.06
512.698	1276.06
512.914	1264.06
513.13	1277.06
513.346	1222.06
513.562	1239.06
513.778	1250.06
513.994	1264.06
514.21	1286.06
514.426	1391.06
514.642	1483.06
514.858	1538.06
515.074	1619.06
515.29	2060.06
515.506	3409.06
515.721	2494.06
515.937	1627.06
516.153	1441.06
516.369	1404.06
516.585	1369.06
516.801	1402.06
517.016	1419.06
517.232	1437.06
517.448	1481.06
517.664	1531.06
517.879	1542.06
518.095	1559.06
518.311	1492.06
518.527	1519.06
518.742	1478.06
518.958	1434.06
519.173	1421.06
519.389	1427.06
519.605	1445.06
519.82	1405.06
520.036	1440.06
520.251	1507.06
520.467	1535.06
520.682	1431.06
520.898	1428.06
521.113	1439.06
521.329	1595.06
521.544	1852.06
521.76	2550.06
521.975	4723.06
522.19	4171.06
522.406	2035.06
522.621	1508.06
522.836	1386.06
523.052	1319.06
523.267	1313.06
523.482	1238.06
523.698	1257.06
523.913	1327.06
524.128	1303.06
524.343	1281.06
524.559	1261.06
524.774	1272.06
524.989	1269.06
525.204	1289.06
525.419	1286.06
525.634	1222.06
525.849	1164.06
526.064	1161.06
526.28	1126.06
526.495	1087.06
526.71	1038.06
526.925	992.06
527.14	985.06
527.355	989.06
527.57	1017.06
527.785	1010.06
527.999	1043.06
528.214	1133.06
528.429	1175.06
528.644	1242.06
528.859	1326.06
529.074	1391.06
529.289	1530.06
529.503	1749.06
529.718	1511.06
529.933	1265.06
530.148	1171.06
530.363	1063.06
530.577	1024.06
530.792	981.06
531.007	1027.06
531.221	1020.06
531.436	1000.06
531.651	981.06
531.865	998.06
532.08	1006.06
532.295	1014.06
532.509	997.06
532.724	988.06
532.938	1025.06
533.153	1070.06
533.367	1147.06
533.582	1217.06
533.796	1217.06
534.011	1114.06
534.225	1014.06
534.44	990.06
534.654	1033.06
534.868	1053.06
535.083	1036.06
535.297	1071.06
535.511	1067.06
535.726	1102.06
535.94	1075.06
536.154	1053.06
536.369	1003.06
536.583	947.06
536.797	972.06
537.011	934.06
537.225	927.06
537.44	939.06
537.654	978.06
537.868	979.06
538.082	983.06
538.296	1024.06
538.51	1053.06
538.724	1121.06
538.938	1159.06
539.153	1195.06
539.367	1217.06
539.581	1139.06
539.795	1022.06
540.009	989.06
540.222	1012.06
540.436	1071.06
540.65	1175.06
540.864	1249.06
541.078	1379.06
541.292	1453.06
541.506	1519.06
541.72	1626.06
541.934	1755.06
542.147	1803.06
542.361	1696.06
542.575	1554.06
542.789	1420.06
543.002	1325.06
543.216	1257.06
543.43	1275.06
543.644	1326.06
543.857	1398.06
544.071	1559.06
544.285	1611.06
544.498	1605.06
544.712	1579.06
544.925	1641.06
545.139	1598.06
545.352	1625.06
545.566	1641.06
545.779	1639.06
545.993	1671.06
546.206	1711.06
546.42	1751.06
546.633	1675.06
546.847	1655.06
547.06	1659.06
547.274	1692.06
547.487	1767.06
547.7	1801.06
547.914	1749.06
548.127	1666.06
548.34	1689.06
548.554	1643.06
548.767	1635.06
548.98	1625.06
549.193	1615.06
549.407	1613.06
549.62	1618.06
549.833	1612.06
550.046	1622.06
550.259	1627.06
550.473	1539.06
550.686	1567.06
550.899	1521.06
551.112	1484.06
551.325	1428.06
551.538	1378.06
551.751	1243.06
551.964	1239.06
552.177	1327.06
552.39	1435.06
552.603	1517.06
552.816	1596.06
553.029	1641.06
553.242	1698.06
553.455	1779.06
553.667	1790.06
553.88	1737.06
554.093	1670.06
554.306	1621.06
554.519	1628.06
554.732	1542.06
554.944	1573.06
555.157	1516.06
555.37	1493.06
555.583	1425.06
555.795	1427.06
556.008	1337.06
556.221	1315.06
556.433	1315.06
556.646	1322.06
556.859	1281.06
557.071	1374.06
557.284	1372.06
557.496	1414.06
557.709	1369.06
557.921	1349.06
558.134	1347.06
558.346	1354.06
558.559	1333.06
558.771	1299.06
558.984	1307.06
559.196	1251.06
559.409	1217.06
559.621	1199.06
559.833	1202.06
560.046	1219.06
560.258	1206.06
560.47	1246.06
560.683	1232.06
560.895	1211.06
561.107	1209.06
561.32	1225.06
561.532	1250.06
561.744	1237.06
561.956	1246.06
562.168	1246.06
562.381	1205.06
562.593	1241.06
562.805	1183.06
563.017	1181.06
563.229	1179.06
563.441	1173.06
563.653	1205.06
563.865	1171.06
564.077	1161.06
564.289	1171.06
564.501	1181.06
564.713	1193.06
564.925	1204.06
565.137	1191.06
565.349	1205.06
565.561	1179.06
565.773	1230.06
565.985	1243.06
566.197	1339.06
566.408	1388.06
566.62	1439.06
566.832	1487.06
567.044	1540.06
567.255	1524.06
567.467	1494.06
567.679	1490.06
567.891	1546.06
568.102	1494.06
568.314	1407.06
568.526	1266.06
568.737	1161.06
568.949	1049.06
569.161	949.06
569.372	928.06
569.584	909.06
569.795	841.06
570.007	868.06
570.218	958.06
570.43	921.06
570.641	900.06
570.853	913.06
571.064	977.06
571.276	957.06
571.487	975.06
571.698	945.06
571.91	949.06
572.121	906.06
572.333	862.06
572.544	825.06
572.755	766.06
572.966	748.06
573.178	694.06
573.389	697.06
573.6	687.06
573.811	698.06
574.023	703.06
574.234	677.06
574.445	717.06
574.656	733.06
574.867	746.06
575.078	734.06
575.289	759.06
575.501	782.06
575.712	734.06
575.923	720.06
576.134	746.06
576.345	740.06
576.556	785.06
576.767	792.06
576.978	746.06
577.188	770.06
577.399	712.06
577.61	709.06
577.821	711.06
578.032	711.06
578.243	786.06
578.454	1254.06
578.665	845.06
578.875	675.06
579.086	629.06
579.297	599.06
579.508	607.06
579.718	591.06
579.929	612.06
580.14	630.06
580.35	599.06
580.561	644.06
580.772	647.06
580.982	670.06
581.193	649.06
581.403	642.06
581.614	647.06
581.825	663.06
582.035	664.06
582.246	665.06
582.456	657.06
582.667	649.06
582.877	660.06
583.087	628.06
583.298	625.06
583.508	608.06
583.719	585.06
583.929	607.06
584.139	570.06
584.35	597.06
584.56	581.06
584.77	598.06
584.981	608.06
585.191	617.06
585.401	594.06
585.611	607.06
585.821	610.06
586.032	587.06
586.242	583.06
586.452	568.06
586.662	565.06
586.872	578.06
587.082	576.06
587.292	577.06
587.502	560.06
587.713	584.06
587.923	579.06
588.133	581.06
588.343	578.06
588.553	592.06
588.762	574.06
588.972	573.06
589.182	593.06
589.392	561.06
589.602	579.06
589.812	568.06
590.022	573.06
590.232	574.06
590.441	567.06
590.651	577.06
590.861	573.06
591.071	591.06
591.281	569.06
591.49	628.06
591.7	619.06
591.91	644.06
592.119	659.06
592.329	662.06
592.539	693.06
592.748	703.06
592.958	675.06
593.167	703.06
593.377	717.06
593.587	710.06
593.796	728.06
594.006	753.06
594.215	724.06
594.424	761.06
594.634	803.06
594.843	754.06
595.053	739.06
595.262	707.06
595.472	717.06
595.681	655.06
595.89	624.06
596.1	624.06
596.309	655.06
596.518	694.06
596.727	679.06
596.937	668.06
597.146	661.06
597.355	647.06
597.564	613.06
597.774	593.06
597.983	569.06
598.192	557.06
598.401	563.06
598.61	549.06
598.819	563.06
599.028	589.06
599.237	583.06
599.446	591.06
599.655	565.06
599.864	578.06
600.073	585.06
600.282	611.06
600.491	607.06
600.7	593.06
600.909	622.06
601.118	668.06
601.327	727.06
601.536	755.06
601.745	816.06
601.953	793.06
602.162	830.06
602.371	813.06
602.58	845.06
602.789	828.06
602.997	824.06
603.206	825.06
603.415	861.06
603.623	843.06
603.832	823.06
604.041	796.06
604.249	702.06
604.458	652.06
604.666	648.06
604.875	645.06
605.084	708.06
605.292	774.06
605.501	836.06
605.709	874.06
605.918	911.06
606.126	908.06
606.334	924.06
606.543	920.06
606.751	895.06
606.96	916.06
607.168	881.06
607.376	853.06
607.585	875.06
607.793	870.06
608.001	892.06
608.21	917.06
608.418	950.06
608.626	908.06
608.834	926.06
609.043	931.06
609.251	916.06
609.459	874.06
609.667	927.06
609.875	1002.06
610.083	962.06
610.291	958.06
610.499	957.06
610.707	962.06
610.916	960.06
611.124	984.06
611.332	999.06
611.54	1033.06
611.748	1035.06
611.955	1005.06
612.163	961.06
612.371	958.06
612.579	945.06
612.787	960.06
612.995	937.06
613.203	968.06
613.411	955.06
613.618	931.06
613.826	941.06
614.034	922.06
614.242	933.06
614.449	918.06
614.657	955.06
614.865	953.06
615.072	956.06
615.28	951.06
615.488	955.06
615.695	956.06
615.903	965.06
616.111	953.06
616.318	959.06
616.526	962.06
616.733	964.06
616.941	959.06
617.148	960.06
617.356	936.06
617.563	892.06
617.771	863.06
617.978	868.06
618.185	898.06
618.393	915.06
618.6	927.06
618.807	928.06
619.015	913.06
619.222	859.06
619.429	859.06
619.637	798.06
619.844	734.06
620.051	756.06
620.258	820.06
620.466	831.06
620.673	864.06
620.88	838.06
621.087	831.06
621.294	793.06
621.501	748.06
621.708	736.06
621.915	815.06
622.122	829.06
622.329	849.06
622.536	863.06
622.743	857.06
622.95	834.06
623.157	851.06
623.364	874.06
623.571	819.06
623.778	854.06
623.985	870.06
624.192	845.06
624.399	814.06
624.606	825.06
624.812	814.06
625.019	768.06
625.226	755.06
625.433	685.06
625.639	662.06
625.846	621.06
626.053	580.06
626.259	539.06
626.466	535.06
626.673	551.06
626.879	544.06
627.086	598.06
627.293	653.06
627.499	721.06
627.706	763.06
627.912	775.06
628.119	809.06
628.325	779.06
628.532	761.06
628.738	749.06
628.945	711.06
629.151	687.06
629.357	713.06
629.564	689.06
629.77	691.06
629.976	677.06
630.183	612.06
630.389	627.06
630.595	699.06
630.802	728.06
631.008	720.06
631.214	706.06
631.42	658.06
631.627	634.06
631.833	638.06
632.039	630.06
632.245	651.06
632.451	655.06
632.657	662.06
632.863	654.06
633.069	651.06
633.275	640.06
633.481	635.06
633.688	616.06
633.893	617.06
634.099	606.06
634.305	615.06
634.511	585.06
634.717	556.06
634.923	500.06
635.129	513.06
635.335	547.06
635.541	535.06
635.747	574.06
635.952	569.06
636.158	624.06
636.364	641.06
636.57	616.06
636.775	639.06
636.981	657.06
637.187	644.06
637.392	643.06
637.598	662.06
637.804	661.06
638.009	637.06
638.215	638.06
638.421	608.06
638.626	651.06
638.832	624.06
639.037	605.06
639.243	561.06
639.448	579.06
639.654	573.06
639.859	581.06
640.065	589.06
640.27	614.06
640.475	569.06
640.681	616.06
640.886	622.06
641.091	636.06
641.297	635.06
641.502	601.06
641.707	624.06
641.913	625.06
642.118	623.06
642.323	600.06
642.528	614.06
642.733	581.06
642.939	609.06
643.144	579.06
643.349	573.06
643.554	557.06
643.759	594.06
643.964	591.06
644.169	597.06
644.374	575.06
644.579	597.06
644.784	589.06
644.989	583.06
645.194	589.06
645.399	583.06
645.604	577.06
645.809	565.06
646.014	593.06
646.219	555.06
646.423	571.06
646.628	590.06
646.833	587.06
647.038	570.06
647.243	555.06
647.447	567.06
647.652	574.06
647.857	585.06
648.062	596.06
648.266	578.06
648.471	594.06
648.676	582.06
648.88	606.06
649.085	586.06
649.289	587.06
649.494	607.06
649.698	644.06
649.903	611.06
650.107	575.06
650.312	555.06
650.516	532.06
650.721	537.06
650.925	532.06
651.13	516.06
651.334	509.06
651.539	506.06
651.743	512.06
651.947	500.06
652.152	474.06
652.356	477.06
652.56	461.06
652.764	449.06
652.969	443.06
653.173	450.06
653.377	439.06
653.581	425.06
653.785	434.06
653.99	408.06
654.194	415.06
654.398	414.06
654.602	390.06
654.806	399.06
655.01	405.06
655.214	401.06
655.418	369.06
655.622	375.06
655.826	364.06
656.03	372.06
656.234	369.06
656.438	374.06
656.642	370.06
656.846	359.06
657.049	342.06
657.253	318.06
657.457	311.06
657.661	270.06
657.865	271.06
658.068	285.06
658.272	253.06
658.476	258.06
658.68	232.06
658.883	230.06
659.087	230.06
659.291	212.06
659.494	222.06
659.698	198.06
659.901	194.06
660.105	168.06
660.309	186.06
660.512	188.06
660.716	168.06
660.919	151.06
661.123	168.06
661.326	145.06
661.53	145.06
661.733	130.06
661.936	132.06
662.14	119.06
662.343	121.06
662.546	112.06
662.75	118.06
662.953	119.06
663.156	109.06
663.36	112.06
663.563	112.06
663.766	109.06
663.969	93.06
664.173	112.06
664.376	93.06
664.579	97.06
664.782	77.06
664.985	94.06
665.188	79.06
665.391	84.06
665.594	88.06
665.797	101.06
666	93.06
666.203	80.06
666.406	82.06
666.609	102.06
666.812	97.06
667.015	93.06
667.218	89.06
667.421	95.06
667.624	85.06
667.827	84.06
668.03	83.06
668.232	81.06
668.435	92.06
668.638	97.06
668.841	95.06
669.043	100.06
669.246	101.06
669.449	100.06
669.651	82.06
669.854	79.06
670.057	93.06
670.259	86.06
670.462	96.06
670.665	79.06
670.867	85.06
671.07	92.06
671.272	92.06
671.475	102.06
671.677	92.06
671.88	96.06
672.082	106.06
672.284	97.06
672.487	95.06
672.689	86.06
672.892	91.06
