Data from FlinnAP9092KCOPPER.07152019.QSWITCHSynchronous.EN10.20scans.P1_HRD10591_14-49-13-574.txt Node
Date: Mon Jul 15 14:49:13 EDT 2019
User: cochatt
Spectrometer: HR+D1059
Trigger mode: 5
Integration Time (sec): 1.000000E-1
Scans to average: 1
Electric dark correction enabled: true
Nonlinearity correction enabled: false
Boxcar width: 0
XAxis mode: Wavelengths
Number of Pixels in Spectrum: 2048
>>>>>Begin Spectral Data<<<<<
223.165	-32.62
223.4	-32.62
223.635	-32.62
223.869	-41.62
224.104	-39.62
224.338	11.38
224.573	-9.62
224.808	-23.62
225.042	4.38
225.277	-14.62
225.511	-17.62
225.746	37.38
225.98	20.38
226.215	2.38
226.449	3.38
226.683	38.38
226.918	28.38
227.152	33.38
227.387	48.38
227.621	45.38
227.856	50.38
228.09	28.38
228.324	39.38
228.559	78.38
228.793	102.38
229.027	188.38
229.262	234.38
229.496	232.38
229.73	279.38
229.964	362.38
230.199	278.38
230.433	222.38
230.667	217.38
230.901	196.38
231.136	194.38
231.37	190.38
231.604	186.38
231.838	203.38
232.072	203.38
232.306	204.38
232.541	198.38
232.775	202.38
233.009	209.38
233.243	216.38
233.477	224.38
233.711	215.38
233.945	221.38
234.179	215.38
234.413	233.38
234.647	217.38
234.881	227.38
235.115	210.38
235.349	205.38
235.583	239.38
235.817	225.38
236.051	219.38
236.285	236.38
236.519	234.38
236.753	250.38
236.987	300.38
237.221	380.38
237.455	507.38
237.689	406.38
237.922	293.38
238.156	254.38
238.39	266.38
238.624	240.38
238.858	251.38
239.091	248.38
239.325	232.38
239.559	275.38
239.793	254.38
240.027	299.38
240.26	301.38
240.494	355.38
240.728	330.38
240.961	343.38
241.195	316.38
241.429	279.38
241.662	274.38
241.896	256.38
242.13	262.38
242.363	270.38
242.597	283.38
242.83	299.38
243.064	267.38
243.298	271.38
243.531	252.38
243.765	285.38
243.998	291.38
244.232	278.38
244.465	300.38
244.699	310.38
244.932	297.38
245.166	312.38
245.399	308.38
245.633	304.38
245.866	320.38
246.099	307.38
246.333	312.38
246.566	316.38
246.8	295.38
247.033	304.38
247.266	324.38
247.5	336.38
247.733	360.38
247.966	376.38
248.2	338.38
248.433	360.38
248.666	365.38
248.899	414.38
249.133	454.38
249.366	494.38
249.599	451.38
249.832	390.38
250.066	418.38
250.299	374.38
250.532	412.38
250.765	421.38
250.998	464.38
251.231	513.38
251.465	458.38
251.698	433.38
251.931	411.38
252.164	401.38
252.397	388.38
252.63	416.38
252.863	399.38
253.096	481.38
253.329	530.38
253.562	500.38
253.795	468.38
254.028	464.38
254.261	466.38
254.494	466.38
254.727	598.38
254.96	658.38
255.193	601.38
255.426	510.38
255.659	471.38
255.892	496.38
256.124	436.38
256.357	443.38
256.59	412.38
256.823	411.38
257.056	452.38
257.289	445.38
257.521	446.38
257.754	443.38
257.987	433.38
258.22	438.38
258.452	436.38
258.685	447.38
258.918	444.38
259.151	450.38
259.383	487.38
259.616	503.38
259.849	482.38
260.081	540.38
260.314	570.38
260.547	601.38
260.779	568.38
261.012	524.38
261.244	497.38
261.477	516.38
261.71	465.38
261.942	484.38
262.175	521.38
262.407	512.38
262.64	497.38
262.872	473.38
263.105	464.38
263.337	489.38
263.57	467.38
263.802	477.38
264.035	453.38
264.267	456.38
264.499	476.38
264.732	466.38
264.964	466.38
265.197	450.38
265.429	477.38
265.661	463.38
265.894	475.38
266.126	502.38
266.358	488.38
266.591	476.38
266.823	521.38
267.055	487.38
267.287	503.38
267.52	501.38
267.752	502.38
267.984	504.38
268.216	503.38
268.448	551.38
268.681	536.38
268.913	570.38
269.145	617.38
269.377	648.38
269.609	639.38
269.841	621.38
270.073	626.38
270.306	679.38
270.538	739.38
270.77	716.38
271.002	701.38
271.234	655.38
271.466	689.38
271.698	735.38
271.93	743.38
272.162	736.38
272.394	745.38
272.626	675.38
272.858	640.38
273.09	623.38
273.322	605.38
273.553	606.38
273.785	598.38
274.017	575.38
274.249	601.38
274.481	602.38
274.713	587.38
274.945	639.38
275.176	602.38
275.408	610.38
275.64	620.38
275.872	577.38
276.104	619.38
276.335	613.38
276.567	663.38
276.799	659.38
277.031	719.38
277.262	798.38
277.494	778.38
277.726	728.38
277.957	665.38
278.189	621.38
278.421	606.38
278.652	613.38
278.884	621.38
279.115	608.38
279.347	612.38
279.579	605.38
279.81	579.38
280.042	596.38
280.273	605.38
280.505	586.38
280.736	621.38
280.968	633.38
281.199	633.38
281.431	624.38
281.662	640.38
281.894	640.38
282.125	640.38
282.356	701.38
282.588	714.38
282.819	739.38
283.051	662.38
283.282	634.38
283.513	658.38
283.745	672.38
283.976	672.38
284.207	679.38
284.439	656.38
284.67	664.38
284.901	652.38
285.132	651.38
285.364	646.38
285.595	678.38
285.826	647.38
286.057	696.38
286.288	673.38
286.52	661.38
286.751	656.38
286.982	676.38
287.213	680.38
287.444	724.38
287.675	729.38
287.906	744.38
288.138	749.38
288.369	757.38
288.6	728.38
288.831	710.38
289.062	713.38
289.293	701.38
289.524	718.38
289.755	700.38
289.986	676.38
290.217	665.38
290.448	672.38
290.679	689.38
290.91	696.38
291.141	660.38
291.371	716.38
291.602	694.38
291.833	704.38
292.064	716.38
292.295	700.38
292.526	708.38
292.757	713.38
292.987	692.38
293.218	663.38
293.449	698.38
293.68	683.38
293.91	692.38
294.141	684.38
294.372	687.38
294.603	693.38
294.833	730.38
295.064	692.38
295.295	705.38
295.525	690.38
295.756	695.38
295.987	724.38
296.217	756.38
296.448	786.38
296.679	746.38
296.909	716.38
297.14	702.38
297.37	735.38
297.601	712.38
297.831	730.38
298.062	760.38
298.292	730.38
298.523	764.38
298.753	745.38
298.984	734.38
299.214	748.38
299.445	734.38
299.675	721.38
299.905	750.38
300.136	763.38
300.366	742.38
300.597	753.38
300.827	782.38
301.057	781.38
301.288	818.38
301.518	804.38
301.748	780.38
301.979	800.38
302.209	799.38
302.439	804.38
302.669	795.38
302.9	786.38
303.13	782.38
303.36	781.38
303.59	772.38
303.82	811.38
304.051	806.38
304.281	781.38
304.511	799.38
304.741	779.38
304.971	798.38
305.201	773.38
305.431	753.38
305.661	798.38
305.891	745.38
306.121	779.38
306.352	803.38
306.582	795.38
306.812	780.38
307.042	780.38
307.272	757.38
307.502	751.38
307.731	784.38
307.961	797.38
308.191	761.38
308.421	756.38
308.651	784.38
308.881	790.38
309.111	794.38
309.341	780.38
309.571	785.38
309.8	801.38
310.03	852.38
310.26	852.38
310.49	848.38
310.72	869.38
310.949	907.38
311.179	922.38
311.409	892.38
311.639	857.38
311.868	859.38
312.098	885.38
312.328	909.38
312.557	968.38
312.787	971.38
313.017	989.38
313.246	917.38
313.476	852.38
313.706	872.38
313.935	876.38
314.165	914.38
314.394	942.38
314.624	924.38
314.853	915.38
315.083	898.38
315.312	887.38
315.542	856.38
315.771	838.38
316.001	817.38
316.23	833.38
316.46	855.38
316.689	849.38
316.919	866.38
317.148	907.38
317.377	916.38
317.607	918.38
317.836	863.38
318.065	850.38
318.295	849.38
318.524	858.38
318.753	831.38
318.983	839.38
319.212	846.38
319.441	860.38
319.67	888.38
319.9	861.38
320.129	828.38
320.358	841.38
320.587	836.38
320.816	849.38
321.046	871.38
321.275	927.38
321.504	872.38
321.733	884.38
321.962	875.38
322.191	904.38
322.42	932.38
322.649	986.38
322.878	966.38
323.108	1012.38
323.337	1076.38
323.566	1087.38
323.795	1176.38
324.024	1214.38
324.253	1425.38
324.482	2220.38
324.71	3707.38
324.939	5871.38
325.168	5117.38
325.397	2076.38
325.626	1302.38
325.855	1115.38
326.084	1048.38
326.313	1083.38
326.542	1054.38
326.77	1214.38
326.999	1416.38
327.228	2019.38
327.457	3328.38
327.686	4585.38
327.914	2601.38
328.143	1545.38
328.372	1305.38
328.6	1261.38
328.829	1231.38
329.058	1257.38
329.287	1376.38
329.515	1243.38
329.744	1113.38
329.972	1078.38
330.201	1071.38
330.43	1111.38
330.658	1217.38
330.887	1433.38
331.115	1454.38
331.344	1222.38
331.572	1156.38
331.801	1101.38
332.03	1096.38
332.258	1097.38
332.486	1066.38
332.715	1018.38
332.943	1086.38
333.172	1098.38
333.4	1121.38
333.629	1152.38
333.857	1196.38
334.085	1171.38
334.314	1166.38
334.542	1161.38
334.771	1122.38
334.999	1107.38
335.227	1114.38
335.455	1100.38
335.684	1065.38
335.912	1082.38
336.14	1053.38
336.369	1046.38
336.597	1066.38
336.825	1096.38
337.053	1045.38
337.281	1060.38
337.51	997.38
337.738	1009.38
337.966	995.38
338.194	1040.38
338.422	1037.38
338.65	1049.38
338.878	1018.38
339.106	994.38
339.334	1006.38
339.562	953.38
339.79	948.38
340.018	962.38
340.246	953.38
340.474	987.38
340.702	962.38
340.93	956.38
341.158	972.38
341.386	966.38
341.614	965.38
341.842	953.38
342.07	923.38
342.298	948.38
342.526	930.38
342.754	925.38
342.981	940.38
343.209	911.38
343.437	961.38
343.665	989.38
343.893	1027.38
344.12	1101.38
344.348	1066.38
344.576	1047.38
344.804	1018.38
345.031	1032.38
345.259	1047.38
345.487	1027.38
345.714	973.38
345.942	956.38
346.17	908.38
346.397	902.38
346.625	896.38
346.853	923.38
347.08	932.38
347.308	906.38
347.535	948.38
347.763	930.38
347.99	972.38
348.218	930.38
348.445	953.38
348.673	963.38
348.9	945.38
349.128	926.38
349.355	876.38
349.583	860.38
349.81	897.38
350.037	881.38
350.265	903.38
350.492	857.38
350.72	870.38
350.947	900.38
351.174	918.38
351.402	956.38
351.629	924.38
351.856	925.38
352.083	943.38
352.311	952.38
352.538	974.38
352.765	965.38
352.992	960.38
353.22	896.38
353.447	924.38
353.674	896.38
353.901	877.38
354.128	892.38
354.355	858.38
354.583	828.38
354.81	854.38
355.037	878.38
355.264	866.38
355.491	846.38
355.718	814.38
355.945	854.38
356.172	845.38
356.399	823.38
356.626	819.38
356.853	856.38
357.08	861.38
357.307	856.38
357.534	806.38
357.761	846.38
357.988	878.38
358.215	855.38
358.441	842.38
358.668	816.38
358.895	850.38
359.122	865.38
359.349	863.38
359.576	908.38
359.802	950.38
360.029	1012.38
360.256	1103.38
360.483	1070.38
360.709	941.38
360.936	964.38
361.163	908.38
361.39	950.38
361.616	919.38
361.843	928.38
362.07	918.38
362.296	920.38
362.523	869.38
362.749	876.38
362.976	871.38
363.203	908.38
363.429	839.38
363.656	899.38
363.882	889.38
364.109	877.38
364.335	900.38
364.562	857.38
364.788	856.38
365.015	863.38
365.241	859.38
365.468	877.38
365.694	867.38
365.92	889.38
366.147	884.38
366.373	854.38
366.599	847.38
366.826	856.38
367.052	855.38
367.278	893.38
367.505	873.38
367.731	885.38
367.957	862.38
368.184	876.38
368.41	892.38
368.636	924.38
368.862	936.38
369.089	903.38
369.315	861.38
369.541	922.38
369.767	880.38
369.993	895.38
370.219	900.38
370.445	851.38
370.672	852.38
370.898	870.38
371.124	903.38
371.35	903.38
371.576	874.38
371.802	868.38
372.028	889.38
372.254	877.38
372.48	876.38
372.706	893.38
372.932	916.38
373.158	911.38
373.384	922.38
373.61	926.38
373.835	932.38
374.061	911.38
374.287	924.38
374.513	903.38
374.739	968.38
374.965	981.38
375.191	960.38
375.416	953.38
375.642	954.38
375.868	944.38
376.094	924.38
376.319	935.38
376.545	923.38
376.771	900.38
376.997	884.38
377.222	886.38
377.448	902.38
377.674	914.38
377.899	878.38
378.125	906.38
378.35	924.38
378.576	881.38
378.802	857.38
379.027	922.38
379.253	913.38
379.478	883.38
379.704	895.38
379.929	903.38
380.155	914.38
380.38	895.38
380.606	896.38
380.831	928.38
381.057	976.38
381.282	902.38
381.507	942.38
381.733	976.38
381.958	950.38
382.184	950.38
382.409	924.38
382.634	964.38
382.86	950.38
383.085	976.38
383.31	975.38
383.535	1019.38
383.761	997.38
383.986	1020.38
384.211	1012.38
384.436	1034.38
384.662	1022.38
384.887	1051.38
385.112	1040.38
385.337	1054.38
385.562	1080.38
385.787	1090.38
386.013	1159.38
386.238	1114.38
386.463	1117.38
386.688	1062.38
386.913	1050.38
387.138	1050.38
387.363	1039.38
387.588	1100.38
387.813	1103.38
388.038	1056.38
388.263	1088.38
388.488	1080.38
388.713	1095.38
388.938	1086.38
389.163	1076.38
389.387	1081.38
389.612	1053.38
389.837	1044.38
390.062	1077.38
390.287	1069.38
390.512	1039.38
390.736	1085.38
390.961	1053.38
391.186	1079.38
391.411	1072.38
391.636	1131.38
391.86	1196.38
392.085	1179.38
392.31	1166.38
392.534	1172.38
392.759	1170.38
392.984	1152.38
393.208	1110.38
393.433	1105.38
393.658	1119.38
393.882	1132.38
394.107	1121.38
394.331	1101.38
394.556	1125.38
394.78	1125.38
395.005	1159.38
395.229	1128.38
395.454	1191.38
395.678	1224.38
395.903	1218.38
396.127	1271.38
396.352	1238.38
396.576	1160.38
396.801	1160.38
397.025	1140.38
397.249	1202.38
397.474	1206.38
397.698	1179.38
397.922	1258.38
398.147	1268.38
398.371	1310.38
398.595	1294.38
398.82	1296.38
399.044	1359.38
399.268	1479.38
399.492	1655.38
399.717	1819.38
399.941	1897.38
400.165	1852.38
400.389	1743.38
400.613	1544.38
400.837	1465.38
401.062	1380.38
401.286	1388.38
401.51	1336.38
401.734	1367.38
401.958	1389.38
402.182	1362.38
402.406	1451.38
402.63	1447.38
402.854	1452.38
403.078	1474.38
403.302	1479.38
403.526	1517.38
403.75	1576.38
403.974	1494.38
404.198	1494.38
404.422	1543.38
404.645	1536.38
404.869	1531.38
405.093	1567.38
405.317	1584.38
405.541	1643.38
405.765	1533.38
405.988	1524.38
406.212	1566.38
406.436	1604.38
406.66	1696.38
406.883	1627.38
407.107	1663.38
407.331	1842.38
407.555	2002.38
407.778	1995.38
408.002	1802.38
408.226	1637.38
408.449	1628.38
408.673	1616.38
408.896	1670.38
409.12	1773.38
409.344	1659.38
409.567	1488.38
409.791	1522.38
410.014	1507.38
410.238	1454.38
410.461	1453.38
410.685	1511.38
410.908	1524.38
411.132	1658.38
411.355	1687.38
411.578	1585.38
411.802	1447.38
412.025	1426.38
412.249	1463.38
412.472	1440.38
412.695	1409.38
412.919	1418.38
413.142	1448.38
413.365	1370.38
413.589	1392.38
413.812	1356.38
414.035	1398.38
414.258	1405.38
414.482	1389.38
414.705	1408.38
414.928	1406.38
415.151	1406.38
415.374	1391.38
415.597	1396.38
415.821	1379.38
416.044	1367.38
416.267	1397.38
416.49	1392.38
416.713	1390.38
416.936	1420.38
417.159	1387.38
417.382	1399.38
417.605	1400.38
417.828	1468.38
418.051	1540.38
418.274	1515.38
418.497	1469.38
418.72	1472.38
418.943	1477.38
419.166	1512.38
419.389	1618.38
419.611	1571.38
419.834	1502.38
420.057	1519.38
420.28	1501.38
420.503	1484.38
420.726	1465.38
420.948	1496.38
421.171	1616.38
421.394	1694.38
421.617	1542.38
421.839	1508.38
422.062	1542.38
422.285	1518.38
422.507	1664.38
422.73	1880.38
422.953	1795.38
423.175	1606.38
423.398	1564.38
423.621	1611.38
423.843	1696.38
424.066	1669.38
424.288	1644.38
424.511	1700.38
424.733	1845.38
424.956	2065.38
425.178	1896.38
425.401	1902.38
425.623	1979.38
425.846	1659.38
426.068	1574.38
426.291	1501.38
426.513	1546.38
426.735	1564.38
426.958	1649.38
427.18	1840.38
427.402	2258.38
427.625	2431.38
427.847	2008.38
428.069	1682.38
428.292	1534.38
428.514	1457.38
428.736	1434.38
428.958	1425.38
429.181	1445.38
429.403	1370.38
429.625	1440.38
429.847	1500.38
430.069	1730.38
430.292	1714.38
430.514	1448.38
430.736	1420.38
430.958	1403.38
431.18	1358.38
431.402	1338.38
431.624	1282.38
431.846	1209.38
432.068	1201.38
432.29	1200.38
432.512	1286.38
432.734	1384.38
432.956	1418.38
433.178	1464.38
433.4	1467.38
433.622	1440.38
433.844	1372.38
434.066	1327.38
434.287	1254.38
434.509	1232.38
434.731	1305.38
434.953	1430.38
435.175	1474.38
435.397	1624.38
435.618	1527.38
435.84	1590.38
436.062	1994.38
436.284	2139.38
436.505	1708.38
436.727	1583.38
436.949	1496.38
437.17	1458.38
437.392	1416.38
437.614	1394.38
437.835	1396.38
438.057	1666.38
438.278	1991.38
438.5	1953.38
438.721	2269.38
438.943	2174.38
439.165	1741.38
439.386	1616.38
439.608	1687.38
439.829	1680.38
440.05	1803.38
440.272	1966.38
440.493	1747.38
440.715	1638.38
440.936	1594.38
441.158	1545.38
441.379	1545.38
441.6	1672.38
441.822	1697.38
442.043	1791.38
442.264	2020.38
442.486	2108.38
442.707	1789.38
442.928	1695.38
443.149	1803.38
443.371	1881.38
443.592	1910.38
443.813	2172.38
444.034	2330.38
444.255	1949.38
444.476	1746.38
444.698	1754.38
444.919	1807.38
445.14	3509.38
445.361	2564.38
445.582	1939.38
445.803	2136.38
446.024	2382.38
446.245	2419.38
446.466	2193.38
446.687	1818.38
446.908	1700.38
447.129	1602.38
447.35	1568.38
447.571	1572.38
447.792	1458.38
448.013	1500.38
448.234	1573.38
448.455	1666.38
448.675	2011.38
448.896	2282.38
449.117	1854.38
449.338	1737.38
449.559	2124.38
449.779	2384.38
450	1819.38
450.221	1544.38
450.442	1450.38
450.662	1407.38
450.883	1431.38
451.104	1485.38
451.324	1430.38
451.545	1397.38
451.766	1308.38
451.986	1283.38
452.207	1294.38
452.428	1274.38
452.648	1279.38
452.869	1257.38
453.089	1284.38
453.31	1274.38
453.53	1204.38
453.751	1152.38
453.971	1170.38
454.192	1227.38
454.412	1190.38
454.633	1187.38
454.853	1200.38
455.073	1206.38
455.294	1302.38
455.514	1517.38
455.734	1430.38
455.955	1210.38
456.175	1155.38
456.395	1104.38
456.616	1082.38
456.836	1102.38
457.056	1096.38
457.276	1048.38
457.497	1055.38
457.717	1069.38
457.937	1104.38
458.157	1100.38
458.377	1109.38
458.598	1180.38
458.818	1329.38
459.038	1568.38
459.258	1598.38
459.478	1302.38
459.698	1197.38
459.918	1223.38
460.138	1288.38
460.358	1352.38
460.578	1411.38
460.798	1368.38
461.018	1401.38
461.238	1381.38
461.458	1369.38
461.678	1360.38
461.898	1354.38
462.118	1360.38
462.338	1410.38
462.558	1436.38
462.777	1453.38
462.997	1573.38
463.217	1609.38
463.437	1637.38
463.657	1541.38
463.876	1505.38
464.096	1489.38
464.316	1476.38
464.536	1536.38
464.755	1532.38
464.975	1489.38
465.195	1619.38
465.414	1800.38
465.634	1509.38
465.854	1362.38
466.073	1318.38
466.293	1304.38
466.512	1322.38
466.732	1332.38
466.951	1318.38
467.171	1305.38
467.391	1351.38
467.61	1366.38
467.829	1396.38
468.049	1370.38
468.268	1317.38
468.488	1268.38
468.707	1316.38
468.927	1293.38
469.146	1292.38
469.365	1328.38
469.585	1394.38
469.804	1393.38
470.023	1430.38
470.243	1470.38
470.462	1478.38
470.681	1495.38
470.901	1473.38
471.12	1422.38
471.339	1430.38
471.558	1457.38
471.777	1441.38
471.997	1310.38
472.216	1288.38
472.435	1177.38
472.654	1140.38
472.873	1174.38
473.092	1176.38
473.311	1189.38
473.53	1240.38
473.749	1298.38
473.968	1360.38
474.187	1658.38
474.406	1670.38
474.625	1392.38
474.844	1293.38
475.063	1307.38
475.282	1225.38
475.501	1213.38
475.72	1297.38
475.939	1277.38
476.158	1284.38
476.377	1302.38
476.596	1256.38
476.814	1231.38
477.033	1210.38
477.252	1276.38
477.471	1321.38
477.69	1375.38
477.908	1434.38
478.127	1498.38
478.346	1474.38
478.564	1461.38
478.783	1514.38
479.002	1528.38
479.22	1528.38
479.439	1589.38
479.658	1550.38
479.876	1461.38
480.095	1432.38
480.313	1676.38
480.532	1615.38
480.751	1496.38
480.969	1410.38
481.188	1411.38
481.406	1355.38
481.624	1277.38
481.843	1260.38
482.061	1299.38
482.28	1330.38
482.498	1336.38
482.717	1295.38
482.935	1369.38
483.153	1489.38
483.372	1577.38
483.59	1516.38
483.808	1499.38
484.027	1416.38
484.245	1450.38
484.463	1465.38
484.681	1573.38
484.9	1501.38
485.118	1518.38
485.336	1468.38
485.554	1411.38
485.772	1395.38
485.99	1399.38
486.209	1411.38
486.427	1432.38
486.645	1493.38
486.863	1654.38
487.081	1668.38
487.299	1553.38
487.517	1603.38
487.735	1756.38
487.953	1863.38
488.171	1880.38
488.389	1779.38
488.607	1678.38
488.825	1600.38
489.043	1541.38
489.261	1555.38
489.479	1586.38
489.696	1632.38
489.914	1645.38
490.132	1718.38
490.35	1802.38
490.568	1871.38
490.786	1936.38
491.003	1974.38
491.221	2116.38
491.439	2132.38
491.657	2173.38
491.874	2316.38
492.092	2423.38
492.31	2526.38
492.527	2420.38
492.745	2302.38
492.963	2196.38
493.18	2200.38
493.398	2260.38
493.615	2183.38
493.833	2192.38
494.05	2183.38
494.268	2122.38
494.485	2138.38
494.703	2126.38
494.92	2135.38
495.138	2152.38
495.355	2170.38
495.573	2132.38
495.79	2117.38
496.008	2106.38
496.225	2065.38
496.442	2062.38
496.66	2084.38
496.877	2065.38
497.094	2126.38
497.312	2043.38
497.529	2038.38
497.746	2059.38
497.963	2014.38
498.181	2015.38
498.398	2022.38
498.615	2022.38
498.832	2065.38
499.049	2190.38
499.267	2301.38
499.484	2401.38
499.701	2585.38
499.918	2847.38
500.135	3132.38
500.352	3360.38
500.569	3487.38
500.786	3510.38
501.003	3356.38
501.22	3090.38
501.437	2963.38
501.654	2781.38
501.871	2596.38
502.088	2454.38
502.305	2331.38
502.522	2160.38
502.739	2077.38
502.956	2031.38
503.172	1935.38
503.389	1850.38
503.606	1822.38
503.823	1849.38
504.04	1817.38
504.256	1825.38
504.473	1797.38
504.69	1804.38
504.907	1856.38
505.123	1737.38
505.34	1766.38
505.557	1737.38
505.773	1723.38
505.99	1662.38
506.207	1670.38
506.423	1675.38
506.64	1609.38
506.856	1602.38
507.073	1586.38
507.289	1579.38
507.506	1551.38
507.722	1574.38
507.939	1630.38
508.155	1584.38
508.372	1464.38
508.588	1436.38
508.805	1426.38
509.021	1447.38
509.238	1517.38
509.454	1487.38
509.67	1418.38
509.887	1383.38
510.103	1394.38
510.319	1355.38
510.536	1606.38
510.752	2733.38
510.968	1972.38
511.184	1322.38
511.401	1266.38
511.617	1270.38
511.833	1234.38
512.049	1236.38
512.265	1264.38
512.481	1273.38
512.698	1260.38
512.914	1282.38
513.13	1296.38
513.346	1223.38
513.562	1273.38
513.778	1254.38
513.994	1270.38
514.21	1312.38
514.426	1362.38
514.642	1452.38
514.858	1517.38
515.074	1615.38
515.29	2056.38
515.506	3185.38
515.721	2356.38
515.937	1562.38
516.153	1460.38
516.369	1402.38
516.585	1388.38
516.801	1396.38
517.016	1444.38
517.232	1450.38
517.448	1512.38
517.664	1591.38
517.879	1576.38
518.095	1546.38
518.311	1546.38
518.527	1505.38
518.742	1457.38
518.958	1428.38
519.173	1452.38
519.389	1410.38
519.605	1396.38
519.82	1362.38
520.036	1439.38
520.251	1457.38
520.467	1510.38
520.682	1462.38
520.898	1398.38
521.113	1464.38
521.329	1517.38
521.544	1747.38
521.76	2405.38
521.975	4391.38
522.19	3909.38
522.406	1993.38
522.621	1506.38
522.836	1367.38
523.052	1367.38
523.267	1270.38
523.482	1237.38
523.698	1255.38
523.913	1299.38
524.128	1302.38
524.343	1308.38
524.559	1311.38
524.774	1285.38
524.989	1259.38
525.204	1296.38
525.419	1265.38
525.634	1190.38
525.849	1172.38
526.064	1145.38
526.28	1156.38
526.495	1077.38
526.71	1052.38
526.925	1001.38
527.14	1048.38
527.355	1017.38
527.57	1060.38
527.785	1016.38
527.999	1038.38
528.214	1109.38
528.429	1142.38
528.644	1206.38
528.859	1281.38
529.074	1347.38
529.289	1495.38
529.503	1702.38
529.718	1473.38
529.933	1270.38
530.148	1137.38
530.363	1101.38
530.577	1019.38
530.792	1022.38
531.007	1005.38
531.221	964.38
531.436	1005.38
531.651	1010.38
531.865	1012.38
532.08	988.38
532.295	1042.38
532.509	994.38
532.724	1008.38
532.938	1029.38
533.153	1089.38
533.367	1148.38
533.582	1183.38
533.796	1166.38
534.011	1119.38
534.225	1028.38
534.44	982.38
534.654	1028.38
534.868	1038.38
535.083	1043.38
535.297	1084.38
535.511	1135.38
535.726	1158.38
535.94	1097.38
536.154	1067.38
536.369	980.38
536.583	982.38
536.797	1000.38
537.011	966.38
537.225	936.38
537.44	976.38
537.654	984.38
537.868	983.38
538.082	980.38
538.296	1033.38
538.51	1065.38
538.724	1135.38
538.938	1202.38
539.153	1252.38
539.367	1231.38
539.581	1158.38
539.795	1075.38
540.009	1042.38
540.222	1080.38
540.436	1133.38
540.65	1185.38
540.864	1277.38
541.078	1389.38
541.292	1512.38
541.506	1605.38
541.72	1686.38
541.934	1820.38
542.147	1919.38
542.361	1822.38
542.575	1722.38
542.789	1611.38
543.002	1487.38
543.216	1437.38
543.43	1439.38
543.644	1493.38
543.857	1622.38
544.071	1730.38
544.285	1762.38
544.498	1720.38
544.712	1761.38
544.925	1754.38
545.139	1720.38
545.352	1718.38
545.566	1746.38
545.779	1729.38
545.993	1788.38
546.206	2031.38
546.42	2038.38
546.633	1756.38
546.847	1688.38
547.06	1688.38
547.274	1714.38
547.487	1776.38
547.7	1739.38
547.914	1698.38
548.127	1670.38
548.34	1659.38
548.554	1594.38
548.767	1633.38
548.98	1624.38
549.193	1595.38
549.407	1630.38
549.62	1611.38
549.833	1619.38
550.046	1615.38
550.259	1556.38
550.473	1573.38
550.686	1614.38
550.899	1572.38
551.112	1502.38
551.325	1465.38
551.538	1317.38
551.751	1208.38
551.964	1182.38
552.177	1346.38
552.39	1421.38
552.603	1520.38
552.816	1591.38
553.029	1640.38
553.242	1661.38
553.455	1690.38
553.667	1740.38
553.88	1673.38
554.093	1640.38
554.306	1624.38
554.519	1574.38
554.732	1534.38
554.944	1498.38
555.157	1500.38
555.37	1440.38
555.583	1384.38
555.795	1398.38
556.008	1331.38
556.221	1307.38
556.433	1311.38
556.646	1308.38
556.859	1314.38
557.071	1305.38
557.284	1335.38
557.496	1330.38
557.709	1304.38
557.921	1341.38
558.134	1307.38
558.346	1306.38
558.559	1317.38
558.771	1258.38
558.984	1269.38
559.196	1213.38
559.409	1192.38
559.621	1193.38
559.833	1151.38
560.046	1148.38
560.258	1192.38
560.47	1180.38
560.683	1160.38
560.895	1220.38
561.107	1218.38
561.32	1215.38
561.532	1215.38
561.744	1229.38
561.956	1255.38
562.168	1207.38
562.381	1197.38
562.593	1204.38
562.805	1204.38
563.017	1185.38
563.229	1178.38
563.441	1161.38
563.653	1177.38
563.865	1163.38
564.077	1138.38
564.289	1199.38
564.501	1168.38
564.713	1146.38
564.925	1199.38
565.137	1200.38
565.349	1199.38
565.561	1197.38
565.773	1253.38
565.985	1251.38
566.197	1273.38
566.408	1363.38
566.62	1444.38
566.832	1488.38
567.044	1469.38
567.255	1470.38
567.467	1470.38
567.679	1505.38
567.891	1515.38
568.102	1458.38
568.314	1426.38
568.526	1270.38
568.737	1195.38
568.949	1064.38
569.161	992.38
569.372	941.38
569.584	918.38
569.795	908.38
570.007	868.38
570.218	960.38
570.43	943.38
570.641	879.38
570.853	922.38
571.064	978.38
571.276	954.38
571.487	937.38
571.698	949.38
571.91	906.38
572.121	896.38
572.333	853.38
572.544	810.38
572.755	808.38
572.966	789.38
573.178	712.38
573.389	717.38
573.6	693.38
573.811	709.38
574.023	695.38
574.234	694.38
574.445	720.38
574.656	747.38
574.867	765.38
575.078	750.38
575.289	774.38
575.501	781.38
575.712	743.38
575.923	713.38
576.134	747.38
576.345	761.38
576.556	796.38
576.767	789.38
576.978	798.38
577.188	864.38
577.399	784.38
577.61	709.38
577.821	724.38
578.032	735.38
578.243	838.38
578.454	1224.38
578.665	870.38
578.875	659.38
579.086	683.38
579.297	711.38
579.508	655.38
579.718	648.38
579.929	661.38
580.14	646.38
580.35	650.38
580.561	684.38
580.772	695.38
580.982	689.38
581.193	694.38
581.403	712.38
581.614	685.38
581.825	680.38
582.035	689.38
582.246	686.38
582.456	693.38
582.667	701.38
582.877	693.38
583.087	663.38
583.298	683.38
583.508	704.38
583.719	663.38
583.929	711.38
584.139	667.38
584.35	642.38
584.56	678.38
584.77	668.38
584.981	639.38
585.191	658.38
585.401	664.38
585.611	662.38
585.821	661.38
586.032	654.38
586.242	626.38
586.452	641.38
586.662	628.38
586.872	599.38
587.082	649.38
587.292	650.38
587.502	694.38
587.713	702.38
587.923	669.38
588.133	624.38
588.343	624.38
588.553	620.38
588.762	677.38
588.972	638.38
589.182	630.38
589.392	633.38
589.602	618.38
589.812	593.38
590.022	652.38
590.232	602.38
590.441	624.38
590.651	615.38
590.861	613.38
591.071	629.38
591.281	646.38
591.49	604.38
591.7	633.38
591.91	647.38
592.119	654.38
592.329	668.38
592.539	721.38
592.748	745.38
592.958	733.38
593.167	743.38
593.377	761.38
593.587	844.38
593.796	776.38
594.006	750.38
594.215	753.38
594.424	809.38
594.634	778.38
594.843	757.38
595.053	773.38
595.262	760.38
595.472	706.38
595.681	670.38
595.89	642.38
596.1	654.38
596.309	661.38
596.518	685.38
596.727	693.38
596.937	705.38
597.146	678.38
597.355	677.38
597.564	636.38
597.774	634.38
597.983	604.38
598.192	530.38
598.401	565.38
598.61	572.38
598.819	603.38
599.028	624.38
599.237	628.38
599.446	616.38
599.655	631.38
599.864	594.38
600.073	622.38
600.282	643.38
600.491	633.38
600.7	623.38
600.909	606.38
601.118	683.38
601.327	744.38
601.536	766.38
601.745	794.38
601.953	795.38
602.162	824.38
602.371	811.38
602.58	809.38
602.789	811.38
602.997	809.38
603.206	831.38
603.415	813.38
603.623	783.38
603.832	804.38
604.041	780.38
604.249	709.38
604.458	667.38
604.666	626.38
604.875	644.38
605.084	680.38
605.292	739.38
605.501	827.38
605.709	857.38
605.918	856.38
606.126	905.38
606.334	879.38
606.543	877.38
606.751	900.38
606.96	869.38
607.168	890.38
607.376	864.38
607.585	871.38
607.793	878.38
608.001	877.38
608.21	920.38
608.418	914.38
608.626	905.38
608.834	904.38
609.043	904.38
609.251	931.38
609.459	901.38
609.667	958.38
609.875	956.38
610.083	986.38
610.291	960.38
610.499	991.38
610.707	1010.38
610.916	1086.38
611.124	1178.38
611.332	1321.38
611.54	1397.38
611.748	1387.38
611.955	1236.38
612.163	1146.38
612.371	1117.38
612.579	1051.38
612.787	1012.38
612.995	1035.38
613.203	1049.38
613.411	1020.38
613.618	996.38
613.826	977.38
614.034	955.38
614.242	977.38
614.449	988.38
614.657	1000.38
614.865	977.38
615.072	979.38
615.28	965.38
615.488	944.38
615.695	965.38
615.903	972.38
616.111	950.38
616.318	1002.38
616.526	964.38
616.733	990.38
616.941	961.38
617.148	949.38
617.356	905.38
617.563	920.38
617.771	838.38
617.978	848.38
618.185	905.38
618.393	908.38
618.6	930.38
618.807	908.38
619.015	918.38
619.222	907.38
619.429	877.38
619.637	826.38
619.844	734.38
620.051	778.38
620.258	816.38
620.466	845.38
620.673	850.38
620.88	827.38
621.087	814.38
621.294	827.38
621.501	753.38
621.708	779.38
621.915	806.38
622.122	832.38
622.329	851.38
622.536	865.38
622.743	848.38
622.95	850.38
623.157	796.38
623.364	841.38
623.571	850.38
623.778	845.38
623.985	869.38
624.192	848.38
624.399	807.38
624.606	847.38
624.812	809.38
625.019	766.38
625.226	714.38
625.433	731.38
625.639	690.38
625.846	652.38
626.053	571.38
626.259	560.38
626.466	595.38
626.673	538.38
626.879	536.38
627.086	591.38
627.293	694.38
627.499	696.38
627.706	749.38
627.912	771.38
628.119	783.38
628.325	795.38
628.532	761.38
628.738	751.38
628.945	699.38
629.151	673.38
629.357	689.38
629.564	699.38
629.77	712.38
629.976	687.38
630.183	644.38
630.389	645.38
630.595	702.38
630.802	698.38
631.008	721.38
631.214	701.38
631.42	720.38
631.627	676.38
631.833	636.38
632.039	628.38
632.245	641.38
632.451	683.38
632.657	635.38
632.863	644.38
633.069	627.38
633.275	637.38
633.481	601.38
633.688	586.38
633.893	613.38
634.099	593.38
634.305	580.38
634.511	583.38
634.717	573.38
634.923	533.38
635.129	528.38
635.335	517.38
635.541	524.38
635.747	550.38
635.952	566.38
636.158	634.38
636.364	641.38
636.57	619.38
636.775	642.38
636.981	628.38
637.187	629.38
637.392	644.38
637.598	638.38
637.804	644.38
638.009	621.38
638.215	626.38
638.421	591.38
638.626	619.38
638.832	629.38
639.037	612.38
639.243	580.38
639.448	586.38
639.654	596.38
639.859	571.38
640.065	580.38
640.27	655.38
640.475	579.38
640.681	582.38
640.886	584.38
641.091	597.38
641.297	632.38
641.502	610.38
641.707	600.38
641.913	607.38
642.118	599.38
642.323	583.38
642.528	639.38
642.733	588.38
642.939	591.38
643.144	559.38
643.349	556.38
643.554	583.38
643.759	591.38
643.964	526.38
644.169	599.38
644.374	571.38
644.579	593.38
644.784	550.38
644.989	566.38
645.194	579.38
645.399	580.38
645.604	558.38
645.809	593.38
646.014	578.38
646.219	598.38
646.423	572.38
646.628	591.38
646.833	564.38
647.038	599.38
647.243	598.38
647.447	593.38
647.652	585.38
647.857	548.38
648.062	573.38
648.266	573.38
648.471	603.38
648.676	577.38
648.88	557.38
649.085	579.38
649.289	583.38
649.494	569.38
649.698	634.38
649.903	597.38
650.107	546.38
650.312	591.38
650.516	556.38
650.721	536.38
650.925	514.38
651.13	504.38
651.334	479.38
651.539	494.38
651.743	478.38
651.947	497.38
652.152	504.38
652.356	492.38
652.56	436.38
652.764	453.38
652.969	455.38
653.173	432.38
653.377	448.38
653.581	400.38
653.785	430.38
653.99	422.38
654.194	402.38
654.398	389.38
654.602	389.38
654.806	399.38
655.01	424.38
655.214	410.38
655.418	375.38
655.622	357.38
655.826	372.38
656.03	378.38
656.234	386.38
656.438	378.38
656.642	376.38
656.846	354.38
657.049	352.38
657.253	337.38
657.457	298.38
657.661	292.38
657.865	277.38
658.068	274.38
658.272	242.38
658.476	260.38
658.68	244.38
658.883	235.38
659.087	227.38
659.291	238.38
659.494	228.38
659.698	199.38
659.901	205.38
660.105	206.38
660.309	196.38
660.512	181.38
660.716	172.38
660.919	184.38
661.123	214.38
661.326	171.38
661.53	168.38
661.733	171.38
661.936	159.38
662.14	141.38
662.343	149.38
662.546	121.38
662.75	143.38
662.953	152.38
663.156	125.38
663.36	109.38
663.563	138.38
663.766	106.38
663.969	129.38
664.173	106.38
664.376	109.38
664.579	108.38
664.782	108.38
664.985	115.38
665.188	108.38
665.391	130.38
665.594	96.38
665.797	93.38
666	110.38
666.203	99.38
666.406	99.38
666.609	116.38
666.812	123.38
667.015	111.38
667.218	134.38
667.421	136.38
667.624	113.38
667.827	107.38
668.03	93.38
668.232	104.38
668.435	112.38
668.638	121.38
668.841	133.38
669.043	101.38
669.246	113.38
669.449	119.38
669.651	124.38
669.854	104.38
670.057	113.38
670.259	99.38
670.462	110.38
670.665	97.38
670.867	129.38
671.07	111.38
671.272	126.38
671.475	147.38
671.677	118.38
671.88	123.38
672.082	100.38
672.284	142.38
672.487	145.38
672.689	120.38
672.892	114.38
