Data from FlinnAP9092KCOPPER.07152019.QSWITCHSynchronous.EN10.20scans.P1_HRD10591_14-49-25-574.txt Node
Date: Mon Jul 15 14:49:25 EDT 2019
User: cochatt
Spectrometer: HR+D1059
Trigger mode: 5
Integration Time (sec): 1.000000E-1
Scans to average: 1
Electric dark correction enabled: true
Nonlinearity correction enabled: false
Boxcar width: 0
XAxis mode: Wavelengths
Number of Pixels in Spectrum: 2048
>>>>>Begin Spectral Data<<<<<
223.165	-41.75
223.4	-41.75
223.635	-41.75
223.869	-40.75
224.104	-48.75
224.338	2.25
224.573	-14.75
224.808	-23.75
225.042	27.25
225.277	1.25
225.511	-2.75
225.746	30.25
225.98	12.25
226.215	29.25
226.449	22.25
226.683	-2.75
226.918	19.25
227.152	31.25
227.387	50.25
227.621	43.25
227.856	73.25
228.09	52.25
228.324	37.25
228.559	57.25
228.793	81.25
229.027	180.25
229.262	225.25
229.496	201.25
229.73	262.25
229.964	343.25
230.199	275.25
230.433	218.25
230.667	217.25
230.901	197.25
231.136	191.25
231.37	183.25
231.604	190.25
231.838	195.25
232.072	193.25
232.306	204.25
232.541	214.25
232.775	200.25
233.009	219.25
233.243	199.25
233.477	187.25
233.711	200.25
233.945	221.25
234.179	218.25
234.413	231.25
234.647	228.25
234.881	225.25
235.115	228.25
235.349	222.25
235.583	260.25
235.817	230.25
236.051	238.25
236.285	259.25
236.519	238.25
236.753	269.25
236.987	291.25
237.221	374.25
237.455	535.25
237.689	414.25
237.922	285.25
238.156	277.25
238.39	274.25
238.624	243.25
238.858	279.25
239.091	229.25
239.325	247.25
239.559	268.25
239.793	269.25
240.027	282.25
240.26	291.25
240.494	354.25
240.728	339.25
240.961	332.25
241.195	313.25
241.429	295.25
241.662	275.25
241.896	252.25
242.13	278.25
242.363	269.25
242.597	265.25
242.83	302.25
243.064	281.25
243.298	280.25
243.531	266.25
243.765	277.25
243.998	291.25
244.232	309.25
244.465	297.25
244.699	311.25
244.932	293.25
245.166	278.25
245.399	305.25
245.633	306.25
245.866	303.25
246.099	277.25
246.333	297.25
246.566	305.25
246.8	296.25
247.033	319.25
247.266	311.25
247.5	321.25
247.733	348.25
247.966	353.25
248.2	366.25
248.433	349.25
248.666	351.25
248.899	405.25
249.133	448.25
249.366	468.25
249.599	433.25
249.832	391.25
250.066	398.25
250.299	369.25
250.532	414.25
250.765	441.25
250.998	486.25
251.231	511.25
251.465	450.25
251.698	417.25
251.931	403.25
252.164	413.25
252.397	411.25
252.63	421.25
252.863	425.25
253.096	457.25
253.329	539.25
253.562	491.25
253.795	483.25
254.028	497.25
254.261	474.25
254.494	486.25
254.727	595.25
254.96	676.25
255.193	630.25
255.426	509.25
255.659	475.25
255.892	484.25
256.124	440.25
256.357	457.25
256.59	457.25
256.823	438.25
257.056	441.25
257.289	430.25
257.521	437.25
257.754	430.25
257.987	423.25
258.22	476.25
258.452	437.25
258.685	439.25
258.918	429.25
259.151	467.25
259.383	494.25
259.616	481.25
259.849	507.25
260.081	531.25
260.314	585.25
260.547	608.25
260.779	579.25
261.012	522.25
261.244	493.25
261.477	502.25
261.71	479.25
261.942	475.25
262.175	545.25
262.407	511.25
262.64	470.25
262.872	464.25
263.105	460.25
263.337	516.25
263.57	478.25
263.802	477.25
264.035	478.25
264.267	474.25
264.499	461.25
264.732	500.25
264.964	476.25
265.197	471.25
265.429	487.25
265.661	476.25
265.894	494.25
266.126	467.25
266.358	473.25
266.591	502.25
266.823	517.25
267.055	523.25
267.287	525.25
267.52	482.25
267.752	469.25
267.984	519.25
268.216	526.25
268.448	532.25
268.681	560.25
268.913	585.25
269.145	608.25
269.377	688.25
269.609	627.25
269.841	621.25
270.073	615.25
270.306	687.25
270.538	784.25
270.77	755.25
271.002	730.25
271.234	658.25
271.466	709.25
271.698	741.25
271.93	767.25
272.162	753.25
272.394	766.25
272.626	726.25
272.858	671.25
273.09	638.25
273.322	646.25
273.553	597.25
273.785	602.25
274.017	610.25
274.249	602.25
274.481	611.25
274.713	593.25
274.945	643.25
275.176	628.25
275.408	629.25
275.64	625.25
275.872	616.25
276.104	626.25
276.335	622.25
276.567	665.25
276.799	683.25
277.031	749.25
277.262	803.25
277.494	794.25
277.726	716.25
277.957	656.25
278.189	648.25
278.421	613.25
278.652	625.25
278.884	621.25
279.115	627.25
279.347	629.25
279.579	644.25
279.81	608.25
280.042	611.25
280.273	614.25
280.505	614.25
280.736	615.25
280.968	621.25
281.199	590.25
281.431	645.25
281.662	649.25
281.894	616.25
282.125	621.25
282.356	690.25
282.588	737.25
282.819	747.25
283.051	682.25
283.282	651.25
283.513	700.25
283.745	684.25
283.976	682.25
284.207	684.25
284.439	691.25
284.67	683.25
284.901	655.25
285.132	658.25
285.364	644.25
285.595	671.25
285.826	681.25
286.057	717.25
286.288	676.25
286.52	675.25
286.751	660.25
286.982	669.25
287.213	658.25
287.444	690.25
287.675	725.25
287.906	729.25
288.138	747.25
288.369	753.25
288.6	732.25
288.831	719.25
289.062	711.25
289.293	695.25
289.524	712.25
289.755	699.25
289.986	698.25
290.217	691.25
290.448	707.25
290.679	713.25
290.91	700.25
291.141	675.25
291.371	703.25
291.602	692.25
291.833	692.25
292.064	713.25
292.295	685.25
292.526	707.25
292.757	693.25
292.987	692.25
293.218	671.25
293.449	708.25
293.68	709.25
293.91	676.25
294.141	694.25
294.372	685.25
294.603	708.25
294.833	696.25
295.064	693.25
295.295	703.25
295.525	698.25
295.756	727.25
295.987	740.25
296.217	787.25
296.448	835.25
296.679	726.25
296.909	709.25
297.14	759.25
297.37	735.25
297.601	726.25
297.831	716.25
298.062	742.25
298.292	746.25
298.523	738.25
298.753	791.25
298.984	752.25
299.214	755.25
299.445	770.25
299.675	733.25
299.905	753.25
300.136	779.25
300.366	781.25
300.597	739.25
300.827	788.25
301.057	759.25
301.288	805.25
301.518	807.25
301.748	771.25
301.979	775.25
302.209	802.25
302.439	802.25
302.669	785.25
302.9	787.25
303.13	800.25
303.36	796.25
303.59	797.25
303.82	842.25
304.051	789.25
304.281	786.25
304.511	797.25
304.741	751.25
304.971	754.25
305.201	797.25
305.431	791.25
305.661	776.25
305.891	753.25
306.121	771.25
306.352	773.25
306.582	798.25
306.812	775.25
307.042	761.25
307.272	777.25
307.502	773.25
307.731	794.25
307.961	790.25
308.191	772.25
308.421	759.25
308.651	773.25
308.881	791.25
309.111	794.25
309.341	778.25
309.571	812.25
309.8	831.25
310.03	874.25
310.26	882.25
310.49	835.25
310.72	851.25
310.949	914.25
311.179	940.25
311.409	899.25
311.639	875.25
311.868	873.25
312.098	868.25
312.328	916.25
312.557	933.25
312.787	961.25
313.017	973.25
313.246	888.25
313.476	887.25
313.706	870.25
313.935	896.25
314.165	935.25
314.394	986.25
314.624	959.25
314.853	933.25
315.083	887.25
315.312	889.25
315.542	845.25
315.771	858.25
316.001	838.25
316.23	872.25
316.46	837.25
316.689	856.25
316.919	879.25
317.148	913.25
317.377	939.25
317.607	904.25
317.836	880.25
318.065	859.25
318.295	856.25
318.524	857.25
318.753	841.25
318.983	849.25
319.212	847.25
319.441	874.25
319.67	885.25
319.9	844.25
320.129	870.25
320.358	855.25
320.587	874.25
320.816	861.25
321.046	922.25
321.275	908.25
321.504	866.25
321.733	905.25
321.962	885.25
322.191	934.25
322.42	955.25
322.649	986.25
322.878	1011.25
323.108	1009.25
323.337	1086.25
323.566	1116.25
323.795	1218.25
324.024	1303.25
324.253	1527.25
324.482	2241.25
324.71	3686.25
324.939	5825.25
325.168	5069.25
325.397	2090.25
325.626	1343.25
325.855	1116.25
326.084	1053.25
326.313	1085.25
326.542	1099.25
326.77	1225.25
326.999	1448.25
327.228	2077.25
327.457	3397.25
327.686	4489.25
327.914	2652.25
328.143	1557.25
328.372	1334.25
328.6	1290.25
328.829	1292.25
329.058	1299.25
329.287	1376.25
329.515	1277.25
329.744	1127.25
329.972	1093.25
330.201	1094.25
330.43	1161.25
330.658	1243.25
330.887	1461.25
331.115	1498.25
331.344	1189.25
331.572	1147.25
331.801	1142.25
332.03	1147.25
332.258	1151.25
332.486	1094.25
332.715	1040.25
332.943	1102.25
333.172	1153.25
333.4	1140.25
333.629	1181.25
333.857	1194.25
334.085	1178.25
334.314	1154.25
334.542	1144.25
334.771	1160.25
334.999	1112.25
335.227	1137.25
335.455	1104.25
335.684	1119.25
335.912	1111.25
336.14	1060.25
336.369	1085.25
336.597	1081.25
336.825	1094.25
337.053	1051.25
337.281	1037.25
337.51	1005.25
337.738	1068.25
337.966	1015.25
338.194	1031.25
338.422	1045.25
338.65	1037.25
338.878	1022.25
339.106	981.25
339.334	1007.25
339.562	971.25
339.79	975.25
340.018	958.25
340.246	982.25
340.474	1001.25
340.702	986.25
340.93	969.25
341.158	948.25
341.386	1003.25
341.614	1034.25
341.842	987.25
342.07	955.25
342.298	954.25
342.526	940.25
342.754	925.25
342.981	912.25
343.209	961.25
343.437	975.25
343.665	984.25
343.893	1049.25
344.12	1113.25
344.348	1067.25
344.576	1035.25
344.804	1020.25
345.031	1022.25
345.259	1046.25
345.487	1025.25
345.714	951.25
345.942	945.25
346.17	962.25
346.397	955.25
346.625	932.25
346.853	940.25
347.08	911.25
347.308	923.25
347.535	943.25
347.763	957.25
347.99	991.25
348.218	963.25
348.445	957.25
348.673	1012.25
348.9	949.25
349.128	919.25
349.355	882.25
349.583	890.25
349.81	895.25
350.037	878.25
350.265	910.25
350.492	873.25
350.72	846.25
350.947	907.25
351.174	932.25
351.402	982.25
351.629	943.25
351.856	932.25
352.083	951.25
352.311	996.25
352.538	941.25
352.765	998.25
352.992	975.25
353.22	898.25
353.447	899.25
353.674	900.25
353.901	882.25
354.128	875.25
354.355	858.25
354.583	859.25
354.81	847.25
355.037	863.25
355.264	881.25
355.491	852.25
355.718	830.25
355.945	864.25
356.172	834.25
356.399	824.25
356.626	835.25
356.853	842.25
357.08	860.25
357.307	851.25
357.534	835.25
357.761	866.25
357.988	875.25
358.215	846.25
358.441	845.25
358.668	850.25
358.895	835.25
359.122	899.25
359.349	912.25
359.576	930.25
359.802	950.25
360.029	1047.25
360.256	1098.25
360.483	1071.25
360.709	929.25
360.936	965.25
361.163	919.25
361.39	924.25
361.616	945.25
361.843	919.25
362.07	926.25
362.296	929.25
362.523	906.25
362.749	901.25
362.976	913.25
363.203	948.25
363.429	846.25
363.656	876.25
363.882	877.25
364.109	887.25
364.335	865.25
364.562	882.25
364.788	862.25
365.015	871.25
365.241	862.25
365.468	877.25
365.694	890.25
365.92	907.25
366.147	886.25
366.373	851.25
366.599	855.25
366.826	877.25
367.052	844.25
367.278	856.25
367.505	885.25
367.731	899.25
367.957	891.25
368.184	883.25
368.41	901.25
368.636	918.25
368.862	922.25
369.089	927.25
369.315	886.25
369.541	877.25
369.767	894.25
369.993	880.25
370.219	899.25
370.445	877.25
370.672	896.25
370.898	881.25
371.124	903.25
371.35	869.25
371.576	894.25
371.802	910.25
372.028	886.25
372.254	919.25
372.48	905.25
372.706	930.25
372.932	911.25
373.158	932.25
373.384	932.25
373.61	937.25
373.835	902.25
374.061	938.25
374.287	935.25
374.513	941.25
374.739	941.25
374.965	968.25
375.191	973.25
375.416	965.25
375.642	960.25
375.868	974.25
376.094	938.25
376.319	911.25
376.545	889.25
376.771	923.25
376.997	918.25
377.222	913.25
377.448	907.25
377.674	899.25
377.899	906.25
378.125	903.25
378.35	893.25
378.576	900.25
378.802	903.25
379.027	885.25
379.253	907.25
379.478	904.25
379.704	906.25
379.929	921.25
380.155	943.25
380.38	946.25
380.606	933.25
380.831	933.25
381.057	996.25
381.282	922.25
381.507	952.25
381.733	948.25
381.958	941.25
382.184	951.25
382.409	957.25
382.634	973.25
382.86	952.25
383.085	1015.25
383.31	984.25
383.535	1048.25
383.761	1003.25
383.986	1002.25
384.211	1030.25
384.436	1028.25
384.662	1025.25
384.887	1038.25
385.112	1055.25
385.337	1072.25
385.562	1107.25
385.787	1093.25
386.013	1169.25
386.238	1137.25
386.463	1124.25
386.688	1119.25
386.913	1062.25
387.138	1091.25
387.363	1118.25
387.588	1110.25
387.813	1089.25
388.038	1103.25
388.263	1068.25
388.488	1053.25
388.713	1098.25
388.938	1103.25
389.163	1096.25
389.387	1117.25
389.612	1082.25
389.837	1067.25
390.062	1089.25
390.287	1085.25
390.512	1074.25
390.736	1078.25
390.961	1083.25
391.186	1103.25
391.411	1138.25
391.636	1182.25
391.86	1173.25
392.085	1225.25
392.31	1204.25
392.534	1185.25
392.759	1179.25
392.984	1122.25
393.208	1149.25
393.433	1111.25
393.658	1122.25
393.882	1147.25
394.107	1123.25
394.331	1135.25
394.556	1152.25
394.78	1161.25
395.005	1157.25
395.229	1139.25
395.454	1260.25
395.678	1241.25
395.903	1260.25
396.127	1315.25
396.352	1245.25
396.576	1195.25
396.801	1190.25
397.025	1188.25
397.249	1175.25
397.474	1250.25
397.698	1223.25
397.922	1267.25
398.147	1276.25
398.371	1297.25
398.595	1319.25
398.82	1304.25
399.044	1364.25
399.268	1440.25
399.492	1661.25
399.717	1882.25
399.941	1906.25
400.165	1861.25
400.389	1742.25
400.613	1571.25
400.837	1457.25
401.062	1407.25
401.286	1417.25
401.51	1357.25
401.734	1376.25
401.958	1395.25
402.182	1397.25
402.406	1419.25
402.63	1443.25
402.854	1457.25
403.078	1498.25
403.302	1508.25
403.526	1556.25
403.75	1535.25
403.974	1548.25
404.198	1528.25
404.422	1582.25
404.645	1566.25
404.869	1538.25
405.093	1542.25
405.317	1610.25
405.541	1638.25
405.765	1565.25
405.988	1515.25
406.212	1593.25
406.436	1602.25
406.66	1662.25
406.883	1647.25
407.107	1688.25
407.331	1806.25
407.555	2015.25
407.778	2033.25
408.002	1795.25
408.226	1689.25
408.449	1635.25
408.673	1600.25
408.896	1692.25
409.12	1763.25
409.344	1660.25
409.567	1523.25
409.791	1522.25
410.014	1546.25
410.238	1517.25
410.461	1500.25
410.685	1484.25
410.908	1539.25
411.132	1653.25
411.355	1708.25
411.578	1639.25
411.802	1523.25
412.025	1429.25
412.249	1447.25
412.472	1425.25
412.695	1450.25
412.919	1389.25
413.142	1419.25
413.365	1411.25
413.589	1412.25
413.812	1373.25
414.035	1405.25
414.258	1402.25
414.482	1402.25
414.705	1416.25
414.928	1428.25
415.151	1406.25
415.374	1382.25
415.597	1399.25
415.821	1407.25
416.044	1419.25
416.267	1430.25
416.49	1400.25
416.713	1400.25
416.936	1387.25
417.159	1394.25
417.382	1475.25
417.605	1441.25
417.828	1507.25
418.051	1509.25
418.274	1517.25
418.497	1433.25
418.72	1481.25
418.943	1484.25
419.166	1538.25
419.389	1619.25
419.611	1601.25
419.834	1533.25
420.057	1567.25
420.28	1516.25
420.503	1502.25
420.726	1497.25
420.948	1504.25
421.171	1647.25
421.394	1710.25
421.617	1571.25
421.839	1526.25
422.062	1564.25
422.285	1523.25
422.507	1718.25
422.73	1889.25
422.953	1779.25
423.175	1619.25
423.398	1599.25
423.621	1621.25
423.843	1692.25
424.066	1703.25
424.288	1689.25
424.511	1739.25
424.733	1878.25
424.956	2129.25
425.178	1953.25
425.401	1953.25
425.623	2006.25
425.846	1690.25
426.068	1599.25
426.291	1547.25
426.513	1589.25
426.735	1596.25
426.958	1705.25
427.18	1909.25
427.402	2272.25
427.625	2476.25
427.847	2042.25
428.069	1717.25
428.292	1564.25
428.514	1487.25
428.736	1458.25
428.958	1452.25
429.181	1421.25
429.403	1405.25
429.625	1451.25
429.847	1531.25
430.069	1716.25
430.292	1746.25
430.514	1487.25
430.736	1413.25
430.958	1432.25
431.18	1401.25
431.402	1348.25
431.624	1333.25
431.846	1283.25
432.068	1210.25
432.29	1247.25
432.512	1327.25
432.734	1391.25
432.956	1443.25
433.178	1441.25
433.4	1465.25
433.622	1421.25
433.844	1401.25
434.066	1318.25
434.287	1249.25
434.509	1266.25
434.731	1341.25
434.953	1418.25
435.175	1491.25
435.397	1634.25
435.618	1572.25
435.84	1665.25
436.062	1945.25
436.284	2172.25
436.505	1734.25
436.727	1594.25
436.949	1487.25
437.17	1478.25
437.392	1409.25
437.614	1406.25
437.835	1491.25
438.057	1713.25
438.278	2005.25
438.5	1998.25
438.721	2344.25
438.943	2236.25
439.165	1745.25
439.386	1677.25
439.608	1662.25
439.829	1653.25
440.05	1767.25
440.272	1985.25
440.493	1829.25
440.715	1653.25
440.936	1581.25
441.158	1603.25
441.379	1598.25
441.6	1639.25
441.822	1743.25
442.043	1866.25
442.264	2109.25
442.486	2164.25
442.707	1786.25
442.928	1701.25
443.149	1753.25
443.371	1919.25
443.592	1959.25
443.813	2221.25
444.034	2390.25
444.255	1985.25
444.476	1827.25
444.698	1841.25
444.919	1780.25
445.14	3370.25
445.361	2473.25
445.582	1946.25
445.803	2172.25
446.024	2445.25
446.245	2474.25
446.466	2189.25
446.687	1807.25
446.908	1738.25
447.129	1630.25
447.35	1572.25
447.571	1591.25
447.792	1486.25
448.013	1549.25
448.234	1621.25
448.455	1669.25
448.675	2033.25
448.896	2311.25
449.117	1869.25
449.338	1755.25
449.559	2139.25
449.779	2446.25
450	1865.25
450.221	1586.25
450.442	1483.25
450.662	1425.25
450.883	1471.25
451.104	1530.25
451.324	1417.25
451.545	1441.25
451.766	1350.25
451.986	1322.25
452.207	1290.25
452.428	1297.25
452.648	1287.25
452.869	1295.25
453.089	1302.25
453.31	1274.25
453.53	1223.25
453.751	1164.25
453.971	1168.25
454.192	1212.25
454.412	1217.25
454.633	1216.25
454.853	1236.25
455.073	1227.25
455.294	1312.25
455.514	1549.25
455.734	1455.25
455.955	1259.25
456.175	1188.25
456.395	1109.25
456.616	1085.25
456.836	1113.25
457.056	1094.25
457.276	1078.25
457.497	1095.25
457.717	1117.25
457.937	1114.25
458.157	1139.25
458.377	1125.25
458.598	1204.25
458.818	1332.25
459.038	1534.25
459.258	1635.25
459.478	1330.25
459.698	1237.25
459.918	1238.25
460.138	1285.25
460.358	1346.25
460.578	1371.25
460.798	1386.25
461.018	1396.25
461.238	1367.25
461.458	1384.25
461.678	1377.25
461.898	1370.25
462.118	1387.25
462.338	1455.25
462.558	1479.25
462.777	1503.25
462.997	1592.25
463.217	1667.25
463.437	1695.25
463.657	1534.25
463.876	1476.25
464.096	1516.25
464.316	1481.25
464.536	1545.25
464.755	1566.25
464.975	1521.25
465.195	1615.25
465.414	1803.25
465.634	1545.25
465.854	1382.25
466.073	1335.25
466.293	1325.25
466.512	1324.25
466.732	1329.25
466.951	1318.25
467.171	1315.25
467.391	1376.25
467.61	1401.25
467.829	1390.25
468.049	1397.25
468.268	1316.25
468.488	1287.25
468.707	1308.25
468.927	1329.25
469.146	1326.25
469.365	1357.25
469.585	1355.25
469.804	1411.25
470.023	1445.25
470.243	1449.25
470.462	1474.25
470.681	1511.25
470.901	1477.25
471.12	1411.25
471.339	1467.25
471.558	1438.25
471.777	1405.25
471.997	1336.25
472.216	1264.25
472.435	1193.25
472.654	1142.25
472.873	1174.25
473.092	1181.25
473.311	1206.25
473.53	1266.25
473.749	1311.25
473.968	1409.25
474.187	1674.25
474.406	1727.25
474.625	1400.25
474.844	1323.25
475.063	1277.25
475.282	1260.25
475.501	1239.25
475.72	1265.25
475.939	1303.25
476.158	1331.25
476.377	1350.25
476.596	1283.25
476.814	1262.25
477.033	1218.25
477.252	1305.25
477.471	1373.25
477.69	1403.25
477.908	1477.25
478.127	1499.25
478.346	1495.25
478.564	1466.25
478.783	1553.25
479.002	1591.25
479.22	1579.25
479.439	1614.25
479.658	1538.25
479.876	1467.25
480.095	1508.25
480.313	1653.25
480.532	1617.25
480.751	1559.25
480.969	1459.25
481.188	1409.25
481.406	1378.25
481.624	1325.25
481.843	1293.25
482.061	1319.25
482.28	1329.25
482.498	1341.25
482.717	1327.25
482.935	1404.25
483.153	1480.25
483.372	1593.25
483.59	1554.25
483.808	1477.25
484.027	1439.25
484.245	1465.25
484.463	1517.25
484.681	1571.25
484.9	1549.25
485.118	1554.25
485.336	1476.25
485.554	1430.25
485.772	1409.25
485.99	1415.25
486.209	1444.25
486.427	1439.25
486.645	1542.25
486.863	1701.25
487.081	1693.25
487.299	1589.25
487.517	1626.25
487.735	1777.25
487.953	1925.25
488.171	1900.25
488.389	1784.25
488.607	1704.25
488.825	1592.25
489.043	1564.25
489.261	1601.25
489.479	1641.25
489.696	1678.25
489.914	1659.25
490.132	1690.25
490.35	1828.25
490.568	1884.25
490.786	1964.25
491.003	2023.25
491.221	2138.25
491.439	2200.25
491.657	2259.25
491.874	2339.25
492.092	2453.25
492.31	2492.25
492.527	2415.25
492.745	2337.25
492.963	2278.25
493.18	2255.25
493.398	2218.25
493.615	2236.25
493.833	2223.25
494.05	2213.25
494.268	2187.25
494.485	2153.25
494.703	2163.25
494.92	2189.25
495.138	2130.25
495.355	2163.25
495.573	2187.25
495.79	2143.25
496.008	2150.25
496.225	2106.25
496.442	2121.25
496.66	2086.25
496.877	2044.25
497.094	2095.25
497.312	2096.25
497.529	2141.25
497.746	2050.25
497.963	2006.25
498.181	2049.25
498.398	2002.25
498.615	2090.25
498.832	2139.25
499.049	2183.25
499.267	2325.25
499.484	2494.25
499.701	2707.25
499.918	2883.25
500.135	3166.25
500.352	3409.25
500.569	3564.25
500.786	3511.25
501.003	3404.25
501.22	3135.25
501.437	2953.25
501.654	2786.25
501.871	2669.25
502.088	2465.25
502.305	2356.25
502.522	2211.25
502.739	2105.25
502.956	2029.25
503.172	1940.25
503.389	1896.25
503.606	1878.25
503.823	1877.25
504.04	1819.25
504.256	1853.25
504.473	1851.25
504.69	1843.25
504.907	1888.25
505.123	1750.25
505.34	1748.25
505.557	1747.25
505.773	1731.25
505.99	1682.25
506.207	1684.25
506.423	1665.25
506.64	1649.25
506.856	1642.25
507.073	1622.25
507.289	1603.25
507.506	1555.25
507.722	1582.25
507.939	1638.25
508.155	1597.25
508.372	1496.25
508.588	1471.25
508.805	1505.25
509.021	1462.25
509.238	1531.25
509.454	1514.25
509.67	1449.25
509.887	1398.25
510.103	1362.25
510.319	1377.25
510.536	1589.25
510.752	2565.25
510.968	1894.25
511.184	1308.25
511.401	1310.25
511.617	1280.25
511.833	1267.25
512.049	1291.25
512.265	1284.25
512.481	1301.25
512.698	1274.25
512.914	1267.25
513.13	1273.25
513.346	1248.25
513.562	1263.25
513.778	1269.25
513.994	1307.25
514.21	1345.25
514.426	1400.25
514.642	1492.25
514.858	1567.25
515.074	1613.25
515.29	2017.25
515.506	3032.25
515.721	2278.25
515.937	1622.25
516.153	1471.25
516.369	1421.25
516.585	1377.25
516.801	1421.25
517.016	1414.25
517.232	1489.25
517.448	1533.25
517.664	1592.25
517.879	1581.25
518.095	1569.25
518.311	1517.25
518.527	1499.25
518.742	1490.25
518.958	1479.25
519.173	1494.25
519.389	1418.25
519.605	1421.25
519.82	1433.25
520.036	1462.25
520.251	1500.25
520.467	1549.25
520.682	1469.25
520.898	1428.25
521.113	1460.25
521.329	1552.25
521.544	1771.25
521.76	2395.25
521.975	4182.25
522.19	3695.25
522.406	1968.25
522.621	1502.25
522.836	1388.25
523.052	1352.25
523.267	1305.25
523.482	1259.25
523.698	1282.25
523.913	1334.25
524.128	1330.25
524.343	1298.25
524.559	1306.25
524.774	1254.25
524.989	1317.25
525.204	1305.25
525.419	1274.25
525.634	1203.25
525.849	1203.25
526.064	1148.25
526.28	1158.25
526.495	1075.25
526.71	1083.25
526.925	1023.25
527.14	1018.25
527.355	1051.25
527.57	1050.25
527.785	1058.25
527.999	1086.25
528.214	1135.25
528.429	1147.25
528.644	1255.25
528.859	1279.25
529.074	1391.25
529.289	1521.25
529.503	1685.25
529.718	1539.25
529.933	1304.25
530.148	1125.25
530.363	1106.25
530.577	1041.25
530.792	1010.25
531.007	1014.25
531.221	1043.25
531.436	990.25
531.651	1030.25
531.865	1012.25
532.08	1034.25
532.295	1010.25
532.509	989.25
532.724	1029.25
532.938	1034.25
533.153	1057.25
533.367	1117.25
533.582	1210.25
533.796	1203.25
534.011	1104.25
534.225	1053.25
534.44	1036.25
534.654	1037.25
534.868	1042.25
535.083	1086.25
535.297	1103.25
535.511	1129.25
535.726	1143.25
535.94	1110.25
536.154	1066.25
536.369	1012.25
536.583	987.25
536.797	985.25
537.011	980.25
537.225	963.25
537.44	957.25
537.654	996.25
537.868	991.25
538.082	1021.25
538.296	1060.25
538.51	1061.25
538.724	1173.25
538.938	1207.25
539.153	1256.25
539.367	1254.25
539.581	1151.25
539.795	1077.25
540.009	1052.25
540.222	1071.25
540.436	1119.25
540.65	1227.25
540.864	1336.25
541.078	1420.25
541.292	1487.25
541.506	1581.25
541.72	1725.25
541.934	1813.25
542.147	1903.25
542.361	1846.25
542.575	1731.25
542.789	1590.25
543.002	1492.25
543.216	1466.25
543.43	1464.25
543.644	1513.25
543.857	1619.25
544.071	1704.25
544.285	1769.25
544.498	1744.25
544.712	1763.25
544.925	1754.25
545.139	1795.25
545.352	1742.25
545.566	1738.25
545.779	1733.25
545.993	1778.25
546.206	2006.25
546.42	2082.25
546.633	1803.25
546.847	1739.25
547.06	1663.25
547.274	1740.25
547.487	1754.25
547.7	1747.25
547.914	1717.25
548.127	1672.25
548.34	1667.25
548.554	1630.25
548.767	1656.25
548.98	1645.25
549.193	1630.25
549.407	1623.25
549.62	1628.25
549.833	1642.25
550.046	1621.25
550.259	1621.25
550.473	1555.25
550.686	1569.25
550.899	1521.25
551.112	1502.25
551.325	1442.25
551.538	1369.25
551.751	1265.25
551.964	1234.25
552.177	1351.25
552.39	1454.25
552.603	1560.25
552.816	1585.25
553.029	1655.25
553.242	1679.25
553.455	1749.25
553.667	1739.25
553.88	1697.25
554.093	1654.25
554.306	1640.25
554.519	1571.25
554.732	1551.25
554.944	1488.25
555.157	1485.25
555.37	1491.25
555.583	1428.25
555.795	1378.25
556.008	1322.25
556.221	1284.25
556.433	1286.25
556.646	1310.25
556.859	1290.25
557.071	1333.25
557.284	1313.25
557.496	1316.25
557.709	1316.25
557.921	1364.25
558.134	1336.25
558.346	1322.25
558.559	1293.25
558.771	1239.25
558.984	1241.25
559.196	1242.25
559.409	1237.25
559.621	1186.25
559.833	1147.25
560.046	1179.25
560.258	1204.25
560.47	1241.25
560.683	1184.25
560.895	1214.25
561.107	1205.25
561.32	1224.25
561.532	1213.25
561.744	1214.25
561.956	1205.25
562.168	1227.25
562.381	1234.25
562.593	1211.25
562.805	1181.25
563.017	1217.25
563.229	1177.25
563.441	1167.25
563.653	1169.25
563.865	1165.25
564.077	1155.25
564.289	1166.25
564.501	1167.25
564.713	1190.25
564.925	1189.25
565.137	1204.25
565.349	1214.25
565.561	1210.25
565.773	1246.25
565.985	1257.25
566.197	1333.25
566.408	1393.25
566.62	1452.25
566.832	1521.25
567.044	1544.25
567.255	1495.25
567.467	1493.25
567.679	1507.25
567.891	1545.25
568.102	1501.25
568.314	1428.25
568.526	1260.25
568.737	1196.25
568.949	1059.25
569.161	996.25
569.372	955.25
569.584	913.25
569.795	923.25
570.007	896.25
570.218	973.25
570.43	914.25
570.641	893.25
570.853	923.25
571.064	985.25
571.276	970.25
571.487	981.25
571.698	953.25
571.91	944.25
572.121	899.25
572.333	871.25
572.544	840.25
572.755	801.25
572.966	778.25
573.178	709.25
573.389	716.25
573.6	705.25
573.811	707.25
574.023	742.25
574.234	694.25
574.445	727.25
574.656	745.25
574.867	766.25
575.078	755.25
575.289	763.25
575.501	784.25
575.712	760.25
575.923	766.25
576.134	768.25
576.345	753.25
576.556	815.25
576.767	808.25
576.978	823.25
577.188	863.25
577.399	783.25
577.61	725.25
577.821	730.25
578.032	753.25
578.243	806.25
578.454	1144.25
578.665	843.25
578.875	683.25
579.086	668.25
579.297	722.25
579.508	647.25
579.718	670.25
579.929	649.25
580.14	651.25
580.35	644.25
580.561	715.25
580.772	704.25
580.982	673.25
581.193	691.25
581.403	681.25
581.614	686.25
581.825	678.25
582.035	698.25
582.246	691.25
582.456	689.25
582.667	706.25
582.877	692.25
583.087	709.25
583.298	685.25
583.508	689.25
583.719	677.25
583.929	710.25
584.139	679.25
584.35	659.25
584.56	690.25
584.77	681.25
584.981	681.25
585.191	686.25
585.401	683.25
585.611	648.25
585.821	680.25
586.032	646.25
586.242	610.25
586.452	630.25
586.662	621.25
586.872	628.25
587.082	627.25
587.292	634.25
587.502	692.25
587.713	671.25
587.923	665.25
588.133	641.25
588.343	630.25
588.553	608.25
588.762	686.25
588.972	616.25
589.182	597.25
589.392	643.25
589.602	628.25
589.812	601.25
590.022	663.25
590.232	622.25
590.441	629.25
590.651	636.25
590.861	621.25
591.071	636.25
591.281	634.25
591.49	625.25
591.7	633.25
591.91	683.25
592.119	656.25
592.329	693.25
592.539	721.25
592.748	749.25
592.958	753.25
593.167	741.25
593.377	767.25
593.587	839.25
593.796	773.25
594.006	771.25
594.215	759.25
594.424	791.25
594.634	774.25
594.843	782.25
595.053	750.25
595.262	753.25
595.472	725.25
595.681	668.25
595.89	650.25
596.1	645.25
596.309	673.25
596.518	717.25
596.727	720.25
596.937	691.25
597.146	668.25
597.355	674.25
597.564	636.25
597.774	641.25
597.983	571.25
598.192	563.25
598.401	553.25
598.61	572.25
598.819	593.25
599.028	615.25
599.237	631.25
599.446	615.25
599.655	621.25
599.864	611.25
600.073	602.25
600.282	672.25
600.491	629.25
600.7	611.25
600.909	641.25
601.118	693.25
601.327	756.25
601.536	790.25
601.745	797.25
601.953	817.25
602.162	825.25
602.371	825.25
602.58	818.25
602.789	797.25
602.997	855.25
603.206	835.25
603.415	817.25
603.623	793.25
603.832	799.25
604.041	777.25
604.249	704.25
604.458	657.25
604.666	645.25
604.875	644.25
605.084	713.25
605.292	753.25
605.501	805.25
605.709	855.25
605.918	893.25
606.126	907.25
606.334	897.25
606.543	885.25
606.751	916.25
606.96	844.25
607.168	890.25
607.376	837.25
607.585	884.25
607.793	894.25
608.001	889.25
608.21	895.25
608.418	926.25
608.626	890.25
608.834	915.25
609.043	929.25
609.251	911.25
609.459	908.25
609.667	990.25
609.875	977.25
610.083	998.25
610.291	947.25
610.499	989.25
610.707	1014.25
610.916	1060.25
611.124	1190.25
611.332	1331.25
611.54	1436.25
611.748	1353.25
611.955	1257.25
612.163	1146.25
612.371	1099.25
612.579	1041.25
612.787	1003.25
612.995	1031.25
613.203	997.25
613.411	993.25
613.618	983.25
613.826	967.25
614.034	989.25
614.242	1006.25
614.449	986.25
614.657	965.25
614.865	982.25
615.072	957.25
615.28	962.25
615.488	959.25
615.695	956.25
615.903	952.25
616.111	973.25
616.318	985.25
616.526	966.25
616.733	964.25
616.941	921.25
617.148	973.25
617.356	930.25
617.563	905.25
617.771	900.25
617.978	842.25
618.185	905.25
618.393	900.25
618.6	909.25
618.807	918.25
619.015	909.25
619.222	886.25
619.429	855.25
619.637	835.25
619.844	739.25
620.051	777.25
620.258	850.25
620.466	841.25
620.673	856.25
620.88	853.25
621.087	847.25
621.294	813.25
621.501	758.25
621.708	769.25
621.915	822.25
622.122	847.25
622.329	874.25
622.536	875.25
622.743	815.25
622.95	842.25
623.157	811.25
623.364	851.25
623.571	844.25
623.778	843.25
623.985	866.25
624.192	861.25
624.399	799.25
624.606	827.25
624.812	822.25
625.019	780.25
625.226	746.25
625.433	728.25
625.639	664.25
625.846	647.25
626.053	564.25
626.259	567.25
626.466	564.25
626.673	540.25
626.879	535.25
627.086	616.25
627.293	669.25
627.499	720.25
627.706	756.25
627.912	776.25
628.119	762.25
628.325	782.25
628.532	747.25
628.738	770.25
628.945	723.25
629.151	710.25
629.357	675.25
629.564	697.25
629.77	699.25
629.976	665.25
630.183	645.25
630.389	655.25
630.595	676.25
630.802	720.25
631.008	738.25
631.214	722.25
631.42	710.25
631.627	671.25
631.833	639.25
632.039	663.25
632.245	659.25
632.451	668.25
632.657	643.25
632.863	656.25
633.069	633.25
633.275	644.25
633.481	604.25
633.688	595.25
633.893	658.25
634.099	590.25
634.305	585.25
634.511	582.25
634.717	567.25
634.923	516.25
635.129	502.25
635.335	522.25
635.541	535.25
635.747	573.25
635.952	590.25
636.158	625.25
636.364	664.25
636.57	644.25
636.775	648.25
636.981	634.25
637.187	659.25
637.392	626.25
637.598	659.25
637.804	656.25
638.009	654.25
638.215	653.25
638.421	598.25
638.626	625.25
638.832	625.25
639.037	590.25
639.243	569.25
639.448	561.25
639.654	584.25
639.859	583.25
640.065	575.25
640.27	659.25
640.475	597.25
640.681	583.25
640.886	582.25
641.091	614.25
641.297	634.25
641.502	595.25
641.707	624.25
641.913	596.25
642.118	618.25
642.323	605.25
642.528	619.25
642.733	602.25
642.939	595.25
643.144	566.25
643.349	571.25
643.554	585.25
643.759	574.25
643.964	563.25
644.169	592.25
644.374	561.25
644.579	583.25
644.784	563.25
644.989	569.25
645.194	570.25
645.399	586.25
645.604	567.25
645.809	593.25
646.014	563.25
646.219	584.25
646.423	571.25
646.628	592.25
646.833	598.25
647.038	598.25
647.243	609.25
647.447	578.25
647.652	574.25
647.857	558.25
648.062	557.25
648.266	579.25
648.471	567.25
648.676	599.25
648.88	561.25
649.085	591.25
649.289	570.25
649.494	607.25
649.698	669.25
649.903	604.25
650.107	579.25
650.312	565.25
650.516	517.25
650.721	558.25
650.925	518.25
651.13	502.25
651.334	529.25
651.539	502.25
651.743	490.25
651.947	491.25
652.152	483.25
652.356	459.25
652.56	461.25
652.764	445.25
652.969	443.25
653.173	435.25
653.377	426.25
653.581	433.25
653.785	419.25
653.99	395.25
654.194	415.25
654.398	390.25
654.602	402.25
654.806	386.25
655.01	423.25
655.214	403.25
655.418	387.25
655.622	370.25
655.826	366.25
656.03	371.25
656.234	352.25
656.438	374.25
656.642	393.25
656.846	379.25
657.049	376.25
657.253	355.25
657.457	335.25
657.661	307.25
657.865	298.25
658.068	285.25
658.272	271.25
658.476	255.25
658.68	251.25
658.883	226.25
659.087	229.25
659.291	234.25
659.494	233.25
659.698	227.25
659.901	225.25
660.105	202.25
660.309	181.25
660.512	187.25
660.716	189.25
660.919	179.25
661.123	192.25
661.326	182.25
661.53	169.25
661.733	177.25
661.936	161.25
662.14	143.25
662.343	147.25
662.546	131.25
662.75	138.25
662.953	167.25
663.156	119.25
663.36	140.25
663.563	139.25
663.766	113.25
663.969	128.25
664.173	120.25
664.376	107.25
664.579	113.25
664.782	117.25
664.985	116.25
665.188	110.25
665.391	115.25
665.594	99.25
665.797	101.25
666	96.25
666.203	103.25
666.406	93.25
666.609	97.25
666.812	128.25
667.015	114.25
667.218	119.25
667.421	121.25
667.624	97.25
667.827	129.25
668.03	109.25
668.232	117.25
668.435	122.25
668.638	95.25
668.841	127.25
669.043	103.25
669.246	133.25
669.449	116.25
669.651	134.25
669.854	120.25
670.057	106.25
670.259	104.25
670.462	125.25
670.665	101.25
670.867	126.25
671.07	117.25
671.272	141.25
671.475	147.25
671.677	118.25
671.88	118.25
672.082	121.25
672.284	131.25
672.487	132.25
672.689	109.25
672.892	115.25
