Data from FlinnAP5935BZINC.07152019.LAMPEdge.EN7.5scans.P1_HRD10591_15-01-04-579.txt Node
Date: Mon Jul 15 15:01:04 EDT 2019
User: cochatt
Spectrometer: HR+D1059
Trigger mode: 1
Integration Time (sec): 1.000000E-1
Scans to average: 1
Electric dark correction enabled: true
Nonlinearity correction enabled: false
Boxcar width: 0
XAxis mode: Wavelengths
Number of Pixels in Spectrum: 2048
>>>>>Begin Spectral Data<<<<<
223.165	-19.94
223.4	-19.94
223.635	-19.94
223.869	-13.94
224.104	-29.94
224.338	-23.94
224.573	-7.94
224.808	-15.94
225.042	-8.94
225.277	-1.94
225.511	7.06
225.746	3.06
225.98	0.06
226.215	20.06
226.449	22.06
226.683	21.06
226.918	22.06
227.152	27.06
227.387	35.06
227.621	32.06
227.856	53.06
228.09	32.06
228.324	42.06
228.559	44.06
228.793	68.06
229.027	111.06
229.262	126.06
229.496	126.06
229.73	135.06
229.964	145.06
230.199	145.06
230.433	148.06
230.667	148.06
230.901	146.06
231.136	148.06
231.37	157.06
231.604	159.06
231.838	156.06
232.072	158.06
232.306	169.06
232.541	150.06
232.775	172.06
233.009	167.06
233.243	168.06
233.477	166.06
233.711	157.06
233.945	161.06
234.179	161.06
234.413	166.06
234.647	180.06
234.881	181.06
235.115	161.06
235.349	168.06
235.583	180.06
235.817	168.06
236.051	189.06
236.285	166.06
236.519	187.06
236.753	182.06
236.987	194.06
237.221	192.06
237.455	192.06
237.689	199.06
237.922	179.06
238.156	190.06
238.39	200.06
238.624	192.06
238.858	199.06
239.091	188.06
239.325	194.06
239.559	203.06
239.793	214.06
240.027	204.06
240.26	212.06
240.494	213.06
240.728	205.06
240.961	220.06
241.195	213.06
241.429	208.06
241.662	215.06
241.896	232.06
242.13	230.06
242.363	232.06
242.597	237.06
242.83	250.06
243.064	245.06
243.298	241.06
243.531	245.06
243.765	248.06
243.998	249.06
244.232	260.06
244.465	270.06
244.699	270.06
244.932	268.06
245.166	281.06
245.399	262.06
245.633	288.06
245.866	269.06
246.099	273.06
246.333	267.06
246.566	261.06
246.8	274.06
247.033	295.06
247.266	290.06
247.5	296.06
247.733	312.06
247.966	306.06
248.2	314.06
248.433	314.06
248.666	342.06
248.899	326.06
249.133	314.06
249.366	338.06
249.599	356.06
249.832	380.06
250.066	411.06
250.299	486.06
250.532	661.06
250.765	740.06
250.998	635.06
251.231	545.06
251.465	468.06
251.698	442.06
251.931	434.06
252.164	410.06
252.397	408.06
252.63	402.06
252.863	394.06
253.096	391.06
253.329	397.06
253.562	404.06
253.795	408.06
254.028	432.06
254.261	421.06
254.494	428.06
254.727	434.06
254.96	453.06
255.193	467.06
255.426	544.06
255.659	612.06
255.892	806.06
256.124	1115.06
256.357	1274.06
256.59	1017.06
256.823	796.06
257.056	654.06
257.289	628.06
257.521	540.06
257.754	546.06
257.987	519.06
258.22	507.06
258.452	482.06
258.685	496.06
258.918	497.06
259.151	474.06
259.383	492.06
259.616	462.06
259.849	480.06
260.081	476.06
260.314	475.06
260.547	462.06
260.779	469.06
261.012	486.06
261.244	491.06
261.477	464.06
261.71	488.06
261.942	462.06
262.175	445.06
262.407	466.06
262.64	464.06
262.872	462.06
263.105	470.06
263.337	467.06
263.57	468.06
263.802	468.06
264.035	469.06
264.267	461.06
264.499	475.06
264.732	463.06
264.964	492.06
265.197	503.06
265.429	474.06
265.661	484.06
265.894	488.06
266.126	506.06
266.358	496.06
266.591	505.06
266.823	488.06
267.055	482.06
267.287	509.06
267.52	492.06
267.752	502.06
267.984	487.06
268.216	513.06
268.448	520.06
268.681	511.06
268.913	522.06
269.145	521.06
269.377	517.06
269.609	541.06
269.841	505.06
270.073	506.06
270.306	535.06
270.538	512.06
270.77	524.06
271.002	560.06
271.234	576.06
271.466	553.06
271.698	556.06
271.93	566.06
272.162	560.06
272.394	556.06
272.626	586.06
272.858	572.06
273.09	572.06
273.322	597.06
273.553	598.06
273.785	594.06
274.017	611.06
274.249	604.06
274.481	608.06
274.713	611.06
274.945	620.06
275.176	653.06
275.408	654.06
275.64	678.06
275.872	686.06
276.104	720.06
276.335	674.06
276.567	690.06
276.799	727.06
277.031	807.06
277.262	849.06
277.494	827.06
277.726	774.06
277.957	768.06
278.189	747.06
278.421	738.06
278.652	726.06
278.884	712.06
279.115	716.06
279.347	765.06
279.579	777.06
279.81	814.06
280.042	852.06
280.273	956.06
280.505	1001.06
280.736	876.06
280.968	826.06
281.199	801.06
281.431	753.06
281.662	749.06
281.894	737.06
282.125	736.06
282.356	746.06
282.588	747.06
282.819	714.06
283.051	728.06
283.282	723.06
283.513	699.06
283.745	678.06
283.976	702.06
284.207	702.06
284.439	717.06
284.67	735.06
284.901	702.06
285.132	719.06
285.364	712.06
285.595	734.06
285.826	714.06
286.057	700.06
286.288	744.06
286.52	735.06
286.751	733.06
286.982	720.06
287.213	730.06
287.444	756.06
287.675	711.06
287.906	750.06
288.138	739.06
288.369	738.06
288.6	754.06
288.831	766.06
289.062	751.06
289.293	788.06
289.524	755.06
289.755	732.06
289.986	760.06
290.217	720.06
290.448	764.06
290.679	756.06
290.91	746.06
291.141	728.06
291.371	762.06
291.602	774.06
291.833	735.06
292.064	742.06
292.295	750.06
292.526	731.06
292.757	752.06
292.987	738.06
293.218	715.06
293.449	730.06
293.68	740.06
293.91	727.06
294.141	743.06
294.372	720.06
294.603	753.06
294.833	747.06
295.064	732.06
295.295	757.06
295.525	729.06
295.756	752.06
295.987	734.06
296.217	750.06
296.448	749.06
296.679	759.06
296.909	738.06
297.14	742.06
297.37	771.06
297.601	774.06
297.831	784.06
298.062	761.06
298.292	776.06
298.523	806.06
298.753	802.06
298.984	803.06
299.214	788.06
299.445	796.06
299.675	759.06
299.905	811.06
300.136	797.06
300.366	824.06
300.597	802.06
300.827	800.06
301.057	859.06
301.288	840.06
301.518	832.06
301.748	836.06
301.979	842.06
302.209	878.06
302.439	866.06
302.669	887.06
302.9	851.06
303.13	854.06
303.36	885.06
303.59	880.06
303.82	931.06
304.051	948.06
304.281	886.06
304.511	842.06
304.741	887.06
304.971	858.06
305.201	861.06
305.431	849.06
305.661	845.06
305.891	847.06
306.121	856.06
306.352	854.06
306.582	845.06
306.812	868.06
307.042	893.06
307.272	946.06
307.502	991.06
307.731	1017.06
307.961	986.06
308.191	910.06
308.421	873.06
308.651	872.06
308.881	844.06
309.111	856.06
309.341	840.06
309.571	880.06
309.8	871.06
310.03	850.06
310.26	864.06
310.49	845.06
310.72	887.06
310.949	858.06
311.179	858.06
311.409	858.06
311.639	862.06
311.868	878.06
312.098	890.06
312.328	896.06
312.557	882.06
312.787	870.06
313.017	899.06
313.246	904.06
313.476	895.06
313.706	895.06
313.935	933.06
314.165	922.06
314.394	937.06
314.624	912.06
314.853	910.06
315.083	913.06
315.312	920.06
315.542	894.06
315.771	920.06
316.001	905.06
316.23	882.06
316.46	933.06
316.689	922.06
316.919	923.06
317.148	910.06
317.377	911.06
317.607	915.06
317.836	929.06
318.065	912.06
318.295	939.06
318.524	919.06
318.753	934.06
318.983	927.06
319.212	916.06
319.441	916.06
319.67	932.06
319.9	936.06
320.129	927.06
320.358	954.06
320.587	961.06
320.816	940.06
321.046	953.06
321.275	966.06
321.504	955.06
321.733	963.06
321.962	969.06
322.191	982.06
322.42	995.06
322.649	991.06
322.878	1014.06
323.108	1020.06
323.337	1072.06
323.566	1052.06
323.795	1060.06
324.024	1086.06
324.253	1127.06
324.482	1137.06
324.71	1098.06
324.939	1115.06
325.168	1156.06
325.397	1139.06
325.626	1169.06
325.855	1191.06
326.084	1214.06
326.313	1238.06
326.542	1293.06
326.77	1320.06
326.999	1324.06
327.228	1386.06
327.457	1497.06
327.686	1668.06
327.914	1989.06
328.143	2532.06
328.372	3043.06
328.6	2759.06
328.829	2057.06
329.058	1851.06
329.287	1866.06
329.515	2051.06
329.744	2457.06
329.972	3284.06
330.201	4511.06
330.43	5505.06
330.658	4474.06
330.887	2726.06
331.115	2110.06
331.344	1861.06
331.572	1756.06
331.801	1721.06
332.03	1679.06
332.258	1686.06
332.486	1729.06
332.715	1767.06
332.943	1850.06
333.172	1958.06
333.4	2154.06
333.629	2434.06
333.857	2880.06
334.085	3725.06
334.314	5100.06
334.542	6864.06
334.771	7309.06
334.999	4728.06
335.227	3002.06
335.455	2388.06
335.684	2020.06
335.912	1865.06
336.14	1724.06
336.369	1603.06
336.597	1540.06
336.825	1486.06
337.053	1427.06
337.281	1365.06
337.51	1383.06
337.738	1336.06
337.966	1275.06
338.194	1256.06
338.422	1230.06
338.65	1179.06
338.878	1178.06
339.106	1165.06
339.334	1174.06
339.562	1151.06
339.79	1149.06
340.018	1131.06
340.246	1076.06
340.474	1098.06
340.702	1075.06
340.93	1103.06
341.158	1104.06
341.386	1064.06
341.614	1076.06
341.842	1068.06
342.07	1066.06
342.298	1050.06
342.526	1041.06
342.754	1059.06
342.981	1058.06
343.209	1054.06
343.437	1081.06
343.665	1152.06
343.893	1180.06
344.12	1227.06
344.348	1150.06
344.576	1149.06
344.804	1104.06
345.031	1103.06
345.259	1071.06
345.487	1020.06
345.714	1013.06
345.942	999.06
346.17	995.06
346.397	984.06
346.625	998.06
346.853	973.06
347.08	970.06
347.308	976.06
347.535	973.06
347.763	983.06
347.99	993.06
348.218	976.06
348.445	966.06
348.673	982.06
348.9	1020.06
349.128	958.06
349.355	985.06
349.583	983.06
349.81	973.06
350.037	949.06
350.265	940.06
350.492	952.06
350.72	984.06
350.947	937.06
351.174	954.06
351.402	948.06
351.629	942.06
351.856	957.06
352.083	962.06
352.311	945.06
352.538	939.06
352.765	958.06
352.992	934.06
353.22	937.06
353.447	930.06
353.674	949.06
353.901	936.06
354.128	940.06
354.355	939.06
354.583	935.06
354.81	926.06
355.037	965.06
355.264	931.06
355.491	964.06
355.718	920.06
355.945	923.06
356.172	942.06
356.399	941.06
356.626	916.06
356.853	942.06
357.08	941.06
357.307	959.06
357.534	957.06
357.761	931.06
357.988	922.06
358.215	954.06
358.441	912.06
358.668	921.06
358.895	929.06
359.122	921.06
359.349	929.06
359.576	942.06
359.802	926.06
360.029	963.06
360.256	950.06
360.483	921.06
360.709	916.06
360.936	948.06
361.163	944.06
361.39	911.06
361.616	942.06
361.843	905.06
362.07	884.06
362.296	915.06
362.523	956.06
362.749	902.06
362.976	911.06
363.203	941.06
363.429	940.06
363.656	920.06
363.882	916.06
364.109	908.06
364.335	920.06
364.562	907.06
364.788	914.06
365.015	914.06
365.241	923.06
365.468	936.06
365.694	920.06
365.92	923.06
366.147	912.06
366.373	908.06
366.599	916.06
366.826	918.06
367.052	907.06
367.278	930.06
367.505	914.06
367.731	920.06
367.957	914.06
368.184	901.06
368.41	930.06
368.636	930.06
368.862	935.06
369.089	933.06
369.315	927.06
369.541	951.06
369.767	945.06
369.993	923.06
370.219	932.06
370.445	932.06
370.672	951.06
370.898	940.06
371.124	969.06
371.35	977.06
371.576	953.06
371.802	984.06
372.028	978.06
372.254	973.06
372.48	982.06
372.706	956.06
372.932	974.06
373.158	988.06
373.384	979.06
373.61	956.06
373.835	939.06
374.061	923.06
374.287	965.06
374.513	999.06
374.739	1010.06
374.965	1047.06
375.191	1057.06
375.416	1052.06
375.642	1001.06
375.868	1000.06
376.094	974.06
376.319	992.06
376.545	962.06
376.771	961.06
376.997	950.06
377.222	924.06
377.448	957.06
377.674	960.06
377.899	959.06
378.125	966.06
378.35	942.06
378.576	940.06
378.802	938.06
379.027	927.06
379.253	954.06
379.478	944.06
379.704	920.06
379.929	945.06
380.155	948.06
380.38	942.06
380.606	942.06
380.831	940.06
381.057	949.06
381.282	950.06
381.507	951.06
381.733	978.06
381.958	964.06
382.184	954.06
382.409	975.06
382.634	1023.06
382.86	1000.06
383.085	1023.06
383.31	1035.06
383.535	1028.06
383.761	1048.06
383.986	1078.06
384.211	1069.06
384.436	1088.06
384.662	1089.06
384.887	1125.06
385.112	1113.06
385.337	1126.06
385.562	1119.06
385.787	1126.06
386.013	1122.06
386.238	1122.06
386.463	1118.06
386.688	1105.06
386.913	1098.06
387.138	1103.06
387.363	1118.06
387.588	1096.06
387.813	1086.06
388.038	1102.06
388.263	1101.06
388.488	1107.06
388.713	1088.06
388.938	1109.06
389.163	1081.06
389.387	1110.06
389.612	1069.06
389.837	1074.06
390.062	1062.06
390.287	1116.06
390.512	1070.06
390.736	1125.06
390.961	1102.06
391.186	1103.06
391.411	1153.06
391.636	1198.06
391.86	1199.06
392.085	1207.06
392.31	1199.06
392.534	1150.06
392.759	1164.06
392.984	1161.06
393.208	1143.06
393.433	1149.06
393.658	1138.06
393.882	1114.06
394.107	1145.06
394.331	1182.06
394.556	1166.06
394.78	1170.06
395.005	1179.06
395.229	1178.06
395.454	1219.06
395.678	1253.06
395.903	1228.06
396.127	1202.06
396.352	1204.06
396.576	1200.06
396.801	1204.06
397.025	1162.06
397.249	1162.06
397.474	1233.06
397.698	1223.06
397.922	1258.06
398.147	1228.06
398.371	1257.06
398.595	1296.06
398.82	1361.06
399.044	1442.06
399.268	1544.06
399.492	1742.06
399.717	1908.06
399.941	1926.06
400.165	1738.06
400.389	1601.06
400.613	1518.06
400.837	1409.06
401.062	1356.06
401.286	1373.06
401.51	1374.06
401.734	1367.06
401.958	1390.06
402.182	1386.06
402.406	1407.06
402.63	1443.06
402.854	1454.06
403.078	1484.06
403.302	1480.06
403.526	1526.06
403.75	1567.06
403.974	1594.06
404.198	1566.06
404.422	1613.06
404.645	1660.06
404.869	1705.06
405.093	1798.06
405.317	1903.06
405.541	1985.06
405.765	1790.06
405.988	1678.06
406.212	1621.06
406.436	1575.06
406.66	1604.06
406.883	1610.06
407.107	1617.06
407.331	1647.06
407.555	1683.06
407.778	1695.06
408.002	1681.06
408.226	1604.06
408.449	1598.06
408.673	1545.06
408.896	1494.06
409.12	1508.06
409.344	1485.06
409.567	1504.06
409.791	1496.06
410.014	1487.06
410.238	1505.06
410.461	1475.06
410.685	1456.06
410.908	1477.06
411.132	1435.06
411.355	1432.06
411.578	1464.06
411.802	1493.06
412.025	1540.06
412.249	1642.06
412.472	1750.06
412.695	1925.06
412.919	1884.06
413.142	1779.06
413.365	1698.06
413.589	1568.06
413.812	1521.06
414.035	1516.06
414.258	1465.06
414.482	1495.06
414.705	1452.06
414.928	1428.06
415.151	1395.06
415.374	1373.06
415.597	1379.06
415.821	1389.06
416.044	1386.06
416.267	1418.06
416.49	1353.06
416.713	1341.06
416.936	1356.06
417.159	1365.06
417.382	1412.06
417.605	1481.06
417.828	1503.06
418.051	1452.06
418.274	1425.06
418.497	1369.06
418.72	1417.06
418.943	1412.06
419.166	1484.06
419.389	1585.06
419.611	1617.06
419.834	1591.06
420.057	1606.06
420.28	1736.06
420.503	1724.06
420.726	1661.06
420.948	1594.06
421.171	1579.06
421.394	1519.06
421.617	1455.06
421.839	1462.06
422.062	1421.06
422.285	1380.06
422.507	1407.06
422.73	1402.06
422.953	1409.06
423.175	1436.06
423.398	1414.06
423.621	1387.06
423.843	1436.06
424.066	1423.06
424.288	1426.06
424.511	1420.06
424.733	1397.06
424.956	1389.06
425.178	1365.06
425.401	1350.06
425.623	1389.06
425.846	1317.06
426.068	1317.06
426.291	1311.06
426.513	1292.06
426.735	1328.06
426.958	1336.06
427.18	1333.06
427.402	1388.06
427.625	1476.06
427.847	1644.06
428.069	1865.06
428.292	1720.06
428.514	1476.06
428.736	1343.06
428.958	1334.06
429.181	1288.06
429.403	1276.06
429.625	1232.06
429.847	1238.06
430.069	1173.06
430.292	1234.06
430.514	1236.06
430.736	1197.06
430.958	1187.06
431.18	1192.06
431.402	1174.06
431.624	1189.06
431.846	1189.06
432.068	1202.06
432.29	1224.06
432.512	1189.06
432.734	1176.06
432.956	1178.06
433.178	1179.06
433.4	1192.06
433.622	1215.06
433.844	1202.06
434.066	1185.06
434.287	1208.06
434.509	1234.06
434.731	1263.06
434.953	1287.06
435.175	1302.06
435.397	1272.06
435.618	1229.06
435.84	1238.06
436.062	1206.06
436.284	1196.06
436.505	1172.06
436.727	1180.06
436.949	1162.06
437.17	1164.06
437.392	1134.06
437.614	1143.06
437.835	1120.06
438.057	1134.06
438.278	1100.06
438.5	1103.06
438.721	1126.06
438.943	1144.06
439.165	1125.06
439.386	1140.06
439.608	1184.06
439.829	1174.06
440.05	1172.06
440.272	1169.06
440.493	1172.06
440.715	1157.06
440.936	1198.06
441.158	1218.06
441.379	1217.06
441.6	1265.06
441.822	1260.06
442.043	1275.06
442.264	1259.06
442.486	1255.06
442.707	1274.06
442.928	1270.06
443.149	1262.06
443.371	1247.06
443.592	1258.06
443.813	1276.06
444.034	1297.06
444.255	1332.06
444.476	1405.06
444.698	1448.06
444.919	1478.06
445.14	1619.06
445.361	1431.06
445.582	1331.06
445.803	1230.06
446.024	1258.06
446.245	1202.06
446.466	1207.06
446.687	1168.06
446.908	1180.06
447.129	1145.06
447.35	1135.06
447.571	1125.06
447.792	1079.06
448.013	1102.06
448.234	1092.06
448.455	1100.06
448.675	1077.06
448.896	1083.06
449.117	1030.06
449.338	1037.06
449.559	1057.06
449.779	1026.06
450	1042.06
450.221	1054.06
450.442	1084.06
450.662	1058.06
450.883	1026.06
451.104	1049.06
451.324	1045.06
451.545	1065.06
451.766	1047.06
451.986	1039.06
452.207	1062.06
452.428	1032.06
452.648	1057.06
452.869	1016.06
453.089	1025.06
453.31	1013.06
453.53	1013.06
453.751	1019.06
453.971	1029.06
454.192	1036.06
454.412	980.06
454.633	1025.06
454.853	1025.06
455.073	992.06
455.294	1028.06
455.514	988.06
455.734	990.06
455.955	996.06
456.175	1013.06
456.395	1010.06
456.616	991.06
456.836	1006.06
457.056	1012.06
457.276	969.06
457.497	1052.06
457.717	990.06
457.937	1023.06
458.157	1044.06
458.377	1036.06
458.598	1062.06
458.818	1071.06
459.038	1094.06
459.258	1079.06
459.478	1124.06
459.698	1184.06
459.918	1210.06
460.138	1230.06
460.358	1311.06
460.578	1320.06
460.798	1339.06
461.018	1353.06
461.238	1320.06
461.458	1310.06
461.678	1301.06
461.898	1340.06
462.118	1333.06
462.338	1423.06
462.558	1440.06
462.777	1489.06
462.997	1589.06
463.217	1698.06
463.437	1717.06
463.657	1576.06
463.876	1519.06
464.096	1525.06
464.316	1521.06
464.536	1514.06
464.755	1477.06
464.975	1453.06
465.195	1360.06
465.414	1315.06
465.634	1254.06
465.854	1260.06
466.073	1206.06
466.293	1209.06
466.512	1145.06
466.732	1178.06
466.951	1172.06
467.171	1169.06
467.391	1231.06
467.61	1259.06
467.829	1385.06
468.049	1868.06
468.268	2726.06
468.488	2106.06
468.707	1604.06
468.927	1439.06
469.146	1328.06
469.365	1302.06
469.585	1256.06
469.804	1254.06
470.023	1308.06
470.243	1300.06
470.462	1278.06
470.681	1271.06
470.901	1280.06
471.12	1305.06
471.339	1310.06
471.558	1345.06
471.777	1457.06
471.997	1704.06
472.216	2649.06
472.435	5165.06
472.654	4155.06
472.873	2584.06
473.092	2036.06
473.311	1753.06
473.53	1628.06
473.749	1478.06
473.968	1416.06
474.187	1364.06
474.406	1318.06
474.625	1307.06
474.844	1275.06
475.063	1262.06
475.282	1246.06
475.501	1246.06
475.72	1247.06
475.939	1244.06
476.158	1221.06
476.377	1263.06
476.596	1260.06
476.814	1265.06
477.033	1269.06
477.252	1304.06
477.471	1289.06
477.69	1335.06
477.908	1347.06
478.127	1366.06
478.346	1387.06
478.564	1435.06
478.783	1440.06
479.002	1456.06
479.22	1513.06
479.439	1506.06
479.658	1500.06
479.876	1597.06
480.095	1604.06
480.313	1739.06
480.532	1927.06
480.751	2243.06
480.969	3175.06
481.188	6816.06
481.406	8678.06
481.624	4771.06
481.843	3384.06
482.061	2726.06
482.28	2308.06
482.498	2085.06
482.717	1943.06
482.935	1860.06
483.153	1752.06
483.372	1711.06
483.59	1678.06
483.808	1612.06
484.027	1549.06
484.245	1581.06
484.463	1542.06
484.681	1546.06
484.9	1559.06
485.118	1538.06
485.336	1525.06
485.554	1526.06
485.772	1542.06
485.99	1560.06
486.209	1511.06
486.427	1550.06
486.645	1494.06
486.863	1540.06
487.081	1520.06
487.299	1525.06
487.517	1529.06
487.735	1504.06
487.953	1550.06
488.171	1525.06
488.389	1550.06
488.607	1536.06
488.825	1564.06
489.043	1564.06
489.261	1558.06
489.479	1594.06
489.696	1631.06
489.914	1625.06
490.132	1692.06
490.35	1723.06
490.568	1699.06
490.786	1787.06
491.003	1809.06
491.221	1927.06
491.439	1964.06
491.657	2056.06
491.874	2066.06
492.092	2139.06
492.31	2155.06
492.527	2188.06
492.745	2270.06
492.963	2269.06
493.18	2233.06
493.398	2191.06
493.615	2189.06
493.833	2093.06
494.05	2102.06
494.268	2025.06
494.485	2013.06
494.703	1950.06
494.92	1937.06
495.138	1903.06
495.355	1884.06
495.573	1855.06
495.79	1810.06
496.008	1806.06
496.225	1799.06
496.442	1782.06
496.66	1753.06
496.877	1771.06
497.094	1786.06
497.312	1779.06
497.529	1806.06
497.746	1800.06
497.963	1824.06
498.181	1890.06
498.398	1938.06
498.615	2026.06
498.832	2082.06
499.049	2164.06
499.267	2332.06
499.484	2478.06
499.701	2641.06
499.918	2888.06
500.135	3116.06
500.352	3476.06
500.569	3690.06
500.786	3728.06
501.003	3492.06
501.22	3217.06
501.437	2858.06
501.654	2555.06
501.871	2406.06
502.088	2237.06
502.305	2099.06
502.522	2003.06
502.739	1948.06
502.956	1864.06
503.172	1777.06
503.389	1783.06
503.606	1692.06
503.823	1671.06
504.04	1635.06
504.256	1694.06
504.473	1705.06
504.69	1712.06
504.907	1694.06
505.123	1616.06
505.34	1560.06
505.557	1478.06
505.773	1456.06
505.99	1422.06
506.207	1407.06
506.423	1364.06
506.64	1360.06
506.856	1333.06
507.073	1332.06
507.289	1354.06
507.506	1330.06
507.722	1312.06
507.939	1301.06
508.155	1275.06
508.372	1258.06
508.588	1246.06
508.805	1265.06
509.021	1231.06
509.238	1238.06
509.454	1208.06
509.67	1231.06
509.887	1220.06
510.103	1213.06
510.319	1226.06
510.536	1233.06
510.752	1226.06
510.968	1233.06
511.184	1221.06
511.401	1301.06
511.617	1332.06
511.833	1514.06
512.049	1594.06
512.265	1513.06
512.481	1431.06
512.698	1335.06
512.914	1365.06
513.13	1297.06
513.346	1281.06
513.562	1273.06
513.778	1252.06
513.994	1240.06
514.21	1232.06
514.426	1229.06
514.642	1226.06
514.858	1228.06
515.074	1247.06
515.29	1280.06
515.506	1237.06
515.721	1264.06
515.937	1290.06
516.153	1282.06
516.369	1305.06
516.585	1333.06
516.801	1369.06
517.016	1430.06
517.232	1480.06
517.448	1482.06
517.664	1514.06
517.879	1515.06
518.095	1580.06
518.311	1526.06
518.527	1454.06
518.742	1434.06
518.958	1370.06
519.173	1352.06
519.389	1280.06
519.605	1280.06
519.82	1264.06
520.036	1249.06
520.251	1184.06
520.467	1205.06
520.682	1224.06
520.898	1122.06
521.113	1158.06
521.329	1174.06
521.544	1154.06
521.76	1131.06
521.975	1128.06
522.19	1136.06
522.406	1134.06
522.621	1122.06
522.836	1104.06
523.052	1113.06
523.267	1118.06
523.482	1109.06
523.698	1106.06
523.913	1087.06
524.128	1115.06
524.343	1094.06
524.559	1082.06
524.774	1093.06
524.989	1092.06
525.204	1089.06
525.419	1068.06
525.634	1054.06
525.849	1065.06
526.064	1017.06
526.28	1059.06
526.495	1044.06
526.71	1049.06
526.925	1055.06
527.14	1046.06
527.355	1049.06
527.57	1036.06
527.785	1040.06
527.999	1054.06
528.214	1056.06
528.429	1066.06
528.644	1062.06
528.859	1055.06
529.074	1047.06
529.289	1029.06
529.503	1067.06
529.718	1051.06
529.933	1029.06
530.148	1019.06
530.363	1040.06
530.577	1028.06
530.792	1024.06
531.007	1048.06
531.221	1021.06
531.436	1026.06
531.651	1036.06
531.865	1034.06
532.08	1057.06
532.295	1059.06
532.509	1039.06
532.724	1021.06
532.938	1077.06
533.153	1033.06
533.367	1032.06
533.582	1064.06
533.796	1055.06
534.011	1049.06
534.225	1029.06
534.44	1008.06
534.654	1029.06
534.868	1028.06
535.083	1006.06
535.297	1020.06
535.511	991.06
535.726	1015.06
535.94	976.06
536.154	969.06
536.369	990.06
536.583	987.06
536.797	971.06
537.011	1002.06
537.225	988.06
537.44	968.06
537.654	995.06
537.868	968.06
538.082	968.06
538.296	973.06
538.51	963.06
538.724	972.06
538.938	973.06
539.153	958.06
539.367	984.06
539.581	978.06
539.795	943.06
540.009	948.06
540.222	940.06
540.436	937.06
540.65	944.06
540.864	969.06
541.078	954.06
541.292	959.06
541.506	957.06
541.72	965.06
541.934	974.06
542.147	993.06
542.361	960.06
542.575	984.06
542.789	971.06
543.002	938.06
543.216	977.06
543.43	963.06
543.644	948.06
543.857	990.06
544.071	980.06
544.285	982.06
544.498	961.06
544.712	971.06
544.925	973.06
545.139	959.06
545.352	1009.06
545.566	1004.06
545.779	1017.06
545.993	989.06
546.206	1018.06
546.42	1007.06
546.633	1005.06
546.847	970.06
547.06	973.06
547.274	985.06
547.487	981.06
547.7	999.06
547.914	990.06
548.127	980.06
548.34	1005.06
548.554	985.06
548.767	1007.06
548.98	979.06
549.193	990.06
549.407	982.06
549.62	981.06
549.833	1011.06
550.046	985.06
550.259	976.06
550.473	969.06
550.686	977.06
550.899	936.06
551.112	972.06
551.325	945.06
551.538	976.06
551.751	954.06
551.964	964.06
552.177	958.06
552.39	1012.06
552.603	991.06
552.816	1009.06
553.029	1042.06
553.242	1040.06
553.455	1055.06
553.667	1050.06
553.88	1016.06
554.093	1016.06
554.306	1031.06
554.519	1019.06
554.732	1007.06
554.944	990.06
555.157	977.06
555.37	914.06
555.583	929.06
555.795	920.06
556.008	884.06
556.221	881.06
556.433	879.06
556.646	852.06
556.859	886.06
557.071	840.06
557.284	866.06
557.496	861.06
557.709	866.06
557.921	837.06
558.134	846.06
558.346	842.06
558.559	838.06
558.771	842.06
558.984	827.06
559.196	821.06
559.409	826.06
559.621	806.06
559.833	840.06
560.046	857.06
560.258	844.06
560.47	857.06
560.683	858.06
560.895	836.06
561.107	840.06
561.32	818.06
561.532	838.06
561.744	825.06
561.956	838.06
562.168	847.06
562.381	817.06
562.593	814.06
562.805	827.06
563.017	800.06
563.229	834.06
563.441	820.06
563.653	819.06
563.865	817.06
564.077	817.06
564.289	845.06
564.501	874.06
564.713	843.06
564.925	842.06
565.137	858.06
565.349	919.06
565.561	944.06
565.773	917.06
565.985	992.06
566.197	1058.06
566.408	1073.06
566.62	1161.06
566.832	1238.06
567.044	1230.06
567.255	1250.06
567.467	1267.06
567.679	1335.06
567.891	1377.06
568.102	1426.06
568.314	1364.06
568.526	1212.06
568.737	1147.06
568.949	1050.06
569.161	1001.06
569.372	964.06
569.584	913.06
569.795	889.06
570.007	857.06
570.218	818.06
570.43	846.06
570.641	819.06
570.853	808.06
571.064	824.06
571.276	830.06
571.487	836.06
571.698	749.06
571.91	744.06
572.121	724.06
572.333	741.06
572.544	715.06
572.755	721.06
572.966	698.06
573.178	700.06
573.389	693.06
573.6	685.06
573.811	688.06
574.023	689.06
574.234	686.06
574.445	665.06
574.656	682.06
574.867	693.06
575.078	680.06
575.289	666.06
575.501	692.06
575.712	655.06
575.923	648.06
576.134	660.06
576.345	666.06
576.556	660.06
576.767	645.06
576.978	648.06
577.188	653.06
577.399	645.06
577.61	654.06
577.821	641.06
578.032	635.06
578.243	617.06
578.454	620.06
578.665	628.06
578.875	640.06
579.086	629.06
579.297	640.06
579.508	602.06
579.718	625.06
579.929	625.06
580.14	595.06
580.35	602.06
580.561	600.06
580.772	606.06
580.982	614.06
581.193	588.06
581.403	597.06
581.614	594.06
581.825	579.06
582.035	593.06
582.246	591.06
582.456	598.06
582.667	612.06
582.877	581.06
583.087	610.06
583.298	595.06
583.508	602.06
583.719	594.06
583.929	596.06
584.139	577.06
584.35	597.06
584.56	577.06
584.77	578.06
584.981	580.06
585.191	562.06
585.401	573.06
585.611	557.06
585.821	584.06
586.032	570.06
586.242	570.06
586.452	574.06
586.662	577.06
586.872	566.06
587.082	559.06
587.292	560.06
587.502	573.06
587.713	582.06
587.923	566.06
588.133	553.06
588.343	559.06
588.553	562.06
588.762	583.06
588.972	565.06
589.182	569.06
589.392	575.06
589.602	641.06
589.812	634.06
590.022	596.06
590.232	566.06
590.441	591.06
590.651	591.06
590.861	588.06
591.071	597.06
591.281	582.06
591.49	582.06
591.7	586.06
591.91	616.06
592.119	609.06
592.329	609.06
592.539	652.06
592.748	620.06
592.958	663.06
593.167	673.06
593.377	704.06
593.587	680.06
593.796	688.06
594.006	671.06
594.215	693.06
594.424	720.06
594.634	674.06
594.843	657.06
595.053	609.06
595.262	637.06
595.472	617.06
595.681	606.06
595.89	598.06
596.1	562.06
596.309	566.06
596.518	544.06
596.727	568.06
596.937	534.06
597.146	525.06
597.355	530.06
597.564	523.06
597.774	546.06
597.983	528.06
598.192	532.06
598.401	506.06
598.61	510.06
598.819	509.06
599.028	539.06
599.237	507.06
599.446	481.06
599.655	496.06
599.864	493.06
600.073	524.06
600.282	512.06
600.491	511.06
600.7	499.06
600.909	511.06
601.118	500.06
601.327	501.06
601.536	489.06
601.745	495.06
601.953	506.06
602.162	506.06
602.371	510.06
602.58	519.06
602.789	497.06
602.997	472.06
603.206	466.06
603.415	497.06
603.623	479.06
603.832	487.06
604.041	482.06
604.249	468.06
604.458	480.06
604.666	485.06
604.875	480.06
605.084	454.06
605.292	480.06
605.501	472.06
605.709	481.06
605.918	474.06
606.126	492.06
606.334	480.06
606.543	473.06
606.751	469.06
606.96	463.06
607.168	500.06
607.376	468.06
607.585	469.06
607.793	468.06
608.001	469.06
608.21	468.06
608.418	467.06
608.626	492.06
608.834	472.06
609.043	486.06
609.251	458.06
609.459	481.06
609.667	471.06
609.875	457.06
610.083	472.06
610.291	492.06
610.499	475.06
610.707	472.06
610.916	478.06
611.124	494.06
611.332	498.06
611.54	476.06
611.748	504.06
611.955	459.06
612.163	460.06
612.371	466.06
612.579	466.06
612.787	459.06
612.995	463.06
613.203	445.06
613.411	452.06
613.618	446.06
613.826	471.06
614.034	462.06
614.242	447.06
614.449	459.06
614.657	462.06
614.865	439.06
615.072	436.06
615.28	428.06
615.488	442.06
615.695	447.06
615.903	439.06
616.111	449.06
616.318	444.06
616.526	436.06
616.733	436.06
616.941	454.06
617.148	458.06
617.356	436.06
617.563	432.06
617.771	426.06
617.978	429.06
618.185	443.06
618.393	432.06
618.6	436.06
618.807	413.06
619.015	436.06
619.222	428.06
619.429	433.06
619.637	419.06
619.844	443.06
620.051	423.06
620.258	402.06
620.466	411.06
620.673	388.06
620.88	405.06
621.087	391.06
621.294	385.06
621.501	407.06
621.708	386.06
621.915	396.06
622.122	377.06
622.329	396.06
622.536	398.06
622.743	398.06
622.95	361.06
623.157	382.06
623.364	401.06
623.571	389.06
623.778	382.06
623.985	384.06
624.192	389.06
624.399	374.06
624.606	372.06
624.812	372.06
625.019	369.06
625.226	366.06
625.433	354.06
625.639	365.06
625.846	363.06
626.053	345.06
626.259	366.06
626.466	350.06
626.673	354.06
626.879	360.06
627.086	349.06
627.293	364.06
627.499	352.06
627.706	344.06
627.912	345.06
628.119	347.06
628.325	375.06
628.532	358.06
628.738	368.06
628.945	360.06
629.151	356.06
629.357	359.06
629.564	343.06
629.77	334.06
629.976	332.06
630.183	351.06
630.389	331.06
630.595	348.06
630.802	330.06
631.008	350.06
631.214	336.06
631.42	350.06
631.627	352.06
631.833	334.06
632.039	349.06
632.245	314.06
632.451	330.06
632.657	327.06
632.863	320.06
633.069	329.06
633.275	340.06
633.481	327.06
633.688	337.06
633.893	335.06
634.099	335.06
634.305	349.06
634.511	355.06
634.717	344.06
634.923	354.06
635.129	356.06
635.335	361.06
635.541	359.06
635.747	385.06
635.952	395.06
636.158	463.06
636.364	651.06
636.57	878.06
636.775	657.06
636.981	562.06
637.187	484.06
637.392	454.06
637.598	413.06
637.804	392.06
638.009	390.06
638.215	375.06
638.421	351.06
638.626	350.06
638.832	341.06
639.037	335.06
639.243	330.06
639.448	334.06
639.654	330.06
639.859	325.06
640.065	316.06
640.27	326.06
640.475	308.06
640.681	322.06
640.886	301.06
641.091	303.06
641.297	312.06
641.502	288.06
641.707	312.06
641.913	301.06
642.118	316.06
642.323	286.06
642.528	280.06
642.733	284.06
642.939	297.06
643.144	269.06
643.349	294.06
643.554	270.06
643.759	284.06
643.964	300.06
644.169	288.06
644.374	278.06
644.579	263.06
644.784	263.06
644.989	283.06
645.194	268.06
645.399	274.06
645.604	273.06
645.809	282.06
646.014	274.06
646.219	277.06
646.423	282.06
646.628	290.06
646.833	282.06
647.038	255.06
647.243	282.06
647.447	295.06
647.652	287.06
647.857	267.06
648.062	287.06
648.266	289.06
648.471	292.06
648.676	307.06
648.88	292.06
649.085	283.06
649.289	275.06
649.494	277.06
649.698	258.06
649.903	268.06
650.107	268.06
650.312	275.06
650.516	260.06
650.721	248.06
650.925	237.06
651.13	245.06
651.334	247.06
651.539	224.06
651.743	250.06
651.947	230.06
652.152	233.06
652.356	251.06
652.56	225.06
652.764	216.06
652.969	220.06
653.173	197.06
653.377	232.06
653.581	209.06
653.785	221.06
653.99	210.06
654.194	218.06
654.398	201.06
654.602	200.06
654.806	205.06
655.01	190.06
655.214	209.06
655.418	205.06
655.622	206.06
655.826	201.06
656.03	215.06
656.234	203.06
656.438	228.06
656.642	213.06
656.846	220.06
657.049	193.06
657.253	191.06
657.457	174.06
657.661	162.06
657.865	166.06
658.068	152.06
658.272	154.06
658.476	140.06
658.68	143.06
658.883	144.06
659.087	130.06
659.291	136.06
659.494	124.06
659.698	119.06
659.901	109.06
660.105	112.06
660.309	136.06
660.512	108.06
660.716	129.06
660.919	104.06
661.123	115.06
661.326	102.06
661.53	105.06
661.733	109.06
661.936	110.06
662.14	98.06
662.343	91.06
662.546	97.06
662.75	79.06
662.953	95.06
663.156	88.06
663.36	97.06
663.563	94.06
663.766	85.06
663.969	87.06
664.173	87.06
664.376	97.06
664.579	90.06
664.782	72.06
664.985	98.06
665.188	88.06
665.391	80.06
665.594	86.06
665.797	86.06
666	91.06
666.203	80.06
666.406	98.06
666.609	89.06
666.812	88.06
667.015	94.06
667.218	91.06
667.421	65.06
667.624	82.06
667.827	92.06
668.03	87.06
668.232	90.06
668.435	90.06
668.638	85.06
668.841	90.06
669.043	89.06
669.246	71.06
669.449	91.06
669.651	73.06
669.854	76.06
670.057	84.06
670.259	87.06
670.462	78.06
670.665	89.06
670.867	94.06
671.07	87.06
671.272	90.06
671.475	96.06
671.677	95.06
671.88	79.06
672.082	85.06
672.284	77.06
672.487	90.06
672.689	87.06
672.892	71.06
