Data from FlinnAP9092KCOPPER.07152019.LAMP.EN7.P1_HRD10591_14-44-42-667.txt Node
Date: Mon Jul 15 14:44:42 EDT 2019
User: cochatt
Spectrometer: HR+D1059
Trigger mode: 3
Integration Time (sec): 1.000000E-1
Scans to average: 1
Electric dark correction enabled: true
Nonlinearity correction enabled: false
Boxcar width: 0
XAxis mode: Wavelengths
Number of Pixels in Spectrum: 2048
>>>>>Begin Spectral Data<<<<<
223.165	-7.88
223.4	-7.88
223.635	-7.88
223.869	-13.88
224.104	-34.88
224.338	-6.88
224.573	-11.88
224.808	-7.88
225.042	-12.88
225.277	-0.88
225.511	-6.88
225.746	2.12
225.98	0.12
226.215	11.12
226.449	12.12
226.683	22.12
226.918	22.12
227.152	34.12
227.387	39.12
227.621	31.12
227.856	45.12
228.09	39.12
228.324	51.12
228.559	47.12
228.793	79.12
229.027	116.12
229.262	118.12
229.496	121.12
229.73	143.12
229.964	184.12
230.199	147.12
230.433	137.12
230.667	125.12
230.901	123.12
231.136	116.12
231.37	135.12
231.604	131.12
231.838	143.12
232.072	140.12
232.306	128.12
232.541	141.12
232.775	132.12
233.009	144.12
233.243	148.12
233.477	144.12
233.711	152.12
233.945	147.12
234.179	148.12
234.413	141.12
234.647	142.12
234.881	136.12
235.115	147.12
235.349	144.12
235.583	141.12
235.817	154.12
236.051	162.12
236.285	144.12
236.519	155.12
236.753	147.12
236.987	178.12
237.221	213.12
237.455	267.12
237.689	228.12
237.922	171.12
238.156	156.12
238.39	163.12
238.624	159.12
238.858	152.12
239.091	156.12
239.325	162.12
239.559	158.12
239.793	165.12
240.027	167.12
240.26	174.12
240.494	208.12
240.728	194.12
240.961	195.12
241.195	174.12
241.429	179.12
241.662	166.12
241.896	174.12
242.13	164.12
242.363	174.12
242.597	187.12
242.83	174.12
243.064	186.12
243.298	177.12
243.531	175.12
243.765	174.12
243.998	172.12
244.232	180.12
244.465	171.12
244.699	185.12
244.932	179.12
245.166	206.12
245.399	185.12
245.633	182.12
245.866	187.12
246.099	181.12
246.333	189.12
246.566	195.12
246.8	200.12
247.033	207.12
247.266	204.12
247.5	196.12
247.733	217.12
247.966	239.12
248.2	225.12
248.433	228.12
248.666	222.12
248.899	227.12
249.133	246.12
249.366	277.12
249.599	247.12
249.832	224.12
250.066	216.12
250.299	238.12
250.532	240.12
250.765	246.12
250.998	259.12
251.231	276.12
251.465	283.12
251.698	254.12
251.931	249.12
252.164	246.12
252.397	251.12
252.63	242.12
252.863	267.12
253.096	260.12
253.329	286.12
253.562	278.12
253.795	291.12
254.028	282.12
254.261	268.12
254.494	284.12
254.727	320.12
254.96	384.12
255.193	354.12
255.426	293.12
255.659	289.12
255.892	283.12
256.124	265.12
256.357	262.12
256.59	265.12
256.823	254.12
257.056	262.12
257.289	272.12
257.521	244.12
257.754	278.12
257.987	270.12
258.22	265.12
258.452	276.12
258.685	269.12
258.918	256.12
259.151	281.12
259.383	293.12
259.616	286.12
259.849	302.12
260.081	299.12
260.314	314.12
260.547	354.12
260.779	332.12
261.012	295.12
261.244	270.12
261.477	296.12
261.71	299.12
261.942	296.12
262.175	306.12
262.407	298.12
262.64	282.12
262.872	299.12
263.105	291.12
263.337	280.12
263.57	287.12
263.802	281.12
264.035	279.12
264.267	299.12
264.499	280.12
264.732	307.12
264.964	298.12
265.197	296.12
265.429	279.12
265.661	279.12
265.894	271.12
266.126	308.12
266.358	303.12
266.591	316.12
266.823	330.12
267.055	313.12
267.287	298.12
267.52	305.12
267.752	314.12
267.984	328.12
268.216	317.12
268.448	316.12
268.681	326.12
268.913	332.12
269.145	354.12
269.377	361.12
269.609	352.12
269.841	346.12
270.073	351.12
270.306	368.12
270.538	427.12
270.77	424.12
271.002	383.12
271.234	375.12
271.466	376.12
271.698	410.12
271.93	413.12
272.162	435.12
272.394	437.12
272.626	407.12
272.858	401.12
273.09	364.12
273.322	379.12
273.553	363.12
273.785	354.12
274.017	334.12
274.249	357.12
274.481	360.12
274.713	353.12
274.945	383.12
275.176	360.12
275.408	367.12
275.64	359.12
275.872	367.12
276.104	379.12
276.335	372.12
276.567	388.12
276.799	416.12
277.031	416.12
277.262	440.12
277.494	435.12
277.726	413.12
277.957	402.12
278.189	391.12
278.421	363.12
278.652	358.12
278.884	351.12
279.115	367.12
279.347	360.12
279.579	353.12
279.81	402.12
280.042	367.12
280.273	372.12
280.505	384.12
280.736	375.12
280.968	379.12
281.199	363.12
281.431	367.12
281.662	387.12
281.894	400.12
282.125	376.12
282.356	404.12
282.588	408.12
282.819	404.12
283.051	401.12
283.282	392.12
283.513	401.12
283.745	400.12
283.976	406.12
284.207	387.12
284.439	403.12
284.67	407.12
284.901	417.12
285.132	424.12
285.364	398.12
285.595	400.12
285.826	403.12
286.057	423.12
286.288	424.12
286.52	407.12
286.751	425.12
286.982	393.12
287.213	402.12
287.444	413.12
287.675	421.12
287.906	428.12
288.138	431.12
288.369	443.12
288.6	431.12
288.831	435.12
289.062	420.12
289.293	434.12
289.524	415.12
289.755	426.12
289.986	433.12
290.217	404.12
290.448	427.12
290.679	406.12
290.91	418.12
291.141	409.12
291.371	430.12
291.602	441.12
291.833	426.12
292.064	441.12
292.295	436.12
292.526	427.12
292.757	423.12
292.987	424.12
293.218	415.12
293.449	403.12
293.68	417.12
293.91	405.12
294.141	410.12
294.372	421.12
294.603	413.12
294.833	410.12
295.064	410.12
295.295	416.12
295.525	438.12
295.756	446.12
295.987	457.12
296.217	466.12
296.448	487.12
296.679	467.12
296.909	442.12
297.14	445.12
297.37	433.12
297.601	455.12
297.831	452.12
298.062	440.12
298.292	437.12
298.523	449.12
298.753	451.12
298.984	446.12
299.214	440.12
299.445	468.12
299.675	466.12
299.905	451.12
300.136	464.12
300.366	462.12
300.597	453.12
300.827	474.12
301.057	470.12
301.288	469.12
301.518	482.12
301.748	458.12
301.979	475.12
302.209	486.12
302.439	481.12
302.669	474.12
302.9	463.12
303.13	478.12
303.36	492.12
303.59	486.12
303.82	478.12
304.051	475.12
304.281	472.12
304.511	471.12
304.741	499.12
304.971	479.12
305.201	450.12
305.431	480.12
305.661	474.12
305.891	470.12
306.121	461.12
306.352	488.12
306.582	444.12
306.812	462.12
307.042	467.12
307.272	478.12
307.502	438.12
307.731	455.12
307.961	456.12
308.191	473.12
308.421	473.12
308.651	464.12
308.881	459.12
309.111	470.12
309.341	458.12
309.571	485.12
309.8	490.12
310.03	491.12
310.26	493.12
310.49	478.12
310.72	507.12
310.949	511.12
311.179	511.12
311.409	516.12
311.639	520.12
311.868	502.12
312.098	500.12
312.328	508.12
312.557	534.12
312.787	528.12
313.017	534.12
313.246	497.12
313.476	523.12
313.706	532.12
313.935	535.12
314.165	535.12
314.394	541.12
314.624	538.12
314.853	542.12
315.083	522.12
315.312	526.12
315.542	540.12
315.771	500.12
316.001	497.12
316.23	503.12
316.46	504.12
316.689	521.12
316.919	531.12
317.148	521.12
317.377	516.12
317.607	536.12
317.836	506.12
318.065	522.12
318.295	518.12
318.524	499.12
318.753	478.12
318.983	485.12
319.212	503.12
319.441	515.12
319.67	518.12
319.9	518.12
320.129	503.12
320.358	532.12
320.587	515.12
320.816	512.12
321.046	513.12
321.275	519.12
321.504	505.12
321.733	511.12
321.962	507.12
322.191	504.12
322.42	521.12
322.649	542.12
322.878	562.12
323.108	588.12
323.337	568.12
323.566	596.12
323.795	620.12
324.024	647.12
324.253	738.12
324.482	989.12
324.71	1494.12
324.939	2275.12
325.168	1997.12
325.397	995.12
325.626	719.12
325.855	626.12
326.084	604.12
326.313	607.12
326.542	613.12
326.77	625.12
326.999	707.12
327.228	992.12
327.457	1376.12
327.686	1804.12
327.914	1174.12
328.143	775.12
328.372	674.12
328.6	647.12
328.829	658.12
329.058	659.12
329.287	671.12
329.515	659.12
329.744	626.12
329.972	598.12
330.201	615.12
330.43	631.12
330.658	650.12
330.887	701.12
331.115	718.12
331.344	634.12
331.572	652.12
331.801	640.12
332.03	632.12
332.258	638.12
332.486	615.12
332.715	647.12
332.943	643.12
333.172	646.12
333.4	685.12
333.629	677.12
333.857	682.12
334.085	684.12
334.314	706.12
334.542	689.12
334.771	654.12
334.999	658.12
335.227	641.12
335.455	646.12
335.684	634.12
335.912	641.12
336.14	608.12
336.369	643.12
336.597	639.12
336.825	632.12
337.053	624.12
337.281	633.12
337.51	612.12
337.738	611.12
337.966	604.12
338.194	617.12
338.422	589.12
338.65	596.12
338.878	585.12
339.106	590.12
339.334	593.12
339.562	584.12
339.79	576.12
340.018	566.12
340.246	605.12
340.474	590.12
340.702	582.12
340.93	571.12
341.158	584.12
341.386	573.12
341.614	576.12
341.842	577.12
342.07	546.12
342.298	554.12
342.526	559.12
342.754	579.12
342.981	555.12
343.209	553.12
343.437	585.12
343.665	617.12
343.893	614.12
344.12	644.12
344.348	649.12
344.576	630.12
344.804	616.12
345.031	605.12
345.259	578.12
345.487	567.12
345.714	589.12
345.942	540.12
346.17	562.12
346.397	536.12
346.625	553.12
346.853	538.12
347.08	564.12
347.308	545.12
347.535	534.12
347.763	560.12
347.99	546.12
348.218	560.12
348.445	545.12
348.673	566.12
348.9	560.12
349.128	546.12
349.355	529.12
349.583	503.12
349.81	519.12
350.037	504.12
350.265	521.12
350.492	544.12
350.72	520.12
350.947	552.12
351.174	530.12
351.402	548.12
351.629	546.12
351.856	552.12
352.083	554.12
352.311	540.12
352.538	567.12
352.765	567.12
352.992	544.12
353.22	532.12
353.447	542.12
353.674	547.12
353.901	508.12
354.128	520.12
354.355	490.12
354.583	524.12
354.81	503.12
355.037	523.12
355.264	499.12
355.491	511.12
355.718	503.12
355.945	504.12
356.172	489.12
356.399	511.12
356.626	502.12
356.853	511.12
357.08	516.12
357.307	530.12
357.534	507.12
357.761	494.12
357.988	511.12
358.215	516.12
358.441	504.12
358.668	507.12
358.895	515.12
359.122	503.12
359.349	545.12
359.576	530.12
359.802	554.12
360.029	582.12
360.256	596.12
360.483	596.12
360.709	518.12
360.936	546.12
361.163	533.12
361.39	537.12
361.616	539.12
361.843	557.12
362.07	512.12
362.296	540.12
362.523	544.12
362.749	515.12
362.976	494.12
363.203	534.12
363.429	549.12
363.656	522.12
363.882	516.12
364.109	506.12
364.335	500.12
364.562	509.12
364.788	526.12
365.015	541.12
365.241	514.12
365.468	512.12
365.694	534.12
365.92	515.12
366.147	536.12
366.373	524.12
366.599	511.12
366.826	508.12
367.052	518.12
367.278	510.12
367.505	531.12
367.731	525.12
367.957	535.12
368.184	540.12
368.41	540.12
368.636	534.12
368.862	546.12
369.089	527.12
369.315	535.12
369.541	541.12
369.767	542.12
369.993	537.12
370.219	537.12
370.445	537.12
370.672	542.12
370.898	533.12
371.124	572.12
371.35	549.12
371.576	559.12
371.802	574.12
372.028	559.12
372.254	572.12
372.48	584.12
372.706	575.12
372.932	596.12
373.158	568.12
373.384	558.12
373.61	571.12
373.835	553.12
374.061	550.12
374.287	581.12
374.513	578.12
374.739	596.12
374.965	599.12
375.191	616.12
375.416	601.12
375.642	588.12
375.868	595.12
376.094	574.12
376.319	553.12
376.545	559.12
376.771	564.12
376.997	548.12
377.222	563.12
377.448	560.12
377.674	574.12
377.899	551.12
378.125	552.12
378.35	555.12
378.576	561.12
378.802	566.12
379.027	563.12
379.253	553.12
379.478	547.12
379.704	555.12
379.929	570.12
380.155	573.12
380.38	566.12
380.606	560.12
380.831	568.12
381.057	576.12
381.282	584.12
381.507	576.12
381.733	590.12
381.958	588.12
382.184	574.12
382.409	585.12
382.634	604.12
382.86	602.12
383.085	594.12
383.31	618.12
383.535	616.12
383.761	610.12
383.986	633.12
384.211	644.12
384.436	651.12
384.662	664.12
384.887	656.12
385.112	652.12
385.337	670.12
385.562	684.12
385.787	671.12
386.013	690.12
386.238	674.12
386.463	670.12
386.688	665.12
386.913	674.12
387.138	668.12
387.363	673.12
387.588	680.12
387.813	682.12
388.038	676.12
388.263	676.12
388.488	669.12
388.713	683.12
388.938	684.12
389.163	675.12
389.387	681.12
389.612	669.12
389.837	686.12
390.062	657.12
390.287	648.12
390.512	663.12
390.736	670.12
390.961	686.12
391.186	706.12
391.411	711.12
391.636	732.12
391.86	723.12
392.085	748.12
392.31	744.12
392.534	727.12
392.759	739.12
392.984	690.12
393.208	734.12
393.433	708.12
393.658	707.12
393.882	725.12
394.107	712.12
394.331	708.12
394.556	735.12
394.78	758.12
395.005	718.12
395.229	747.12
395.454	747.12
395.678	760.12
395.903	752.12
396.127	797.12
396.352	776.12
396.576	717.12
396.801	728.12
397.025	743.12
397.249	745.12
397.474	760.12
397.698	777.12
397.922	805.12
398.147	813.12
398.371	819.12
398.595	812.12
398.82	838.12
399.044	851.12
399.268	926.12
399.492	1006.12
399.717	1110.12
399.941	1155.12
400.165	1114.12
400.389	1087.12
400.613	962.12
400.837	874.12
401.062	879.12
401.286	872.12
401.51	866.12
401.734	859.12
401.958	860.12
402.182	834.12
402.406	910.12
402.63	883.12
402.854	880.12
403.078	914.12
403.302	926.12
403.526	938.12
403.75	936.12
403.974	930.12
404.198	968.12
404.422	958.12
404.645	953.12
404.869	912.12
405.093	961.12
405.317	971.12
405.541	957.12
405.765	966.12
405.988	929.12
406.212	974.12
406.436	972.12
406.66	1023.12
406.883	982.12
407.107	1055.12
407.331	1121.12
407.555	1180.12
407.778	1191.12
408.002	1081.12
408.226	1057.12
408.449	1002.12
408.673	1003.12
408.896	1033.12
409.12	1072.12
409.344	1056.12
409.567	943.12
409.791	914.12
410.014	969.12
410.238	931.12
410.461	921.12
410.685	958.12
410.908	969.12
411.132	998.12
411.355	1015.12
411.578	990.12
411.802	932.12
412.025	911.12
412.249	908.12
412.472	919.12
412.695	887.12
412.919	904.12
413.142	918.12
413.365	892.12
413.589	940.12
413.812	884.12
414.035	871.12
414.258	890.12
414.482	887.12
414.705	879.12
414.928	898.12
415.151	899.12
415.374	902.12
415.597	910.12
415.821	891.12
416.044	896.12
416.267	897.12
416.49	936.12
416.713	898.12
416.936	906.12
417.159	927.12
417.382	927.12
417.605	909.12
417.828	960.12
418.051	967.12
418.274	961.12
418.497	944.12
418.72	961.12
418.943	946.12
419.166	1009.12
419.389	1040.12
419.611	1032.12
419.834	990.12
420.057	973.12
420.28	987.12
420.503	970.12
420.726	945.12
420.948	958.12
421.171	996.12
421.394	1064.12
421.617	1004.12
421.839	994.12
422.062	1003.12
422.285	972.12
422.507	1053.12
422.73	1145.12
422.953	1106.12
423.175	999.12
423.398	984.12
423.621	1016.12
423.843	1063.12
424.066	1079.12
424.288	1083.12
424.511	1081.12
424.733	1124.12
424.956	1230.12
425.178	1156.12
425.401	1183.12
425.623	1217.12
425.846	1050.12
426.068	982.12
426.291	954.12
426.513	968.12
426.735	986.12
426.958	1021.12
427.18	1138.12
427.402	1326.12
427.625	1393.12
427.847	1192.12
428.069	1068.12
428.292	989.12
428.514	944.12
428.736	926.12
428.958	930.12
429.181	885.12
429.403	932.12
429.625	910.12
429.847	954.12
430.069	1047.12
430.292	1026.12
430.514	944.12
430.736	940.12
430.958	921.12
431.18	867.12
431.402	888.12
431.624	830.12
431.846	793.12
432.068	742.12
432.29	774.12
432.512	806.12
432.734	897.12
432.956	900.12
433.178	925.12
433.4	956.12
433.622	925.12
433.844	897.12
434.066	866.12
434.287	810.12
434.509	776.12
434.731	811.12
434.953	866.12
435.175	946.12
435.397	973.12
435.618	964.12
435.84	956.12
436.062	1087.12
436.284	1197.12
436.505	1048.12
436.727	990.12
436.949	924.12
437.17	935.12
437.392	926.12
437.614	868.12
437.835	881.12
438.057	983.12
438.278	1133.12
438.5	1155.12
438.721	1329.12
438.943	1308.12
439.165	1073.12
439.386	1066.12
439.608	1052.12
439.829	1060.12
440.05	1101.12
440.272	1149.12
440.493	1104.12
440.715	1047.12
440.936	1033.12
441.158	1021.12
441.379	1052.12
441.6	1116.12
441.822	1112.12
442.043	1152.12
442.264	1232.12
442.486	1266.12
442.707	1106.12
442.928	1086.12
443.149	1111.12
443.371	1136.12
443.592	1204.12
443.813	1319.12
444.034	1384.12
444.255	1214.12
444.476	1168.12
444.698	1158.12
444.919	1150.12
445.14	1319.12
445.361	1216.12
445.582	1200.12
445.803	1241.12
446.024	1409.12
446.245	1391.12
446.466	1326.12
446.687	1164.12
446.908	1138.12
447.129	1071.12
447.35	1070.12
447.571	1049.12
447.792	1018.12
448.013	990.12
448.234	1033.12
448.455	1048.12
448.675	1215.12
448.896	1362.12
449.117	1153.12
449.338	1094.12
449.559	1244.12
449.779	1369.12
450	1145.12
450.221	1019.12
450.442	977.12
450.662	959.12
450.883	954.12
451.104	970.12
451.324	914.12
451.545	904.12
451.766	849.12
451.986	832.12
452.207	849.12
452.428	857.12
452.648	830.12
452.869	809.12
453.089	776.12
453.31	763.12
453.53	759.12
453.751	710.12
453.971	716.12
454.192	733.12
454.412	740.12
454.633	762.12
454.853	771.12
455.073	789.12
455.294	824.12
455.514	904.12
455.734	898.12
455.955	778.12
456.175	751.12
456.395	719.12
456.616	676.12
456.836	708.12
457.056	687.12
457.276	666.12
457.497	691.12
457.717	696.12
457.937	685.12
458.157	691.12
458.377	704.12
458.598	733.12
458.818	744.12
459.038	816.12
459.258	841.12
459.478	761.12
459.698	751.12
459.918	747.12
460.138	787.12
460.358	838.12
460.578	876.12
460.798	840.12
461.018	892.12
461.238	886.12
461.458	882.12
461.678	831.12
461.898	886.12
462.118	879.12
462.338	926.12
462.558	938.12
462.777	942.12
462.997	972.12
463.217	1026.12
463.437	1034.12
463.657	977.12
463.876	917.12
464.096	963.12
464.316	937.12
464.536	985.12
464.755	958.12
464.975	954.12
465.195	982.12
465.414	1010.12
465.634	922.12
465.854	867.12
466.073	891.12
466.293	856.12
466.512	832.12
466.732	860.12
466.951	884.12
467.171	943.12
467.391	915.12
467.61	923.12
467.829	927.12
468.049	910.12
468.268	909.12
468.488	895.12
468.707	908.12
468.927	890.12
469.146	896.12
469.365	923.12
469.585	926.12
469.804	925.12
470.023	991.12
470.243	969.12
470.462	1000.12
470.681	986.12
470.901	1003.12
471.12	976.12
471.339	959.12
471.558	970.12
471.777	951.12
471.997	889.12
472.216	874.12
472.435	813.12
472.654	738.12
472.873	721.12
473.092	793.12
473.311	808.12
473.53	839.12
473.749	835.12
473.968	897.12
474.187	992.12
474.406	981.12
474.625	897.12
474.844	859.12
475.063	889.12
475.282	834.12
475.501	817.12
475.72	800.12
475.939	826.12
476.158	882.12
476.377	866.12
476.596	832.12
476.814	816.12
477.033	769.12
477.252	798.12
477.471	885.12
477.69	946.12
477.908	964.12
478.127	1012.12
478.346	993.12
478.564	989.12
478.783	987.12
479.002	1057.12
479.22	1051.12
479.439	1007.12
479.658	942.12
479.876	928.12
480.095	904.12
480.313	985.12
480.532	1003.12
480.751	931.12
480.969	856.12
481.188	819.12
481.406	802.12
481.624	783.12
481.843	780.12
482.061	788.12
482.28	846.12
482.498	843.12
482.717	830.12
482.935	912.12
483.153	978.12
483.372	1066.12
483.59	1038.12
483.808	989.12
484.027	914.12
484.245	929.12
484.463	968.12
484.681	1037.12
484.9	1020.12
485.118	990.12
485.336	958.12
485.554	865.12
485.772	855.12
485.99	840.12
486.209	871.12
486.427	906.12
486.645	968.12
486.863	1047.12
487.081	1065.12
487.299	1040.12
487.517	1049.12
487.735	1182.12
487.953	1278.12
488.171	1291.12
488.389	1231.12
488.607	1139.12
488.825	1046.12
489.043	1011.12
489.261	1022.12
489.479	1050.12
489.696	1064.12
489.914	1059.12
490.132	1103.12
490.35	1176.12
490.568	1256.12
490.786	1350.12
491.003	1434.12
491.221	1430.12
491.439	1478.12
491.657	1565.12
491.874	1642.12
492.092	1753.12
492.31	1853.12
492.527	1813.12
492.745	1686.12
492.963	1570.12
493.18	1523.12
493.398	1502.12
493.615	1522.12
493.833	1499.12
494.05	1499.12
494.268	1483.12
494.485	1471.12
494.703	1484.12
494.92	1477.12
495.138	1481.12
495.355	1460.12
495.573	1466.12
495.79	1435.12
496.008	1447.12
496.225	1411.12
496.442	1419.12
496.66	1428.12
496.877	1426.12
497.094	1386.12
497.312	1370.12
497.529	1374.12
497.746	1350.12
497.963	1264.12
498.181	1254.12
498.398	1253.12
498.615	1260.12
498.832	1293.12
499.049	1360.12
499.267	1437.12
499.484	1568.12
499.701	1667.12
499.918	1829.12
500.135	1982.12
500.352	2143.12
500.569	2190.12
500.786	2222.12
501.003	2110.12
501.22	2014.12
501.437	1846.12
501.654	1700.12
501.871	1619.12
502.088	1490.12
502.305	1436.12
502.522	1370.12
502.739	1366.12
502.956	1281.12
503.172	1224.12
503.389	1175.12
503.606	1149.12
503.823	1147.12
504.04	1150.12
504.256	1131.12
504.473	1135.12
504.69	1170.12
504.907	1123.12
505.123	1098.12
505.34	1112.12
505.557	1081.12
505.773	1069.12
505.99	1069.12
506.207	1037.12
506.423	1034.12
506.64	1054.12
506.856	994.12
507.073	998.12
507.289	986.12
507.506	995.12
507.722	989.12
507.939	972.12
508.155	972.12
508.372	918.12
508.588	902.12
508.805	889.12
509.021	886.12
509.238	902.12
509.454	896.12
509.67	875.12
509.887	828.12
510.103	813.12
510.319	817.12
510.536	899.12
510.752	1325.12
510.968	1032.12
511.184	765.12
511.401	740.12
511.617	718.12
511.833	739.12
512.049	731.12
512.265	779.12
512.481	764.12
512.698	786.12
512.914	774.12
513.13	757.12
513.346	737.12
513.562	725.12
513.778	761.12
513.994	755.12
514.21	753.12
514.426	769.12
514.642	808.12
514.858	842.12
515.074	856.12
515.29	979.12
515.506	1352.12
515.721	1122.12
515.937	849.12
516.153	840.12
516.369	825.12
516.585	777.12
516.801	842.12
517.016	857.12
517.232	878.12
517.448	912.12
517.664	946.12
517.879	943.12
518.095	951.12
518.311	954.12
518.527	901.12
518.742	877.12
518.958	875.12
519.173	882.12
519.389	870.12
519.605	897.12
519.82	864.12
520.036	874.12
520.251	891.12
520.467	880.12
520.682	852.12
520.898	825.12
521.113	849.12
521.329	843.12
521.544	881.12
521.76	1080.12
521.975	1685.12
522.19	1569.12
522.406	993.12
522.621	802.12
522.836	787.12
523.052	816.12
523.267	788.12
523.482	779.12
523.698	813.12
523.913	827.12
524.128	837.12
524.343	802.12
524.559	816.12
524.774	846.12
524.989	838.12
525.204	811.12
525.419	805.12
525.634	780.12
525.849	748.12
526.064	734.12
526.28	731.12
526.495	687.12
526.71	635.12
526.925	642.12
527.14	621.12
527.355	637.12
527.57	651.12
527.785	660.12
527.999	663.12
528.214	698.12
528.429	763.12
528.644	813.12
528.859	881.12
529.074	959.12
529.289	1036.12
529.503	1064.12
529.718	922.12
529.933	811.12
530.148	715.12
530.363	655.12
530.577	640.12
530.792	618.12
531.007	612.12
531.221	611.12
531.436	615.12
531.651	587.12
531.865	625.12
532.08	631.12
532.295	620.12
532.509	591.12
532.724	613.12
532.938	657.12
533.153	699.12
533.367	752.12
533.582	796.12
533.796	796.12
534.011	747.12
534.225	659.12
534.44	632.12
534.654	640.12
534.868	648.12
535.083	638.12
535.297	666.12
535.511	694.12
535.726	700.12
535.94	674.12
536.154	636.12
536.369	618.12
536.583	606.12
536.797	589.12
537.011	584.12
537.225	600.12
537.44	618.12
537.654	618.12
537.868	606.12
538.082	611.12
538.296	608.12
538.51	668.12
538.724	750.12
538.938	766.12
539.153	818.12
539.367	811.12
539.581	734.12
539.795	688.12
540.009	627.12
540.222	670.12
540.436	699.12
540.65	759.12
540.864	859.12
541.078	932.12
541.292	1010.12
541.506	1117.12
541.72	1243.12
541.934	1329.12
542.147	1374.12
542.361	1297.12
542.575	1121.12
542.789	1059.12
543.002	895.12
543.216	881.12
543.43	852.12
543.644	912.12
543.857	1012.12
544.071	1158.12
544.285	1130.12
544.498	1183.12
544.712	1168.12
544.925	1215.12
545.139	1210.12
545.352	1219.12
545.566	1228.12
545.779	1250.12
545.993	1252.12
546.206	1283.12
546.42	1281.12
546.633	1268.12
546.847	1274.12
547.06	1264.12
547.274	1292.12
547.487	1336.12
547.7	1369.12
547.914	1313.12
548.127	1232.12
548.34	1238.12
548.554	1232.12
548.767	1233.12
548.98	1229.12
549.193	1204.12
549.407	1204.12
549.62	1187.12
549.833	1236.12
550.046	1200.12
550.259	1162.12
550.473	1160.12
550.686	1159.12
550.899	1100.12
551.112	1131.12
551.325	1072.12
551.538	1001.12
551.751	866.12
551.964	813.12
552.177	945.12
552.39	1028.12
552.603	1121.12
552.816	1171.12
553.029	1191.12
553.242	1225.12
553.455	1267.12
553.667	1284.12
553.88	1232.12
554.093	1188.12
554.306	1211.12
554.519	1174.12
554.732	1161.12
554.944	1142.12
555.157	1110.12
555.37	1100.12
555.583	1081.12
555.795	1016.12
556.008	989.12
556.221	962.12
556.433	966.12
556.646	994.12
556.859	983.12
557.071	1018.12
557.284	1023.12
557.496	1018.12
557.709	999.12
557.921	1018.12
558.134	993.12
558.346	991.12
558.559	983.12
558.771	938.12
558.984	914.12
559.196	925.12
559.409	907.12
559.621	894.12
559.833	865.12
560.046	898.12
560.258	903.12
560.47	922.12
560.683	891.12
560.895	912.12
561.107	898.12
561.32	917.12
561.532	883.12
561.744	892.12
561.956	910.12
562.168	888.12
562.381	913.12
562.593	874.12
562.805	872.12
563.017	887.12
563.229	861.12
563.441	859.12
563.653	844.12
563.865	883.12
564.077	836.12
564.289	846.12
564.501	836.12
564.713	809.12
564.925	828.12
565.137	847.12
565.349	854.12
565.561	855.12
565.773	858.12
565.985	877.12
566.197	916.12
566.408	962.12
566.62	1008.12
566.832	1044.12
567.044	1000.12
567.255	1034.12
567.467	1023.12
567.679	1003.12
567.891	987.12
568.102	989.12
568.314	883.12
568.526	798.12
568.737	730.12
568.949	660.12
569.161	604.12
569.372	613.12
569.584	576.12
569.795	560.12
570.007	539.12
570.218	616.12
570.43	578.12
570.641	589.12
570.853	611.12
571.064	662.12
571.276	676.12
571.487	675.12
571.698	651.12
571.91	651.12
572.121	591.12
572.333	608.12
572.544	535.12
572.755	541.12
572.966	478.12
573.178	463.12
573.389	442.12
573.6	456.12
573.811	457.12
574.023	458.12
574.234	445.12
574.445	481.12
574.656	476.12
574.867	481.12
575.078	513.12
575.289	521.12
575.501	513.12
575.712	489.12
575.923	481.12
576.134	521.12
576.345	525.12
576.556	542.12
576.767	523.12
576.978	536.12
577.188	527.12
577.399	488.12
577.61	479.12
577.821	498.12
578.032	480.12
578.243	516.12
578.454	655.12
578.665	515.12
578.875	421.12
579.086	422.12
579.297	428.12
579.508	383.12
579.718	396.12
579.929	377.12
580.14	408.12
580.35	404.12
580.561	417.12
580.772	431.12
580.982	444.12
581.193	446.12
581.403	448.12
581.614	453.12
581.825	432.12
582.035	417.12
582.246	449.12
582.456	442.12
582.667	428.12
582.877	436.12
583.087	431.12
583.298	407.12
583.508	419.12
583.719	402.12
583.929	383.12
584.139	388.12
584.35	386.12
584.56	387.12
584.77	399.12
584.981	402.12
585.191	402.12
585.401	415.12
585.611	392.12
585.821	391.12
586.032	388.12
586.242	377.12
586.452	390.12
586.662	388.12
586.872	369.12
587.082	384.12
587.292	390.12
587.502	362.12
587.713	397.12
587.923	398.12
588.133	372.12
588.343	372.12
588.553	367.12
588.762	378.12
588.972	386.12
589.182	377.12
589.392	351.12
589.602	372.12
589.812	375.12
590.022	386.12
590.232	391.12
590.441	383.12
590.651	372.12
590.861	383.12
591.071	372.12
591.281	410.12
591.49	388.12
591.7	397.12
591.91	414.12
592.119	410.12
592.329	422.12
592.539	443.12
592.748	438.12
592.958	461.12
593.167	438.12
593.377	464.12
593.587	483.12
593.796	458.12
594.006	482.12
594.215	500.12
594.424	530.12
594.634	521.12
594.843	520.12
595.053	529.12
595.262	490.12
595.472	463.12
595.681	456.12
595.89	414.12
596.1	414.12
596.309	430.12
596.518	425.12
596.727	485.12
596.937	494.12
597.146	473.12
597.355	456.12
597.564	428.12
597.774	416.12
597.983	375.12
598.192	386.12
598.401	369.12
598.61	383.12
598.819	388.12
599.028	422.12
599.237	416.12
599.446	431.12
599.655	418.12
599.864	410.12
600.073	416.12
600.282	433.12
600.491	434.12
600.7	426.12
600.909	440.12
601.118	474.12
601.327	514.12
601.536	576.12
601.745	615.12
601.953	645.12
602.162	615.12
602.371	635.12
602.58	642.12
602.789	636.12
602.997	585.12
603.206	615.12
603.415	642.12
603.623	621.12
603.832	637.12
604.041	623.12
604.249	521.12
604.458	481.12
604.666	492.12
604.875	479.12
605.084	518.12
605.292	574.12
605.501	656.12
605.709	686.12
605.918	720.12
606.126	694.12
606.334	727.12
606.543	690.12
606.751	716.12
606.96	709.12
607.168	690.12
607.376	678.12
607.585	700.12
607.793	677.12
608.001	705.12
608.21	706.12
608.418	725.12
608.626	729.12
608.834	715.12
609.043	730.12
609.251	732.12
609.459	723.12
609.667	729.12
609.875	775.12
610.083	775.12
610.291	754.12
610.499	744.12
610.707	749.12
610.916	791.12
611.124	773.12
611.332	789.12
611.54	823.12
611.748	786.12
611.955	796.12
612.163	785.12
612.371	806.12
612.579	756.12
612.787	752.12
612.995	768.12
613.203	784.12
613.411	755.12
613.618	742.12
613.826	750.12
614.034	738.12
614.242	743.12
614.449	737.12
614.657	758.12
614.865	731.12
615.072	767.12
615.28	764.12
615.488	747.12
615.695	746.12
615.903	776.12
616.111	756.12
616.318	766.12
616.526	781.12
616.733	770.12
616.941	750.12
617.148	723.12
617.356	740.12
617.563	738.12
617.771	695.12
617.978	653.12
618.185	711.12
618.393	700.12
618.6	740.12
618.807	719.12
619.015	740.12
619.222	730.12
619.429	696.12
619.637	608.12
619.844	561.12
620.051	579.12
620.258	640.12
620.466	673.12
620.673	651.12
620.88	653.12
621.087	636.12
621.294	622.12
621.501	576.12
621.708	592.12
621.915	638.12
622.122	672.12
622.329	661.12
622.536	708.12
622.743	656.12
622.95	666.12
623.157	664.12
623.364	675.12
623.571	676.12
623.778	680.12
623.985	675.12
624.192	663.12
624.399	651.12
624.606	659.12
624.812	624.12
625.019	599.12
625.226	579.12
625.433	547.12
625.639	502.12
625.846	483.12
626.053	427.12
626.259	392.12
626.466	396.12
626.673	408.12
626.879	390.12
627.086	432.12
627.293	512.12
627.499	566.12
627.706	586.12
627.912	609.12
628.119	651.12
628.325	638.12
628.532	623.12
628.738	592.12
628.945	581.12
629.151	568.12
629.357	559.12
629.564	550.12
629.77	569.12
629.976	535.12
630.183	484.12
630.389	519.12
630.595	560.12
630.802	558.12
631.008	573.12
631.214	548.12
631.42	522.12
631.627	479.12
631.833	492.12
632.039	499.12
632.245	541.12
632.451	526.12
632.657	494.12
632.863	525.12
633.069	494.12
633.275	498.12
633.481	489.12
633.688	463.12
633.893	503.12
634.099	499.12
634.305	488.12
634.511	462.12
634.717	441.12
634.923	415.12
635.129	390.12
635.335	413.12
635.541	402.12
635.747	434.12
635.952	465.12
636.158	495.12
636.364	527.12
636.57	536.12
636.775	523.12
636.981	541.12
637.187	524.12
637.392	502.12
637.598	519.12
637.804	523.12
638.009	510.12
638.215	499.12
638.421	514.12
638.626	522.12
638.832	492.12
639.037	470.12
639.243	462.12
639.448	498.12
639.654	470.12
639.859	462.12
640.065	471.12
640.27	505.12
640.475	462.12
640.681	471.12
640.886	496.12
641.091	473.12
641.297	488.12
641.502	495.12
641.707	503.12
641.913	517.12
642.118	515.12
642.323	495.12
642.528	483.12
642.733	490.12
642.939	459.12
643.144	470.12
643.349	468.12
643.554	468.12
643.759	480.12
643.964	449.12
644.169	443.12
644.374	449.12
644.579	455.12
644.784	463.12
644.989	487.12
645.194	462.12
645.399	472.12
645.604	460.12
645.809	483.12
646.014	447.12
646.219	465.12
646.423	473.12
646.628	455.12
646.833	468.12
647.038	448.12
647.243	459.12
647.447	460.12
647.652	468.12
647.857	459.12
648.062	454.12
648.266	455.12
648.471	470.12
648.676	478.12
648.88	443.12
649.085	452.12
649.289	467.12
649.494	476.12
649.698	482.12
649.903	472.12
650.107	448.12
650.312	438.12
650.516	426.12
650.721	435.12
650.925	426.12
651.13	425.12
651.334	406.12
651.539	412.12
651.743	406.12
651.947	402.12
652.152	399.12
652.356	386.12
652.56	374.12
652.764	368.12
652.969	355.12
653.173	346.12
653.377	346.12
653.581	341.12
653.785	345.12
653.99	321.12
654.194	338.12
654.398	326.12
654.602	329.12
654.806	334.12
655.01	308.12
655.214	313.12
655.418	311.12
655.622	291.12
655.826	313.12
656.03	298.12
656.234	313.12
656.438	304.12
656.642	287.12
656.846	282.12
657.049	266.12
657.253	249.12
657.457	259.12
657.661	244.12
657.865	236.12
658.068	222.12
658.272	215.12
658.476	207.12
658.68	185.12
658.883	188.12
659.087	197.12
659.291	172.12
659.494	193.12
659.698	185.12
659.901	184.12
660.105	162.12
660.309	162.12
660.512	145.12
660.716	148.12
660.919	146.12
661.123	143.12
661.326	131.12
661.53	134.12
661.733	136.12
661.936	111.12
662.14	104.12
662.343	97.12
662.546	118.12
662.75	122.12
662.953	105.12
663.156	87.12
663.36	97.12
663.563	101.12
663.766	96.12
663.969	99.12
664.173	103.12
664.376	97.12
664.579	105.12
664.782	82.12
664.985	90.12
665.188	95.12
665.391	93.12
665.594	92.12
665.797	92.12
666	94.12
666.203	78.12
666.406	82.12
666.609	84.12
666.812	91.12
667.015	86.12
667.218	88.12
667.421	103.12
667.624	86.12
667.827	91.12
668.03	80.12
668.232	79.12
668.435	96.12
668.638	84.12
668.841	93.12
669.043	84.12
669.246	94.12
669.449	96.12
669.651	72.12
669.854	71.12
670.057	84.12
670.259	87.12
670.462	83.12
670.665	98.12
670.867	87.12
671.07	68.12
671.272	96.12
671.475	96.12
671.677	94.12
671.88	95.12
672.082	84.12
672.284	76.12
672.487	89.12
672.689	89.12
672.892	87.12
