Data from FlinnAP9092KCOPPER.07152019.QSWITCHSynchronous.EN10.20scans.P1_HRD10591_14-49-31-574.txt Node
Date: Mon Jul 15 14:49:31 EDT 2019
User: cochatt
Spectrometer: HR+D1059
Trigger mode: 5
Integration Time (sec): 1.000000E-1
Scans to average: 1
Electric dark correction enabled: true
Nonlinearity correction enabled: false
Boxcar width: 0
XAxis mode: Wavelengths
Number of Pixels in Spectrum: 2048
>>>>>Begin Spectral Data<<<<<
223.165	-43.88
223.4	-43.88
223.635	-43.88
223.869	-34.88
224.104	-48.88
224.338	3.12
224.573	-7.88
224.808	-16.88
225.042	-0.88
225.277	-2.88
225.511	-3.88
225.746	31.12
225.98	15.12
226.215	17.12
226.449	20.12
226.683	14.12
226.918	15.12
227.152	44.12
227.387	46.12
227.621	39.12
227.856	69.12
228.09	61.12
228.324	48.12
228.559	76.12
228.793	95.12
229.027	185.12
229.262	240.12
229.496	220.12
229.73	262.12
229.964	350.12
230.199	267.12
230.433	209.12
230.667	217.12
230.901	214.12
231.136	185.12
231.37	184.12
231.604	205.12
231.838	203.12
232.072	207.12
232.306	204.12
232.541	192.12
232.775	197.12
233.009	202.12
233.243	212.12
233.477	215.12
233.711	199.12
233.945	213.12
234.179	223.12
234.413	234.12
234.647	225.12
234.881	202.12
235.115	222.12
235.349	225.12
235.583	234.12
235.817	239.12
236.051	254.12
236.285	259.12
236.519	238.12
236.753	256.12
236.987	283.12
237.221	347.12
237.455	517.12
237.689	408.12
237.922	288.12
238.156	270.12
238.39	263.12
238.624	238.12
238.858	248.12
239.091	266.12
239.325	262.12
239.559	235.12
239.793	269.12
240.027	298.12
240.26	293.12
240.494	367.12
240.728	322.12
240.961	336.12
241.195	320.12
241.429	298.12
241.662	243.12
241.896	270.12
242.13	251.12
242.363	262.12
242.597	268.12
242.83	291.12
243.064	275.12
243.298	271.12
243.531	269.12
243.765	293.12
243.998	301.12
244.232	315.12
244.465	294.12
244.699	304.12
244.932	273.12
245.166	301.12
245.399	316.12
245.633	295.12
245.866	296.12
246.099	293.12
246.333	319.12
246.566	304.12
246.8	324.12
247.033	317.12
247.266	332.12
247.5	332.12
247.733	356.12
247.966	379.12
248.2	352.12
248.433	348.12
248.666	345.12
248.899	413.12
249.133	444.12
249.366	492.12
249.599	443.12
249.832	381.12
250.066	400.12
250.299	396.12
250.532	409.12
250.765	415.12
250.998	483.12
251.231	501.12
251.465	465.12
251.698	419.12
251.931	419.12
252.164	416.12
252.397	413.12
252.63	398.12
252.863	434.12
253.096	456.12
253.329	535.12
253.562	489.12
253.795	459.12
254.028	469.12
254.261	457.12
254.494	484.12
254.727	596.12
254.96	695.12
255.193	607.12
255.426	520.12
255.659	472.12
255.892	482.12
256.124	431.12
256.357	443.12
256.59	449.12
256.823	418.12
257.056	446.12
257.289	416.12
257.521	443.12
257.754	442.12
257.987	441.12
258.22	461.12
258.452	432.12
258.685	438.12
258.918	434.12
259.151	449.12
259.383	486.12
259.616	497.12
259.849	517.12
260.081	531.12
260.314	599.12
260.547	606.12
260.779	547.12
261.012	489.12
261.244	494.12
261.477	511.12
261.71	477.12
261.942	482.12
262.175	519.12
262.407	522.12
262.64	472.12
262.872	475.12
263.105	469.12
263.337	492.12
263.57	487.12
263.802	499.12
264.035	471.12
264.267	479.12
264.499	460.12
264.732	471.12
264.964	474.12
265.197	490.12
265.429	489.12
265.661	483.12
265.894	489.12
266.126	507.12
266.358	486.12
266.591	478.12
266.823	527.12
267.055	488.12
267.287	529.12
267.52	490.12
267.752	515.12
267.984	503.12
268.216	490.12
268.448	535.12
268.681	518.12
268.913	571.12
269.145	627.12
269.377	664.12
269.609	655.12
269.841	643.12
270.073	611.12
270.306	678.12
270.538	745.12
270.77	763.12
271.002	695.12
271.234	657.12
271.466	673.12
271.698	743.12
271.93	749.12
272.162	775.12
272.394	771.12
272.626	689.12
272.858	641.12
273.09	628.12
273.322	604.12
273.553	581.12
273.785	599.12
274.017	574.12
274.249	570.12
274.481	599.12
274.713	603.12
274.945	648.12
275.176	613.12
275.408	638.12
275.64	610.12
275.872	575.12
276.104	596.12
276.335	598.12
276.567	603.12
276.799	647.12
277.031	719.12
277.262	798.12
277.494	801.12
277.726	721.12
277.957	660.12
278.189	627.12
278.421	630.12
278.652	628.12
278.884	633.12
279.115	621.12
279.347	622.12
279.579	611.12
279.81	602.12
280.042	595.12
280.273	595.12
280.505	603.12
280.736	599.12
280.968	630.12
281.199	634.12
281.431	625.12
281.662	627.12
281.894	649.12
282.125	649.12
282.356	688.12
282.588	713.12
282.819	751.12
283.051	657.12
283.282	644.12
283.513	664.12
283.745	661.12
283.976	654.12
284.207	665.12
284.439	669.12
284.67	694.12
284.901	661.12
285.132	666.12
285.364	649.12
285.595	667.12
285.826	665.12
286.057	683.12
286.288	670.12
286.52	699.12
286.751	666.12
286.982	668.12
287.213	653.12
287.444	698.12
287.675	678.12
287.906	704.12
288.138	738.12
288.369	749.12
288.6	734.12
288.831	717.12
289.062	721.12
289.293	716.12
289.524	697.12
289.755	693.12
289.986	662.12
290.217	673.12
290.448	686.12
290.679	727.12
290.91	683.12
291.141	687.12
291.371	726.12
291.602	680.12
291.833	701.12
292.064	682.12
292.295	703.12
292.526	706.12
292.757	702.12
292.987	693.12
293.218	701.12
293.449	710.12
293.68	683.12
293.91	672.12
294.141	684.12
294.372	680.12
294.603	684.12
294.833	695.12
295.064	701.12
295.295	702.12
295.525	655.12
295.756	721.12
295.987	723.12
296.217	742.12
296.448	812.12
296.679	737.12
296.909	712.12
297.14	721.12
297.37	711.12
297.601	712.12
297.831	716.12
298.062	738.12
298.292	724.12
298.523	741.12
298.753	739.12
298.984	743.12
299.214	707.12
299.445	759.12
299.675	725.12
299.905	765.12
300.136	732.12
300.366	742.12
300.597	765.12
300.827	785.12
301.057	793.12
301.288	814.12
301.518	804.12
301.748	813.12
301.979	787.12
302.209	796.12
302.439	795.12
302.669	797.12
302.9	771.12
303.13	773.12
303.36	784.12
303.59	803.12
303.82	812.12
304.051	811.12
304.281	773.12
304.511	792.12
304.741	770.12
304.971	771.12
305.201	783.12
305.431	741.12
305.661	763.12
305.891	776.12
306.121	803.12
306.352	770.12
306.582	776.12
306.812	748.12
307.042	771.12
307.272	739.12
307.502	752.12
307.731	781.12
307.961	780.12
308.191	770.12
308.421	775.12
308.651	791.12
308.881	800.12
309.111	763.12
309.341	779.12
309.571	792.12
309.8	840.12
310.03	864.12
310.26	856.12
310.49	851.12
310.72	844.12
310.949	916.12
311.179	942.12
311.409	873.12
311.639	859.12
311.868	864.12
312.098	887.12
312.328	869.12
312.557	927.12
312.787	973.12
313.017	965.12
313.246	900.12
313.476	852.12
313.706	846.12
313.935	886.12
314.165	927.12
314.394	952.12
314.624	941.12
314.853	932.12
315.083	877.12
315.312	862.12
315.542	847.12
315.771	840.12
316.001	849.12
316.23	859.12
316.46	826.12
316.689	837.12
316.919	871.12
317.148	912.12
317.377	918.12
317.607	892.12
317.836	873.12
318.065	832.12
318.295	843.12
318.524	854.12
318.753	822.12
318.983	844.12
319.212	832.12
319.441	847.12
319.67	876.12
319.9	880.12
320.129	820.12
320.358	861.12
320.587	839.12
320.816	877.12
321.046	881.12
321.275	905.12
321.504	872.12
321.733	884.12
321.962	869.12
322.191	907.12
322.42	951.12
322.649	997.12
322.878	1013.12
323.108	999.12
323.337	1072.12
323.566	1095.12
323.795	1149.12
324.024	1240.12
324.253	1501.12
324.482	2217.12
324.71	3730.12
324.939	5820.12
325.168	5041.12
325.397	2059.12
325.626	1290.12
325.855	1085.12
326.084	1042.12
326.313	1062.12
326.542	1071.12
326.77	1205.12
326.999	1429.12
327.228	2022.12
327.457	3354.12
327.686	4482.12
327.914	2575.12
328.143	1510.12
328.372	1336.12
328.6	1278.12
328.829	1232.12
329.058	1286.12
329.287	1350.12
329.515	1226.12
329.744	1122.12
329.972	1065.12
330.201	1071.12
330.43	1109.12
330.658	1251.12
330.887	1437.12
331.115	1477.12
331.344	1197.12
331.572	1122.12
331.801	1123.12
332.03	1131.12
332.258	1114.12
332.486	1063.12
332.715	1052.12
332.943	1087.12
333.172	1142.12
333.4	1115.12
333.629	1176.12
333.857	1159.12
334.085	1175.12
334.314	1159.12
334.542	1121.12
334.771	1109.12
334.999	1118.12
335.227	1106.12
335.455	1105.12
335.684	1099.12
335.912	1110.12
336.14	1055.12
336.369	1033.12
336.597	1093.12
336.825	1075.12
337.053	1025.12
337.281	997.12
337.51	1019.12
337.738	1055.12
337.966	998.12
338.194	1018.12
338.422	989.12
338.65	1030.12
338.878	1003.12
339.106	975.12
339.334	998.12
339.562	956.12
339.79	979.12
340.018	971.12
340.246	976.12
340.474	1000.12
340.702	996.12
340.93	972.12
341.158	959.12
341.386	965.12
341.614	991.12
341.842	979.12
342.07	953.12
342.298	964.12
342.526	962.12
342.754	935.12
342.981	939.12
343.209	930.12
343.437	986.12
343.665	1009.12
343.893	1081.12
344.12	1099.12
344.348	1081.12
344.576	1042.12
344.804	1015.12
345.031	1021.12
345.259	1055.12
345.487	1016.12
345.714	983.12
345.942	951.12
346.17	936.12
346.397	925.12
346.625	945.12
346.853	930.12
347.08	912.12
347.308	922.12
347.535	928.12
347.763	964.12
347.99	951.12
348.218	959.12
348.445	937.12
348.673	975.12
348.9	921.12
349.128	932.12
349.355	886.12
349.583	885.12
349.81	891.12
350.037	883.12
350.265	890.12
350.492	879.12
350.72	891.12
350.947	901.12
351.174	943.12
351.402	935.12
351.629	935.12
351.856	922.12
352.083	938.12
352.311	956.12
352.538	945.12
352.765	963.12
352.992	949.12
353.22	929.12
353.447	890.12
353.674	903.12
353.901	883.12
354.128	878.12
354.355	838.12
354.583	862.12
354.81	861.12
355.037	885.12
355.264	870.12
355.491	850.12
355.718	812.12
355.945	840.12
356.172	825.12
356.399	821.12
356.626	825.12
356.853	862.12
357.08	829.12
357.307	853.12
357.534	828.12
357.761	840.12
357.988	864.12
358.215	834.12
358.441	819.12
358.668	856.12
358.895	862.12
359.122	863.12
359.349	877.12
359.576	888.12
359.802	935.12
360.029	1053.12
360.256	1094.12
360.483	1035.12
360.709	919.12
360.936	933.12
361.163	913.12
361.39	886.12
361.616	928.12
361.843	898.12
362.07	895.12
362.296	933.12
362.523	909.12
362.749	896.12
362.976	874.12
363.203	903.12
363.429	863.12
363.656	878.12
363.882	848.12
364.109	879.12
364.335	864.12
364.562	860.12
364.788	832.12
365.015	855.12
365.241	870.12
365.468	899.12
365.694	883.12
365.92	884.12
366.147	863.12
366.373	844.12
366.599	859.12
366.826	840.12
367.052	852.12
367.278	857.12
367.505	876.12
367.731	906.12
367.957	853.12
368.184	864.12
368.41	886.12
368.636	905.12
368.862	953.12
369.089	897.12
369.315	888.12
369.541	889.12
369.767	897.12
369.993	876.12
370.219	890.12
370.445	878.12
370.672	855.12
370.898	884.12
371.124	887.12
371.35	898.12
371.576	862.12
371.802	867.12
372.028	857.12
372.254	909.12
372.48	876.12
372.706	921.12
372.932	919.12
373.158	906.12
373.384	934.12
373.61	926.12
373.835	957.12
374.061	896.12
374.287	935.12
374.513	937.12
374.739	947.12
374.965	925.12
375.191	952.12
375.416	968.12
375.642	936.12
375.868	939.12
376.094	909.12
376.319	913.12
376.545	911.12
376.771	912.12
376.997	899.12
377.222	896.12
377.448	897.12
377.674	892.12
377.899	899.12
378.125	894.12
378.35	917.12
378.576	895.12
378.802	928.12
379.027	894.12
379.253	907.12
379.478	895.12
379.704	903.12
379.929	936.12
380.155	896.12
380.38	897.12
380.606	918.12
380.831	936.12
381.057	965.12
381.282	896.12
381.507	941.12
381.733	935.12
381.958	922.12
382.184	922.12
382.409	961.12
382.634	970.12
382.86	942.12
383.085	959.12
383.31	1004.12
383.535	991.12
383.761	1012.12
383.986	1013.12
384.211	1031.12
384.436	1040.12
384.662	1013.12
384.887	1054.12
385.112	1020.12
385.337	1074.12
385.562	1040.12
385.787	1074.12
386.013	1163.12
386.238	1121.12
386.463	1063.12
386.688	1085.12
386.913	1087.12
387.138	1068.12
387.363	1063.12
387.588	1102.12
387.813	1080.12
388.038	1057.12
388.263	1084.12
388.488	1041.12
388.713	1048.12
388.938	1073.12
389.163	1094.12
389.387	1070.12
389.612	1076.12
389.837	1061.12
390.062	1085.12
390.287	1091.12
390.512	1046.12
390.736	1062.12
390.961	1091.12
391.186	1130.12
391.411	1122.12
391.636	1145.12
391.86	1137.12
392.085	1175.12
392.31	1199.12
392.534	1151.12
392.759	1137.12
392.984	1136.12
393.208	1136.12
393.433	1121.12
393.658	1116.12
393.882	1105.12
394.107	1131.12
394.331	1106.12
394.556	1119.12
394.78	1118.12
395.005	1142.12
395.229	1143.12
395.454	1189.12
395.678	1206.12
395.903	1223.12
396.127	1271.12
396.352	1219.12
396.576	1132.12
396.801	1148.12
397.025	1152.12
397.249	1188.12
397.474	1219.12
397.698	1222.12
397.922	1271.12
398.147	1257.12
398.371	1277.12
398.595	1302.12
398.82	1284.12
399.044	1330.12
399.268	1483.12
399.492	1615.12
399.717	1819.12
399.941	1835.12
400.165	1834.12
400.389	1753.12
400.613	1548.12
400.837	1425.12
401.062	1392.12
401.286	1334.12
401.51	1322.12
401.734	1350.12
401.958	1365.12
402.182	1386.12
402.406	1408.12
402.63	1434.12
402.854	1459.12
403.078	1459.12
403.302	1472.12
403.526	1511.12
403.75	1559.12
403.974	1492.12
404.198	1505.12
404.422	1542.12
404.645	1549.12
404.869	1509.12
405.093	1557.12
405.317	1584.12
405.541	1613.12
405.765	1510.12
405.988	1501.12
406.212	1560.12
406.436	1591.12
406.66	1715.12
406.883	1605.12
407.107	1669.12
407.331	1825.12
407.555	2030.12
407.778	1967.12
408.002	1827.12
408.226	1641.12
408.449	1607.12
408.673	1548.12
408.896	1680.12
409.12	1765.12
409.344	1678.12
409.567	1488.12
409.791	1511.12
410.014	1535.12
410.238	1461.12
410.461	1461.12
410.685	1490.12
410.908	1515.12
411.132	1612.12
411.355	1672.12
411.578	1598.12
411.802	1463.12
412.025	1452.12
412.249	1426.12
412.472	1411.12
412.695	1438.12
412.919	1364.12
413.142	1408.12
413.365	1364.12
413.589	1371.12
413.812	1369.12
414.035	1393.12
414.258	1360.12
414.482	1404.12
414.705	1424.12
414.928	1379.12
415.151	1401.12
415.374	1387.12
415.597	1343.12
415.821	1384.12
416.044	1390.12
416.267	1400.12
416.49	1362.12
416.713	1397.12
416.936	1395.12
417.159	1402.12
417.382	1416.12
417.605	1412.12
417.828	1488.12
418.051	1517.12
418.274	1494.12
418.497	1423.12
418.72	1468.12
418.943	1477.12
419.166	1523.12
419.389	1601.12
419.611	1553.12
419.834	1549.12
420.057	1532.12
420.28	1517.12
420.503	1475.12
420.726	1401.12
420.948	1517.12
421.171	1658.12
421.394	1716.12
421.617	1545.12
421.839	1518.12
422.062	1536.12
422.285	1525.12
422.507	1658.12
422.73	1885.12
422.953	1788.12
423.175	1569.12
423.398	1561.12
423.621	1607.12
423.843	1711.12
424.066	1681.12
424.288	1654.12
424.511	1673.12
424.733	1844.12
424.956	2071.12
425.178	1939.12
425.401	1962.12
425.623	1979.12
425.846	1676.12
426.068	1590.12
426.291	1518.12
426.513	1507.12
426.735	1561.12
426.958	1658.12
427.18	1873.12
427.402	2253.12
427.625	2489.12
427.847	2085.12
428.069	1695.12
428.292	1544.12
428.514	1460.12
428.736	1410.12
428.958	1431.12
429.181	1381.12
429.403	1391.12
429.625	1423.12
429.847	1480.12
430.069	1715.12
430.292	1667.12
430.514	1412.12
430.736	1432.12
430.958	1411.12
431.18	1321.12
431.402	1341.12
431.624	1303.12
431.846	1251.12
432.068	1172.12
432.29	1231.12
432.512	1279.12
432.734	1369.12
432.956	1391.12
433.178	1470.12
433.4	1495.12
433.622	1427.12
433.844	1402.12
434.066	1318.12
434.287	1224.12
434.509	1252.12
434.731	1301.12
434.953	1381.12
435.175	1516.12
435.397	1609.12
435.618	1522.12
435.84	1637.12
436.062	2013.12
436.284	2082.12
436.505	1701.12
436.727	1579.12
436.949	1460.12
437.17	1425.12
437.392	1411.12
437.614	1394.12
437.835	1389.12
438.057	1691.12
438.278	1989.12
438.5	1951.12
438.721	2270.12
438.943	2153.12
439.165	1749.12
439.386	1617.12
439.608	1681.12
439.829	1652.12
440.05	1783.12
440.272	1983.12
440.493	1776.12
440.715	1629.12
440.936	1568.12
441.158	1570.12
441.379	1561.12
441.6	1641.12
441.822	1705.12
442.043	1819.12
442.264	2064.12
442.486	2083.12
442.707	1756.12
442.928	1740.12
443.149	1747.12
443.371	1874.12
443.592	1891.12
443.813	2227.12
444.034	2348.12
444.255	1903.12
444.476	1811.12
444.698	1826.12
444.919	1828.12
445.14	3299.12
445.361	2443.12
445.582	1920.12
445.803	2119.12
446.024	2427.12
446.245	2406.12
446.466	2181.12
446.687	1849.12
446.908	1697.12
447.129	1609.12
447.35	1559.12
447.571	1539.12
447.792	1488.12
448.013	1495.12
448.234	1529.12
448.455	1617.12
448.675	1945.12
448.896	2335.12
449.117	1858.12
449.338	1751.12
449.559	2166.12
449.779	2421.12
450	1851.12
450.221	1555.12
450.442	1468.12
450.662	1438.12
450.883	1452.12
451.104	1510.12
451.324	1430.12
451.545	1368.12
451.766	1364.12
451.986	1301.12
452.207	1259.12
452.428	1260.12
452.648	1252.12
452.869	1248.12
453.089	1247.12
453.31	1271.12
453.53	1202.12
453.751	1139.12
453.971	1138.12
454.192	1187.12
454.412	1164.12
454.633	1170.12
454.853	1206.12
455.073	1197.12
455.294	1283.12
455.514	1524.12
455.734	1432.12
455.955	1220.12
456.175	1121.12
456.395	1099.12
456.616	1066.12
456.836	1087.12
457.056	1079.12
457.276	1055.12
457.497	1073.12
457.717	1083.12
457.937	1119.12
458.157	1125.12
458.377	1126.12
458.598	1144.12
458.818	1294.12
459.038	1571.12
459.258	1599.12
459.478	1301.12
459.698	1187.12
459.918	1232.12
460.138	1268.12
460.358	1339.12
460.578	1357.12
460.798	1373.12
461.018	1404.12
461.238	1395.12
461.458	1377.12
461.678	1352.12
461.898	1357.12
462.118	1345.12
462.338	1424.12
462.558	1449.12
462.777	1484.12
462.997	1505.12
463.217	1592.12
463.437	1625.12
463.657	1544.12
463.876	1460.12
464.096	1480.12
464.316	1491.12
464.536	1509.12
464.755	1559.12
464.975	1512.12
465.195	1618.12
465.414	1742.12
465.634	1530.12
465.854	1388.12
466.073	1310.12
466.293	1318.12
466.512	1304.12
466.732	1264.12
466.951	1321.12
467.171	1314.12
467.391	1345.12
467.61	1369.12
467.829	1386.12
468.049	1364.12
468.268	1275.12
468.488	1272.12
468.707	1260.12
468.927	1299.12
469.146	1293.12
469.365	1339.12
469.585	1361.12
469.804	1372.12
470.023	1432.12
470.243	1463.12
470.462	1487.12
470.681	1493.12
470.901	1439.12
471.12	1391.12
471.339	1445.12
471.558	1415.12
471.777	1384.12
471.997	1281.12
472.216	1279.12
472.435	1215.12
472.654	1142.12
472.873	1158.12
473.092	1141.12
473.311	1192.12
473.53	1209.12
473.749	1243.12
473.968	1384.12
474.187	1711.12
474.406	1677.12
474.625	1375.12
474.844	1321.12
475.063	1261.12
475.282	1256.12
475.501	1221.12
475.72	1313.12
475.939	1241.12
476.158	1281.12
476.377	1274.12
476.596	1221.12
476.814	1260.12
477.033	1199.12
477.252	1251.12
477.471	1347.12
477.69	1387.12
477.908	1439.12
478.127	1433.12
478.346	1445.12
478.564	1494.12
478.783	1488.12
479.002	1543.12
479.22	1552.12
479.439	1549.12
479.658	1498.12
479.876	1499.12
480.095	1463.12
480.313	1664.12
480.532	1608.12
480.751	1525.12
480.969	1386.12
481.188	1381.12
481.406	1329.12
481.624	1275.12
481.843	1267.12
482.061	1270.12
482.28	1342.12
482.498	1313.12
482.717	1259.12
482.935	1390.12
483.153	1524.12
483.372	1535.12
483.59	1527.12
483.808	1475.12
484.027	1436.12
484.245	1459.12
484.463	1459.12
484.681	1531.12
484.9	1514.12
485.118	1511.12
485.336	1466.12
485.554	1409.12
485.772	1389.12
485.99	1392.12
486.209	1410.12
486.427	1450.12
486.645	1543.12
486.863	1633.12
487.081	1628.12
487.299	1599.12
487.517	1611.12
487.735	1767.12
487.953	1843.12
488.171	1896.12
488.389	1780.12
488.607	1695.12
488.825	1591.12
489.043	1537.12
489.261	1546.12
489.479	1579.12
489.696	1655.12
489.914	1663.12
490.132	1657.12
490.35	1755.12
490.568	1856.12
490.786	1931.12
491.003	2044.12
491.221	2099.12
491.439	2131.12
491.657	2237.12
491.874	2283.12
492.092	2393.12
492.31	2532.12
492.527	2444.12
492.745	2271.12
492.963	2189.12
493.18	2182.12
493.398	2228.12
493.615	2220.12
493.833	2188.12
494.05	2161.12
494.268	2129.12
494.485	2108.12
494.703	2137.12
494.92	2167.12
495.138	2140.12
495.355	2110.12
495.573	2148.12
495.79	2136.12
496.008	2091.12
496.225	2107.12
496.442	2069.12
496.66	2077.12
496.877	2075.12
497.094	2099.12
497.312	2057.12
497.529	2087.12
497.746	2019.12
497.963	2003.12
498.181	2002.12
498.398	1965.12
498.615	2039.12
498.832	2117.12
499.049	2114.12
499.267	2297.12
499.484	2462.12
499.701	2682.12
499.918	2850.12
500.135	3072.12
500.352	3386.12
500.569	3436.12
500.786	3509.12
501.003	3303.12
501.22	3143.12
501.437	2925.12
501.654	2757.12
501.871	2623.12
502.088	2438.12
502.305	2291.12
502.522	2156.12
502.739	2083.12
502.956	2012.12
503.172	1904.12
503.389	1868.12
503.606	1869.12
503.823	1848.12
504.04	1810.12
504.256	1835.12
504.473	1788.12
504.69	1833.12
504.907	1884.12
505.123	1721.12
505.34	1724.12
505.557	1727.12
505.773	1721.12
505.99	1696.12
506.207	1673.12
506.423	1621.12
506.64	1617.12
506.856	1557.12
507.073	1573.12
507.289	1606.12
507.506	1534.12
507.722	1548.12
507.939	1645.12
508.155	1561.12
508.372	1470.12
508.588	1452.12
508.805	1434.12
509.021	1459.12
509.238	1507.12
509.454	1512.12
509.67	1469.12
509.887	1352.12
510.103	1389.12
510.319	1363.12
510.536	1590.12
510.752	2535.12
510.968	1882.12
511.184	1302.12
511.401	1264.12
511.617	1293.12
511.833	1237.12
512.049	1248.12
512.265	1248.12
512.481	1284.12
512.698	1239.12
512.914	1271.12
513.13	1265.12
513.346	1232.12
513.562	1249.12
513.778	1256.12
513.994	1287.12
514.21	1319.12
514.426	1392.12
514.642	1469.12
514.858	1502.12
515.074	1579.12
515.29	1982.12
515.506	3050.12
515.721	2286.12
515.937	1565.12
516.153	1471.12
516.369	1418.12
516.585	1351.12
516.801	1372.12
517.016	1434.12
517.232	1494.12
517.448	1549.12
517.664	1536.12
517.879	1563.12
518.095	1570.12
518.311	1541.12
518.527	1466.12
518.742	1443.12
518.958	1421.12
519.173	1426.12
519.389	1421.12
519.605	1432.12
519.82	1375.12
520.036	1409.12
520.251	1429.12
520.467	1493.12
520.682	1409.12
520.898	1404.12
521.113	1474.12
521.329	1566.12
521.544	1736.12
521.76	2310.12
521.975	4160.12
522.19	3649.12
522.406	1958.12
522.621	1499.12
522.836	1370.12
523.052	1291.12
523.267	1246.12
523.482	1295.12
523.698	1240.12
523.913	1307.12
524.128	1315.12
524.343	1273.12
524.559	1284.12
524.774	1258.12
524.989	1291.12
525.204	1293.12
525.419	1264.12
525.634	1181.12
525.849	1188.12
526.064	1137.12
526.28	1125.12
526.495	1059.12
526.71	1048.12
526.925	1042.12
527.14	1015.12
527.355	1001.12
527.57	1032.12
527.785	1029.12
527.999	1042.12
528.214	1121.12
528.429	1165.12
528.644	1225.12
528.859	1285.12
529.074	1363.12
529.289	1500.12
529.503	1742.12
529.718	1460.12
529.933	1249.12
530.148	1132.12
530.363	1104.12
530.577	1039.12
530.792	997.12
531.007	988.12
531.221	1012.12
531.436	996.12
531.651	1035.12
531.865	1006.12
532.08	1009.12
532.295	1029.12
532.509	1007.12
532.724	1000.12
532.938	1021.12
533.153	1047.12
533.367	1109.12
533.582	1175.12
533.796	1188.12
534.011	1132.12
534.225	1047.12
534.44	1000.12
534.654	1032.12
534.868	1023.12
535.083	1029.12
535.297	1056.12
535.511	1111.12
535.726	1147.12
535.94	1088.12
536.154	1047.12
536.369	1023.12
536.583	967.12
536.797	969.12
537.011	961.12
537.225	967.12
537.44	958.12
537.654	1023.12
537.868	979.12
538.082	1011.12
538.296	1069.12
538.51	1076.12
538.724	1149.12
538.938	1191.12
539.153	1237.12
539.367	1248.12
539.581	1163.12
539.795	1081.12
540.009	1041.12
540.222	1062.12
540.436	1096.12
540.65	1185.12
540.864	1272.12
541.078	1406.12
541.292	1484.12
541.506	1581.12
541.72	1699.12
541.934	1793.12
542.147	1912.12
542.361	1844.12
542.575	1685.12
542.789	1613.12
543.002	1480.12
543.216	1417.12
543.43	1433.12
543.644	1540.12
543.857	1589.12
544.071	1664.12
544.285	1750.12
544.498	1695.12
544.712	1726.12
544.925	1720.12
545.139	1733.12
545.352	1762.12
545.566	1723.12
545.779	1752.12
545.993	1810.12
546.206	2026.12
546.42	2087.12
546.633	1715.12
546.847	1660.12
547.06	1675.12
547.274	1669.12
547.487	1749.12
547.7	1756.12
547.914	1688.12
548.127	1644.12
548.34	1620.12
548.554	1596.12
548.767	1626.12
548.98	1623.12
549.193	1587.12
549.407	1662.12
549.62	1635.12
549.833	1591.12
550.046	1595.12
550.259	1561.12
550.473	1534.12
550.686	1564.12
550.899	1529.12
551.112	1459.12
551.325	1426.12
551.538	1375.12
551.751	1247.12
551.964	1228.12
552.177	1348.12
552.39	1428.12
552.603	1507.12
552.816	1566.12
553.029	1610.12
553.242	1667.12
553.455	1688.12
553.667	1749.12
553.88	1705.12
554.093	1628.12
554.306	1594.12
554.519	1583.12
554.732	1502.12
554.944	1485.12
555.157	1477.12
555.37	1440.12
555.583	1395.12
555.795	1394.12
556.008	1274.12
556.221	1252.12
556.433	1299.12
556.646	1284.12
556.859	1318.12
557.071	1317.12
557.284	1307.12
557.496	1329.12
557.709	1295.12
557.921	1322.12
558.134	1319.12
558.346	1292.12
558.559	1270.12
558.771	1260.12
558.984	1213.12
559.196	1239.12
559.409	1235.12
559.621	1156.12
559.833	1110.12
560.046	1160.12
560.258	1197.12
560.47	1200.12
560.683	1197.12
560.895	1184.12
561.107	1197.12
561.32	1208.12
561.532	1190.12
561.744	1220.12
561.956	1196.12
562.168	1233.12
562.381	1188.12
562.593	1191.12
562.805	1181.12
563.017	1180.12
563.229	1170.12
563.441	1176.12
563.653	1128.12
563.865	1117.12
564.077	1121.12
564.289	1162.12
564.501	1184.12
564.713	1148.12
564.925	1169.12
565.137	1191.12
565.349	1180.12
565.561	1200.12
565.773	1224.12
565.985	1264.12
566.197	1283.12
566.408	1349.12
566.62	1442.12
566.832	1500.12
567.044	1531.12
567.255	1481.12
567.467	1470.12
567.679	1461.12
567.891	1523.12
568.102	1494.12
568.314	1437.12
568.526	1281.12
568.737	1174.12
568.949	1044.12
569.161	975.12
569.372	933.12
569.584	888.12
569.795	907.12
570.007	841.12
570.218	930.12
570.43	935.12
570.641	901.12
570.853	896.12
571.064	937.12
571.276	964.12
571.487	969.12
571.698	930.12
571.91	909.12
572.121	859.12
572.333	887.12
572.544	839.12
572.755	812.12
572.966	758.12
573.178	705.12
573.389	755.12
573.6	699.12
573.811	693.12
574.023	679.12
574.234	686.12
574.445	709.12
574.656	753.12
574.867	743.12
575.078	744.12
575.289	782.12
575.501	798.12
575.712	719.12
575.923	712.12
576.134	746.12
576.345	771.12
576.556	791.12
576.767	773.12
576.978	790.12
577.188	836.12
577.399	781.12
577.61	694.12
577.821	732.12
578.032	741.12
578.243	805.12
578.454	1178.12
578.665	861.12
578.875	679.12
579.086	666.12
579.297	687.12
579.508	637.12
579.718	653.12
579.929	659.12
580.14	657.12
580.35	675.12
580.561	679.12
580.772	707.12
580.982	677.12
581.193	711.12
581.403	708.12
581.614	684.12
581.825	704.12
582.035	658.12
582.246	689.12
582.456	696.12
582.667	677.12
582.877	700.12
583.087	648.12
583.298	683.12
583.508	679.12
583.719	636.12
583.929	699.12
584.139	668.12
584.35	651.12
584.56	663.12
584.77	655.12
584.981	681.12
585.191	680.12
585.401	659.12
585.611	649.12
585.821	645.12
586.032	607.12
586.242	610.12
586.452	622.12
586.662	633.12
586.872	630.12
587.082	619.12
587.292	645.12
587.502	685.12
587.713	682.12
587.923	664.12
588.133	621.12
588.343	623.12
588.553	627.12
588.762	672.12
588.972	638.12
589.182	621.12
589.392	607.12
589.602	643.12
589.812	609.12
590.022	688.12
590.232	629.12
590.441	634.12
590.651	614.12
590.861	632.12
591.071	636.12
591.281	631.12
591.49	619.12
591.7	672.12
591.91	667.12
592.119	639.12
592.329	679.12
592.539	714.12
592.748	724.12
592.958	739.12
593.167	719.12
593.377	761.12
593.587	801.12
593.796	760.12
594.006	759.12
594.215	759.12
594.424	777.12
594.634	786.12
594.843	765.12
595.053	758.12
595.262	730.12
595.472	707.12
595.681	657.12
595.89	665.12
596.1	656.12
596.309	678.12
596.518	672.12
596.727	723.12
596.937	684.12
597.146	676.12
597.355	660.12
597.564	624.12
597.774	633.12
597.983	592.12
598.192	558.12
598.401	565.12
598.61	550.12
598.819	599.12
599.028	594.12
599.237	604.12
599.446	601.12
599.655	613.12
599.864	605.12
600.073	618.12
600.282	638.12
600.491	619.12
600.7	615.12
600.909	612.12
601.118	668.12
601.327	721.12
601.536	757.12
601.745	756.12
601.953	811.12
602.162	790.12
602.371	808.12
602.58	788.12
602.789	775.12
602.997	792.12
603.206	806.12
603.415	827.12
603.623	807.12
603.832	793.12
604.041	778.12
604.249	713.12
604.458	665.12
604.666	601.12
604.875	638.12
605.084	705.12
605.292	774.12
605.501	815.12
605.709	859.12
605.918	889.12
606.126	940.12
606.334	870.12
606.543	835.12
606.751	888.12
606.96	863.12
607.168	842.12
607.376	831.12
607.585	887.12
607.793	869.12
608.001	853.12
608.21	918.12
608.418	926.12
608.626	918.12
608.834	905.12
609.043	899.12
609.251	929.12
609.459	891.12
609.667	977.12
609.875	949.12
610.083	983.12
610.291	954.12
610.499	963.12
610.707	1016.12
610.916	1049.12
611.124	1195.12
611.332	1310.12
611.54	1424.12
611.748	1351.12
611.955	1239.12
612.163	1116.12
612.371	1057.12
612.579	1003.12
612.787	999.12
612.995	1024.12
613.203	1046.12
613.411	971.12
613.618	978.12
613.826	963.12
614.034	971.12
614.242	964.12
614.449	973.12
614.657	985.12
614.865	972.12
615.072	931.12
615.28	963.12
615.488	948.12
615.695	935.12
615.903	941.12
616.111	952.12
616.318	975.12
616.526	957.12
616.733	999.12
616.941	953.12
617.148	954.12
617.356	915.12
617.563	877.12
617.771	873.12
617.978	807.12
618.185	862.12
618.393	897.12
618.6	920.12
618.807	904.12
619.015	922.12
619.222	867.12
619.429	862.12
619.637	807.12
619.844	731.12
620.051	780.12
620.258	810.12
620.466	853.12
620.673	854.12
620.88	835.12
621.087	824.12
621.294	815.12
621.501	767.12
621.708	763.12
621.915	816.12
622.122	855.12
622.329	847.12
622.536	856.12
622.743	861.12
622.95	821.12
623.157	797.12
623.364	840.12
623.571	846.12
623.778	842.12
623.985	851.12
624.192	846.12
624.399	827.12
624.606	839.12
624.812	800.12
625.019	760.12
625.226	747.12
625.433	725.12
625.639	659.12
625.846	624.12
626.053	556.12
626.259	550.12
626.466	575.12
626.673	539.12
626.879	525.12
627.086	584.12
627.293	653.12
627.499	720.12
627.706	750.12
627.912	766.12
628.119	770.12
628.325	793.12
628.532	752.12
628.738	713.12
628.945	693.12
629.151	704.12
629.357	688.12
629.564	692.12
629.77	726.12
629.976	655.12
630.183	639.12
630.389	637.12
630.595	701.12
630.802	703.12
631.008	719.12
631.214	720.12
631.42	675.12
631.627	683.12
631.833	615.12
632.039	640.12
632.245	645.12
632.451	667.12
632.657	633.12
632.863	624.12
633.069	629.12
633.275	627.12
633.481	580.12
633.688	588.12
633.893	624.12
634.099	601.12
634.305	616.12
634.511	605.12
634.717	557.12
634.923	507.12
635.129	515.12
635.335	526.12
635.541	540.12
635.747	526.12
635.952	581.12
636.158	612.12
636.364	638.12
636.57	629.12
636.775	637.12
636.981	632.12
637.187	650.12
637.392	624.12
637.598	651.12
637.804	629.12
638.009	618.12
638.215	623.12
638.421	607.12
638.626	591.12
638.832	603.12
639.037	556.12
639.243	580.12
639.448	578.12
639.654	620.12
639.859	578.12
640.065	573.12
640.27	631.12
640.475	565.12
640.681	565.12
640.886	585.12
641.091	607.12
641.297	637.12
641.502	599.12
641.707	594.12
641.913	613.12
642.118	610.12
642.323	573.12
642.528	599.12
642.733	604.12
642.939	586.12
643.144	568.12
643.349	558.12
643.554	571.12
643.759	575.12
643.964	558.12
644.169	583.12
644.374	567.12
644.579	590.12
644.784	557.12
644.989	561.12
645.194	561.12
645.399	560.12
645.604	572.12
645.809	590.12
646.014	545.12
646.219	579.12
646.423	581.12
646.628	577.12
646.833	575.12
647.038	583.12
647.243	577.12
647.447	587.12
647.652	596.12
647.857	552.12
648.062	591.12
648.266	582.12
648.471	572.12
648.676	593.12
648.88	578.12
649.085	581.12
649.289	569.12
649.494	577.12
649.698	670.12
649.903	601.12
650.107	571.12
650.312	601.12
650.516	555.12
650.721	547.12
650.925	508.12
651.13	495.12
651.334	491.12
651.539	490.12
651.743	473.12
651.947	488.12
652.152	471.12
652.356	465.12
652.56	463.12
652.764	445.12
652.969	424.12
653.173	428.12
653.377	414.12
653.581	417.12
653.785	421.12
653.99	412.12
654.194	409.12
654.398	402.12
654.602	391.12
654.806	393.12
655.01	396.12
655.214	397.12
655.418	378.12
655.622	373.12
655.826	386.12
656.03	368.12
656.234	359.12
656.438	380.12
656.642	377.12
656.846	349.12
657.049	336.12
657.253	325.12
657.457	291.12
657.661	297.12
657.865	277.12
658.068	274.12
658.272	266.12
658.476	248.12
658.68	250.12
658.883	232.12
659.087	224.12
659.291	220.12
659.494	213.12
659.698	205.12
659.901	214.12
660.105	206.12
660.309	195.12
660.512	187.12
660.716	191.12
660.919	177.12
661.123	198.12
661.326	159.12
661.53	158.12
661.733	181.12
661.936	159.12
662.14	139.12
662.343	147.12
662.546	143.12
662.75	151.12
662.953	149.12
663.156	128.12
663.36	122.12
663.563	128.12
663.766	107.12
663.969	110.12
664.173	119.12
664.376	115.12
664.579	116.12
664.782	112.12
664.985	113.12
665.188	105.12
665.391	124.12
665.594	110.12
665.797	106.12
666	117.12
666.203	113.12
666.406	99.12
666.609	109.12
666.812	118.12
667.015	130.12
667.218	122.12
667.421	118.12
667.624	106.12
667.827	125.12
668.03	101.12
668.232	107.12
668.435	119.12
668.638	101.12
668.841	128.12
669.043	107.12
669.246	113.12
669.449	109.12
669.651	124.12
669.854	96.12
670.057	121.12
670.259	98.12
670.462	109.12
670.665	110.12
670.867	132.12
671.07	124.12
671.272	129.12
671.475	152.12
671.677	121.12
671.88	117.12
672.082	109.12
672.284	117.12
672.487	114.12
672.689	115.12
672.892	103.12
