Data from FlinnAP5935BZINC.07152019.LAMPEdge.EN5.5scans.P1_HRD10591_14-59-59-580.txt Node
Date: Mon Jul 15 14:59:59 EDT 2019
User: cochatt
Spectrometer: HR+D1059
Trigger mode: 1
Integration Time (sec): 1.000000E-1
Scans to average: 1
Electric dark correction enabled: true
Nonlinearity correction enabled: false
Boxcar width: 0
XAxis mode: Wavelengths
Number of Pixels in Spectrum: 2048
>>>>>Begin Spectral Data<<<<<
223.165	-12.56
223.4	-12.56
223.635	-12.56
223.869	-10.56
224.104	-12.56
224.338	-6.56
224.573	-19.56
224.808	-9.56
225.042	-5.56
225.277	0.44
225.511	-14.56
225.746	1.44
225.98	14.44
226.215	-8.56
226.449	12.44
226.683	19.44
226.918	18.44
227.152	33.44
227.387	36.44
227.621	39.44
227.856	40.44
228.09	35.44
228.324	47.44
228.559	47.44
228.793	78.44
229.027	101.44
229.262	103.44
229.496	101.44
229.73	123.44
229.964	117.44
230.199	134.44
230.433	120.44
230.667	134.44
230.901	127.44
231.136	144.44
231.37	144.44
231.604	126.44
231.838	131.44
232.072	130.44
232.306	142.44
232.541	131.44
232.775	128.44
233.009	154.44
233.243	142.44
233.477	152.44
233.711	148.44
233.945	143.44
234.179	142.44
234.413	154.44
234.647	144.44
234.881	147.44
235.115	142.44
235.349	142.44
235.583	137.44
235.817	150.44
236.051	154.44
236.285	155.44
236.519	161.44
236.753	154.44
236.987	168.44
237.221	146.44
237.455	140.44
237.689	155.44
237.922	159.44
238.156	163.44
238.39	139.44
238.624	155.44
238.858	152.44
239.091	171.44
239.325	161.44
239.559	162.44
239.793	173.44
240.027	167.44
240.26	169.44
240.494	179.44
240.728	180.44
240.961	164.44
241.195	176.44
241.429	164.44
241.662	181.44
241.896	187.44
242.13	178.44
242.363	187.44
242.597	184.44
242.83	191.44
243.064	177.44
243.298	208.44
243.531	217.44
243.765	186.44
243.998	208.44
244.232	194.44
244.465	196.44
244.699	198.44
244.932	219.44
245.166	232.44
245.399	195.44
245.633	202.44
245.866	213.44
246.099	206.44
246.333	210.44
246.566	225.44
246.8	218.44
247.033	223.44
247.266	227.44
247.5	226.44
247.733	212.44
247.966	225.44
248.2	244.44
248.433	250.44
248.666	249.44
248.899	244.44
249.133	255.44
249.366	256.44
249.599	259.44
249.832	280.44
250.066	315.44
250.299	363.44
250.532	464.44
250.765	526.44
250.998	431.44
251.231	373.44
251.465	338.44
251.698	310.44
251.931	307.44
252.164	307.44
252.397	304.44
252.63	304.44
252.863	296.44
253.096	314.44
253.329	306.44
253.562	297.44
253.795	310.44
254.028	304.44
254.261	317.44
254.494	317.44
254.727	325.44
254.96	338.44
255.193	337.44
255.426	388.44
255.659	433.44
255.892	574.44
256.124	772.44
256.357	872.44
256.59	684.44
256.823	568.44
257.056	464.44
257.289	436.44
257.521	429.44
257.754	380.44
257.987	398.44
258.22	374.44
258.452	372.44
258.685	375.44
258.918	362.44
259.151	348.44
259.383	338.44
259.616	353.44
259.849	358.44
260.081	347.44
260.314	358.44
260.547	350.44
260.779	338.44
261.012	369.44
261.244	369.44
261.477	363.44
261.71	352.44
261.942	335.44
262.175	352.44
262.407	356.44
262.64	334.44
262.872	351.44
263.105	342.44
263.337	339.44
263.57	356.44
263.802	345.44
264.035	326.44
264.267	353.44
264.499	353.44
264.732	352.44
264.964	344.44
265.197	358.44
265.429	365.44
265.661	350.44
265.894	355.44
266.126	357.44
266.358	348.44
266.591	352.44
266.823	355.44
267.055	350.44
267.287	385.44
267.52	356.44
267.752	377.44
267.984	360.44
268.216	379.44
268.448	382.44
268.681	372.44
268.913	396.44
269.145	380.44
269.377	396.44
269.609	364.44
269.841	393.44
270.073	404.44
270.306	391.44
270.538	389.44
270.77	388.44
271.002	389.44
271.234	392.44
271.466	384.44
271.698	408.44
271.93	397.44
272.162	397.44
272.394	430.44
272.626	421.44
272.858	394.44
273.09	423.44
273.322	426.44
273.553	435.44
273.785	433.44
274.017	461.44
274.249	449.44
274.481	437.44
274.713	447.44
274.945	450.44
275.176	461.44
275.408	475.44
275.64	485.44
275.872	513.44
276.104	505.44
276.335	502.44
276.567	508.44
276.799	537.44
277.031	543.44
277.262	603.44
277.494	628.44
277.726	597.44
277.957	555.44
278.189	527.44
278.421	536.44
278.652	521.44
278.884	515.44
279.115	534.44
279.347	521.44
279.579	536.44
279.81	608.44
280.042	630.44
280.273	706.44
280.505	728.44
280.736	636.44
280.968	598.44
281.199	552.44
281.431	557.44
281.662	532.44
281.894	522.44
282.125	519.44
282.356	525.44
282.588	513.44
282.819	512.44
283.051	527.44
283.282	520.44
283.513	507.44
283.745	507.44
283.976	517.44
284.207	507.44
284.439	503.44
284.67	509.44
284.901	505.44
285.132	524.44
285.364	528.44
285.595	540.44
285.826	530.44
286.057	528.44
286.288	523.44
286.52	535.44
286.751	528.44
286.982	534.44
287.213	539.44
287.444	535.44
287.675	538.44
287.906	542.44
288.138	516.44
288.369	518.44
288.6	536.44
288.831	546.44
289.062	539.44
289.293	541.44
289.524	529.44
289.755	551.44
289.986	534.44
290.217	537.44
290.448	536.44
290.679	548.44
290.91	530.44
291.141	551.44
291.371	561.44
291.602	536.44
291.833	542.44
292.064	532.44
292.295	534.44
292.526	538.44
292.757	556.44
292.987	547.44
293.218	537.44
293.449	526.44
293.68	542.44
293.91	543.44
294.141	561.44
294.372	538.44
294.603	536.44
294.833	536.44
295.064	536.44
295.295	541.44
295.525	533.44
295.756	543.44
295.987	529.44
296.217	554.44
296.448	548.44
296.679	580.44
296.909	544.44
297.14	547.44
297.37	552.44
297.601	535.44
297.831	547.44
298.062	541.44
298.292	578.44
298.523	584.44
298.753	548.44
298.984	547.44
299.214	555.44
299.445	577.44
299.675	560.44
299.905	577.44
300.136	583.44
300.366	564.44
300.597	563.44
300.827	589.44
301.057	598.44
301.288	603.44
301.518	592.44
301.748	610.44
301.979	645.44
302.209	650.44
302.439	624.44
302.669	600.44
302.9	629.44
303.13	611.44
303.36	618.44
303.59	637.44
303.82	672.44
304.051	662.44
304.281	636.44
304.511	645.44
304.741	627.44
304.971	615.44
305.201	606.44
305.431	594.44
305.661	605.44
305.891	600.44
306.121	606.44
306.352	592.44
306.582	604.44
306.812	592.44
307.042	661.44
307.272	666.44
307.502	718.44
307.731	713.44
307.961	692.44
308.191	655.44
308.421	606.44
308.651	588.44
308.881	607.44
309.111	611.44
309.341	592.44
309.571	596.44
309.8	610.44
310.03	617.44
310.26	622.44
310.49	645.44
310.72	623.44
310.949	600.44
311.179	631.44
311.409	622.44
311.639	617.44
311.868	620.44
312.098	625.44
312.328	643.44
312.557	647.44
312.787	647.44
313.017	642.44
313.246	651.44
313.476	618.44
313.706	656.44
313.935	653.44
314.165	657.44
314.394	651.44
314.624	665.44
314.853	653.44
315.083	647.44
315.312	662.44
315.542	642.44
315.771	674.44
316.001	684.44
316.23	658.44
316.46	679.44
316.689	670.44
316.919	676.44
317.148	666.44
317.377	659.44
317.607	644.44
317.836	677.44
318.065	670.44
318.295	656.44
318.524	684.44
318.753	659.44
318.983	676.44
319.212	664.44
319.441	650.44
319.67	671.44
319.9	660.44
320.129	666.44
320.358	643.44
320.587	704.44
320.816	658.44
321.046	698.44
321.275	674.44
321.504	692.44
321.733	690.44
321.962	696.44
322.191	715.44
322.42	718.44
322.649	718.44
322.878	679.44
323.108	719.44
323.337	740.44
323.566	745.44
323.795	787.44
324.024	767.44
324.253	760.44
324.482	780.44
324.71	790.44
324.939	768.44
325.168	812.44
325.397	796.44
325.626	823.44
325.855	838.44
326.084	850.44
326.313	873.44
326.542	916.44
326.77	939.44
326.999	917.44
327.228	985.44
327.457	1046.44
327.686	1218.44
327.914	1414.44
328.143	1734.44
328.372	2171.44
328.6	1976.44
328.829	1451.44
329.058	1276.44
329.287	1306.44
329.515	1452.44
329.744	1710.44
329.972	2281.44
330.201	3164.44
330.43	3962.44
330.658	3197.44
330.887	1913.44
331.115	1445.44
331.344	1322.44
331.572	1245.44
331.801	1207.44
332.03	1184.44
332.258	1188.44
332.486	1187.44
332.715	1232.44
332.943	1272.44
333.172	1384.44
333.4	1528.44
333.629	1674.44
333.857	1996.44
334.085	2592.44
334.314	3595.44
334.542	4846.44
334.771	5179.44
334.999	3362.44
335.227	2108.44
335.455	1661.44
335.684	1422.44
335.912	1287.44
336.14	1184.44
336.369	1108.44
336.597	1081.44
336.825	1072.44
337.053	998.44
337.281	1003.44
337.51	963.44
337.738	946.44
337.966	924.44
338.194	887.44
338.422	871.44
338.65	841.44
338.878	837.44
339.106	836.44
339.334	847.44
339.562	830.44
339.79	805.44
340.018	812.44
340.246	795.44
340.474	785.44
340.702	782.44
340.93	754.44
341.158	777.44
341.386	781.44
341.614	784.44
341.842	759.44
342.07	746.44
342.298	749.44
342.526	768.44
342.754	745.44
342.981	724.44
343.209	770.44
343.437	782.44
343.665	808.44
343.893	854.44
344.12	880.44
344.348	836.44
344.576	797.44
344.804	756.44
345.031	752.44
345.259	783.44
345.487	733.44
345.714	726.44
345.942	733.44
346.17	742.44
346.397	712.44
346.625	706.44
346.853	722.44
347.08	705.44
347.308	691.44
347.535	699.44
347.763	687.44
347.99	711.44
348.218	710.44
348.445	698.44
348.673	696.44
348.9	708.44
349.128	697.44
349.355	694.44
349.583	678.44
349.81	661.44
350.037	709.44
350.265	668.44
350.492	691.44
350.72	699.44
350.947	672.44
351.174	658.44
351.402	667.44
351.629	666.44
351.856	675.44
352.083	669.44
352.311	669.44
352.538	669.44
352.765	661.44
352.992	665.44
353.22	668.44
353.447	661.44
353.674	665.44
353.901	673.44
354.128	677.44
354.355	685.44
354.583	658.44
354.81	646.44
355.037	685.44
355.264	664.44
355.491	679.44
355.718	690.44
355.945	684.44
356.172	706.44
356.399	687.44
356.626	694.44
356.853	695.44
357.08	668.44
357.307	668.44
357.534	649.44
357.761	652.44
357.988	673.44
358.215	677.44
358.441	665.44
358.668	657.44
358.895	669.44
359.122	678.44
359.349	660.44
359.576	644.44
359.802	663.44
360.029	670.44
360.256	649.44
360.483	660.44
360.709	674.44
360.936	666.44
361.163	656.44
361.39	664.44
361.616	658.44
361.843	662.44
362.07	676.44
362.296	658.44
362.523	634.44
362.749	656.44
362.976	654.44
363.203	638.44
363.429	646.44
363.656	655.44
363.882	648.44
364.109	674.44
364.335	638.44
364.562	652.44
364.788	671.44
365.015	659.44
365.241	653.44
365.468	654.44
365.694	660.44
365.92	652.44
366.147	637.44
366.373	640.44
366.599	646.44
366.826	656.44
367.052	622.44
367.278	655.44
367.505	664.44
367.731	676.44
367.957	646.44
368.184	674.44
368.41	656.44
368.636	646.44
368.862	654.44
369.089	673.44
369.315	685.44
369.541	659.44
369.767	673.44
369.993	659.44
370.219	674.44
370.445	694.44
370.672	689.44
370.898	686.44
371.124	708.44
371.35	685.44
371.576	690.44
371.802	705.44
372.028	697.44
372.254	688.44
372.48	705.44
372.706	706.44
372.932	710.44
373.158	735.44
373.384	720.44
373.61	690.44
373.835	706.44
374.061	672.44
374.287	692.44
374.513	726.44
374.739	730.44
374.965	745.44
375.191	756.44
375.416	742.44
375.642	738.44
375.868	743.44
376.094	705.44
376.319	659.44
376.545	678.44
376.771	681.44
376.997	684.44
377.222	679.44
377.448	663.44
377.674	670.44
377.899	661.44
378.125	679.44
378.35	661.44
378.576	701.44
378.802	678.44
379.027	701.44
379.253	674.44
379.478	684.44
379.704	678.44
379.929	671.44
380.155	668.44
380.38	682.44
380.606	689.44
380.831	668.44
381.057	670.44
381.282	721.44
381.507	701.44
381.733	701.44
381.958	707.44
382.184	682.44
382.409	717.44
382.634	718.44
382.86	748.44
383.085	720.44
383.31	724.44
383.535	738.44
383.761	764.44
383.986	736.44
384.211	766.44
384.436	765.44
384.662	788.44
384.887	796.44
385.112	785.44
385.337	809.44
385.562	808.44
385.787	800.44
386.013	824.44
386.238	808.44
386.463	852.44
386.688	812.44
386.913	778.44
387.138	806.44
387.363	804.44
387.588	816.44
387.813	777.44
388.038	773.44
388.263	826.44
388.488	806.44
388.713	773.44
388.938	784.44
389.163	784.44
389.387	792.44
389.612	781.44
389.837	778.44
390.062	745.44
390.287	770.44
390.512	801.44
390.736	787.44
390.961	822.44
391.186	797.44
391.411	835.44
391.636	885.44
391.86	881.44
392.085	898.44
392.31	870.44
392.534	866.44
392.759	849.44
392.984	836.44
393.208	831.44
393.433	832.44
393.658	813.44
393.882	831.44
394.107	818.44
394.331	853.44
394.556	836.44
394.78	828.44
395.005	842.44
395.229	842.44
395.454	850.44
395.678	864.44
395.903	873.44
396.127	884.44
396.352	853.44
396.576	825.44
396.801	829.44
397.025	848.44
397.249	848.44
397.474	882.44
397.698	874.44
397.922	883.44
398.147	897.44
398.371	906.44
398.595	916.44
398.82	953.44
399.044	998.44
399.268	1108.44
399.492	1230.44
399.717	1356.44
399.941	1340.44
400.165	1235.44
400.389	1142.44
400.613	1056.44
400.837	1004.44
401.062	992.44
401.286	970.44
401.51	962.44
401.734	954.44
401.958	993.44
402.182	996.44
402.406	994.44
402.63	1028.44
402.854	1043.44
403.078	1024.44
403.302	1009.44
403.526	1072.44
403.75	1121.44
403.974	1128.44
404.198	1153.44
404.422	1169.44
404.645	1164.44
404.869	1208.44
405.093	1293.44
405.317	1388.44
405.541	1408.44
405.765	1281.44
405.988	1203.44
406.212	1140.44
406.436	1136.44
406.66	1143.44
406.883	1126.44
407.107	1176.44
407.331	1173.44
407.555	1224.44
407.778	1216.44
408.002	1187.44
408.226	1171.44
408.449	1154.44
408.673	1092.44
408.896	1096.44
409.12	1081.44
409.344	1096.44
409.567	1094.44
409.791	1074.44
410.014	1048.44
410.238	1071.44
410.461	1078.44
410.685	1035.44
410.908	1056.44
411.132	1055.44
411.355	1019.44
411.578	1018.44
411.802	1058.44
412.025	1098.44
412.249	1161.44
412.472	1277.44
412.695	1370.44
412.919	1342.44
413.142	1262.44
413.365	1196.44
413.589	1086.44
413.812	1093.44
414.035	1080.44
414.258	1050.44
414.482	1026.44
414.705	1063.44
414.928	1022.44
415.151	1010.44
415.374	1001.44
415.597	991.44
415.821	1015.44
416.044	997.44
416.267	1013.44
416.49	972.44
416.713	999.44
416.936	992.44
417.159	1026.44
417.382	990.44
417.605	1081.44
417.828	1097.44
418.051	1046.44
418.274	998.44
418.497	997.44
418.72	1026.44
418.943	998.44
419.166	1072.44
419.389	1158.44
419.611	1125.44
419.834	1162.44
420.057	1189.44
420.28	1221.44
420.503	1219.44
420.726	1180.44
420.948	1126.44
421.171	1121.44
421.394	1086.44
421.617	1040.44
421.839	1014.44
422.062	1017.44
422.285	999.44
422.507	1022.44
422.73	1011.44
422.953	1027.44
423.175	1045.44
423.398	1025.44
423.621	1012.44
423.843	996.44
424.066	1037.44
424.288	1027.44
424.511	1016.44
424.733	991.44
424.956	965.44
425.178	963.44
425.401	955.44
425.623	968.44
425.846	936.44
426.068	965.44
426.291	945.44
426.513	931.44
426.735	946.44
426.958	956.44
427.18	930.44
427.402	977.44
427.625	1050.44
427.847	1139.44
428.069	1304.44
428.292	1218.44
428.514	1048.44
428.736	999.44
428.958	965.44
429.181	913.44
429.403	889.44
429.625	900.44
429.847	878.44
430.069	855.44
430.292	880.44
430.514	885.44
430.736	885.44
430.958	881.44
431.18	838.44
431.402	876.44
431.624	837.44
431.846	870.44
432.068	856.44
432.29	866.44
432.512	849.44
432.734	877.44
432.956	831.44
433.178	862.44
433.4	849.44
433.622	866.44
433.844	870.44
434.066	854.44
434.287	873.44
434.509	912.44
434.731	912.44
434.953	933.44
435.175	917.44
435.397	931.44
435.618	890.44
435.84	874.44
436.062	870.44
436.284	862.44
436.505	846.44
436.727	854.44
436.949	840.44
437.17	866.44
437.392	840.44
437.614	836.44
437.835	777.44
438.057	806.44
438.278	812.44
438.5	816.44
438.721	849.44
438.943	846.44
439.165	839.44
439.386	842.44
439.608	863.44
439.829	852.44
440.05	844.44
440.272	860.44
440.493	863.44
440.715	846.44
440.936	874.44
441.158	883.44
441.379	893.44
441.6	934.44
441.822	928.44
442.043	913.44
442.264	909.44
442.486	900.44
442.707	925.44
442.928	888.44
443.149	924.44
443.371	913.44
443.592	917.44
443.813	938.44
444.034	919.44
444.255	926.44
444.476	1008.44
444.698	1032.44
444.919	1045.44
445.14	1165.44
445.361	1009.44
445.582	951.44
445.803	927.44
446.024	895.44
446.245	900.44
446.466	877.44
446.687	848.44
446.908	879.44
447.129	843.44
447.35	813.44
447.571	829.44
447.792	790.44
448.013	790.44
448.234	792.44
448.455	802.44
448.675	812.44
448.896	780.44
449.117	777.44
449.338	768.44
449.559	752.44
449.779	797.44
450	746.44
450.221	770.44
450.442	795.44
450.662	761.44
450.883	756.44
451.104	793.44
451.324	787.44
451.545	762.44
451.766	786.44
451.986	772.44
452.207	774.44
452.428	778.44
452.648	765.44
452.869	760.44
453.089	731.44
453.31	744.44
453.53	766.44
453.751	757.44
453.971	726.44
454.192	739.44
454.412	732.44
454.633	714.44
454.853	739.44
455.073	741.44
455.294	736.44
455.514	745.44
455.734	734.44
455.955	724.44
456.175	707.44
456.395	732.44
456.616	710.44
456.836	731.44
457.056	734.44
457.276	716.44
457.497	753.44
457.717	744.44
457.937	752.44
458.157	749.44
458.377	769.44
458.598	782.44
458.818	766.44
459.038	801.44
459.258	796.44
459.478	821.44
459.698	857.44
459.918	855.44
460.138	883.44
460.358	945.44
460.578	954.44
460.798	942.44
461.018	948.44
461.238	941.44
461.458	965.44
461.678	938.44
461.898	960.44
462.118	966.44
462.338	970.44
462.558	1012.44
462.777	1060.44
462.997	1162.44
463.217	1231.44
463.437	1244.44
463.657	1155.44
463.876	1090.44
464.096	1088.44
464.316	1084.44
464.536	1061.44
464.755	1070.44
464.975	1022.44
465.195	1000.44
465.414	911.44
465.634	911.44
465.854	878.44
466.073	868.44
466.293	869.44
466.512	861.44
466.732	832.44
466.951	834.44
467.171	874.44
467.391	877.44
467.61	904.44
467.829	963.44
468.049	1376.44
468.268	2049.44
468.488	1564.44
468.707	1162.44
468.927	1014.44
469.146	955.44
469.365	940.44
469.585	924.44
469.804	910.44
470.023	934.44
470.243	900.44
470.462	921.44
470.681	912.44
470.901	937.44
471.12	924.44
471.339	982.44
471.558	951.44
471.777	1023.44
471.997	1241.44
472.216	1932.44
472.435	3806.44
472.654	3006.44
472.873	1850.44
473.092	1438.44
473.311	1245.44
473.53	1130.44
473.749	1054.44
473.968	1019.44
474.187	964.44
474.406	962.44
474.625	950.44
474.844	941.44
475.063	910.44
475.282	912.44
475.501	884.44
475.72	889.44
475.939	906.44
476.158	884.44
476.377	901.44
476.596	888.44
476.814	904.44
477.033	908.44
477.252	893.44
477.471	921.44
477.69	940.44
477.908	1000.44
478.127	992.44
478.346	982.44
478.564	1007.44
478.783	1051.44
479.002	1056.44
479.22	1074.44
479.439	1082.44
479.658	1096.44
479.876	1127.44
480.095	1146.44
480.313	1264.44
480.532	1344.44
480.751	1588.44
480.969	2248.44
481.188	4906.44
481.406	6304.44
481.624	3451.44
481.843	2365.44
482.061	1914.44
482.28	1654.44
482.498	1475.44
482.717	1345.44
482.935	1310.44
483.153	1221.44
483.372	1199.44
483.59	1180.44
483.808	1135.44
484.027	1112.44
484.245	1113.44
484.463	1092.44
484.681	1119.44
484.9	1072.44
485.118	1107.44
485.336	1080.44
485.554	1070.44
485.772	1089.44
485.99	1055.44
486.209	1080.44
486.427	1085.44
486.645	1066.44
486.863	1058.44
487.081	1072.44
487.299	1069.44
487.517	1092.44
487.735	1083.44
487.953	1110.44
488.171	1080.44
488.389	1096.44
488.607	1066.44
488.825	1091.44
489.043	1090.44
489.261	1116.44
489.479	1113.44
489.696	1110.44
489.914	1160.44
490.132	1178.44
490.35	1188.44
490.568	1203.44
490.786	1244.44
491.003	1260.44
491.221	1318.44
491.439	1394.44
491.657	1408.44
491.874	1404.44
492.092	1432.44
492.31	1518.44
492.527	1517.44
492.745	1550.44
492.963	1550.44
493.18	1544.44
493.398	1554.44
493.615	1445.44
493.833	1435.44
494.05	1411.44
494.268	1409.44
494.485	1353.44
494.703	1354.44
494.92	1322.44
495.138	1299.44
495.355	1324.44
495.573	1275.44
495.79	1272.44
496.008	1230.44
496.225	1218.44
496.442	1209.44
496.66	1264.44
496.877	1261.44
497.094	1240.44
497.312	1253.44
497.529	1267.44
497.746	1277.44
497.963	1264.44
498.181	1332.44
498.398	1380.44
498.615	1416.44
498.832	1466.44
499.049	1566.44
499.267	1655.44
499.484	1766.44
499.701	1872.44
499.918	2012.44
500.135	2255.44
500.352	2470.44
500.569	2610.44
500.786	2629.44
501.003	2514.44
501.22	2240.44
501.437	2016.44
501.654	1803.44
501.871	1686.44
502.088	1549.44
502.305	1484.44
502.522	1406.44
502.739	1382.44
502.956	1301.44
503.172	1255.44
503.389	1228.44
503.606	1221.44
503.823	1197.44
504.04	1194.44
504.256	1186.44
504.473	1163.44
504.69	1194.44
504.907	1182.44
505.123	1135.44
505.34	1096.44
505.557	1050.44
505.773	1052.44
505.99	1006.44
506.207	975.44
506.423	982.44
506.64	941.44
506.856	934.44
507.073	954.44
507.289	951.44
507.506	939.44
507.722	940.44
507.939	932.44
508.155	910.44
508.372	870.44
508.588	895.44
508.805	912.44
509.021	924.44
509.238	877.44
509.454	892.44
509.67	862.44
509.887	859.44
510.103	861.44
510.319	864.44
510.536	880.44
510.752	878.44
510.968	884.44
511.184	903.44
511.401	928.44
511.617	935.44
511.833	1064.44
512.049	1102.44
512.265	1088.44
512.481	1040.44
512.698	955.44
512.914	910.44
513.13	915.44
513.346	913.44
513.562	878.44
513.778	901.44
513.994	888.44
514.21	925.44
514.426	897.44
514.642	870.44
514.858	892.44
515.074	878.44
515.29	883.44
515.506	874.44
515.721	909.44
515.937	900.44
516.153	908.44
516.369	934.44
516.585	952.44
516.801	983.44
517.016	1037.44
517.232	1048.44
517.448	1080.44
517.664	1096.44
517.879	1108.44
518.095	1102.44
518.311	1081.44
518.527	1033.44
518.742	1006.44
518.958	1018.44
519.173	944.44
519.389	933.44
519.605	920.44
519.82	884.44
520.036	892.44
520.251	875.44
520.467	857.44
520.682	884.44
520.898	848.44
521.113	820.44
521.329	830.44
521.544	829.44
521.76	817.44
521.975	841.44
522.19	834.44
522.406	769.44
522.621	792.44
522.836	798.44
523.052	795.44
523.267	797.44
523.482	789.44
523.698	779.44
523.913	801.44
524.128	793.44
524.343	802.44
524.559	765.44
524.774	753.44
524.989	788.44
525.204	766.44
525.419	766.44
525.634	767.44
525.849	748.44
526.064	764.44
526.28	735.44
526.495	748.44
526.71	747.44
526.925	757.44
527.14	741.44
527.355	738.44
527.57	745.44
527.785	759.44
527.999	768.44
528.214	763.44
528.429	760.44
528.644	764.44
528.859	747.44
529.074	729.44
529.289	757.44
529.503	770.44
529.718	730.44
529.933	756.44
530.148	750.44
530.363	757.44
530.577	750.44
530.792	740.44
531.007	746.44
531.221	779.44
531.436	774.44
531.651	788.44
531.865	744.44
532.08	759.44
532.295	748.44
532.509	738.44
532.724	772.44
532.938	779.44
533.153	753.44
533.367	770.44
533.582	761.44
533.796	746.44
534.011	748.44
534.225	740.44
534.44	744.44
534.654	725.44
534.868	730.44
535.083	725.44
535.297	726.44
535.511	748.44
535.726	736.44
535.94	709.44
536.154	708.44
536.369	718.44
536.583	697.44
536.797	720.44
537.011	714.44
537.225	685.44
537.44	709.44
537.654	701.44
537.868	689.44
538.082	670.44
538.296	692.44
538.51	688.44
538.724	704.44
538.938	699.44
539.153	683.44
539.367	675.44
539.581	697.44
539.795	675.44
540.009	692.44
540.222	699.44
540.436	692.44
540.65	697.44
540.864	691.44
541.078	726.44
541.292	712.44
541.506	725.44
541.72	704.44
541.934	727.44
542.147	720.44
542.361	720.44
542.575	724.44
542.789	725.44
543.002	701.44
543.216	690.44
543.43	711.44
543.644	731.44
543.857	692.44
544.071	714.44
544.285	710.44
544.498	700.44
544.712	724.44
544.925	726.44
545.139	706.44
545.352	715.44
545.566	737.44
545.779	744.44
545.993	757.44
546.206	738.44
546.42	756.44
546.633	732.44
546.847	701.44
547.06	716.44
547.274	700.44
547.487	723.44
547.7	741.44
547.914	718.44
548.127	720.44
548.34	740.44
548.554	700.44
548.767	704.44
548.98	691.44
549.193	717.44
549.407	753.44
549.62	714.44
549.833	745.44
550.046	722.44
550.259	718.44
550.473	721.44
550.686	727.44
550.899	690.44
551.112	710.44
551.325	699.44
551.538	692.44
551.751	706.44
551.964	674.44
552.177	746.44
552.39	718.44
552.603	711.44
552.816	730.44
553.029	748.44
553.242	743.44
553.455	779.44
553.667	769.44
553.88	760.44
554.093	720.44
554.306	730.44
554.519	727.44
554.732	718.44
554.944	696.44
555.157	682.44
555.37	670.44
555.583	682.44
555.795	660.44
556.008	653.44
556.221	646.44
556.433	653.44
556.646	638.44
556.859	655.44
557.071	641.44
557.284	620.44
557.496	621.44
557.709	630.44
557.921	606.44
558.134	597.44
558.346	606.44
558.559	611.44
558.771	610.44
558.984	597.44
559.196	594.44
559.409	606.44
559.621	644.44
559.833	598.44
560.046	606.44
560.258	633.44
560.47	620.44
560.683	634.44
560.895	612.44
561.107	630.44
561.32	625.44
561.532	588.44
561.744	608.44
561.956	580.44
562.168	602.44
562.381	611.44
562.593	612.44
562.805	598.44
563.017	617.44
563.229	620.44
563.441	605.44
563.653	603.44
563.865	600.44
564.077	618.44
564.289	614.44
564.501	623.44
564.713	620.44
564.925	621.44
565.137	644.44
565.349	640.44
565.561	670.44
565.773	670.44
565.985	720.44
566.197	780.44
566.408	789.44
566.62	877.44
566.832	888.44
567.044	896.44
567.255	931.44
567.467	920.44
567.679	939.44
567.891	1009.44
568.102	1021.44
568.314	967.44
568.526	920.44
568.737	840.44
568.949	766.44
569.161	726.44
569.372	691.44
569.584	665.44
569.795	645.44
570.007	614.44
570.218	623.44
570.43	620.44
570.641	625.44
570.853	614.44
571.064	601.44
571.276	612.44
571.487	598.44
571.698	599.44
571.91	580.44
572.121	547.44
572.333	517.44
572.544	527.44
572.755	517.44
572.966	515.44
573.178	513.44
573.389	528.44
573.6	510.44
573.811	522.44
574.023	505.44
574.234	506.44
574.445	521.44
574.656	512.44
574.867	514.44
575.078	498.44
575.289	507.44
575.501	518.44
575.712	485.44
575.923	454.44
576.134	486.44
576.345	478.44
576.556	486.44
576.767	483.44
576.978	484.44
577.188	478.44
577.399	485.44
577.61	475.44
577.821	458.44
578.032	465.44
578.243	449.44
578.454	446.44
578.665	483.44
578.875	470.44
579.086	484.44
579.297	464.44
579.508	466.44
579.718	454.44
579.929	434.44
580.14	438.44
580.35	456.44
580.561	474.44
580.772	447.44
580.982	450.44
581.193	445.44
581.403	442.44
581.614	445.44
581.825	435.44
582.035	429.44
582.246	438.44
582.456	440.44
582.667	438.44
582.877	419.44
583.087	426.44
583.298	442.44
583.508	417.44
583.719	419.44
583.929	443.44
584.139	441.44
584.35	440.44
584.56	428.44
584.77	412.44
584.981	431.44
585.191	434.44
585.401	444.44
585.611	450.44
585.821	429.44
586.032	416.44
586.242	420.44
586.452	434.44
586.662	426.44
586.872	401.44
587.082	407.44
587.292	407.44
587.502	430.44
587.713	433.44
587.923	418.44
588.133	421.44
588.343	406.44
588.553	426.44
588.762	438.44
588.972	419.44
589.182	408.44
589.392	428.44
589.602	435.44
589.812	463.44
590.022	446.44
590.232	418.44
590.441	438.44
590.651	451.44
590.861	423.44
591.071	432.44
591.281	443.44
591.49	429.44
591.7	446.44
591.91	438.44
592.119	446.44
592.329	446.44
592.539	465.44
592.748	501.44
592.958	508.44
593.167	505.44
593.377	490.44
593.587	537.44
593.796	502.44
594.006	524.44
594.215	521.44
594.424	514.44
594.634	530.44
594.843	468.44
595.053	468.44
595.262	456.44
595.472	465.44
595.681	446.44
595.89	433.44
596.1	416.44
596.309	398.44
596.518	432.44
596.727	416.44
596.937	420.44
597.146	397.44
597.355	388.44
597.564	387.44
597.774	372.44
597.983	379.44
598.192	392.44
598.401	390.44
598.61	387.44
598.819	386.44
599.028	375.44
599.237	371.44
599.446	370.44
599.655	380.44
599.864	388.44
600.073	393.44
600.282	397.44
600.491	384.44
600.7	374.44
600.909	378.44
601.118	368.44
601.327	369.44
601.536	383.44
601.745	352.44
601.953	369.44
602.162	397.44
602.371	383.44
602.58	385.44
602.789	374.44
602.997	373.44
603.206	376.44
603.415	385.44
603.623	362.44
603.832	362.44
604.041	384.44
604.249	358.44
604.458	362.44
604.666	364.44
604.875	370.44
605.084	355.44
605.292	344.44
605.501	362.44
605.709	351.44
605.918	372.44
606.126	357.44
606.334	371.44
606.543	340.44
606.751	352.44
606.96	373.44
607.168	354.44
607.376	363.44
607.585	364.44
607.793	374.44
608.001	371.44
608.21	360.44
608.418	356.44
608.626	350.44
608.834	358.44
609.043	347.44
609.251	364.44
609.459	379.44
609.667	365.44
609.875	359.44
610.083	364.44
610.291	371.44
610.499	363.44
610.707	363.44
610.916	384.44
611.124	380.44
611.332	363.44
611.54	368.44
611.748	365.44
611.955	365.44
612.163	372.44
612.371	354.44
612.579	376.44
612.787	354.44
612.995	348.44
613.203	364.44
613.411	365.44
613.618	358.44
613.826	317.44
614.034	330.44
614.242	365.44
614.449	347.44
614.657	342.44
614.865	343.44
615.072	346.44
615.28	323.44
615.488	338.44
615.695	334.44
615.903	350.44
616.111	354.44
616.318	340.44
616.526	336.44
616.733	343.44
616.941	336.44
617.148	346.44
617.356	328.44
617.563	338.44
617.771	356.44
617.978	326.44
618.185	338.44
618.393	330.44
618.6	327.44
618.807	325.44
619.015	310.44
619.222	322.44
619.429	350.44
619.637	316.44
619.844	314.44
620.051	310.44
620.258	301.44
620.466	301.44
620.673	317.44
620.88	304.44
621.087	316.44
621.294	296.44
621.501	314.44
621.708	299.44
621.915	309.44
622.122	320.44
622.329	318.44
622.536	298.44
622.743	292.44
622.95	309.44
623.157	308.44
623.364	279.44
623.571	295.44
623.778	291.44
623.985	304.44
624.192	297.44
624.399	301.44
624.606	276.44
624.812	272.44
625.019	285.44
625.226	278.44
625.433	288.44
625.639	278.44
625.846	278.44
626.053	260.44
626.259	286.44
626.466	282.44
626.673	286.44
626.879	269.44
627.086	275.44
627.293	273.44
627.499	254.44
627.706	278.44
627.912	277.44
628.119	282.44
628.325	283.44
628.532	267.44
628.738	270.44
628.945	272.44
629.151	243.44
629.357	260.44
629.564	258.44
629.77	272.44
629.976	246.44
630.183	245.44
630.389	251.44
630.595	269.44
630.802	273.44
631.008	256.44
631.214	272.44
631.42	284.44
631.627	273.44
631.833	259.44
632.039	264.44
632.245	282.44
632.451	265.44
632.657	249.44
632.863	249.44
633.069	262.44
633.275	269.44
633.481	254.44
633.688	249.44
633.893	247.44
634.099	268.44
634.305	263.44
634.511	255.44
634.717	269.44
634.923	261.44
635.129	284.44
635.335	268.44
635.541	297.44
635.747	312.44
635.952	323.44
636.158	374.44
636.364	526.44
636.57	676.44
636.775	504.44
636.981	410.44
637.187	369.44
637.392	346.44
637.598	329.44
637.804	327.44
638.009	312.44
638.215	282.44
638.421	257.44
638.626	288.44
638.832	269.44
639.037	272.44
639.243	270.44
639.448	246.44
639.654	266.44
639.859	252.44
640.065	243.44
640.27	242.44
640.475	235.44
640.681	246.44
640.886	233.44
641.091	241.44
641.297	249.44
641.502	232.44
641.707	233.44
641.913	234.44
642.118	219.44
642.323	247.44
642.528	240.44
642.733	225.44
642.939	233.44
643.144	229.44
643.349	237.44
643.554	227.44
643.759	226.44
643.964	220.44
644.169	223.44
644.374	225.44
644.579	214.44
644.784	238.44
644.989	227.44
645.194	226.44
645.399	225.44
645.604	214.44
645.809	217.44
646.014	224.44
646.219	237.44
646.423	212.44
646.628	197.44
646.833	238.44
647.038	245.44
647.243	221.44
647.447	220.44
647.652	243.44
647.857	227.44
648.062	236.44
648.266	243.44
648.471	235.44
648.676	236.44
648.88	229.44
649.085	210.44
649.289	228.44
649.494	200.44
649.698	202.44
649.903	223.44
650.107	217.44
650.312	191.44
650.516	219.44
650.721	204.44
650.925	201.44
651.13	202.44
651.334	188.44
651.539	188.44
651.743	197.44
651.947	202.44
652.152	201.44
652.356	185.44
652.56	196.44
652.764	167.44
652.969	175.44
653.173	187.44
653.377	170.44
653.581	175.44
653.785	172.44
653.99	164.44
654.194	180.44
654.398	164.44
654.602	164.44
654.806	153.44
655.01	170.44
655.214	154.44
655.418	161.44
655.622	153.44
655.826	166.44
656.03	166.44
656.234	165.44
656.438	190.44
656.642	173.44
656.846	170.44
657.049	157.44
657.253	159.44
657.457	149.44
657.661	133.44
657.865	133.44
658.068	133.44
658.272	138.44
658.476	127.44
658.68	130.44
658.883	130.44
659.087	126.44
659.291	109.44
659.494	131.44
659.698	119.44
659.901	109.44
660.105	104.44
660.309	105.44
660.512	113.44
660.716	116.44
660.919	112.44
661.123	107.44
661.326	89.44
661.53	124.44
661.733	94.44
661.936	112.44
662.14	108.44
662.343	97.44
662.546	87.44
662.75	97.44
662.953	106.44
663.156	85.44
663.36	89.44
663.563	88.44
663.766	91.44
663.969	90.44
664.173	96.44
664.376	102.44
664.579	99.44
664.782	97.44
664.985	84.44
665.188	78.44
665.391	96.44
665.594	88.44
665.797	98.44
666	86.44
666.203	92.44
666.406	87.44
666.609	102.44
666.812	94.44
667.015	92.44
667.218	78.44
667.421	81.44
667.624	82.44
667.827	103.44
668.03	82.44
668.232	90.44
668.435	88.44
668.638	79.44
668.841	93.44
669.043	93.44
669.246	74.44
669.449	84.44
669.651	92.44
669.854	96.44
670.057	95.44
670.259	72.44
670.462	92.44
670.665	91.44
670.867	87.44
671.07	93.44
671.272	82.44
671.475	84.44
671.677	87.44
671.88	78.44
672.082	93.44
672.284	83.44
672.487	92.44
672.689	81.44
672.892	77.44
