Data from FlinnAP5935BZINC.07152019.LAMPEdge.EN5.5scans.P1_HRD10591_15-00-02-579.txt Node
Date: Mon Jul 15 15:00:02 EDT 2019
User: cochatt
Spectrometer: HR+D1059
Trigger mode: 1
Integration Time (sec): 1.000000E-1
Scans to average: 1
Electric dark correction enabled: true
Nonlinearity correction enabled: false
Boxcar width: 0
XAxis mode: Wavelengths
Number of Pixels in Spectrum: 2048
>>>>>Begin Spectral Data<<<<<
223.165	-27.56
223.4	-27.56
223.635	-27.56
223.869	-19.56
224.104	-8.56
224.338	-11.56
224.573	-10.56
224.808	-7.56
225.042	4.44
225.277	8.44
225.511	9.44
225.746	-4.56
225.98	-3.56
226.215	8.44
226.449	18.44
226.683	7.44
226.918	23.44
227.152	13.44
227.387	36.44
227.621	37.44
227.856	51.44
228.09	45.44
228.324	47.44
228.559	44.44
228.793	56.44
229.027	91.44
229.262	131.44
229.496	105.44
229.73	113.44
229.964	125.44
230.199	129.44
230.433	134.44
230.667	124.44
230.901	126.44
231.136	134.44
231.37	135.44
231.604	133.44
231.838	139.44
232.072	137.44
232.306	155.44
232.541	151.44
232.775	143.44
233.009	155.44
233.243	147.44
233.477	152.44
233.711	144.44
233.945	140.44
234.179	139.44
234.413	143.44
234.647	134.44
234.881	148.44
235.115	160.44
235.349	162.44
235.583	137.44
235.817	155.44
236.051	161.44
236.285	144.44
236.519	173.44
236.753	165.44
236.987	158.44
237.221	153.44
237.455	159.44
237.689	172.44
237.922	155.44
238.156	177.44
238.39	165.44
238.624	155.44
238.858	165.44
239.091	169.44
239.325	173.44
239.559	165.44
239.793	170.44
240.027	175.44
240.26	173.44
240.494	178.44
240.728	179.44
240.961	188.44
241.195	168.44
241.429	178.44
241.662	177.44
241.896	179.44
242.13	175.44
242.363	179.44
242.597	197.44
242.83	214.44
243.064	190.44
243.298	196.44
243.531	200.44
243.765	214.44
243.998	200.44
244.232	212.44
244.465	196.44
244.699	205.44
244.932	218.44
245.166	227.44
245.399	220.44
245.633	218.44
245.866	213.44
246.099	207.44
246.333	224.44
246.566	232.44
246.8	226.44
247.033	229.44
247.266	228.44
247.5	226.44
247.733	227.44
247.966	244.44
248.2	248.44
248.433	245.44
248.666	248.44
248.899	271.44
249.133	235.44
249.366	290.44
249.599	283.44
249.832	294.44
250.066	311.44
250.299	365.44
250.532	478.44
250.765	562.44
250.998	461.44
251.231	382.44
251.465	363.44
251.698	340.44
251.931	323.44
252.164	312.44
252.397	293.44
252.63	328.44
252.863	291.44
253.096	310.44
253.329	315.44
253.562	301.44
253.795	311.44
254.028	309.44
254.261	335.44
254.494	313.44
254.727	323.44
254.96	349.44
255.193	353.44
255.426	405.44
255.659	444.44
255.892	599.44
256.124	817.44
256.357	919.44
256.59	725.44
256.823	575.44
257.056	509.44
257.289	452.44
257.521	429.44
257.754	411.44
257.987	412.44
258.22	389.44
258.452	371.44
258.685	354.44
258.918	355.44
259.151	359.44
259.383	361.44
259.616	358.44
259.849	363.44
260.081	357.44
260.314	366.44
260.547	367.44
260.779	348.44
261.012	359.44
261.244	362.44
261.477	367.44
261.71	359.44
261.942	365.44
262.175	364.44
262.407	344.44
262.64	348.44
262.872	340.44
263.105	345.44
263.337	368.44
263.57	358.44
263.802	368.44
264.035	351.44
264.267	348.44
264.499	364.44
264.732	359.44
264.964	363.44
265.197	358.44
265.429	340.44
265.661	353.44
265.894	360.44
266.126	375.44
266.358	380.44
266.591	354.44
266.823	396.44
267.055	371.44
267.287	362.44
267.52	380.44
267.752	379.44
267.984	387.44
268.216	359.44
268.448	392.44
268.681	388.44
268.913	396.44
269.145	377.44
269.377	382.44
269.609	401.44
269.841	399.44
270.073	412.44
270.306	395.44
270.538	420.44
270.77	408.44
271.002	398.44
271.234	396.44
271.466	418.44
271.698	411.44
271.93	438.44
272.162	415.44
272.394	434.44
272.626	423.44
272.858	441.44
273.09	412.44
273.322	433.44
273.553	447.44
273.785	444.44
274.017	463.44
274.249	447.44
274.481	447.44
274.713	437.44
274.945	451.44
275.176	476.44
275.408	476.44
275.64	510.44
275.872	509.44
276.104	534.44
276.335	518.44
276.567	523.44
276.799	542.44
277.031	581.44
277.262	619.44
277.494	619.44
277.726	600.44
277.957	573.44
278.189	561.44
278.421	543.44
278.652	564.44
278.884	545.44
279.115	525.44
279.347	552.44
279.579	547.44
279.81	597.44
280.042	647.44
280.273	739.44
280.505	767.44
280.736	682.44
280.968	611.44
281.199	611.44
281.431	579.44
281.662	571.44
281.894	564.44
282.125	536.44
282.356	530.44
282.588	525.44
282.819	541.44
283.051	525.44
283.282	534.44
283.513	513.44
283.745	511.44
283.976	520.44
284.207	532.44
284.439	527.44
284.67	532.44
284.901	526.44
285.132	559.44
285.364	509.44
285.595	535.44
285.826	513.44
286.057	527.44
286.288	545.44
286.52	541.44
286.751	552.44
286.982	558.44
287.213	561.44
287.444	548.44
287.675	543.44
287.906	552.44
288.138	528.44
288.369	549.44
288.6	553.44
288.831	546.44
289.062	544.44
289.293	550.44
289.524	552.44
289.755	571.44
289.986	555.44
290.217	571.44
290.448	544.44
290.679	551.44
290.91	573.44
291.141	544.44
291.371	545.44
291.602	535.44
291.833	560.44
292.064	561.44
292.295	540.44
292.526	550.44
292.757	551.44
292.987	545.44
293.218	531.44
293.449	551.44
293.68	536.44
293.91	536.44
294.141	546.44
294.372	512.44
294.603	540.44
294.833	552.44
295.064	534.44
295.295	540.44
295.525	525.44
295.756	527.44
295.987	561.44
296.217	582.44
296.448	549.44
296.679	553.44
296.909	565.44
297.14	558.44
297.37	599.44
297.601	573.44
297.831	562.44
298.062	564.44
298.292	572.44
298.523	595.44
298.753	593.44
298.984	568.44
299.214	560.44
299.445	571.44
299.675	573.44
299.905	588.44
300.136	589.44
300.366	608.44
300.597	607.44
300.827	605.44
301.057	612.44
301.288	639.44
301.518	626.44
301.748	629.44
301.979	643.44
302.209	643.44
302.439	633.44
302.669	624.44
302.9	628.44
303.13	646.44
303.36	625.44
303.59	644.44
303.82	689.44
304.051	663.44
304.281	669.44
304.511	625.44
304.741	626.44
304.971	613.44
305.201	629.44
305.431	603.44
305.661	637.44
305.891	630.44
306.121	604.44
306.352	608.44
306.582	610.44
306.812	636.44
307.042	661.44
307.272	711.44
307.502	741.44
307.731	744.44
307.961	701.44
308.191	661.44
308.421	615.44
308.651	626.44
308.881	615.44
309.111	640.44
309.341	608.44
309.571	644.44
309.8	632.44
310.03	649.44
310.26	644.44
310.49	646.44
310.72	631.44
310.949	624.44
311.179	640.44
311.409	620.44
311.639	661.44
311.868	624.44
312.098	641.44
312.328	630.44
312.557	659.44
312.787	659.44
313.017	638.44
313.246	671.44
313.476	677.44
313.706	661.44
313.935	662.44
314.165	649.44
314.394	658.44
314.624	673.44
314.853	666.44
315.083	668.44
315.312	664.44
315.542	663.44
315.771	673.44
316.001	666.44
316.23	652.44
316.46	676.44
316.689	664.44
316.919	677.44
317.148	701.44
317.377	685.44
317.607	668.44
317.836	680.44
318.065	663.44
318.295	654.44
318.524	687.44
318.753	690.44
318.983	675.44
319.212	679.44
319.441	701.44
319.67	658.44
319.9	695.44
320.129	712.44
320.358	702.44
320.587	684.44
320.816	701.44
321.046	677.44
321.275	700.44
321.504	688.44
321.733	673.44
321.962	706.44
322.191	715.44
322.42	724.44
322.649	728.44
322.878	728.44
323.108	740.44
323.337	760.44
323.566	768.44
323.795	803.44
324.024	803.44
324.253	806.44
324.482	783.44
324.71	819.44
324.939	810.44
325.168	818.44
325.397	825.44
325.626	837.44
325.855	866.44
326.084	853.44
326.313	902.44
326.542	907.44
326.77	945.44
326.999	983.44
327.228	999.44
327.457	1096.44
327.686	1206.44
327.914	1428.44
328.143	1837.44
328.372	2225.44
328.6	2038.44
328.829	1514.44
329.058	1372.44
329.287	1362.44
329.515	1489.44
329.744	1789.44
329.972	2415.44
330.201	3283.44
330.43	4085.44
330.658	3291.44
330.887	2064.44
331.115	1541.44
331.344	1368.44
331.572	1257.44
331.801	1248.44
332.03	1218.44
332.258	1181.44
332.486	1217.44
332.715	1277.44
332.943	1359.44
333.172	1430.44
333.4	1559.44
333.629	1751.44
333.857	2061.44
334.085	2671.44
334.314	3683.44
334.542	5057.44
334.771	5387.44
334.999	3477.44
335.227	2209.44
335.455	1707.44
335.684	1455.44
335.912	1344.44
336.14	1217.44
336.369	1148.44
336.597	1087.44
336.825	1057.44
337.053	1061.44
337.281	1001.44
337.51	972.44
337.738	960.44
337.966	945.44
338.194	935.44
338.422	879.44
338.65	893.44
338.878	867.44
339.106	848.44
339.334	866.44
339.562	817.44
339.79	833.44
340.018	800.44
340.246	783.44
340.474	801.44
340.702	799.44
340.93	802.44
341.158	777.44
341.386	779.44
341.614	809.44
341.842	775.44
342.07	768.44
342.298	782.44
342.526	779.44
342.754	746.44
342.981	779.44
343.209	786.44
343.437	801.44
343.665	856.44
343.893	888.44
344.12	871.44
344.348	879.44
344.576	812.44
344.804	786.44
345.031	787.44
345.259	762.44
345.487	756.44
345.714	742.44
345.942	733.44
346.17	708.44
346.397	701.44
346.625	719.44
346.853	719.44
347.08	715.44
347.308	735.44
347.535	740.44
347.763	715.44
347.99	715.44
348.218	738.44
348.445	728.44
348.673	708.44
348.9	710.44
349.128	700.44
349.355	710.44
349.583	699.44
349.81	718.44
350.037	700.44
350.265	667.44
350.492	721.44
350.72	671.44
350.947	708.44
351.174	715.44
351.402	703.44
351.629	710.44
351.856	696.44
352.083	663.44
352.311	699.44
352.538	678.44
352.765	683.44
352.992	681.44
353.22	677.44
353.447	689.44
353.674	692.44
353.901	719.44
354.128	663.44
354.355	681.44
354.583	689.44
354.81	691.44
355.037	671.44
355.264	679.44
355.491	693.44
355.718	695.44
355.945	686.44
356.172	687.44
356.399	700.44
356.626	703.44
356.853	681.44
357.08	674.44
357.307	702.44
357.534	684.44
357.761	693.44
357.988	685.44
358.215	690.44
358.441	697.44
358.668	690.44
358.895	683.44
359.122	684.44
359.349	682.44
359.576	664.44
359.802	688.44
360.029	703.44
360.256	683.44
360.483	694.44
360.709	690.44
360.936	674.44
361.163	651.44
361.39	677.44
361.616	666.44
361.843	693.44
362.07	653.44
362.296	675.44
362.523	675.44
362.749	631.44
362.976	652.44
363.203	674.44
363.429	676.44
363.656	673.44
363.882	666.44
364.109	682.44
364.335	678.44
364.562	672.44
364.788	667.44
365.015	667.44
365.241	664.44
365.468	674.44
365.694	670.44
365.92	679.44
366.147	671.44
366.373	660.44
366.599	670.44
366.826	682.44
367.052	661.44
367.278	665.44
367.505	674.44
367.731	690.44
367.957	670.44
368.184	677.44
368.41	694.44
368.636	680.44
368.862	665.44
369.089	664.44
369.315	660.44
369.541	670.44
369.767	658.44
369.993	690.44
370.219	674.44
370.445	701.44
370.672	685.44
370.898	712.44
371.124	695.44
371.35	738.44
371.576	741.44
371.802	708.44
372.028	718.44
372.254	725.44
372.48	703.44
372.706	723.44
372.932	735.44
373.158	712.44
373.384	743.44
373.61	709.44
373.835	707.44
374.061	676.44
374.287	717.44
374.513	755.44
374.739	763.44
374.965	753.44
375.191	774.44
375.416	753.44
375.642	724.44
375.868	710.44
376.094	711.44
376.319	710.44
376.545	736.44
376.771	717.44
376.997	716.44
377.222	682.44
377.448	707.44
377.674	716.44
377.899	699.44
378.125	691.44
378.35	697.44
378.576	703.44
378.802	692.44
379.027	680.44
379.253	718.44
379.478	687.44
379.704	673.44
379.929	677.44
380.155	711.44
380.38	688.44
380.606	670.44
380.831	684.44
381.057	690.44
381.282	705.44
381.507	718.44
381.733	715.44
381.958	744.44
382.184	723.44
382.409	731.44
382.634	725.44
382.86	721.44
383.085	728.44
383.31	760.44
383.535	769.44
383.761	756.44
383.986	780.44
384.211	775.44
384.436	791.44
384.662	814.44
384.887	821.44
385.112	800.44
385.337	813.44
385.562	833.44
385.787	824.44
386.013	840.44
386.238	832.44
386.463	816.44
386.688	809.44
386.913	796.44
387.138	812.44
387.363	831.44
387.588	831.44
387.813	832.44
388.038	820.44
388.263	821.44
388.488	834.44
388.713	809.44
388.938	782.44
389.163	785.44
389.387	801.44
389.612	788.44
389.837	799.44
390.062	774.44
390.287	767.44
390.512	781.44
390.736	779.44
390.961	832.44
391.186	840.44
391.411	847.44
391.636	830.44
391.86	867.44
392.085	855.44
392.31	870.44
392.534	875.44
392.759	848.44
392.984	851.44
393.208	835.44
393.433	851.44
393.658	852.44
393.882	856.44
394.107	847.44
394.331	860.44
394.556	826.44
394.78	849.44
395.005	850.44
395.229	853.44
395.454	892.44
395.678	894.44
395.903	875.44
396.127	885.44
396.352	853.44
396.576	841.44
396.801	867.44
397.025	851.44
397.249	880.44
397.474	918.44
397.698	880.44
397.922	897.44
398.147	911.44
398.371	909.44
398.595	965.44
398.82	989.44
399.044	1056.44
399.268	1142.44
399.492	1260.44
399.717	1389.44
399.941	1389.44
400.165	1253.44
400.389	1155.44
400.613	1061.44
400.837	1054.44
401.062	1015.44
401.286	995.44
401.51	1013.44
401.734	988.44
401.958	1016.44
402.182	1017.44
402.406	1012.44
402.63	1023.44
402.854	1094.44
403.078	1066.44
403.302	1075.44
403.526	1112.44
403.75	1130.44
403.974	1150.44
404.198	1143.44
404.422	1159.44
404.645	1205.44
404.869	1248.44
405.093	1325.44
405.317	1389.44
405.541	1382.44
405.765	1305.44
405.988	1217.44
406.212	1189.44
406.436	1157.44
406.66	1165.44
406.883	1124.44
407.107	1174.44
407.331	1218.44
407.555	1233.44
407.778	1265.44
408.002	1184.44
408.226	1180.44
408.449	1172.44
408.673	1153.44
408.896	1121.44
409.12	1085.44
409.344	1120.44
409.567	1105.44
409.791	1103.44
410.014	1060.44
410.238	1041.44
410.461	1053.44
410.685	1065.44
410.908	1106.44
411.132	1068.44
411.355	1059.44
411.578	1077.44
411.802	1073.44
412.025	1123.44
412.249	1207.44
412.472	1294.44
412.695	1375.44
412.919	1356.44
413.142	1266.44
413.365	1202.44
413.589	1165.44
413.812	1091.44
414.035	1102.44
414.258	1073.44
414.482	1092.44
414.705	1087.44
414.928	1030.44
415.151	1025.44
415.374	1015.44
415.597	1040.44
415.821	1027.44
416.044	1043.44
416.267	1003.44
416.49	1015.44
416.713	971.44
416.936	972.44
417.159	987.44
417.382	1029.44
417.605	1077.44
417.828	1128.44
418.051	1062.44
418.274	1009.44
418.497	1031.44
418.72	1021.44
418.943	1056.44
419.166	1071.44
419.389	1139.44
419.611	1181.44
419.834	1148.44
420.057	1215.44
420.28	1257.44
420.503	1270.44
420.726	1203.44
420.948	1167.44
421.171	1157.44
421.394	1117.44
421.617	1052.44
421.839	1051.44
422.062	1043.44
422.285	992.44
422.507	1057.44
422.73	1037.44
422.953	1014.44
423.175	1023.44
423.398	1057.44
423.621	1037.44
423.843	1056.44
424.066	1029.44
424.288	1054.44
424.511	1035.44
424.733	1020.44
424.956	1006.44
425.178	1021.44
425.401	1012.44
425.623	979.44
425.846	963.44
426.068	957.44
426.291	957.44
426.513	975.44
426.735	960.44
426.958	980.44
427.18	977.44
427.402	1027.44
427.625	1102.44
427.847	1205.44
428.069	1336.44
428.292	1230.44
428.514	1093.44
428.736	1017.44
428.958	968.44
429.181	952.44
429.403	923.44
429.625	905.44
429.847	896.44
430.069	892.44
430.292	896.44
430.514	888.44
430.736	888.44
430.958	885.44
431.18	878.44
431.402	869.44
431.624	896.44
431.846	880.44
432.068	900.44
432.29	883.44
432.512	872.44
432.734	885.44
432.956	893.44
433.178	870.44
433.4	870.44
433.622	886.44
433.844	887.44
434.066	885.44
434.287	902.44
434.509	916.44
434.731	929.44
434.953	963.44
435.175	985.44
435.397	913.44
435.618	936.44
435.84	937.44
436.062	904.44
436.284	864.44
436.505	868.44
436.727	881.44
436.949	868.44
437.17	855.44
437.392	861.44
437.614	845.44
437.835	841.44
438.057	814.44
438.278	813.44
438.5	827.44
438.721	853.44
438.943	829.44
439.165	831.44
439.386	840.44
439.608	874.44
439.829	832.44
440.05	856.44
440.272	872.44
440.493	866.44
440.715	863.44
440.936	868.44
441.158	905.44
441.379	886.44
441.6	936.44
441.822	945.44
442.043	937.44
442.264	934.44
442.486	929.44
442.707	951.44
442.928	946.44
443.149	945.44
443.371	928.44
443.592	931.44
443.813	936.44
444.034	966.44
444.255	979.44
444.476	1026.44
444.698	1052.44
444.919	1107.44
445.14	1179.44
445.361	1069.44
445.582	1015.44
445.803	918.44
446.024	895.44
446.245	898.44
446.466	880.44
446.687	863.44
446.908	863.44
447.129	838.44
447.35	812.44
447.571	816.44
447.792	825.44
448.013	804.44
448.234	794.44
448.455	796.44
448.675	793.44
448.896	801.44
449.117	779.44
449.338	782.44
449.559	779.44
449.779	771.44
450	760.44
450.221	784.44
450.442	809.44
450.662	801.44
450.883	790.44
451.104	813.44
451.324	792.44
451.545	771.44
451.766	783.44
451.986	808.44
452.207	795.44
452.428	780.44
452.648	769.44
452.869	776.44
453.089	730.44
453.31	781.44
453.53	753.44
453.751	736.44
453.971	725.44
454.192	743.44
454.412	743.44
454.633	724.44
454.853	739.44
455.073	752.44
455.294	747.44
455.514	771.44
455.734	746.44
455.955	724.44
456.175	722.44
456.395	708.44
456.616	721.44
456.836	745.44
457.056	730.44
457.276	731.44
457.497	760.44
457.717	758.44
457.937	759.44
458.157	764.44
458.377	764.44
458.598	781.44
458.818	782.44
459.038	808.44
459.258	820.44
459.478	873.44
459.698	882.44
459.918	885.44
460.138	944.44
460.358	941.44
460.578	953.44
460.798	988.44
461.018	976.44
461.238	953.44
461.458	965.44
461.678	959.44
461.898	1000.44
462.118	983.44
462.338	1020.44
462.558	1041.44
462.777	1106.44
462.997	1150.44
463.217	1254.44
463.437	1248.44
463.657	1164.44
463.876	1121.44
464.096	1107.44
464.316	1105.44
464.536	1096.44
464.755	1091.44
464.975	1055.44
465.195	1033.44
465.414	957.44
465.634	928.44
465.854	915.44
466.073	886.44
466.293	872.44
466.512	847.44
466.732	884.44
466.951	851.44
467.171	855.44
467.391	914.44
467.61	937.44
467.829	1015.44
468.049	1375.44
468.268	2043.44
468.488	1601.44
468.707	1199.44
468.927	1046.44
469.146	967.44
469.365	963.44
469.585	911.44
469.804	941.44
470.023	934.44
470.243	936.44
470.462	950.44
470.681	969.44
470.901	959.44
471.12	947.44
471.339	954.44
471.558	997.44
471.777	1055.44
471.997	1253.44
472.216	1991.44
472.435	3920.44
472.654	3109.44
472.873	1940.44
473.092	1505.44
473.311	1264.44
473.53	1171.44
473.749	1075.44
473.968	1054.44
474.187	983.44
474.406	955.44
474.625	952.44
474.844	975.44
475.063	939.44
475.282	931.44
475.501	919.44
475.72	907.44
475.939	920.44
476.158	920.44
476.377	912.44
476.596	921.44
476.814	920.44
477.033	908.44
477.252	914.44
477.471	937.44
477.69	981.44
477.908	958.44
478.127	1011.44
478.346	1040.44
478.564	1061.44
478.783	1039.44
479.002	1096.44
479.22	1103.44
479.439	1099.44
479.658	1127.44
479.876	1151.44
480.095	1216.44
480.313	1279.44
480.532	1429.44
480.751	1647.44
480.969	2305.44
481.188	5057.44
481.406	6420.44
481.624	3567.44
481.843	2459.44
482.061	1962.44
482.28	1685.44
482.498	1527.44
482.717	1400.44
482.935	1361.44
483.153	1250.44
483.372	1211.44
483.59	1213.44
483.808	1182.44
484.027	1142.44
484.245	1129.44
484.463	1135.44
484.681	1125.44
484.9	1132.44
485.118	1113.44
485.336	1100.44
485.554	1109.44
485.772	1108.44
485.99	1111.44
486.209	1104.44
486.427	1090.44
486.645	1095.44
486.863	1089.44
487.081	1118.44
487.299	1120.44
487.517	1095.44
487.735	1091.44
487.953	1094.44
488.171	1110.44
488.389	1144.44
488.607	1133.44
488.825	1090.44
489.043	1127.44
489.261	1157.44
489.479	1097.44
489.696	1157.44
489.914	1172.44
490.132	1184.44
490.35	1216.44
490.568	1266.44
490.786	1284.44
491.003	1320.44
491.221	1323.44
491.439	1443.44
491.657	1471.44
491.874	1495.44
492.092	1486.44
492.31	1519.44
492.527	1571.44
492.745	1603.44
492.963	1608.44
493.18	1580.44
493.398	1554.44
493.615	1506.44
493.833	1507.44
494.05	1475.44
494.268	1406.44
494.485	1403.44
494.703	1398.44
494.92	1365.44
495.138	1344.44
495.355	1353.44
495.573	1345.44
495.79	1325.44
496.008	1267.44
496.225	1301.44
496.442	1279.44
496.66	1270.44
496.877	1273.44
497.094	1276.44
497.312	1311.44
497.529	1272.44
497.746	1351.44
497.963	1322.44
498.181	1388.44
498.398	1408.44
498.615	1471.44
498.832	1509.44
499.049	1591.44
499.267	1664.44
499.484	1798.44
499.701	1948.44
499.918	2075.44
500.135	2277.44
500.352	2521.44
500.569	2661.44
500.786	2664.44
501.003	2549.44
501.22	2339.44
501.437	2097.44
501.654	1920.44
501.871	1734.44
502.088	1600.44
502.305	1543.44
502.522	1488.44
502.739	1429.44
502.956	1379.44
503.172	1271.44
503.389	1238.44
503.606	1227.44
503.823	1201.44
504.04	1206.44
504.256	1217.44
504.473	1223.44
504.69	1237.44
504.907	1207.44
505.123	1151.44
505.34	1080.44
505.557	1075.44
505.773	1031.44
505.99	1057.44
506.207	988.44
506.423	994.44
506.64	969.44
506.856	984.44
507.073	987.44
507.289	945.44
507.506	980.44
507.722	949.44
507.939	936.44
508.155	939.44
508.372	917.44
508.588	942.44
508.805	938.44
509.021	904.44
509.238	914.44
509.454	900.44
509.67	921.44
509.887	886.44
510.103	861.44
510.319	897.44
510.536	877.44
510.752	892.44
510.968	869.44
511.184	912.44
511.401	943.44
511.617	980.44
511.833	1121.44
512.049	1199.44
512.265	1133.44
512.481	1039.44
512.698	969.44
512.914	946.44
513.13	981.44
513.346	940.44
513.562	913.44
513.778	902.44
513.994	923.44
514.21	903.44
514.426	888.44
514.642	880.44
514.858	915.44
515.074	874.44
515.29	905.44
515.506	908.44
515.721	919.44
515.937	937.44
516.153	932.44
516.369	958.44
516.585	949.44
516.801	1021.44
517.016	1044.44
517.232	1091.44
517.448	1110.44
517.664	1101.44
517.879	1123.44
518.095	1131.44
518.311	1089.44
518.527	1085.44
518.742	1040.44
518.958	993.44
519.173	987.44
519.389	945.44
519.605	929.44
519.82	918.44
520.036	910.44
520.251	903.44
520.467	843.44
520.682	872.44
520.898	850.44
521.113	848.44
521.329	847.44
521.544	828.44
521.76	819.44
521.975	843.44
522.19	837.44
522.406	803.44
522.621	803.44
522.836	802.44
523.052	827.44
523.267	805.44
523.482	808.44
523.698	787.44
523.913	791.44
524.128	777.44
524.343	796.44
524.559	789.44
524.774	786.44
524.989	790.44
525.204	762.44
525.419	768.44
525.634	776.44
525.849	785.44
526.064	771.44
526.28	787.44
526.495	763.44
526.71	788.44
526.925	752.44
527.14	747.44
527.355	756.44
527.57	780.44
527.785	763.44
527.999	766.44
528.214	777.44
528.429	780.44
528.644	753.44
528.859	766.44
529.074	788.44
529.289	785.44
529.503	804.44
529.718	785.44
529.933	748.44
530.148	765.44
530.363	809.44
530.577	785.44
530.792	766.44
531.007	765.44
531.221	757.44
531.436	758.44
531.651	780.44
531.865	768.44
532.08	768.44
532.295	752.44
532.509	755.44
532.724	771.44
532.938	759.44
533.153	766.44
533.367	744.44
533.582	803.44
533.796	783.44
534.011	761.44
534.225	759.44
534.44	761.44
534.654	758.44
534.868	757.44
535.083	753.44
535.297	754.44
535.511	737.44
535.726	760.44
535.94	742.44
536.154	746.44
536.369	734.44
536.583	723.44
536.797	705.44
537.011	706.44
537.225	693.44
537.44	737.44
537.654	735.44
537.868	720.44
538.082	694.44
538.296	726.44
538.51	696.44
538.724	704.44
538.938	703.44
539.153	707.44
539.367	694.44
539.581	712.44
539.795	735.44
540.009	705.44
540.222	691.44
540.436	703.44
540.65	704.44
540.864	708.44
541.078	707.44
541.292	721.44
541.506	723.44
541.72	721.44
541.934	736.44
542.147	732.44
542.361	747.44
542.575	727.44
542.789	729.44
543.002	713.44
543.216	702.44
543.43	696.44
543.644	703.44
543.857	724.44
544.071	719.44
544.285	722.44
544.498	712.44
544.712	726.44
544.925	723.44
545.139	749.44
545.352	740.44
545.566	764.44
545.779	758.44
545.993	739.44
546.206	760.44
546.42	748.44
546.633	740.44
546.847	721.44
547.06	751.44
547.274	738.44
547.487	732.44
547.7	736.44
547.914	735.44
548.127	745.44
548.34	741.44
548.554	752.44
548.767	739.44
548.98	741.44
549.193	746.44
549.407	739.44
549.62	762.44
549.833	760.44
550.046	763.44
550.259	722.44
550.473	749.44
550.686	732.44
550.899	736.44
551.112	719.44
551.325	729.44
551.538	707.44
551.751	706.44
551.964	731.44
552.177	736.44
552.39	721.44
552.603	762.44
552.816	759.44
553.029	768.44
553.242	800.44
553.455	792.44
553.667	767.44
553.88	772.44
554.093	744.44
554.306	743.44
554.519	788.44
554.732	729.44
554.944	710.44
555.157	701.44
555.37	681.44
555.583	695.44
555.795	667.44
556.008	687.44
556.221	665.44
556.433	660.44
556.646	653.44
556.859	636.44
557.071	623.44
557.284	634.44
557.496	660.44
557.709	631.44
557.921	637.44
558.134	613.44
558.346	620.44
558.559	612.44
558.771	615.44
558.984	610.44
559.196	624.44
559.409	609.44
559.621	630.44
559.833	629.44
560.046	639.44
560.258	627.44
560.47	658.44
560.683	629.44
560.895	625.44
561.107	628.44
561.32	639.44
561.532	623.44
561.744	628.44
561.956	635.44
562.168	648.44
562.381	623.44
562.593	633.44
562.805	630.44
563.017	623.44
563.229	603.44
563.441	625.44
563.653	629.44
563.865	625.44
564.077	617.44
564.289	628.44
564.501	627.44
564.713	636.44
564.925	645.44
565.137	653.44
565.349	674.44
565.561	688.44
565.773	708.44
565.985	716.44
566.197	750.44
566.408	835.44
566.62	870.44
566.832	891.44
567.044	918.44
567.255	925.44
567.467	945.44
567.679	979.44
567.891	1011.44
568.102	1053.44
568.314	969.44
568.526	936.44
568.737	853.44
568.949	811.44
569.161	769.44
569.372	687.44
569.584	666.44
569.795	660.44
570.007	658.44
570.218	633.44
570.43	617.44
570.641	611.44
570.853	622.44
571.064	605.44
571.276	617.44
571.487	599.44
571.698	579.44
571.91	558.44
572.121	569.44
572.333	542.44
572.544	527.44
572.755	565.44
572.966	539.44
573.178	531.44
573.389	516.44
573.6	533.44
573.811	516.44
574.023	487.44
574.234	523.44
574.445	508.44
574.656	519.44
574.867	532.44
575.078	506.44
575.289	511.44
575.501	507.44
575.712	502.44
575.923	492.44
576.134	492.44
576.345	495.44
576.556	500.44
576.767	501.44
576.978	483.44
577.188	478.44
577.399	475.44
577.61	481.44
577.821	477.44
578.032	464.44
578.243	480.44
578.454	476.44
578.665	467.44
578.875	472.44
579.086	462.44
579.297	462.44
579.508	492.44
579.718	461.44
579.929	464.44
580.14	465.44
580.35	467.44
580.561	461.44
580.772	438.44
580.982	470.44
581.193	458.44
581.403	460.44
581.614	445.44
581.825	455.44
582.035	451.44
582.246	443.44
582.456	449.44
582.667	442.44
582.877	440.44
583.087	428.44
583.298	434.44
583.508	423.44
583.719	427.44
583.929	435.44
584.139	424.44
584.35	416.44
584.56	440.44
584.77	441.44
584.981	434.44
585.191	424.44
585.401	434.44
585.611	427.44
585.821	422.44
586.032	429.44
586.242	413.44
586.452	413.44
586.662	439.44
586.872	423.44
587.082	420.44
587.292	459.44
587.502	430.44
587.713	426.44
587.923	437.44
588.133	430.44
588.343	427.44
588.553	423.44
588.762	438.44
588.972	445.44
589.182	440.44
589.392	447.44
589.602	460.44
589.812	486.44
590.022	447.44
590.232	423.44
590.441	422.44
590.651	434.44
590.861	452.44
591.071	440.44
591.281	451.44
591.49	433.44
591.7	453.44
591.91	459.44
592.119	461.44
592.329	490.44
592.539	490.44
592.748	493.44
592.958	521.44
593.167	527.44
593.377	541.44
593.587	515.44
593.796	518.44
594.006	524.44
594.215	526.44
594.424	544.44
594.634	516.44
594.843	483.44
595.053	499.44
595.262	493.44
595.472	461.44
595.681	452.44
595.89	432.44
596.1	432.44
596.309	447.44
596.518	435.44
596.727	421.44
596.937	408.44
597.146	404.44
597.355	391.44
597.564	395.44
597.774	429.44
597.983	400.44
598.192	404.44
598.401	409.44
598.61	390.44
598.819	375.44
599.028	413.44
599.237	385.44
599.446	373.44
599.655	380.44
599.864	393.44
600.073	373.44
600.282	385.44
600.491	379.44
600.7	380.44
600.909	382.44
601.118	376.44
601.327	369.44
601.536	390.44
601.745	362.44
601.953	373.44
602.162	403.44
602.371	390.44
602.58	385.44
602.789	394.44
602.997	365.44
603.206	369.44
603.415	374.44
603.623	382.44
603.832	380.44
604.041	382.44
604.249	367.44
604.458	376.44
604.666	370.44
604.875	366.44
605.084	380.44
605.292	365.44
605.501	383.44
605.709	359.44
605.918	359.44
606.126	365.44
606.334	354.44
606.543	361.44
606.751	383.44
606.96	344.44
607.168	382.44
607.376	356.44
607.585	368.44
607.793	369.44
608.001	366.44
608.21	385.44
608.418	366.44
608.626	370.44
608.834	367.44
609.043	381.44
609.251	373.44
609.459	364.44
609.667	375.44
609.875	353.44
610.083	364.44
610.291	360.44
610.499	367.44
610.707	389.44
610.916	363.44
611.124	368.44
611.332	400.44
611.54	395.44
611.748	397.44
611.955	396.44
612.163	380.44
612.371	372.44
612.579	359.44
612.787	369.44
612.995	352.44
613.203	356.44
613.411	358.44
613.618	358.44
613.826	343.44
614.034	344.44
614.242	356.44
614.449	356.44
614.657	354.44
614.865	348.44
615.072	324.44
615.28	323.44
615.488	340.44
615.695	345.44
615.903	340.44
616.111	339.44
616.318	350.44
616.526	350.44
616.733	325.44
616.941	349.44
617.148	354.44
617.356	349.44
617.563	324.44
617.771	333.44
617.978	324.44
618.185	330.44
618.393	333.44
618.6	333.44
618.807	356.44
619.015	342.44
619.222	359.44
619.429	333.44
619.637	321.44
619.844	331.44
620.051	324.44
620.258	318.44
620.466	324.44
620.673	324.44
620.88	299.44
621.087	313.44
621.294	308.44
621.501	312.44
621.708	308.44
621.915	293.44
622.122	283.44
622.329	310.44
622.536	310.44
622.743	296.44
622.95	315.44
623.157	304.44
623.364	313.44
623.571	284.44
623.778	300.44
623.985	304.44
624.192	308.44
624.399	283.44
624.606	285.44
624.812	282.44
625.019	301.44
625.226	299.44
625.433	292.44
625.639	267.44
625.846	281.44
626.053	276.44
626.259	283.44
626.466	296.44
626.673	303.44
626.879	275.44
627.086	288.44
627.293	280.44
627.499	276.44
627.706	277.44
627.912	273.44
628.119	274.44
628.325	277.44
628.532	281.44
628.738	282.44
628.945	271.44
629.151	298.44
629.357	273.44
629.564	285.44
629.77	269.44
629.976	282.44
630.183	268.44
630.389	271.44
630.595	283.44
630.802	272.44
631.008	270.44
631.214	251.44
631.42	274.44
631.627	258.44
631.833	283.44
632.039	269.44
632.245	271.44
632.451	260.44
632.657	265.44
632.863	266.44
633.069	258.44
633.275	254.44
633.481	268.44
633.688	264.44
633.893	269.44
634.099	272.44
634.305	284.44
634.511	271.44
634.717	291.44
634.923	272.44
635.129	293.44
635.335	283.44
635.541	296.44
635.747	319.44
635.952	324.44
636.158	357.44
636.364	516.44
636.57	693.44
636.775	549.44
636.981	454.44
637.187	388.44
637.392	378.44
637.598	329.44
637.804	320.44
638.009	315.44
638.215	302.44
638.421	288.44
638.626	287.44
638.832	285.44
639.037	272.44
639.243	258.44
639.448	261.44
639.654	279.44
639.859	251.44
640.065	260.44
640.27	271.44
640.475	250.44
640.681	240.44
640.886	234.44
641.091	245.44
641.297	232.44
641.502	241.44
641.707	233.44
641.913	243.44
642.118	238.44
642.323	237.44
642.528	253.44
642.733	251.44
642.939	237.44
643.144	228.44
643.349	227.44
643.554	238.44
643.759	217.44
643.964	232.44
644.169	230.44
644.374	215.44
644.579	212.44
644.784	205.44
644.989	225.44
645.194	229.44
645.399	216.44
645.604	231.44
645.809	219.44
646.014	229.44
646.219	216.44
646.423	215.44
646.628	216.44
646.833	218.44
647.038	225.44
647.243	215.44
647.447	233.44
647.652	232.44
647.857	227.44
648.062	234.44
648.266	237.44
648.471	227.44
648.676	218.44
648.88	220.44
649.085	225.44
649.289	244.44
649.494	211.44
649.698	225.44
649.903	219.44
650.107	209.44
650.312	211.44
650.516	201.44
650.721	219.44
650.925	191.44
651.13	186.44
651.334	222.44
651.539	197.44
651.743	209.44
651.947	183.44
652.152	200.44
652.356	196.44
652.56	186.44
652.764	190.44
652.969	198.44
653.173	185.44
653.377	190.44
653.581	175.44
653.785	166.44
653.99	181.44
654.194	173.44
654.398	152.44
654.602	179.44
654.806	169.44
655.01	153.44
655.214	163.44
655.418	173.44
655.622	170.44
655.826	174.44
656.03	161.44
656.234	172.44
656.438	198.44
656.642	197.44
656.846	164.44
657.049	158.44
657.253	164.44
657.457	146.44
657.661	153.44
657.865	142.44
658.068	135.44
658.272	122.44
658.476	129.44
658.68	139.44
658.883	133.44
659.087	127.44
659.291	124.44
659.494	119.44
659.698	124.44
659.901	128.44
660.105	103.44
660.309	113.44
660.512	109.44
660.716	127.44
660.919	114.44
661.123	105.44
661.326	111.44
661.53	96.44
661.733	104.44
661.936	90.44
662.14	100.44
662.343	93.44
662.546	87.44
662.75	85.44
662.953	85.44
663.156	96.44
663.36	102.44
663.563	92.44
663.766	112.44
663.969	89.44
664.173	86.44
664.376	96.44
664.579	90.44
664.782	80.44
664.985	89.44
665.188	81.44
665.391	100.44
665.594	78.44
665.797	100.44
666	98.44
666.203	101.44
666.406	94.44
666.609	92.44
666.812	91.44
667.015	80.44
667.218	97.44
667.421	87.44
667.624	77.44
667.827	93.44
668.03	99.44
668.232	89.44
668.435	87.44
668.638	101.44
668.841	82.44
669.043	85.44
669.246	97.44
669.449	96.44
669.651	98.44
669.854	88.44
670.057	86.44
670.259	90.44
670.462	86.44
670.665	101.44
670.867	84.44
671.07	93.44
671.272	85.44
671.475	110.44
671.677	94.44
671.88	100.44
672.082	93.44
672.284	93.44
672.487	92.44
672.689	86.44
672.892	89.44
