Data from FlinnAP5935BZINC.07152019.LAMPEdge.EN10.5scans.P1_HRD10591_15-01-45-579.txt Node
Date: Mon Jul 15 15:01:45 EDT 2019
User: cochatt
Spectrometer: HR+D1059
Trigger mode: 1
Integration Time (sec): 1.000000E-1
Scans to average: 1
Electric dark correction enabled: true
Nonlinearity correction enabled: false
Boxcar width: 0
XAxis mode: Wavelengths
Number of Pixels in Spectrum: 2048
>>>>>Begin Spectral Data<<<<<
223.165	-10.75
223.4	-10.75
223.635	-10.75
223.869	-6.75
224.104	-30.75
224.338	-2.75
224.573	-12.75
224.808	-5.75
225.042	1.25
225.277	-7.75
225.511	-0.75
225.746	-10.75
225.98	-9.75
226.215	10.25
226.449	19.25
226.683	24.25
226.918	14.25
227.152	29.25
227.387	32.25
227.621	18.25
227.856	35.25
228.09	48.25
228.324	52.25
228.559	51.25
228.793	80.25
229.027	154.25
229.262	149.25
229.496	158.25
229.73	145.25
229.964	173.25
230.199	163.25
230.433	167.25
230.667	176.25
230.901	186.25
231.136	184.25
231.37	196.25
231.604	194.25
231.838	176.25
232.072	188.25
232.306	182.25
232.541	186.25
232.775	196.25
233.009	212.25
233.243	194.25
233.477	192.25
233.711	204.25
233.945	211.25
234.179	202.25
234.413	186.25
234.647	210.25
234.881	209.25
235.115	191.25
235.349	212.25
235.583	199.25
235.817	211.25
236.051	211.25
236.285	210.25
236.519	221.25
236.753	217.25
236.987	204.25
237.221	205.25
237.455	219.25
237.689	212.25
237.922	219.25
238.156	220.25
238.39	230.25
238.624	250.25
238.858	214.25
239.091	251.25
239.325	241.25
239.559	267.25
239.793	259.25
240.027	246.25
240.26	251.25
240.494	267.25
240.728	263.25
240.961	268.25
241.195	271.25
241.429	273.25
241.662	277.25
241.896	273.25
242.13	274.25
242.363	290.25
242.597	283.25
242.83	299.25
243.064	306.25
243.298	299.25
243.531	310.25
243.765	318.25
243.998	306.25
244.232	324.25
244.465	327.25
244.699	341.25
244.932	329.25
245.166	342.25
245.399	341.25
245.633	334.25
245.866	338.25
246.099	344.25
246.333	356.25
246.566	345.25
246.8	333.25
247.033	353.25
247.266	370.25
247.5	358.25
247.733	374.25
247.966	378.25
248.2	372.25
248.433	398.25
248.666	396.25
248.899	393.25
249.133	405.25
249.366	412.25
249.599	429.25
249.832	445.25
250.066	487.25
250.299	579.25
250.532	742.25
250.765	817.25
250.998	703.25
251.231	607.25
251.465	571.25
251.698	557.25
251.931	523.25
252.164	485.25
252.397	484.25
252.63	498.25
252.863	508.25
253.096	499.25
253.329	479.25
253.562	486.25
253.795	484.25
254.028	507.25
254.261	507.25
254.494	516.25
254.727	533.25
254.96	542.25
255.193	569.25
255.426	616.25
255.659	697.25
255.892	897.25
256.124	1187.25
256.357	1325.25
256.59	1067.25
256.823	888.25
257.056	764.25
257.289	743.25
257.521	695.25
257.754	674.25
257.987	657.25
258.22	634.25
258.452	638.25
258.685	579.25
258.918	600.25
259.151	605.25
259.383	583.25
259.616	566.25
259.849	583.25
260.081	586.25
260.314	576.25
260.547	587.25
260.779	577.25
261.012	622.25
261.244	609.25
261.477	589.25
261.71	569.25
261.942	573.25
262.175	571.25
262.407	609.25
262.64	579.25
262.872	569.25
263.105	580.25
263.337	580.25
263.57	603.25
263.802	599.25
264.035	614.25
264.267	623.25
264.499	605.25
264.732	589.25
264.964	586.25
265.197	625.25
265.429	608.25
265.661	600.25
265.894	637.25
266.126	636.25
266.358	614.25
266.591	628.25
266.823	629.25
267.055	623.25
267.287	629.25
267.52	624.25
267.752	651.25
267.984	651.25
268.216	658.25
268.448	673.25
268.681	660.25
268.913	670.25
269.145	651.25
269.377	683.25
269.609	646.25
269.841	661.25
270.073	633.25
270.306	673.25
270.538	666.25
270.77	678.25
271.002	665.25
271.234	683.25
271.466	702.25
271.698	707.25
271.93	715.25
272.162	698.25
272.394	725.25
272.626	700.25
272.858	721.25
273.09	744.25
273.322	757.25
273.553	757.25
273.785	759.25
274.017	750.25
274.249	762.25
274.481	774.25
274.713	780.25
274.945	797.25
275.176	822.25
275.408	853.25
275.64	843.25
275.872	858.25
276.104	872.25
276.335	859.25
276.567	883.25
276.799	921.25
277.031	947.25
277.262	1041.25
277.494	1040.25
277.726	973.25
277.957	943.25
278.189	936.25
278.421	916.25
278.652	916.25
278.884	901.25
279.115	911.25
279.347	928.25
279.579	932.25
279.81	1005.25
280.042	1062.25
280.273	1189.25
280.505	1191.25
280.736	1060.25
280.968	991.25
281.199	930.25
281.431	955.25
281.662	909.25
281.894	912.25
282.125	913.25
282.356	914.25
282.588	915.25
282.819	901.25
283.051	925.25
283.282	923.25
283.513	917.25
283.745	911.25
283.976	925.25
284.207	902.25
284.439	930.25
284.67	914.25
284.901	921.25
285.132	927.25
285.364	922.25
285.595	917.25
285.826	946.25
286.057	954.25
286.288	944.25
286.52	973.25
286.751	941.25
286.982	951.25
287.213	935.25
287.444	987.25
287.675	955.25
287.906	956.25
288.138	952.25
288.369	961.25
288.6	963.25
288.831	954.25
289.062	992.25
289.293	995.25
289.524	994.25
289.755	959.25
289.986	1000.25
290.217	972.25
290.448	959.25
290.679	996.25
290.91	963.25
291.141	974.25
291.371	959.25
291.602	959.25
291.833	947.25
292.064	966.25
292.295	959.25
292.526	978.25
292.757	968.25
292.987	942.25
293.218	927.25
293.449	966.25
293.68	955.25
293.91	978.25
294.141	957.25
294.372	955.25
294.603	956.25
294.833	963.25
295.064	953.25
295.295	984.25
295.525	983.25
295.756	1004.25
295.987	973.25
296.217	1013.25
296.448	971.25
296.679	977.25
296.909	985.25
297.14	999.25
297.37	1008.25
297.601	1028.25
297.831	1014.25
298.062	1018.25
298.292	1045.25
298.523	1037.25
298.753	1066.25
298.984	1049.25
299.214	1079.25
299.445	1049.25
299.675	1065.25
299.905	1020.25
300.136	1046.25
300.366	1081.25
300.597	1047.25
300.827	1089.25
301.057	1097.25
301.288	1078.25
301.518	1114.25
301.748	1113.25
301.979	1148.25
302.209	1161.25
302.439	1140.25
302.669	1114.25
302.9	1121.25
303.13	1138.25
303.36	1157.25
303.59	1153.25
303.82	1185.25
304.051	1211.25
304.281	1134.25
304.511	1131.25
304.741	1124.25
304.971	1152.25
305.201	1112.25
305.431	1109.25
305.661	1099.25
305.891	1079.25
306.121	1125.25
306.352	1117.25
306.582	1088.25
306.812	1131.25
307.042	1166.25
307.272	1205.25
307.502	1292.25
307.731	1295.25
307.961	1259.25
308.191	1164.25
308.421	1149.25
308.651	1117.25
308.881	1137.25
309.111	1125.25
309.341	1076.25
309.571	1118.25
309.8	1154.25
310.03	1138.25
310.26	1130.25
310.49	1121.25
310.72	1171.25
310.949	1139.25
311.179	1152.25
311.409	1154.25
311.639	1138.25
311.868	1117.25
312.098	1144.25
312.328	1187.25
312.557	1199.25
312.787	1173.25
313.017	1207.25
313.246	1214.25
313.476	1188.25
313.706	1210.25
313.935	1177.25
314.165	1211.25
314.394	1248.25
314.624	1238.25
314.853	1197.25
315.083	1213.25
315.312	1220.25
315.542	1240.25
315.771	1192.25
316.001	1214.25
316.23	1227.25
316.46	1179.25
316.689	1233.25
316.919	1237.25
317.148	1232.25
317.377	1239.25
317.607	1220.25
317.836	1249.25
318.065	1207.25
318.295	1254.25
318.524	1255.25
318.753	1249.25
318.983	1228.25
319.212	1215.25
319.441	1266.25
319.67	1262.25
319.9	1251.25
320.129	1195.25
320.358	1243.25
320.587	1220.25
320.816	1284.25
321.046	1276.25
321.275	1275.25
321.504	1279.25
321.733	1319.25
321.962	1313.25
322.191	1301.25
322.42	1321.25
322.649	1286.25
322.878	1339.25
323.108	1333.25
323.337	1361.25
323.566	1390.25
323.795	1414.25
324.024	1404.25
324.253	1424.25
324.482	1469.25
324.71	1427.25
324.939	1474.25
325.168	1463.25
325.397	1479.25
325.626	1488.25
325.855	1541.25
326.084	1593.25
326.313	1602.25
326.542	1615.25
326.77	1663.25
326.999	1696.25
327.228	1731.25
327.457	1837.25
327.686	2006.25
327.914	2294.25
328.143	2791.25
328.372	3278.25
328.6	3104.25
328.829	2379.25
329.058	2203.25
329.287	2211.25
329.515	2409.25
329.744	2683.25
329.972	3431.25
330.201	4605.25
330.43	5670.25
330.658	4678.25
330.887	2965.25
331.115	2401.25
331.344	2214.25
331.572	2049.25
331.801	2065.25
332.03	2051.25
332.258	2081.25
332.486	2115.25
332.715	2158.25
332.943	2243.25
333.172	2422.25
333.4	2544.25
333.629	2821.25
333.857	3226.25
334.085	3857.25
334.314	5173.25
334.542	6845.25
334.771	7325.25
334.999	4946.25
335.227	3246.25
335.455	2709.25
335.684	2402.25
335.912	2267.25
336.14	2063.25
336.369	1998.25
336.597	1957.25
336.825	1858.25
337.053	1821.25
337.281	1819.25
337.51	1745.25
337.738	1726.25
337.966	1644.25
338.194	1632.25
338.422	1609.25
338.65	1592.25
338.878	1575.25
339.106	1524.25
339.334	1570.25
339.562	1523.25
339.79	1467.25
340.018	1475.25
340.246	1462.25
340.474	1447.25
340.702	1445.25
340.93	1446.25
341.158	1429.25
341.386	1457.25
341.614	1446.25
341.842	1403.25
342.07	1403.25
342.298	1397.25
342.526	1401.25
342.754	1375.25
342.981	1413.25
343.209	1397.25
343.437	1455.25
343.665	1542.25
343.893	1591.25
344.12	1621.25
344.348	1595.25
344.576	1517.25
344.804	1479.25
345.031	1421.25
345.259	1409.25
345.487	1361.25
345.714	1353.25
345.942	1340.25
346.17	1361.25
346.397	1333.25
346.625	1311.25
346.853	1290.25
347.08	1309.25
347.308	1329.25
347.535	1325.25
347.763	1321.25
347.99	1297.25
348.218	1283.25
348.445	1304.25
348.673	1317.25
348.9	1307.25
349.128	1299.25
349.355	1294.25
349.583	1286.25
349.81	1291.25
350.037	1261.25
350.265	1252.25
350.492	1243.25
350.72	1285.25
350.947	1266.25
351.174	1271.25
351.402	1245.25
351.629	1281.25
351.856	1252.25
352.083	1244.25
352.311	1233.25
352.538	1263.25
352.765	1241.25
352.992	1251.25
353.22	1248.25
353.447	1244.25
353.674	1261.25
353.901	1238.25
354.128	1238.25
354.355	1252.25
354.583	1251.25
354.81	1258.25
355.037	1264.25
355.264	1270.25
355.491	1254.25
355.718	1239.25
355.945	1262.25
356.172	1213.25
356.399	1224.25
356.626	1277.25
356.853	1275.25
357.08	1226.25
357.307	1264.25
357.534	1230.25
357.761	1218.25
357.988	1252.25
358.215	1231.25
358.441	1227.25
358.668	1249.25
358.895	1241.25
359.122	1208.25
359.349	1215.25
359.576	1245.25
359.802	1219.25
360.029	1219.25
360.256	1206.25
360.483	1229.25
360.709	1218.25
360.936	1225.25
361.163	1252.25
361.39	1242.25
361.616	1239.25
361.843	1218.25
362.07	1203.25
362.296	1191.25
362.523	1235.25
362.749	1213.25
362.976	1220.25
363.203	1231.25
363.429	1169.25
363.656	1229.25
363.882	1189.25
364.109	1201.25
364.335	1216.25
364.562	1192.25
364.788	1241.25
365.015	1232.25
365.241	1231.25
365.468	1235.25
365.694	1213.25
365.92	1225.25
366.147	1205.25
366.373	1216.25
366.599	1191.25
366.826	1170.25
367.052	1187.25
367.278	1195.25
367.505	1193.25
367.731	1192.25
367.957	1218.25
368.184	1242.25
368.41	1231.25
368.636	1221.25
368.862	1235.25
369.089	1220.25
369.315	1233.25
369.541	1268.25
369.767	1234.25
369.993	1229.25
370.219	1215.25
370.445	1278.25
370.672	1252.25
370.898	1241.25
371.124	1259.25
371.35	1311.25
371.576	1301.25
371.802	1270.25
372.028	1268.25
372.254	1273.25
372.48	1289.25
372.706	1318.25
372.932	1307.25
373.158	1305.25
373.384	1298.25
373.61	1326.25
373.835	1293.25
374.061	1293.25
374.287	1294.25
374.513	1343.25
374.739	1342.25
374.965	1389.25
375.191	1404.25
375.416	1374.25
375.642	1365.25
375.868	1369.25
376.094	1323.25
376.319	1288.25
376.545	1305.25
376.771	1265.25
376.997	1269.25
377.222	1271.25
377.448	1285.25
377.674	1280.25
377.899	1273.25
378.125	1247.25
378.35	1277.25
378.576	1220.25
378.802	1251.25
379.027	1253.25
379.253	1241.25
379.478	1226.25
379.704	1265.25
379.929	1251.25
380.155	1238.25
380.38	1220.25
380.606	1250.25
380.831	1265.25
381.057	1250.25
381.282	1262.25
381.507	1265.25
381.733	1283.25
381.958	1250.25
382.184	1257.25
382.409	1280.25
382.634	1280.25
382.86	1292.25
383.085	1327.25
383.31	1360.25
383.535	1359.25
383.761	1378.25
383.986	1401.25
384.211	1415.25
384.436	1440.25
384.662	1472.25
384.887	1510.25
385.112	1503.25
385.337	1500.25
385.562	1517.25
385.787	1499.25
386.013	1489.25
386.238	1485.25
386.463	1517.25
386.688	1503.25
386.913	1511.25
387.138	1487.25
387.363	1478.25
387.588	1449.25
387.813	1498.25
388.038	1474.25
388.263	1438.25
388.488	1466.25
388.713	1475.25
388.938	1430.25
389.163	1447.25
389.387	1447.25
389.612	1414.25
389.837	1456.25
390.062	1421.25
390.287	1439.25
390.512	1440.25
390.736	1459.25
390.961	1476.25
391.186	1471.25
391.411	1535.25
391.636	1596.25
391.86	1603.25
392.085	1628.25
392.31	1660.25
392.534	1609.25
392.759	1562.25
392.984	1548.25
393.208	1521.25
393.433	1495.25
393.658	1548.25
393.882	1534.25
394.107	1547.25
394.331	1535.25
394.556	1562.25
394.78	1533.25
395.005	1569.25
395.229	1576.25
395.454	1634.25
395.678	1649.25
395.903	1640.25
396.127	1579.25
396.352	1574.25
396.576	1564.25
396.801	1534.25
397.025	1522.25
397.249	1558.25
397.474	1616.25
397.698	1631.25
397.922	1666.25
398.147	1652.25
398.371	1698.25
398.595	1723.25
398.82	1820.25
399.044	1951.25
399.268	2067.25
399.492	2352.25
399.717	2583.25
399.941	2542.25
400.165	2305.25
400.389	2152.25
400.613	2007.25
400.837	1930.25
401.062	1866.25
401.286	1822.25
401.51	1804.25
401.734	1798.25
401.958	1824.25
402.182	1840.25
402.406	1844.25
402.63	1901.25
402.854	1947.25
403.078	1934.25
403.302	1962.25
403.526	2027.25
403.75	2057.25
403.974	2102.25
404.198	2082.25
404.422	2106.25
404.645	2129.25
404.869	2175.25
405.093	2272.25
405.317	2352.25
405.541	2398.25
405.765	2249.25
405.988	2093.25
406.212	2054.25
406.436	2031.25
406.66	2067.25
406.883	2068.25
407.107	2157.25
407.331	2229.25
407.555	2217.25
407.778	2218.25
408.002	2173.25
408.226	2125.25
408.449	2071.25
408.673	2081.25
408.896	2008.25
409.12	1971.25
409.344	1967.25
409.567	1975.25
409.791	2006.25
410.014	1954.25
410.238	1961.25
410.461	1935.25
410.685	1931.25
410.908	1926.25
411.132	1918.25
411.355	1888.25
411.578	1945.25
411.802	1937.25
412.025	1973.25
412.249	2062.25
412.472	2206.25
412.695	2284.25
412.919	2209.25
413.142	2107.25
413.365	2037.25
413.589	2020.25
413.812	1911.25
414.035	1922.25
414.258	1911.25
414.482	1953.25
414.705	1885.25
414.928	1934.25
415.151	1875.25
415.374	1881.25
415.597	1850.25
415.821	1796.25
416.044	1828.25
416.267	1794.25
416.49	1759.25
416.713	1789.25
416.936	1839.25
417.159	1798.25
417.382	1837.25
417.605	1917.25
417.828	1949.25
418.051	1904.25
418.274	1814.25
418.497	1792.25
418.72	1885.25
418.943	1835.25
419.166	1940.25
419.389	2044.25
419.611	2031.25
419.834	2033.25
420.057	2037.25
420.28	2101.25
420.503	2081.25
420.726	2046.25
420.948	1985.25
421.171	1915.25
421.394	1904.25
421.617	1869.25
421.839	1859.25
422.062	1837.25
422.285	1802.25
422.507	1869.25
422.73	1852.25
422.953	1860.25
423.175	1853.25
423.398	1871.25
423.621	1886.25
423.843	1878.25
424.066	1891.25
424.288	1894.25
424.511	1830.25
424.733	1842.25
424.956	1815.25
425.178	1780.25
425.401	1841.25
425.623	1754.25
425.846	1755.25
426.068	1750.25
426.291	1757.25
426.513	1702.25
426.735	1709.25
426.958	1722.25
427.18	1712.25
427.402	1750.25
427.625	1823.25
427.847	1905.25
428.069	2052.25
428.292	2001.25
428.514	1806.25
428.736	1725.25
428.958	1688.25
429.181	1641.25
429.403	1618.25
429.625	1595.25
429.847	1583.25
430.069	1609.25
430.292	1590.25
430.514	1572.25
430.736	1554.25
430.958	1599.25
431.18	1562.25
431.402	1551.25
431.624	1550.25
431.846	1599.25
432.068	1593.25
432.29	1564.25
432.512	1542.25
432.734	1555.25
432.956	1557.25
433.178	1540.25
433.4	1547.25
433.622	1569.25
433.844	1555.25
434.066	1582.25
434.287	1587.25
434.509	1597.25
434.731	1668.25
434.953	1748.25
435.175	1732.25
435.397	1693.25
435.618	1651.25
435.84	1657.25
436.062	1587.25
436.284	1571.25
436.505	1573.25
436.727	1581.25
436.949	1546.25
437.17	1523.25
437.392	1508.25
437.614	1529.25
437.835	1495.25
438.057	1465.25
438.278	1448.25
438.5	1483.25
438.721	1465.25
438.943	1523.25
439.165	1532.25
439.386	1481.25
439.608	1539.25
439.829	1534.25
440.05	1534.25
440.272	1550.25
440.493	1536.25
440.715	1576.25
440.936	1565.25
441.158	1599.25
441.379	1629.25
441.6	1713.25
441.822	1668.25
442.043	1714.25
442.264	1677.25
442.486	1647.25
442.707	1710.25
442.928	1659.25
443.149	1675.25
443.371	1685.25
443.592	1706.25
443.813	1735.25
444.034	1682.25
444.255	1753.25
444.476	1843.25
444.698	1923.25
444.919	1990.25
445.14	2041.25
445.361	1883.25
445.582	1755.25
445.803	1660.25
446.024	1596.25
446.245	1616.25
446.466	1593.25
446.687	1551.25
446.908	1558.25
447.129	1515.25
447.35	1513.25
447.571	1464.25
447.792	1441.25
448.013	1471.25
448.234	1451.25
448.455	1417.25
448.675	1452.25
448.896	1413.25
449.117	1400.25
449.338	1395.25
449.559	1373.25
449.779	1389.25
450	1404.25
450.221	1387.25
450.442	1398.25
450.662	1369.25
450.883	1405.25
451.104	1400.25
451.324	1421.25
451.545	1409.25
451.766	1401.25
451.986	1391.25
452.207	1365.25
452.428	1355.25
452.648	1377.25
452.869	1354.25
453.089	1332.25
453.31	1330.25
453.53	1372.25
453.751	1335.25
453.971	1343.25
454.192	1358.25
454.412	1338.25
454.633	1341.25
454.853	1325.25
455.073	1353.25
455.294	1336.25
455.514	1328.25
455.734	1330.25
455.955	1290.25
456.175	1328.25
456.395	1297.25
456.616	1316.25
456.836	1316.25
457.056	1320.25
457.276	1313.25
457.497	1339.25
457.717	1332.25
457.937	1364.25
458.157	1344.25
458.377	1388.25
458.598	1389.25
458.818	1449.25
459.038	1497.25
459.258	1514.25
459.478	1544.25
459.698	1564.25
459.918	1609.25
460.138	1700.25
460.358	1753.25
460.578	1732.25
460.798	1727.25
461.018	1738.25
461.238	1766.25
461.458	1757.25
461.678	1745.25
461.898	1741.25
462.118	1807.25
462.338	1890.25
462.558	1939.25
462.777	1989.25
462.997	2140.25
463.217	2245.25
463.437	2259.25
463.657	2072.25
463.876	2031.25
464.096	2041.25
464.316	1972.25
464.536	1998.25
464.755	1968.25
464.975	1910.25
465.195	1845.25
465.414	1775.25
465.634	1663.25
465.854	1603.25
466.073	1602.25
466.293	1569.25
466.512	1543.25
466.732	1534.25
466.951	1528.25
467.171	1575.25
467.391	1580.25
467.61	1618.25
467.829	1726.25
468.049	2335.25
468.268	3204.25
468.488	2413.25
468.707	1896.25
468.927	1722.25
469.146	1675.25
469.365	1631.25
469.585	1602.25
469.804	1657.25
470.023	1644.25
470.243	1630.25
470.462	1666.25
470.681	1647.25
470.901	1670.25
471.12	1679.25
471.339	1717.25
471.558	1703.25
471.777	1795.25
471.997	2038.25
472.216	3050.25
472.435	5679.25
472.654	4311.25
472.873	2773.25
473.092	2302.25
473.311	2061.25
473.53	1882.25
473.749	1825.25
473.968	1748.25
474.187	1697.25
474.406	1690.25
474.625	1676.25
474.844	1633.25
475.063	1636.25
475.282	1632.25
475.501	1646.25
475.72	1600.25
475.939	1596.25
476.158	1614.25
476.377	1680.25
476.596	1646.25
476.814	1654.25
477.033	1660.25
477.252	1684.25
477.471	1691.25
477.69	1719.25
477.908	1796.25
478.127	1803.25
478.346	1835.25
478.564	1891.25
478.783	1897.25
479.002	1929.25
479.22	1964.25
479.439	1978.25
479.658	1957.25
479.876	2021.25
480.095	2062.25
480.313	2237.25
480.532	2382.25
480.751	2713.25
480.969	3637.25
481.188	7353.25
481.406	8826.25
481.624	4806.25
481.843	3535.25
482.061	2962.25
482.28	2627.25
482.498	2413.25
482.717	2332.25
482.935	2244.25
483.153	2196.25
483.372	2192.25
483.59	2093.25
483.808	2029.25
484.027	2056.25
484.245	2022.25
484.463	2016.25
484.681	2018.25
484.9	2003.25
485.118	1996.25
485.336	2006.25
485.554	1986.25
485.772	2013.25
485.99	2033.25
486.209	1963.25
486.427	1964.25
486.645	1964.25
486.863	1964.25
487.081	1952.25
487.299	1999.25
487.517	1980.25
487.735	2003.25
487.953	2021.25
488.171	2006.25
488.389	1993.25
488.607	1965.25
488.825	1980.25
489.043	1958.25
489.261	2016.25
489.479	2041.25
489.696	2047.25
489.914	2086.25
490.132	2125.25
490.35	2153.25
490.568	2171.25
490.786	2242.25
491.003	2279.25
491.221	2371.25
491.439	2402.25
491.657	2489.25
491.874	2540.25
492.092	2572.25
492.31	2628.25
492.527	2667.25
492.745	2765.25
492.963	2705.25
493.18	2670.25
493.398	2641.25
493.615	2599.25
493.833	2541.25
494.05	2497.25
494.268	2456.25
494.485	2485.25
494.703	2391.25
494.92	2364.25
495.138	2359.25
495.355	2353.25
495.573	2290.25
495.79	2279.25
496.008	2306.25
496.225	2255.25
496.442	2291.25
496.66	2320.25
496.877	2272.25
497.094	2291.25
497.312	2273.25
497.529	2300.25
497.746	2382.25
497.963	2390.25
498.181	2433.25
498.398	2560.25
498.615	2629.25
498.832	2794.25
499.049	2875.25
499.267	3055.25
499.484	3301.25
499.701	3605.25
499.918	3850.25
500.135	4277.25
500.352	4665.25
500.569	4891.25
500.786	4897.25
501.003	4601.25
501.22	4187.25
501.437	3781.25
501.654	3405.25
501.871	3149.25
502.088	2945.25
502.305	2767.25
502.522	2693.25
502.739	2619.25
502.956	2538.25
503.172	2394.25
503.389	2309.25
503.606	2273.25
503.823	2250.25
504.04	2213.25
504.256	2244.25
504.473	2295.25
504.69	2288.25
504.907	2254.25
505.123	2116.25
505.34	1993.25
505.557	1979.25
505.773	1911.25
505.99	1863.25
506.207	1877.25
506.423	1831.25
506.64	1785.25
506.856	1809.25
507.073	1741.25
507.289	1766.25
507.506	1774.25
507.722	1777.25
507.939	1713.25
508.155	1716.25
508.372	1674.25
508.588	1683.25
508.805	1655.25
509.021	1676.25
509.238	1621.25
509.454	1646.25
509.67	1642.25
509.887	1621.25
510.103	1639.25
510.319	1665.25
510.536	1610.25
510.752	1617.25
510.968	1653.25
511.184	1634.25
511.401	1669.25
511.617	1756.25
511.833	1890.25
512.049	2027.25
512.265	1909.25
512.481	1817.25
512.698	1709.25
512.914	1730.25
513.13	1691.25
513.346	1649.25
513.562	1662.25
513.778	1650.25
513.994	1669.25
514.21	1643.25
514.426	1651.25
514.642	1637.25
514.858	1633.25
515.074	1630.25
515.29	1677.25
515.506	1673.25
515.721	1686.25
515.937	1704.25
516.153	1742.25
516.369	1721.25
516.585	1765.25
516.801	1824.25
517.016	1870.25
517.232	1948.25
517.448	2020.25
517.664	2070.25
517.879	2105.25
518.095	2102.25
518.311	2018.25
518.527	1964.25
518.742	1902.25
518.958	1855.25
519.173	1750.25
519.389	1739.25
519.605	1723.25
519.82	1633.25
520.036	1657.25
520.251	1579.25
520.467	1605.25
520.682	1565.25
520.898	1548.25
521.113	1516.25
521.329	1522.25
521.544	1501.25
521.76	1506.25
521.975	1497.25
522.19	1476.25
522.406	1457.25
522.621	1490.25
522.836	1461.25
523.052	1462.25
523.267	1473.25
523.482	1428.25
523.698	1428.25
523.913	1439.25
524.128	1436.25
524.343	1435.25
524.559	1421.25
524.774	1419.25
524.989	1435.25
525.204	1402.25
525.419	1405.25
525.634	1406.25
525.849	1390.25
526.064	1407.25
526.28	1409.25
526.495	1369.25
526.71	1374.25
526.925	1372.25
527.14	1357.25
527.355	1346.25
527.57	1383.25
527.785	1407.25
527.999	1414.25
528.214	1395.25
528.429	1416.25
528.644	1433.25
528.859	1368.25
529.074	1433.25
529.289	1403.25
529.503	1395.25
529.718	1420.25
529.933	1392.25
530.148	1400.25
530.363	1383.25
530.577	1373.25
530.792	1393.25
531.007	1390.25
531.221	1393.25
531.436	1398.25
531.651	1398.25
531.865	1395.25
532.08	1421.25
532.295	1395.25
532.509	1401.25
532.724	1405.25
532.938	1400.25
533.153	1371.25
533.367	1359.25
533.582	1417.25
533.796	1385.25
534.011	1367.25
534.225	1374.25
534.44	1373.25
534.654	1387.25
534.868	1369.25
535.083	1361.25
535.297	1390.25
535.511	1371.25
535.726	1374.25
535.94	1343.25
536.154	1334.25
536.369	1313.25
536.583	1267.25
536.797	1291.25
537.011	1329.25
537.225	1288.25
537.44	1320.25
537.654	1302.25
537.868	1314.25
538.082	1271.25
538.296	1285.25
538.51	1275.25
538.724	1289.25
538.938	1246.25
539.153	1260.25
539.367	1279.25
539.581	1278.25
539.795	1252.25
540.009	1259.25
540.222	1253.25
540.436	1228.25
540.65	1264.25
540.864	1253.25
541.078	1241.25
541.292	1241.25
541.506	1292.25
541.72	1256.25
541.934	1293.25
542.147	1279.25
542.361	1281.25
542.575	1267.25
542.789	1296.25
543.002	1265.25
543.216	1245.25
543.43	1258.25
543.644	1272.25
543.857	1272.25
544.071	1279.25
544.285	1269.25
544.498	1294.25
544.712	1319.25
544.925	1281.25
545.139	1302.25
545.352	1317.25
545.566	1309.25
545.779	1314.25
545.993	1299.25
546.206	1328.25
546.42	1344.25
546.633	1298.25
546.847	1309.25
547.06	1273.25
547.274	1314.25
547.487	1263.25
547.7	1317.25
547.914	1281.25
548.127	1314.25
548.34	1307.25
548.554	1273.25
548.767	1297.25
548.98	1302.25
549.193	1307.25
549.407	1323.25
549.62	1326.25
549.833	1297.25
550.046	1293.25
550.259	1309.25
550.473	1271.25
550.686	1311.25
550.899	1289.25
551.112	1278.25
551.325	1261.25
551.538	1279.25
551.751	1277.25
551.964	1274.25
552.177	1249.25
552.39	1277.25
552.603	1359.25
552.816	1377.25
553.029	1363.25
553.242	1387.25
553.455	1420.25
553.667	1404.25
553.88	1395.25
554.093	1345.25
554.306	1337.25
554.519	1325.25
554.732	1282.25
554.944	1249.25
555.157	1248.25
555.37	1256.25
555.583	1185.25
555.795	1157.25
556.008	1193.25
556.221	1165.25
556.433	1171.25
556.646	1146.25
556.859	1099.25
557.071	1119.25
557.284	1123.25
557.496	1094.25
557.709	1117.25
557.921	1109.25
558.134	1083.25
558.346	1094.25
558.559	1118.25
558.771	1075.25
558.984	1095.25
559.196	1092.25
559.409	1091.25
559.621	1116.25
559.833	1077.25
560.046	1095.25
560.258	1133.25
560.47	1125.25
560.683	1107.25
560.895	1061.25
561.107	1079.25
561.32	1103.25
561.532	1099.25
561.744	1073.25
561.956	1070.25
562.168	1060.25
562.381	1106.25
562.593	1085.25
562.805	1076.25
563.017	1058.25
563.229	1084.25
563.441	1116.25
563.653	1080.25
563.865	1090.25
564.077	1109.25
564.289	1119.25
564.501	1121.25
564.713	1127.25
564.925	1162.25
565.137	1150.25
565.349	1180.25
565.561	1247.25
565.773	1285.25
565.985	1285.25
566.197	1396.25
566.408	1443.25
566.62	1532.25
566.832	1626.25
567.044	1658.25
567.255	1673.25
567.467	1743.25
567.679	1778.25
567.891	1900.25
568.102	1898.25
568.314	1808.25
568.526	1688.25
568.737	1541.25
568.949	1403.25
569.161	1311.25
569.372	1255.25
569.584	1201.25
569.795	1135.25
570.007	1127.25
570.218	1134.25
570.43	1072.25
570.641	1099.25
570.853	1081.25
571.064	1099.25
571.276	1115.25
571.487	1090.25
571.698	1033.25
571.91	985.25
572.121	967.25
572.333	959.25
572.544	944.25
572.755	917.25
572.966	923.25
573.178	928.25
573.389	910.25
573.6	887.25
573.811	902.25
574.023	889.25
574.234	902.25
574.445	861.25
574.656	919.25
574.867	918.25
575.078	889.25
575.289	894.25
575.501	907.25
575.712	880.25
575.923	867.25
576.134	847.25
576.345	869.25
576.556	865.25
576.767	867.25
576.978	849.25
577.188	852.25
577.399	817.25
577.61	837.25
577.821	837.25
578.032	811.25
578.243	824.25
578.454	826.25
578.665	817.25
578.875	827.25
579.086	838.25
579.297	801.25
579.508	809.25
579.718	815.25
579.929	810.25
580.14	785.25
580.35	808.25
580.561	794.25
580.772	742.25
580.982	783.25
581.193	784.25
581.403	778.25
581.614	781.25
581.825	787.25
582.035	795.25
582.246	771.25
582.456	767.25
582.667	774.25
582.877	757.25
583.087	768.25
583.298	758.25
583.508	765.25
583.719	740.25
583.929	736.25
584.139	759.25
584.35	763.25
584.56	797.25
584.77	767.25
584.981	756.25
585.191	736.25
585.401	762.25
585.611	734.25
585.821	772.25
586.032	730.25
586.242	735.25
586.452	728.25
586.662	732.25
586.872	734.25
587.082	739.25
587.292	734.25
587.502	730.25
587.713	760.25
587.923	731.25
588.133	721.25
588.343	755.25
588.553	740.25
588.762	740.25
588.972	767.25
589.182	745.25
589.392	760.25
589.602	815.25
589.812	817.25
590.022	764.25
590.232	764.25
590.441	762.25
590.651	735.25
590.861	751.25
591.071	766.25
591.281	761.25
591.49	761.25
591.7	798.25
591.91	793.25
592.119	779.25
592.329	823.25
592.539	851.25
592.748	843.25
592.958	859.25
593.167	887.25
593.377	913.25
593.587	917.25
593.796	935.25
594.006	924.25
594.215	939.25
594.424	928.25
594.634	895.25
594.843	870.25
595.053	863.25
595.262	836.25
595.472	797.25
595.681	777.25
595.89	754.25
596.1	743.25
596.309	735.25
596.518	735.25
596.727	708.25
596.937	709.25
597.146	704.25
597.355	705.25
597.564	684.25
597.774	669.25
597.983	668.25
598.192	672.25
598.401	662.25
598.61	658.25
598.819	660.25
599.028	667.25
599.237	653.25
599.446	635.25
599.655	665.25
599.864	667.25
600.073	647.25
600.282	651.25
600.491	628.25
600.7	659.25
600.909	617.25
601.118	638.25
601.327	624.25
601.536	655.25
601.745	651.25
601.953	633.25
602.162	638.25
602.371	624.25
602.58	622.25
602.789	655.25
602.997	631.25
603.206	626.25
603.415	621.25
603.623	630.25
603.832	614.25
604.041	623.25
604.249	614.25
604.458	609.25
604.666	615.25
604.875	610.25
605.084	610.25
605.292	593.25
605.501	597.25
605.709	591.25
605.918	602.25
606.126	625.25
606.334	588.25
606.543	603.25
606.751	588.25
606.96	601.25
607.168	603.25
607.376	602.25
607.585	593.25
607.793	587.25
608.001	596.25
608.21	591.25
608.418	598.25
608.626	576.25
608.834	579.25
609.043	605.25
609.251	602.25
609.459	602.25
609.667	592.25
609.875	589.25
610.083	609.25
610.291	612.25
610.499	597.25
610.707	610.25
610.916	618.25
611.124	612.25
611.332	622.25
611.54	601.25
611.748	605.25
611.955	597.25
612.163	590.25
612.371	590.25
612.579	567.25
612.787	564.25
612.995	567.25
613.203	584.25
613.411	559.25
613.618	559.25
613.826	560.25
614.034	569.25
614.242	552.25
614.449	557.25
614.657	569.25
614.865	565.25
615.072	566.25
615.28	561.25
615.488	579.25
615.695	569.25
615.903	570.25
616.111	566.25
616.318	548.25
616.526	569.25
616.733	556.25
616.941	542.25
617.148	565.25
617.356	556.25
617.563	555.25
617.771	563.25
617.978	545.25
618.185	564.25
618.393	548.25
618.6	575.25
618.807	568.25
619.015	562.25
619.222	553.25
619.429	538.25
619.637	544.25
619.844	547.25
620.051	539.25
620.258	511.25
620.466	503.25
620.673	505.25
620.88	498.25
621.087	489.25
621.294	499.25
621.501	494.25
621.708	499.25
621.915	509.25
622.122	495.25
622.329	503.25
622.536	496.25
622.743	507.25
622.95	486.25
623.157	491.25
623.364	503.25
623.571	483.25
623.778	469.25
623.985	474.25
624.192	486.25
624.399	478.25
624.606	452.25
624.812	497.25
625.019	474.25
625.226	481.25
625.433	474.25
625.639	481.25
625.846	459.25
626.053	451.25
626.259	439.25
626.466	461.25
626.673	420.25
626.879	462.25
627.086	440.25
627.293	454.25
627.499	443.25
627.706	458.25
627.912	439.25
628.119	442.25
628.325	477.25
628.532	444.25
628.738	446.25
628.945	447.25
629.151	439.25
629.357	434.25
629.564	449.25
629.77	449.25
629.976	421.25
630.183	415.25
630.389	416.25
630.595	429.25
630.802	436.25
631.008	423.25
631.214	416.25
631.42	410.25
631.627	422.25
631.833	427.25
632.039	420.25
632.245	411.25
632.451	397.25
632.657	413.25
632.863	409.25
633.069	418.25
633.275	415.25
633.481	407.25
633.688	415.25
633.893	413.25
634.099	426.25
634.305	429.25
634.511	419.25
634.717	419.25
634.923	417.25
635.129	415.25
635.335	433.25
635.541	452.25
635.747	478.25
635.952	477.25
636.158	578.25
636.364	818.25
636.57	1029.25
636.775	775.25
636.981	594.25
637.187	560.25
637.392	529.25
637.598	481.25
637.804	491.25
638.009	447.25
638.215	434.25
638.421	440.25
638.626	423.25
638.832	431.25
639.037	400.25
639.243	388.25
639.448	389.25
639.654	388.25
639.859	399.25
640.065	362.25
640.27	387.25
640.475	379.25
640.681	355.25
640.886	359.25
641.091	379.25
641.297	379.25
641.502	365.25
641.707	362.25
641.913	349.25
642.118	357.25
642.323	340.25
642.528	355.25
642.733	359.25
642.939	351.25
643.144	348.25
643.349	368.25
643.554	347.25
643.759	361.25
643.964	364.25
644.169	351.25
644.374	347.25
644.579	338.25
644.784	355.25
644.989	347.25
645.194	351.25
645.399	337.25
645.604	349.25
645.809	353.25
646.014	354.25
646.219	334.25
646.423	324.25
646.628	365.25
646.833	331.25
647.038	343.25
647.243	345.25
647.447	365.25
647.652	370.25
647.857	349.25
648.062	355.25
648.266	373.25
648.471	371.25
648.676	383.25
648.88	365.25
649.085	336.25
649.289	349.25
649.494	353.25
649.698	343.25
649.903	339.25
650.107	322.25
650.312	335.25
650.516	301.25
650.721	313.25
650.925	321.25
651.13	304.25
651.334	296.25
651.539	284.25
651.743	298.25
651.947	287.25
652.152	305.25
652.356	271.25
652.56	285.25
652.764	275.25
652.969	291.25
653.173	268.25
653.377	279.25
653.581	260.25
653.785	274.25
653.99	249.25
654.194	259.25
654.398	265.25
654.602	243.25
654.806	253.25
655.01	238.25
655.214	249.25
655.418	233.25
655.622	245.25
655.826	241.25
656.03	230.25
656.234	277.25
656.438	240.25
656.642	261.25
656.846	258.25
657.049	241.25
657.253	220.25
657.457	229.25
657.661	197.25
657.865	196.25
658.068	192.25
658.272	182.25
658.476	178.25
658.68	165.25
658.883	168.25
659.087	152.25
659.291	149.25
659.494	160.25
659.698	147.25
659.901	143.25
660.105	142.25
660.309	139.25
660.512	132.25
660.716	133.25
660.919	141.25
661.123	122.25
661.326	130.25
661.53	119.25
661.733	99.25
661.936	108.25
662.14	107.25
662.343	99.25
662.546	114.25
662.75	115.25
662.953	89.25
663.156	93.25
663.36	97.25
663.563	97.25
663.766	100.25
663.969	103.25
664.173	80.25
664.376	86.25
664.579	98.25
664.782	96.25
664.985	82.25
665.188	92.25
665.391	87.25
665.594	88.25
665.797	80.25
666	94.25
666.203	82.25
666.406	73.25
666.609	90.25
666.812	105.25
667.015	93.25
667.218	96.25
667.421	95.25
667.624	93.25
667.827	107.25
668.03	83.25
668.232	76.25
668.435	96.25
668.638	90.25
668.841	99.25
669.043	79.25
669.246	95.25
669.449	93.25
669.651	109.25
669.854	85.25
670.057	94.25
670.259	84.25
670.462	105.25
670.665	94.25
670.867	84.25
671.07	89.25
671.272	98.25
671.475	102.25
671.677	103.25
671.88	101.25
672.082	84.25
672.284	103.25
672.487	106.25
672.689	98.25
672.892	97.25
