Data from FlinnAP9092KCOPPER.07152019.QSWITCHSynchronous.EN10.P1_HRD10591_14-48-31-573.txt Node
Date: Mon Jul 15 14:48:31 EDT 2019
User: cochatt
Spectrometer: HR+D1059
Trigger mode: 5
Integration Time (sec): 1.000000E-1
Scans to average: 1
Electric dark correction enabled: true
Nonlinearity correction enabled: false
Boxcar width: 0
XAxis mode: Wavelengths
Number of Pixels in Spectrum: 2048
>>>>>Begin Spectral Data<<<<<
223.165	-40.62
223.4	-40.62
223.635	-40.62
223.869	-33.62
224.104	-29.62
224.338	14.38
224.573	-19.62
224.808	-19.62
225.042	13.38
225.277	-4.62
225.511	-8.62
225.746	16.38
225.98	17.38
226.215	7.38
226.449	17.38
226.683	8.38
226.918	23.38
227.152	38.38
227.387	38.38
227.621	45.38
227.856	47.38
228.09	39.38
228.324	52.38
228.559	94.38
228.793	100.38
229.027	186.38
229.262	225.38
229.496	210.38
229.73	280.38
229.964	339.38
230.199	290.38
230.433	216.38
230.667	229.38
230.901	217.38
231.136	179.38
231.37	211.38
231.604	197.38
231.838	213.38
232.072	188.38
232.306	205.38
232.541	200.38
232.775	190.38
233.009	207.38
233.243	198.38
233.477	204.38
233.711	216.38
233.945	217.38
234.179	228.38
234.413	227.38
234.647	237.38
234.881	210.38
235.115	234.38
235.349	225.38
235.583	248.38
235.817	211.38
236.051	240.38
236.285	245.38
236.519	230.38
236.753	271.38
236.987	284.38
237.221	383.38
237.455	542.38
237.689	417.38
237.922	304.38
238.156	265.38
238.39	252.38
238.624	240.38
238.858	253.38
239.091	241.38
239.325	265.38
239.559	246.38
239.793	268.38
240.027	301.38
240.26	309.38
240.494	377.38
240.728	324.38
240.961	327.38
241.195	329.38
241.429	287.38
241.662	261.38
241.896	283.38
242.13	272.38
242.363	283.38
242.597	255.38
242.83	285.38
243.064	302.38
243.298	282.38
243.531	291.38
243.765	288.38
243.998	290.38
244.232	293.38
244.465	310.38
244.699	292.38
244.932	303.38
245.166	299.38
245.399	329.38
245.633	317.38
245.866	304.38
246.099	290.38
246.333	303.38
246.566	293.38
246.8	317.38
247.033	330.38
247.266	314.38
247.5	342.38
247.733	359.38
247.966	381.38
248.2	380.38
248.433	346.38
248.666	355.38
248.899	411.38
249.133	442.38
249.366	494.38
249.599	460.38
249.832	391.38
250.066	391.38
250.299	392.38
250.532	396.38
250.765	409.38
250.998	495.38
251.231	506.38
251.465	471.38
251.698	412.38
251.931	410.38
252.164	395.38
252.397	423.38
252.63	425.38
252.863	408.38
253.096	485.38
253.329	520.38
253.562	495.38
253.795	466.38
254.028	469.38
254.261	478.38
254.494	487.38
254.727	615.38
254.96	676.38
255.193	617.38
255.426	517.38
255.659	494.38
255.892	481.38
256.124	427.38
256.357	442.38
256.59	444.38
256.823	404.38
257.056	439.38
257.289	431.38
257.521	438.38
257.754	449.38
257.987	450.38
258.22	467.38
258.452	449.38
258.685	456.38
258.918	473.38
259.151	459.38
259.383	509.38
259.616	487.38
259.849	515.38
260.081	527.38
260.314	585.38
260.547	591.38
260.779	565.38
261.012	505.38
261.244	491.38
261.477	519.38
261.71	476.38
261.942	501.38
262.175	558.38
262.407	520.38
262.64	478.38
262.872	486.38
263.105	476.38
263.337	510.38
263.57	474.38
263.802	449.38
264.035	451.38
264.267	443.38
264.499	444.38
264.732	494.38
264.964	460.38
265.197	477.38
265.429	494.38
265.661	487.38
265.894	477.38
266.126	518.38
266.358	484.38
266.591	505.38
266.823	519.38
267.055	495.38
267.287	493.38
267.52	517.38
267.752	527.38
267.984	533.38
268.216	502.38
268.448	543.38
268.681	559.38
268.913	552.38
269.145	599.38
269.377	672.38
269.609	655.38
269.841	616.38
270.073	647.38
270.306	677.38
270.538	813.38
270.77	778.38
271.002	707.38
271.234	662.38
271.466	702.38
271.698	727.38
271.93	772.38
272.162	748.38
272.394	777.38
272.626	707.38
272.858	634.38
273.09	635.38
273.322	623.38
273.553	609.38
273.785	605.38
274.017	597.38
274.249	597.38
274.481	602.38
274.713	596.38
274.945	634.38
275.176	608.38
275.408	621.38
275.64	623.38
275.872	613.38
276.104	641.38
276.335	584.38
276.567	641.38
276.799	652.38
277.031	769.38
277.262	799.38
277.494	774.38
277.726	707.38
277.957	683.38
278.189	657.38
278.421	629.38
278.652	623.38
278.884	603.38
279.115	624.38
279.347	613.38
279.579	600.38
279.81	617.38
280.042	614.38
280.273	621.38
280.505	620.38
280.736	603.38
280.968	643.38
281.199	624.38
281.431	643.38
281.662	629.38
281.894	637.38
282.125	653.38
282.356	684.38
282.588	738.38
282.819	735.38
283.051	669.38
283.282	643.38
283.513	650.38
283.745	660.38
283.976	653.38
284.207	681.38
284.439	684.38
284.67	685.38
284.901	678.38
285.132	647.38
285.364	658.38
285.595	672.38
285.826	661.38
286.057	697.38
286.288	655.38
286.52	693.38
286.751	691.38
286.982	681.38
287.213	673.38
287.444	692.38
287.675	716.38
287.906	739.38
288.138	743.38
288.369	750.38
288.6	728.38
288.831	719.38
289.062	723.38
289.293	701.38
289.524	707.38
289.755	707.38
289.986	694.38
290.217	704.38
290.448	688.38
290.679	702.38
290.91	723.38
291.141	686.38
291.371	707.38
291.602	695.38
291.833	681.38
292.064	697.38
292.295	700.38
292.526	671.38
292.757	703.38
292.987	673.38
293.218	673.38
293.449	716.38
293.68	697.38
293.91	696.38
294.141	685.38
294.372	681.38
294.603	681.38
294.833	713.38
295.064	684.38
295.295	709.38
295.525	733.38
295.756	735.38
295.987	725.38
296.217	805.38
296.448	815.38
296.679	772.38
296.909	725.38
297.14	704.38
297.37	743.38
297.601	731.38
297.831	724.38
298.062	762.38
298.292	747.38
298.523	786.38
298.753	767.38
298.984	779.38
299.214	745.38
299.445	762.38
299.675	715.38
299.905	750.38
300.136	739.38
300.366	729.38
300.597	725.38
300.827	781.38
301.057	815.38
301.288	850.38
301.518	812.38
301.748	814.38
301.979	804.38
302.209	809.38
302.439	799.38
302.669	807.38
302.9	786.38
303.13	773.38
303.36	807.38
303.59	809.38
303.82	816.38
304.051	795.38
304.281	801.38
304.511	815.38
304.741	783.38
304.971	766.38
305.201	782.38
305.431	775.38
305.661	779.38
305.891	784.38
306.121	787.38
306.352	800.38
306.582	801.38
306.812	782.38
307.042	781.38
307.272	763.38
307.502	764.38
307.731	784.38
307.961	793.38
308.191	763.38
308.421	730.38
308.651	793.38
308.881	769.38
309.111	797.38
309.341	801.38
309.571	795.38
309.8	833.38
310.03	862.38
310.26	868.38
310.49	874.38
310.72	877.38
310.949	924.38
311.179	961.38
311.409	861.38
311.639	888.38
311.868	889.38
312.098	896.38
312.328	906.38
312.557	932.38
312.787	997.38
313.017	1005.38
313.246	956.38
313.476	878.38
313.706	868.38
313.935	900.38
314.165	927.38
314.394	985.38
314.624	978.38
314.853	940.38
315.083	889.38
315.312	857.38
315.542	870.38
315.771	849.38
316.001	859.38
316.23	849.38
316.46	846.38
316.689	876.38
316.919	876.38
317.148	889.38
317.377	923.38
317.607	911.38
317.836	884.38
318.065	836.38
318.295	829.38
318.524	827.38
318.753	853.38
318.983	851.38
319.212	858.38
319.441	850.38
319.67	860.38
319.9	858.38
320.129	875.38
320.358	870.38
320.587	878.38
320.816	829.38
321.046	891.38
321.275	909.38
321.504	880.38
321.733	883.38
321.962	897.38
322.191	960.38
322.42	963.38
322.649	1002.38
322.878	1027.38
323.108	1051.38
323.337	1082.38
323.566	1077.38
323.795	1159.38
324.024	1243.38
324.253	1505.38
324.482	2278.38
324.71	3769.38
324.939	5829.38
325.168	5056.38
325.397	2092.38
325.626	1327.38
325.855	1119.38
326.084	1083.38
326.313	1049.38
326.542	1080.38
326.77	1225.38
326.999	1437.38
327.228	2001.38
327.457	3315.38
327.686	4483.38
327.914	2625.38
328.143	1539.38
328.372	1356.38
328.6	1309.38
328.829	1247.38
329.058	1316.38
329.287	1401.38
329.515	1293.38
329.744	1127.38
329.972	1079.38
330.201	1089.38
330.43	1143.38
330.658	1283.38
330.887	1466.38
331.115	1489.38
331.344	1266.38
331.572	1144.38
331.801	1112.38
332.03	1142.38
332.258	1126.38
332.486	1077.38
332.715	1085.38
332.943	1094.38
333.172	1139.38
333.4	1164.38
333.629	1200.38
333.857	1221.38
334.085	1165.38
334.314	1143.38
334.542	1143.38
334.771	1120.38
334.999	1115.38
335.227	1136.38
335.455	1099.38
335.684	1096.38
335.912	1077.38
336.14	1049.38
336.369	1091.38
336.597	1052.38
336.825	1104.38
337.053	1058.38
337.281	1041.38
337.51	1017.38
337.738	1027.38
337.966	997.38
338.194	1014.38
338.422	1029.38
338.65	1007.38
338.878	1012.38
339.106	986.38
339.334	1016.38
339.562	996.38
339.79	977.38
340.018	956.38
340.246	970.38
340.474	988.38
340.702	996.38
340.93	971.38
341.158	947.38
341.386	971.38
341.614	1003.38
341.842	995.38
342.07	964.38
342.298	942.38
342.526	951.38
342.754	935.38
342.981	924.38
343.209	931.38
343.437	999.38
343.665	1002.38
343.893	1053.38
344.12	1123.38
344.348	1066.38
344.576	1060.38
344.804	1013.38
345.031	1033.38
345.259	1058.38
345.487	1015.38
345.714	985.38
345.942	969.38
346.17	929.38
346.397	933.38
346.625	925.38
346.853	930.38
347.08	940.38
347.308	929.38
347.535	965.38
347.763	995.38
347.99	972.38
348.218	982.38
348.445	994.38
348.673	977.38
348.9	945.38
349.128	934.38
349.355	880.38
349.583	874.38
349.81	879.38
350.037	901.38
350.265	887.38
350.492	887.38
350.72	883.38
350.947	896.38
351.174	928.38
351.402	945.38
351.629	958.38
351.856	925.38
352.083	959.38
352.311	1014.38
352.538	948.38
352.765	1001.38
352.992	971.38
353.22	949.38
353.447	917.38
353.674	921.38
353.901	893.38
354.128	865.38
354.355	850.38
354.583	891.38
354.81	896.38
355.037	864.38
355.264	881.38
355.491	863.38
355.718	804.38
355.945	848.38
356.172	828.38
356.399	858.38
356.626	812.38
356.853	871.38
357.08	864.38
357.307	835.38
357.534	827.38
357.761	840.38
357.988	862.38
358.215	857.38
358.441	863.38
358.668	857.38
358.895	854.38
359.122	875.38
359.349	886.38
359.576	913.38
359.802	975.38
360.029	1059.38
360.256	1123.38
360.483	1068.38
360.709	972.38
360.936	982.38
361.163	923.38
361.39	930.38
361.616	958.38
361.843	919.38
362.07	897.38
362.296	926.38
362.523	908.38
362.749	925.38
362.976	899.38
363.203	905.38
363.429	857.38
363.656	879.38
363.882	848.38
364.109	876.38
364.335	862.38
364.562	870.38
364.788	868.38
365.015	892.38
365.241	873.38
365.468	917.38
365.694	899.38
365.92	925.38
366.147	899.38
366.373	869.38
366.599	842.38
366.826	863.38
367.052	859.38
367.278	857.38
367.505	885.38
367.731	927.38
367.957	893.38
368.184	867.38
368.41	878.38
368.636	921.38
368.862	950.38
369.089	907.38
369.315	894.38
369.541	907.38
369.767	916.38
369.993	875.38
370.219	899.38
370.445	892.38
370.672	895.38
370.898	887.38
371.124	887.38
371.35	849.38
371.576	871.38
371.802	912.38
372.028	891.38
372.254	880.38
372.48	927.38
372.706	949.38
372.932	913.38
373.158	928.38
373.384	943.38
373.61	933.38
373.835	927.38
374.061	912.38
374.287	910.38
374.513	931.38
374.739	956.38
374.965	951.38
375.191	986.38
375.416	984.38
375.642	939.38
375.868	949.38
376.094	945.38
376.319	908.38
376.545	887.38
376.771	904.38
376.997	893.38
377.222	892.38
377.448	919.38
377.674	905.38
377.899	914.38
378.125	912.38
378.35	918.38
378.576	858.38
378.802	901.38
379.027	888.38
379.253	910.38
379.478	907.38
379.704	902.38
379.929	879.38
380.155	936.38
380.38	947.38
380.606	924.38
380.831	963.38
381.057	975.38
381.282	930.38
381.507	947.38
381.733	960.38
381.958	939.38
382.184	940.38
382.409	949.38
382.634	990.38
382.86	954.38
383.085	984.38
383.31	975.38
383.535	1028.38
383.761	1014.38
383.986	1047.38
384.211	1013.38
384.436	1025.38
384.662	1056.38
384.887	1048.38
385.112	1044.38
385.337	1082.38
385.562	1056.38
385.787	1073.38
386.013	1164.38
386.238	1097.38
386.463	1100.38
386.688	1094.38
386.913	1075.38
387.138	1094.38
387.363	1074.38
387.588	1071.38
387.813	1091.38
388.038	1076.38
388.263	1085.38
388.488	1084.38
388.713	1099.38
388.938	1088.38
389.163	1079.38
389.387	1063.38
389.612	1069.38
389.837	1101.38
390.062	1103.38
390.287	1073.38
390.512	1055.38
390.736	1061.38
390.961	1087.38
391.186	1129.38
391.411	1099.38
391.636	1139.38
391.86	1194.38
392.085	1187.38
392.31	1205.38
392.534	1184.38
392.759	1177.38
392.984	1158.38
393.208	1111.38
393.433	1115.38
393.658	1161.38
393.882	1127.38
394.107	1167.38
394.331	1125.38
394.556	1136.38
394.78	1145.38
395.005	1173.38
395.229	1133.38
395.454	1173.38
395.678	1199.38
395.903	1202.38
396.127	1255.38
396.352	1260.38
396.576	1132.38
396.801	1130.38
397.025	1169.38
397.249	1184.38
397.474	1235.38
397.698	1239.38
397.922	1240.38
398.147	1273.38
398.371	1291.38
398.595	1263.38
398.82	1324.38
399.044	1376.38
399.268	1480.38
399.492	1660.38
399.717	1811.38
399.941	1854.38
400.165	1801.38
400.389	1740.38
400.613	1529.38
400.837	1413.38
401.062	1400.38
401.286	1389.38
401.51	1403.38
401.734	1355.38
401.958	1399.38
402.182	1386.38
402.406	1469.38
402.63	1467.38
402.854	1467.38
403.078	1434.38
403.302	1497.38
403.526	1516.38
403.75	1542.38
403.974	1491.38
404.198	1499.38
404.422	1528.38
404.645	1531.38
404.869	1537.38
405.093	1565.38
405.317	1608.38
405.541	1645.38
405.765	1542.38
405.988	1525.38
406.212	1593.38
406.436	1664.38
406.66	1727.38
406.883	1636.38
407.107	1685.38
407.331	1785.38
407.555	2015.38
407.778	1998.38
408.002	1818.38
408.226	1675.38
408.449	1631.38
408.673	1592.38
408.896	1652.38
409.12	1759.38
409.344	1663.38
409.567	1530.38
409.791	1523.38
410.014	1510.38
410.238	1459.38
410.461	1483.38
410.685	1480.38
410.908	1509.38
411.132	1602.38
411.355	1709.38
411.578	1584.38
411.802	1425.38
412.025	1413.38
412.249	1455.38
412.472	1459.38
412.695	1411.38
412.919	1405.38
413.142	1384.38
413.365	1391.38
413.589	1406.38
413.812	1377.38
414.035	1390.38
414.258	1375.38
414.482	1354.38
414.705	1389.38
414.928	1465.38
415.151	1398.38
415.374	1431.38
415.597	1409.38
415.821	1399.38
416.044	1417.38
416.267	1443.38
416.49	1402.38
416.713	1403.38
416.936	1407.38
417.159	1415.38
417.382	1431.38
417.605	1456.38
417.828	1483.38
418.051	1554.38
418.274	1490.38
418.497	1469.38
418.72	1484.38
418.943	1428.38
419.166	1530.38
419.389	1583.38
419.611	1578.38
419.834	1550.38
420.057	1579.38
420.28	1468.38
420.503	1452.38
420.726	1443.38
420.948	1491.38
421.171	1600.38
421.394	1695.38
421.617	1595.38
421.839	1535.38
422.062	1531.38
422.285	1500.38
422.507	1705.38
422.73	1859.38
422.953	1761.38
423.175	1587.38
423.398	1602.38
423.621	1612.38
423.843	1712.38
424.066	1680.38
424.288	1655.38
424.511	1693.38
424.733	1825.38
424.956	2057.38
425.178	1943.38
425.401	1910.38
425.623	1966.38
425.846	1682.38
426.068	1594.38
426.291	1502.38
426.513	1526.38
426.735	1592.38
426.958	1666.38
427.18	1865.38
427.402	2230.38
427.625	2424.38
427.847	2037.38
428.069	1686.38
428.292	1516.38
428.514	1449.38
428.736	1450.38
428.958	1444.38
429.181	1401.38
429.403	1415.38
429.625	1433.38
429.847	1516.38
430.069	1720.38
430.292	1700.38
430.514	1459.38
430.736	1419.38
430.958	1411.38
431.18	1358.38
431.402	1366.38
431.624	1315.38
431.846	1248.38
432.068	1198.38
432.29	1237.38
432.512	1289.38
432.734	1345.38
432.956	1404.38
433.178	1477.38
433.4	1468.38
433.622	1432.38
433.844	1380.38
434.066	1324.38
434.287	1241.38
434.509	1245.38
434.731	1349.38
434.953	1419.38
435.175	1478.38
435.397	1602.38
435.618	1536.38
435.84	1627.38
436.062	1975.38
436.284	2085.38
436.505	1705.38
436.727	1612.38
436.949	1505.38
437.17	1454.38
437.392	1415.38
437.614	1410.38
437.835	1430.38
438.057	1680.38
438.278	1972.38
438.5	1929.38
438.721	2229.38
438.943	2174.38
439.165	1712.38
439.386	1620.38
439.608	1715.38
439.829	1647.38
440.05	1789.38
440.272	1956.38
440.493	1801.38
440.715	1655.38
440.936	1613.38
441.158	1564.38
441.379	1601.38
441.6	1649.38
441.822	1732.38
442.043	1779.38
442.264	2036.38
442.486	2097.38
442.707	1775.38
442.928	1749.38
443.149	1749.38
443.371	1884.38
443.592	1936.38
443.813	2140.38
444.034	2325.38
444.255	1933.38
444.476	1766.38
444.698	1773.38
444.919	1804.38
445.14	3461.38
445.361	2569.38
445.582	1952.38
445.803	2101.38
446.024	2411.38
446.245	2387.38
446.466	2132.38
446.687	1792.38
446.908	1701.38
447.129	1600.38
447.35	1559.38
447.571	1549.38
447.792	1518.38
448.013	1515.38
448.234	1551.38
448.455	1679.38
448.675	1937.38
448.896	2224.38
449.117	1833.38
449.338	1753.38
449.559	2108.38
449.779	2338.38
450	1856.38
450.221	1573.38
450.442	1469.38
450.662	1432.38
450.883	1457.38
451.104	1542.38
451.324	1474.38
451.545	1372.38
451.766	1316.38
451.986	1309.38
452.207	1237.38
452.428	1255.38
452.648	1303.38
452.869	1245.38
453.089	1285.38
453.31	1277.38
453.53	1182.38
453.751	1215.38
453.971	1198.38
454.192	1232.38
454.412	1209.38
454.633	1200.38
454.853	1196.38
455.073	1226.38
455.294	1294.38
455.514	1516.38
455.734	1441.38
455.955	1221.38
456.175	1149.38
456.395	1107.38
456.616	1102.38
456.836	1076.38
457.056	1077.38
457.276	1022.38
457.497	1059.38
457.717	1091.38
457.937	1089.38
458.157	1129.38
458.377	1121.38
458.598	1144.38
458.818	1338.38
459.038	1613.38
459.258	1617.38
459.478	1296.38
459.698	1232.38
459.918	1228.38
460.138	1284.38
460.358	1352.38
460.578	1380.38
460.798	1376.38
461.018	1426.38
461.238	1403.38
461.458	1375.38
461.678	1340.38
461.898	1392.38
462.118	1389.38
462.338	1451.38
462.558	1456.38
462.777	1495.38
462.997	1572.38
463.217	1646.38
463.437	1680.38
463.657	1530.38
463.876	1499.38
464.096	1514.38
464.316	1478.38
464.536	1536.38
464.755	1539.38
464.975	1507.38
465.195	1693.38
465.414	1871.38
465.634	1544.38
465.854	1387.38
466.073	1335.38
466.293	1309.38
466.512	1311.38
466.732	1317.38
466.951	1327.38
467.171	1351.38
467.391	1385.38
467.61	1444.38
467.829	1427.38
468.049	1387.38
468.268	1345.38
468.488	1301.38
468.707	1304.38
468.927	1307.38
469.146	1297.38
469.365	1344.38
469.585	1376.38
469.804	1402.38
470.023	1451.38
470.243	1463.38
470.462	1512.38
470.681	1559.38
470.901	1506.38
471.12	1424.38
471.339	1477.38
471.558	1436.38
471.777	1418.38
471.997	1320.38
472.216	1284.38
472.435	1174.38
472.654	1133.38
472.873	1141.38
473.092	1179.38
473.311	1222.38
473.53	1228.38
473.749	1283.38
473.968	1429.38
474.187	1641.38
474.406	1678.38
474.625	1396.38
474.844	1333.38
475.063	1310.38
475.282	1261.38
475.501	1208.38
475.72	1300.38
475.939	1315.38
476.158	1314.38
476.377	1315.38
476.596	1236.38
476.814	1248.38
477.033	1246.38
477.252	1262.38
477.471	1326.38
477.69	1432.38
477.908	1499.38
478.127	1516.38
478.346	1501.38
478.564	1504.38
478.783	1516.38
479.002	1549.38
479.22	1606.38
479.439	1568.38
479.658	1543.38
479.876	1481.38
480.095	1483.38
480.313	1658.38
480.532	1582.38
480.751	1498.38
480.969	1415.38
481.188	1403.38
481.406	1324.38
481.624	1311.38
481.843	1287.38
482.061	1290.38
482.28	1341.38
482.498	1295.38
482.717	1298.38
482.935	1415.38
483.153	1505.38
483.372	1582.38
483.59	1575.38
483.808	1497.38
484.027	1418.38
484.245	1448.38
484.463	1489.38
484.681	1603.38
484.9	1504.38
485.118	1561.38
485.336	1467.38
485.554	1440.38
485.772	1407.38
485.99	1375.38
486.209	1418.38
486.427	1465.38
486.645	1520.38
486.863	1684.38
487.081	1703.38
487.299	1623.38
487.517	1644.38
487.735	1771.38
487.953	1901.38
488.171	1890.38
488.389	1792.38
488.607	1681.38
488.825	1594.38
489.043	1539.38
489.261	1603.38
489.479	1590.38
489.696	1692.38
489.914	1685.38
490.132	1703.38
490.35	1805.38
490.568	1848.38
490.786	1959.38
491.003	2039.38
491.221	2126.38
491.439	2140.38
491.657	2211.38
491.874	2310.38
492.092	2455.38
492.31	2542.38
492.527	2437.38
492.745	2323.38
492.963	2258.38
493.18	2244.38
493.398	2246.38
493.615	2213.38
493.833	2216.38
494.05	2205.38
494.268	2152.38
494.485	2145.38
494.703	2176.38
494.92	2180.38
495.138	2164.38
495.355	2146.38
495.573	2174.38
495.79	2088.38
496.008	2176.38
496.225	2100.38
496.442	2066.38
496.66	2147.38
496.877	2073.38
497.094	2111.38
497.312	2075.38
497.529	2075.38
497.746	2079.38
497.963	1999.38
498.181	2008.38
498.398	2035.38
498.615	2086.38
498.832	2124.38
499.049	2167.38
499.267	2302.38
499.484	2508.38
499.701	2621.38
499.918	2892.38
500.135	3176.38
500.352	3439.38
500.569	3488.38
500.786	3472.38
501.003	3328.38
501.22	3147.38
501.437	2975.38
501.654	2761.38
501.871	2655.38
502.088	2450.38
502.305	2279.38
502.522	2160.38
502.739	2120.38
502.956	1991.38
503.172	1961.38
503.389	1879.38
503.606	1865.38
503.823	1889.38
504.04	1827.38
504.256	1845.38
504.473	1813.38
504.69	1863.38
504.907	1877.38
505.123	1799.38
505.34	1745.38
505.557	1704.38
505.773	1689.38
505.99	1708.38
506.207	1677.38
506.423	1679.38
506.64	1625.38
506.856	1620.38
507.073	1581.38
507.289	1605.38
507.506	1580.38
507.722	1621.38
507.939	1698.38
508.155	1562.38
508.372	1520.38
508.588	1470.38
508.805	1475.38
509.021	1484.38
509.238	1510.38
509.454	1504.38
509.67	1442.38
509.887	1411.38
510.103	1383.38
510.319	1387.38
510.536	1646.38
510.752	2947.38
510.968	2061.38
511.184	1323.38
511.401	1280.38
511.617	1296.38
511.833	1271.38
512.049	1256.38
512.265	1256.38
512.481	1272.38
512.698	1243.38
512.914	1277.38
513.13	1267.38
513.346	1270.38
513.562	1270.38
513.778	1290.38
513.994	1278.38
514.21	1341.38
514.426	1403.38
514.642	1536.38
514.858	1516.38
515.074	1639.38
515.29	2122.38
515.506	3536.38
515.721	2553.38
515.937	1643.38
516.153	1500.38
516.369	1431.38
516.585	1375.38
516.801	1407.38
517.016	1432.38
517.232	1493.38
517.448	1534.38
517.664	1551.38
517.879	1586.38
518.095	1576.38
518.311	1542.38
518.527	1530.38
518.742	1466.38
518.958	1459.38
519.173	1417.38
519.389	1440.38
519.605	1421.38
519.82	1434.38
520.036	1463.38
520.251	1480.38
520.467	1541.38
520.682	1480.38
520.898	1445.38
521.113	1492.38
521.329	1617.38
521.544	1832.38
521.76	2556.38
521.975	4847.38
522.19	4313.38
522.406	2061.38
522.621	1518.38
522.836	1376.38
523.052	1338.38
523.267	1335.38
523.482	1258.38
523.698	1277.38
523.913	1320.38
524.128	1339.38
524.343	1307.38
524.559	1312.38
524.774	1312.38
524.989	1288.38
525.204	1305.38
525.419	1297.38
525.634	1223.38
525.849	1182.38
526.064	1135.38
526.28	1115.38
526.495	1068.38
526.71	1037.38
526.925	1024.38
527.14	1023.38
527.355	1042.38
527.57	1028.38
527.785	1046.38
527.999	1054.38
528.214	1124.38
528.429	1176.38
528.644	1248.38
528.859	1315.38
529.074	1376.38
529.289	1529.38
529.503	1749.38
529.718	1559.38
529.933	1296.38
530.148	1159.38
530.363	1086.38
530.577	1008.38
530.792	1034.38
531.007	1022.38
531.221	1006.38
531.436	1014.38
531.651	1063.38
531.865	999.38
532.08	1029.38
532.295	1044.38
532.509	995.38
532.724	1028.38
532.938	1069.38
533.153	1096.38
533.367	1165.38
533.582	1228.38
533.796	1155.38
534.011	1115.38
534.225	1031.38
534.44	1022.38
534.654	1056.38
534.868	1064.38
535.083	1053.38
535.297	1081.38
535.511	1156.38
535.726	1149.38
535.94	1137.38
536.154	1051.38
536.369	1025.38
536.583	975.38
536.797	969.38
537.011	924.38
537.225	981.38
537.44	971.38
537.654	997.38
537.868	998.38
538.082	1002.38
538.296	1037.38
538.51	1093.38
538.724	1156.38
538.938	1210.38
539.153	1214.38
539.367	1264.38
539.581	1168.38
539.795	1096.38
540.009	1051.38
540.222	1067.38
540.436	1135.38
540.65	1185.38
540.864	1297.38
541.078	1431.38
541.292	1523.38
541.506	1568.38
541.72	1729.38
541.934	1840.38
542.147	1934.38
542.361	1838.38
542.575	1736.38
542.789	1619.38
543.002	1475.38
543.216	1438.38
543.43	1438.38
543.644	1515.38
543.857	1610.38
544.071	1727.38
544.285	1785.38
544.498	1778.38
544.712	1797.38
544.925	1813.38
545.139	1716.38
545.352	1746.38
545.566	1752.38
545.779	1776.38
545.993	1823.38
546.206	2009.38
546.42	2036.38
546.633	1785.38
546.847	1729.38
547.06	1706.38
547.274	1739.38
547.487	1744.38
547.7	1764.38
547.914	1670.38
548.127	1658.38
548.34	1643.38
548.554	1620.38
548.767	1659.38
548.98	1688.38
549.193	1663.38
549.407	1658.38
549.62	1643.38
549.833	1646.38
550.046	1615.38
550.259	1589.38
550.473	1603.38
550.686	1576.38
550.899	1537.38
551.112	1511.38
551.325	1450.38
551.538	1387.38
551.751	1267.38
551.964	1215.38
552.177	1364.38
552.39	1453.38
552.603	1573.38
552.816	1609.38
553.029	1660.38
553.242	1693.38
553.455	1737.38
553.667	1737.38
553.88	1766.38
554.093	1685.38
554.306	1610.38
554.519	1595.38
554.732	1521.38
554.944	1523.38
555.157	1501.38
555.37	1452.38
555.583	1432.38
555.795	1411.38
556.008	1361.38
556.221	1275.38
556.433	1333.38
556.646	1328.38
556.859	1294.38
557.071	1314.38
557.284	1348.38
557.496	1358.38
557.709	1351.38
557.921	1348.38
558.134	1305.38
558.346	1323.38
558.559	1319.38
558.771	1272.38
558.984	1267.38
559.196	1248.38
559.409	1198.38
559.621	1219.38
559.833	1177.38
560.046	1166.38
560.258	1194.38
560.47	1234.38
560.683	1194.38
560.895	1234.38
561.107	1260.38
561.32	1219.38
561.532	1249.38
561.744	1225.38
561.956	1223.38
562.168	1191.38
562.381	1224.38
562.593	1198.38
562.805	1211.38
563.017	1179.38
563.229	1185.38
563.441	1193.38
563.653	1173.38
563.865	1125.38
564.077	1159.38
564.289	1179.38
564.501	1185.38
564.713	1184.38
564.925	1184.38
565.137	1211.38
565.349	1200.38
565.561	1223.38
565.773	1303.38
565.985	1235.38
566.197	1297.38
566.408	1375.38
566.62	1450.38
566.832	1527.38
567.044	1560.38
567.255	1514.38
567.467	1543.38
567.679	1507.38
567.891	1548.38
568.102	1512.38
568.314	1414.38
568.526	1260.38
568.737	1185.38
568.949	1088.38
569.161	1001.38
569.372	933.38
569.584	902.38
569.795	884.38
570.007	873.38
570.218	963.38
570.43	921.38
570.641	909.38
570.853	905.38
571.064	962.38
571.276	995.38
571.487	989.38
571.698	991.38
571.91	958.38
572.121	905.38
572.333	844.38
572.544	835.38
572.755	797.38
572.966	740.38
573.178	725.38
573.389	710.38
573.6	698.38
573.811	710.38
574.023	688.38
574.234	685.38
574.445	735.38
574.656	750.38
574.867	751.38
575.078	766.38
575.289	777.38
575.501	788.38
575.712	721.38
575.923	723.38
576.134	749.38
576.345	747.38
576.556	798.38
576.767	785.38
576.978	797.38
577.188	889.38
577.399	782.38
577.61	719.38
577.821	731.38
578.032	709.38
578.243	845.38
578.454	1288.38
578.665	906.38
578.875	703.38
579.086	672.38
579.297	703.38
579.508	658.38
579.718	665.38
579.929	672.38
580.14	667.38
580.35	665.38
580.561	692.38
580.772	693.38
580.982	705.38
581.193	679.38
581.403	700.38
581.614	697.38
581.825	677.38
582.035	675.38
582.246	713.38
582.456	680.38
582.667	697.38
582.877	695.38
583.087	668.38
583.298	727.38
583.508	661.38
583.719	680.38
583.929	702.38
584.139	655.38
584.35	650.38
584.56	687.38
584.77	678.38
584.981	663.38
585.191	693.38
585.401	663.38
585.611	665.38
585.821	646.38
586.032	653.38
586.242	622.38
586.452	651.38
586.662	628.38
586.872	597.38
587.082	629.38
587.292	644.38
587.502	713.38
587.713	686.38
587.923	653.38
588.133	630.38
588.343	630.38
588.553	613.38
588.762	659.38
588.972	654.38
589.182	609.38
589.392	611.38
589.602	631.38
589.812	626.38
590.022	659.38
590.232	627.38
590.441	621.38
590.651	589.38
590.861	610.38
591.071	622.38
591.281	648.38
591.49	631.38
591.7	627.38
591.91	697.38
592.119	653.38
592.329	687.38
592.539	712.38
592.748	745.38
592.958	747.38
593.167	731.38
593.377	749.38
593.587	825.38
593.796	779.38
594.006	773.38
594.215	776.38
594.424	809.38
594.634	786.38
594.843	793.38
595.053	784.38
595.262	733.38
595.472	707.38
595.681	665.38
595.89	643.38
596.1	647.38
596.309	655.38
596.518	668.38
596.727	699.38
596.937	688.38
597.146	684.38
597.355	699.38
597.564	629.38
597.774	619.38
597.983	590.38
598.192	586.38
598.401	570.38
598.61	581.38
598.819	596.38
599.028	601.38
599.237	620.38
599.446	605.38
599.655	621.38
599.864	620.38
600.073	605.38
600.282	643.38
600.491	614.38
600.7	645.38
600.909	660.38
601.118	694.38
601.327	729.38
601.536	793.38
601.745	803.38
601.953	829.38
602.162	819.38
602.371	800.38
602.58	784.38
602.789	815.38
602.997	799.38
603.206	848.38
603.415	819.38
603.623	829.38
603.832	823.38
604.041	789.38
604.249	709.38
604.458	676.38
604.666	623.38
604.875	653.38
605.084	698.38
605.292	744.38
605.501	830.38
605.709	894.38
605.918	910.38
606.126	894.38
606.334	894.38
606.543	910.38
606.751	917.38
606.96	884.38
607.168	877.38
607.376	854.38
607.585	888.38
607.793	886.38
608.001	880.38
608.21	899.38
608.418	927.38
608.626	880.38
608.834	949.38
609.043	913.38
609.251	952.38
609.459	921.38
609.667	960.38
609.875	1012.38
610.083	1039.38
610.291	982.38
610.499	988.38
610.707	1064.38
610.916	1121.38
611.124	1194.38
611.332	1310.38
611.54	1430.38
611.748	1389.38
611.955	1272.38
612.163	1169.38
612.371	1102.38
612.579	1037.38
612.787	1011.38
612.995	1056.38
613.203	1056.38
613.411	999.38
613.618	1014.38
613.826	1011.38
614.034	988.38
614.242	993.38
614.449	986.38
614.657	985.38
614.865	982.38
615.072	972.38
615.28	965.38
615.488	951.38
615.695	954.38
615.903	938.38
616.111	967.38
616.318	1009.38
616.526	985.38
616.733	997.38
616.941	948.38
617.148	953.38
617.356	944.38
617.563	900.38
617.771	891.38
617.978	832.38
618.185	901.38
618.393	947.38
618.6	945.38
618.807	941.38
619.015	928.38
619.222	923.38
619.429	884.38
619.637	805.38
619.844	753.38
620.051	789.38
620.258	855.38
620.466	880.38
620.673	863.38
620.88	850.38
621.087	864.38
621.294	821.38
621.501	773.38
621.708	775.38
621.915	834.38
622.122	858.38
622.329	885.38
622.536	848.38
622.743	857.38
622.95	830.38
623.157	825.38
623.364	867.38
623.571	856.38
623.778	831.38
623.985	830.38
624.192	853.38
624.399	855.38
624.606	851.38
624.812	824.38
625.019	757.38
625.226	757.38
625.433	733.38
625.639	658.38
625.846	633.38
626.053	599.38
626.259	549.38
626.466	590.38
626.673	548.38
626.879	538.38
627.086	616.38
627.293	664.38
627.499	709.38
627.706	757.38
627.912	776.38
628.119	762.38
628.325	799.38
628.532	752.38
628.738	729.38
628.945	717.38
629.151	701.38
629.357	669.38
629.564	709.38
629.77	717.38
629.976	681.38
630.183	631.38
630.389	633.38
630.595	709.38
630.802	748.38
631.008	724.38
631.214	717.38
631.42	697.38
631.627	694.38
631.833	611.38
632.039	605.38
632.245	651.38
632.451	667.38
632.657	660.38
632.863	638.38
633.069	639.38
633.275	661.38
633.481	628.38
633.688	604.38
633.893	618.38
634.099	604.38
634.305	615.38
634.511	582.38
634.717	597.38
634.923	518.38
635.129	530.38
635.335	532.38
635.541	512.38
635.747	569.38
635.952	581.38
636.158	617.38
636.364	645.38
636.57	636.38
636.775	656.38
636.981	642.38
637.187	646.38
637.392	661.38
637.598	655.38
637.804	645.38
638.009	646.38
638.215	649.38
638.421	611.38
638.626	634.38
638.832	627.38
639.037	569.38
639.243	589.38
639.448	550.38
639.654	599.38
639.859	583.38
640.065	564.38
640.27	647.38
640.475	597.38
640.681	589.38
640.886	582.38
641.091	598.38
641.297	627.38
641.502	605.38
641.707	586.38
641.913	622.38
642.118	601.38
642.323	592.38
642.528	628.38
642.733	613.38
642.939	595.38
643.144	572.38
643.349	570.38
643.554	572.38
643.759	573.38
643.964	561.38
644.169	587.38
644.374	570.38
644.579	598.38
644.784	560.38
644.989	598.38
645.194	569.38
645.399	589.38
645.604	570.38
645.809	597.38
646.014	561.38
646.219	579.38
646.423	555.38
646.628	570.38
646.833	588.38
647.038	586.38
647.243	611.38
647.447	577.38
647.652	592.38
647.857	591.38
648.062	598.38
648.266	577.38
648.471	610.38
648.676	602.38
648.88	584.38
649.085	579.38
649.289	580.38
649.494	568.38
649.698	654.38
649.903	598.38
650.107	564.38
650.312	587.38
650.516	558.38
650.721	550.38
650.925	520.38
651.13	510.38
651.334	496.38
651.539	499.38
651.743	496.38
651.947	505.38
652.152	505.38
652.356	464.38
652.56	467.38
652.764	446.38
652.969	432.38
653.173	427.38
653.377	428.38
653.581	431.38
653.785	424.38
653.99	414.38
654.194	409.38
654.398	389.38
654.602	375.38
654.806	384.38
655.01	420.38
655.214	395.38
655.418	393.38
655.622	366.38
655.826	377.38
656.03	382.38
656.234	404.38
656.438	374.38
656.642	358.38
656.846	353.38
657.049	350.38
657.253	349.38
657.457	307.38
657.661	296.38
657.865	320.38
658.068	267.38
658.272	244.38
658.476	261.38
658.68	231.38
658.883	217.38
659.087	227.38
659.291	204.38
659.494	232.38
659.698	213.38
659.901	202.38
660.105	200.38
660.309	173.38
660.512	177.38
660.716	169.38
660.919	166.38
661.123	195.38
661.326	167.38
661.53	159.38
661.733	157.38
661.936	156.38
662.14	133.38
662.343	141.38
662.546	139.38
662.75	142.38
662.953	137.38
663.156	124.38
663.36	121.38
663.563	124.38
663.766	107.38
663.969	126.38
664.173	107.38
664.376	101.38
664.579	106.38
664.782	108.38
664.985	125.38
665.188	102.38
665.391	117.38
665.594	105.38
665.797	103.38
666	111.38
666.203	116.38
666.406	91.38
666.609	111.38
666.812	127.38
667.015	100.38
667.218	121.38
667.421	122.38
667.624	96.38
667.827	110.38
668.03	92.38
668.232	86.38
668.435	103.38
668.638	105.38
668.841	127.38
669.043	90.38
669.246	105.38
669.449	101.38
669.651	109.38
669.854	107.38
670.057	105.38
670.259	90.38
670.462	92.38
670.665	91.38
670.867	113.38
671.07	113.38
671.272	116.38
671.475	139.38
671.677	100.38
671.88	107.38
672.082	107.38
672.284	129.38
672.487	130.38
672.689	108.38
672.892	111.38
