Data from FlinnAP5935BZINC.07152019.LAMPEdge.EN5.5scans.P1_HRD10591_15-00-03-579.txt Node
Date: Mon Jul 15 15:00:03 EDT 2019
User: cochatt
Spectrometer: HR+D1059
Trigger mode: 1
Integration Time (sec): 1.000000E-1
Scans to average: 1
Electric dark correction enabled: true
Nonlinearity correction enabled: false
Boxcar width: 0
XAxis mode: Wavelengths
Number of Pixels in Spectrum: 2048
>>>>>Begin Spectral Data<<<<<
223.165	-15.88
223.4	-15.88
223.635	-15.88
223.869	-14.88
224.104	-5.88
224.338	-16.88
224.573	-10.88
224.808	-6.88
225.042	4.12
225.277	-8.88
225.511	-4.88
225.746	-5.88
225.98	15.12
226.215	6.12
226.449	4.12
226.683	11.12
226.918	18.12
227.152	32.12
227.387	27.12
227.621	31.12
227.856	42.12
228.09	50.12
228.324	50.12
228.559	48.12
228.793	63.12
229.027	94.12
229.262	94.12
229.496	102.12
229.73	106.12
229.964	118.12
230.199	123.12
230.433	119.12
230.667	135.12
230.901	124.12
231.136	124.12
231.37	137.12
231.604	126.12
231.838	138.12
232.072	138.12
232.306	147.12
232.541	149.12
232.775	151.12
233.009	132.12
233.243	134.12
233.477	136.12
233.711	151.12
233.945	154.12
234.179	141.12
234.413	146.12
234.647	154.12
234.881	151.12
235.115	154.12
235.349	160.12
235.583	130.12
235.817	152.12
236.051	144.12
236.285	159.12
236.519	141.12
236.753	158.12
236.987	144.12
237.221	136.12
237.455	157.12
237.689	157.12
237.922	144.12
238.156	162.12
238.39	171.12
238.624	160.12
238.858	160.12
239.091	168.12
239.325	156.12
239.559	158.12
239.793	162.12
240.027	169.12
240.26	171.12
240.494	179.12
240.728	174.12
240.961	178.12
241.195	170.12
241.429	181.12
241.662	193.12
241.896	183.12
242.13	192.12
242.363	177.12
242.597	179.12
242.83	187.12
243.064	202.12
243.298	200.12
243.531	183.12
243.765	196.12
243.998	211.12
244.232	193.12
244.465	211.12
244.699	187.12
244.932	194.12
245.166	217.12
245.399	218.12
245.633	189.12
245.866	195.12
246.099	210.12
246.333	206.12
246.566	224.12
246.8	219.12
247.033	218.12
247.266	210.12
247.5	239.12
247.733	235.12
247.966	226.12
248.2	233.12
248.433	234.12
248.666	250.12
248.899	232.12
249.133	247.12
249.366	269.12
249.599	282.12
249.832	280.12
250.066	315.12
250.299	356.12
250.532	450.12
250.765	505.12
250.998	455.12
251.231	380.12
251.465	346.12
251.698	329.12
251.931	307.12
252.164	304.12
252.397	310.12
252.63	308.12
252.863	310.12
253.096	304.12
253.329	307.12
253.562	295.12
253.795	315.12
254.028	313.12
254.261	307.12
254.494	321.12
254.727	314.12
254.96	318.12
255.193	354.12
255.426	372.12
255.659	432.12
255.892	586.12
256.124	779.12
256.357	854.12
256.59	678.12
256.823	554.12
257.056	481.12
257.289	443.12
257.521	390.12
257.754	387.12
257.987	386.12
258.22	368.12
258.452	372.12
258.685	360.12
258.918	347.12
259.151	354.12
259.383	360.12
259.616	364.12
259.849	351.12
260.081	337.12
260.314	352.12
260.547	358.12
260.779	350.12
261.012	354.12
261.244	369.12
261.477	355.12
261.71	341.12
261.942	361.12
262.175	350.12
262.407	346.12
262.64	333.12
262.872	341.12
263.105	343.12
263.337	336.12
263.57	355.12
263.802	358.12
264.035	349.12
264.267	356.12
264.499	355.12
264.732	345.12
264.964	341.12
265.197	358.12
265.429	343.12
265.661	338.12
265.894	368.12
266.126	367.12
266.358	355.12
266.591	373.12
266.823	364.12
267.055	366.12
267.287	356.12
267.52	363.12
267.752	367.12
267.984	353.12
268.216	379.12
268.448	376.12
268.681	371.12
268.913	383.12
269.145	387.12
269.377	384.12
269.609	395.12
269.841	386.12
270.073	385.12
270.306	383.12
270.538	403.12
270.77	404.12
271.002	399.12
271.234	391.12
271.466	413.12
271.698	409.12
271.93	426.12
272.162	412.12
272.394	404.12
272.626	390.12
272.858	418.12
273.09	419.12
273.322	436.12
273.553	434.12
273.785	430.12
274.017	447.12
274.249	424.12
274.481	437.12
274.713	468.12
274.945	464.12
275.176	477.12
275.408	463.12
275.64	510.12
275.872	496.12
276.104	517.12
276.335	513.12
276.567	539.12
276.799	547.12
277.031	565.12
277.262	602.12
277.494	633.12
277.726	587.12
277.957	549.12
278.189	561.12
278.421	500.12
278.652	515.12
278.884	540.12
279.115	513.12
279.347	513.12
279.579	545.12
279.81	593.12
280.042	638.12
280.273	717.12
280.505	701.12
280.736	657.12
280.968	616.12
281.199	556.12
281.431	553.12
281.662	537.12
281.894	528.12
282.125	518.12
282.356	536.12
282.588	514.12
282.819	500.12
283.051	516.12
283.282	513.12
283.513	520.12
283.745	524.12
283.976	510.12
284.207	506.12
284.439	514.12
284.67	506.12
284.901	519.12
285.132	531.12
285.364	514.12
285.595	527.12
285.826	538.12
286.057	534.12
286.288	509.12
286.52	521.12
286.751	548.12
286.982	534.12
287.213	515.12
287.444	530.12
287.675	524.12
287.906	542.12
288.138	544.12
288.369	523.12
288.6	553.12
288.831	543.12
289.062	549.12
289.293	542.12
289.524	556.12
289.755	553.12
289.986	547.12
290.217	554.12
290.448	556.12
290.679	534.12
290.91	544.12
291.141	547.12
291.371	543.12
291.602	544.12
291.833	521.12
292.064	532.12
292.295	533.12
292.526	506.12
292.757	522.12
292.987	524.12
293.218	500.12
293.449	547.12
293.68	544.12
293.91	552.12
294.141	539.12
294.372	556.12
294.603	556.12
294.833	527.12
295.064	526.12
295.295	537.12
295.525	552.12
295.756	550.12
295.987	523.12
296.217	562.12
296.448	535.12
296.679	542.12
296.909	563.12
297.14	558.12
297.37	555.12
297.601	560.12
297.831	584.12
298.062	572.12
298.292	572.12
298.523	571.12
298.753	564.12
298.984	565.12
299.214	568.12
299.445	565.12
299.675	559.12
299.905	568.12
300.136	582.12
300.366	582.12
300.597	591.12
300.827	607.12
301.057	611.12
301.288	619.12
301.518	618.12
301.748	633.12
301.979	644.12
302.209	630.12
302.439	636.12
302.669	619.12
302.9	613.12
303.13	619.12
303.36	633.12
303.59	643.12
303.82	664.12
304.051	639.12
304.281	642.12
304.511	609.12
304.741	620.12
304.971	623.12
305.201	635.12
305.431	620.12
305.661	606.12
305.891	602.12
306.121	590.12
306.352	609.12
306.582	602.12
306.812	612.12
307.042	669.12
307.272	676.12
307.502	738.12
307.731	743.12
307.961	700.12
308.191	646.12
308.421	624.12
308.651	609.12
308.881	616.12
309.111	622.12
309.341	628.12
309.571	622.12
309.8	640.12
310.03	630.12
310.26	602.12
310.49	619.12
310.72	632.12
310.949	625.12
311.179	636.12
311.409	628.12
311.639	632.12
311.868	620.12
312.098	629.12
312.328	637.12
312.557	645.12
312.787	635.12
313.017	646.12
313.246	644.12
313.476	648.12
313.706	647.12
313.935	660.12
314.165	654.12
314.394	665.12
314.624	655.12
314.853	661.12
315.083	652.12
315.312	670.12
315.542	660.12
315.771	656.12
316.001	642.12
316.23	656.12
316.46	653.12
316.689	644.12
316.919	648.12
317.148	674.12
317.377	684.12
317.607	660.12
317.836	676.12
318.065	690.12
318.295	691.12
318.524	668.12
318.753	680.12
318.983	677.12
319.212	661.12
319.441	669.12
319.67	677.12
319.9	678.12
320.129	669.12
320.358	690.12
320.587	690.12
320.816	664.12
321.046	664.12
321.275	704.12
321.504	700.12
321.733	716.12
321.962	700.12
322.191	732.12
322.42	714.12
322.649	744.12
322.878	731.12
323.108	723.12
323.337	729.12
323.566	756.12
323.795	766.12
324.024	775.12
324.253	766.12
324.482	796.12
324.71	801.12
324.939	790.12
325.168	802.12
325.397	818.12
325.626	814.12
325.855	846.12
326.084	854.12
326.313	868.12
326.542	882.12
326.77	930.12
326.999	943.12
327.228	1009.12
327.457	1075.12
327.686	1180.12
327.914	1395.12
328.143	1771.12
328.372	2093.12
328.6	1972.12
328.829	1435.12
329.058	1278.12
329.287	1302.12
329.515	1427.12
329.744	1688.12
329.972	2277.12
330.201	3108.12
330.43	3814.12
330.658	3144.12
330.887	1948.12
331.115	1432.12
331.344	1290.12
331.572	1202.12
331.801	1182.12
332.03	1199.12
332.258	1158.12
332.486	1211.12
332.715	1235.12
332.943	1274.12
333.172	1403.12
333.4	1522.12
333.629	1682.12
333.857	1927.12
334.085	2478.12
334.314	3511.12
334.542	4744.12
334.771	5051.12
334.999	3250.12
335.227	2082.12
335.455	1640.12
335.684	1424.12
335.912	1310.12
336.14	1186.12
336.369	1123.12
336.597	1092.12
336.825	1059.12
337.053	1016.12
337.281	1013.12
337.51	970.12
337.738	944.12
337.966	920.12
338.194	896.12
338.422	878.12
338.65	855.12
338.878	853.12
339.106	862.12
339.334	805.12
339.562	812.12
339.79	799.12
340.018	808.12
340.246	768.12
340.474	796.12
340.702	786.12
340.93	788.12
341.158	786.12
341.386	780.12
341.614	763.12
341.842	755.12
342.07	772.12
342.298	749.12
342.526	753.12
342.754	787.12
342.981	786.12
343.209	760.12
343.437	820.12
343.665	857.12
343.893	875.12
344.12	880.12
344.348	849.12
344.576	818.12
344.804	785.12
345.031	764.12
345.259	726.12
345.487	784.12
345.714	730.12
345.942	732.12
346.17	727.12
346.397	710.12
346.625	742.12
346.853	715.12
347.08	716.12
347.308	688.12
347.535	722.12
347.763	696.12
347.99	739.12
348.218	706.12
348.445	712.12
348.673	724.12
348.9	703.12
349.128	702.12
349.355	719.12
349.583	708.12
349.81	704.12
350.037	684.12
350.265	692.12
350.492	687.12
350.72	696.12
350.947	674.12
351.174	691.12
351.402	680.12
351.629	698.12
351.856	681.12
352.083	678.12
352.311	676.12
352.538	682.12
352.765	674.12
352.992	664.12
353.22	675.12
353.447	676.12
353.674	703.12
353.901	707.12
354.128	686.12
354.355	676.12
354.583	686.12
354.81	694.12
355.037	690.12
355.264	688.12
355.491	708.12
355.718	694.12
355.945	656.12
356.172	697.12
356.399	691.12
356.626	689.12
356.853	679.12
357.08	660.12
357.307	675.12
357.534	646.12
357.761	660.12
357.988	652.12
358.215	677.12
358.441	673.12
358.668	680.12
358.895	662.12
359.122	668.12
359.349	679.12
359.576	677.12
359.802	669.12
360.029	693.12
360.256	674.12
360.483	659.12
360.709	675.12
360.936	678.12
361.163	672.12
361.39	670.12
361.616	664.12
361.843	655.12
362.07	685.12
362.296	657.12
362.523	677.12
362.749	687.12
362.976	663.12
363.203	649.12
363.429	662.12
363.656	674.12
363.882	669.12
364.109	639.12
364.335	660.12
364.562	650.12
364.788	651.12
365.015	657.12
365.241	664.12
365.468	655.12
365.694	666.12
365.92	656.12
366.147	656.12
366.373	639.12
366.599	658.12
366.826	668.12
367.052	671.12
367.278	656.12
367.505	648.12
367.731	671.12
367.957	655.12
368.184	663.12
368.41	676.12
368.636	671.12
368.862	669.12
369.089	682.12
369.315	663.12
369.541	654.12
369.767	679.12
369.993	671.12
370.219	699.12
370.445	708.12
370.672	701.12
370.898	673.12
371.124	696.12
371.35	727.12
371.576	712.12
371.802	720.12
372.028	681.12
372.254	710.12
372.48	704.12
372.706	720.12
372.932	706.12
373.158	738.12
373.384	717.12
373.61	723.12
373.835	687.12
374.061	697.12
374.287	716.12
374.513	707.12
374.739	718.12
374.965	723.12
375.191	771.12
375.416	762.12
375.642	720.12
375.868	733.12
376.094	686.12
376.319	716.12
376.545	708.12
376.771	698.12
376.997	698.12
377.222	719.12
377.448	693.12
377.674	706.12
377.899	704.12
378.125	676.12
378.35	698.12
378.576	705.12
378.802	672.12
379.027	683.12
379.253	684.12
379.478	689.12
379.704	719.12
379.929	680.12
380.155	682.12
380.38	699.12
380.606	708.12
380.831	691.12
381.057	712.12
381.282	684.12
381.507	696.12
381.733	710.12
381.958	697.12
382.184	706.12
382.409	703.12
382.634	725.12
382.86	714.12
383.085	741.12
383.31	720.12
383.535	752.12
383.761	760.12
383.986	748.12
384.211	788.12
384.436	739.12
384.662	780.12
384.887	798.12
385.112	805.12
385.337	808.12
385.562	806.12
385.787	817.12
386.013	816.12
386.238	828.12
386.463	802.12
386.688	787.12
386.913	818.12
387.138	799.12
387.363	810.12
387.588	801.12
387.813	792.12
388.038	778.12
388.263	807.12
388.488	800.12
388.713	805.12
388.938	787.12
389.163	784.12
389.387	778.12
389.612	763.12
389.837	801.12
390.062	788.12
390.287	801.12
390.512	808.12
390.736	804.12
390.961	816.12
391.186	822.12
391.411	849.12
391.636	817.12
391.86	859.12
392.085	906.12
392.31	878.12
392.534	869.12
392.759	866.12
392.984	850.12
393.208	844.12
393.433	871.12
393.658	820.12
393.882	835.12
394.107	848.12
394.331	851.12
394.556	845.12
394.78	848.12
395.005	823.12
395.229	861.12
395.454	864.12
395.678	904.12
395.903	886.12
396.127	868.12
396.352	871.12
396.576	864.12
396.801	851.12
397.025	857.12
397.249	864.12
397.474	882.12
397.698	898.12
397.922	890.12
398.147	868.12
398.371	922.12
398.595	952.12
398.82	982.12
399.044	1027.12
399.268	1122.12
399.492	1270.12
399.717	1338.12
399.941	1388.12
400.165	1250.12
400.389	1132.12
400.613	1054.12
400.837	1023.12
401.062	998.12
401.286	1001.12
401.51	992.12
401.734	966.12
401.958	995.12
402.182	1001.12
402.406	992.12
402.63	1022.12
402.854	1066.12
403.078	1041.12
403.302	1049.12
403.526	1104.12
403.75	1116.12
403.974	1159.12
404.198	1135.12
404.422	1136.12
404.645	1171.12
404.869	1235.12
405.093	1325.12
405.317	1372.12
405.541	1383.12
405.765	1295.12
405.988	1201.12
406.212	1147.12
406.436	1119.12
406.66	1132.12
406.883	1145.12
407.107	1178.12
407.331	1218.12
407.555	1227.12
407.778	1232.12
408.002	1220.12
408.226	1171.12
408.449	1154.12
408.673	1105.12
408.896	1104.12
409.12	1086.12
409.344	1111.12
409.567	1069.12
409.791	1086.12
410.014	1061.12
410.238	1058.12
410.461	1089.12
410.685	1075.12
410.908	1071.12
411.132	1068.12
411.355	1049.12
411.578	1087.12
411.802	1084.12
412.025	1121.12
412.249	1163.12
412.472	1276.12
412.695	1367.12
412.919	1330.12
413.142	1276.12
413.365	1186.12
413.589	1176.12
413.812	1088.12
414.035	1067.12
414.258	1060.12
414.482	1053.12
414.705	1054.12
414.928	1052.12
415.151	1024.12
415.374	1034.12
415.597	1007.12
415.821	1004.12
416.044	1004.12
416.267	1015.12
416.49	949.12
416.713	968.12
416.936	974.12
417.159	1009.12
417.382	1015.12
417.605	1074.12
417.828	1095.12
418.051	1084.12
418.274	1036.12
418.497	1009.12
418.72	1013.12
418.943	1030.12
419.166	1064.12
419.389	1129.12
419.611	1147.12
419.834	1147.12
420.057	1169.12
420.28	1229.12
420.503	1280.12
420.726	1216.12
420.948	1164.12
421.171	1119.12
421.394	1100.12
421.617	1034.12
421.839	1012.12
422.062	1028.12
422.285	988.12
422.507	1018.12
422.73	1026.12
422.953	1019.12
423.175	1022.12
423.398	1028.12
423.621	1029.12
423.843	1062.12
424.066	1050.12
424.288	1021.12
424.511	1017.12
424.733	1000.12
424.956	1016.12
425.178	998.12
425.401	970.12
425.623	987.12
425.846	952.12
426.068	970.12
426.291	980.12
426.513	990.12
426.735	952.12
426.958	942.12
427.18	956.12
427.402	1024.12
427.625	1087.12
427.847	1188.12
428.069	1287.12
428.292	1206.12
428.514	1081.12
428.736	967.12
428.958	964.12
429.181	942.12
429.403	877.12
429.625	891.12
429.847	873.12
430.069	888.12
430.292	896.12
430.514	867.12
430.736	878.12
430.958	874.12
431.18	843.12
431.402	849.12
431.624	874.12
431.846	867.12
432.068	875.12
432.29	913.12
432.512	855.12
432.734	894.12
432.956	883.12
433.178	879.12
433.4	867.12
433.622	874.12
433.844	872.12
434.066	859.12
434.287	866.12
434.509	919.12
434.731	928.12
434.953	944.12
435.175	954.12
435.397	937.12
435.618	904.12
435.84	906.12
436.062	881.12
436.284	869.12
436.505	864.12
436.727	883.12
436.949	862.12
437.17	830.12
437.392	826.12
437.614	848.12
437.835	842.12
438.057	808.12
438.278	798.12
438.5	834.12
438.721	833.12
438.943	856.12
439.165	821.12
439.386	834.12
439.608	834.12
439.829	840.12
440.05	857.12
440.272	863.12
440.493	865.12
440.715	853.12
440.936	872.12
441.158	906.12
441.379	920.12
441.6	913.12
441.822	928.12
442.043	946.12
442.264	920.12
442.486	908.12
442.707	958.12
442.928	926.12
443.149	906.12
443.371	922.12
443.592	938.12
443.813	909.12
444.034	956.12
444.255	970.12
444.476	997.12
444.698	1044.12
444.919	1066.12
445.14	1193.12
445.361	1068.12
445.582	982.12
445.803	895.12
446.024	891.12
446.245	880.12
446.466	881.12
446.687	847.12
446.908	848.12
447.129	842.12
447.35	826.12
447.571	810.12
447.792	812.12
448.013	827.12
448.234	809.12
448.455	802.12
448.675	787.12
448.896	790.12
449.117	767.12
449.338	784.12
449.559	794.12
449.779	770.12
450	790.12
450.221	762.12
450.442	796.12
450.662	778.12
450.883	774.12
451.104	804.12
451.324	778.12
451.545	801.12
451.766	750.12
451.986	783.12
452.207	759.12
452.428	764.12
452.648	768.12
452.869	751.12
453.089	775.12
453.31	755.12
453.53	753.12
453.751	739.12
453.971	748.12
454.192	729.12
454.412	761.12
454.633	728.12
454.853	736.12
455.073	731.12
455.294	748.12
455.514	751.12
455.734	729.12
455.955	730.12
456.175	725.12
456.395	734.12
456.616	731.12
456.836	730.12
457.056	720.12
457.276	739.12
457.497	748.12
457.717	753.12
457.937	741.12
458.157	767.12
458.377	769.12
458.598	781.12
458.818	806.12
459.038	800.12
459.258	833.12
459.478	864.12
459.698	858.12
459.918	880.12
460.138	919.12
460.358	940.12
460.578	974.12
460.798	952.12
461.018	982.12
461.238	998.12
461.458	986.12
461.678	981.12
461.898	970.12
462.118	987.12
462.338	1048.12
462.558	1076.12
462.777	1072.12
462.997	1160.12
463.217	1247.12
463.437	1232.12
463.657	1158.12
463.876	1098.12
464.096	1092.12
464.316	1102.12
464.536	1082.12
464.755	1112.12
464.975	1050.12
465.195	1013.12
465.414	945.12
465.634	926.12
465.854	896.12
466.073	907.12
466.293	867.12
466.512	868.12
466.732	844.12
466.951	869.12
467.171	850.12
467.391	866.12
467.61	905.12
467.829	994.12
468.049	1356.12
468.268	1984.12
468.488	1518.12
468.707	1147.12
468.927	1039.12
469.146	971.12
469.365	943.12
469.585	911.12
469.804	928.12
470.023	950.12
470.243	902.12
470.462	931.12
470.681	932.12
470.901	946.12
471.12	946.12
471.339	953.12
471.558	986.12
471.777	1057.12
471.997	1249.12
472.216	1927.12
472.435	3800.12
472.654	3008.12
472.873	1839.12
473.092	1414.12
473.311	1230.12
473.53	1110.12
473.749	1096.12
473.968	1005.12
474.187	992.12
474.406	933.12
474.625	912.12
474.844	935.12
475.063	937.12
475.282	923.12
475.501	911.12
475.72	934.12
475.939	922.12
476.158	898.12
476.377	898.12
476.596	914.12
476.814	942.12
477.033	882.12
477.252	926.12
477.471	914.12
477.69	979.12
477.908	972.12
478.127	990.12
478.346	1003.12
478.564	1054.12
478.783	1033.12
479.002	1084.12
479.22	1059.12
479.439	1089.12
479.658	1110.12
479.876	1142.12
480.095	1185.12
480.313	1254.12
480.532	1399.12
480.751	1606.12
480.969	2250.12
481.188	4894.12
481.406	6258.12
481.624	3447.12
481.843	2361.12
482.061	1883.12
482.28	1662.12
482.498	1489.12
482.717	1375.12
482.935	1343.12
483.153	1264.12
483.372	1200.12
483.59	1219.12
483.808	1162.12
484.027	1146.12
484.245	1139.12
484.463	1117.12
484.681	1144.12
484.9	1115.12
485.118	1114.12
485.336	1090.12
485.554	1075.12
485.772	1102.12
485.99	1091.12
486.209	1104.12
486.427	1092.12
486.645	1084.12
486.863	1094.12
487.081	1101.12
487.299	1079.12
487.517	1115.12
487.735	1084.12
487.953	1130.12
488.171	1123.12
488.389	1135.12
488.607	1119.12
488.825	1091.12
489.043	1095.12
489.261	1085.12
489.479	1146.12
489.696	1155.12
489.914	1120.12
490.132	1178.12
490.35	1182.12
490.568	1255.12
490.786	1234.12
491.003	1281.12
491.221	1294.12
491.439	1343.12
491.657	1393.12
491.874	1387.12
492.092	1427.12
492.31	1475.12
492.527	1503.12
492.745	1562.12
492.963	1552.12
493.18	1516.12
493.398	1464.12
493.615	1455.12
493.833	1426.12
494.05	1423.12
494.268	1419.12
494.485	1388.12
494.703	1367.12
494.92	1327.12
495.138	1311.12
495.355	1324.12
495.573	1297.12
495.79	1273.12
496.008	1266.12
496.225	1256.12
496.442	1234.12
496.66	1224.12
496.877	1245.12
497.094	1250.12
497.312	1263.12
497.529	1292.12
497.746	1278.12
497.963	1322.12
498.181	1345.12
498.398	1327.12
498.615	1426.12
498.832	1507.12
499.049	1565.12
499.267	1674.12
499.484	1766.12
499.701	1882.12
499.918	2056.12
500.135	2236.12
500.352	2553.12
500.569	2638.12
500.786	2705.12
501.003	2533.12
501.22	2282.12
501.437	2068.12
501.654	1871.12
501.871	1759.12
502.088	1557.12
502.305	1505.12
502.522	1480.12
502.739	1394.12
502.956	1316.12
503.172	1281.12
503.389	1279.12
503.606	1192.12
503.823	1212.12
504.04	1200.12
504.256	1186.12
504.473	1206.12
504.69	1235.12
504.907	1215.12
505.123	1136.12
505.34	1096.12
505.557	1041.12
505.773	1049.12
505.99	1004.12
506.207	995.12
506.423	976.12
506.64	952.12
506.856	984.12
507.073	944.12
507.289	960.12
507.506	958.12
507.722	964.12
507.939	925.12
508.155	919.12
508.372	928.12
508.588	943.12
508.805	930.12
509.021	902.12
509.238	893.12
509.454	888.12
509.67	876.12
509.887	926.12
510.103	879.12
510.319	888.12
510.536	890.12
510.752	883.12
510.968	896.12
511.184	891.12
511.401	916.12
511.617	956.12
511.833	1055.12
512.049	1133.12
512.265	1058.12
512.481	1034.12
512.698	954.12
512.914	956.12
513.13	938.12
513.346	917.12
513.562	876.12
513.778	892.12
513.994	906.12
514.21	913.12
514.426	902.12
514.642	899.12
514.858	899.12
515.074	913.12
515.29	892.12
515.506	892.12
515.721	917.12
515.937	930.12
516.153	936.12
516.369	959.12
516.585	990.12
516.801	980.12
517.016	1008.12
517.232	1048.12
517.448	1076.12
517.664	1122.12
517.879	1130.12
518.095	1103.12
518.311	1098.12
518.527	1075.12
518.742	1018.12
518.958	998.12
519.173	978.12
519.389	925.12
519.605	916.12
519.82	891.12
520.036	902.12
520.251	874.12
520.467	887.12
520.682	864.12
520.898	855.12
521.113	821.12
521.329	844.12
521.544	848.12
521.76	845.12
521.975	827.12
522.19	810.12
522.406	813.12
522.621	806.12
522.836	798.12
523.052	769.12
523.267	816.12
523.482	832.12
523.698	786.12
523.913	764.12
524.128	794.12
524.343	774.12
524.559	782.12
524.774	797.12
524.989	783.12
525.204	803.12
525.419	757.12
525.634	786.12
525.849	750.12
526.064	765.12
526.28	760.12
526.495	767.12
526.71	752.12
526.925	778.12
527.14	739.12
527.355	762.12
527.57	770.12
527.785	736.12
527.999	755.12
528.214	752.12
528.429	739.12
528.644	749.12
528.859	780.12
529.074	803.12
529.289	792.12
529.503	760.12
529.718	774.12
529.933	790.12
530.148	746.12
530.363	758.12
530.577	747.12
530.792	752.12
531.007	757.12
531.221	755.12
531.436	758.12
531.651	754.12
531.865	769.12
532.08	753.12
532.295	745.12
532.509	780.12
532.724	755.12
532.938	757.12
533.153	761.12
533.367	753.12
533.582	762.12
533.796	779.12
534.011	781.12
534.225	735.12
534.44	754.12
534.654	752.12
534.868	745.12
535.083	730.12
535.297	753.12
535.511	742.12
535.726	742.12
535.94	746.12
536.154	740.12
536.369	705.12
536.583	718.12
536.797	707.12
537.011	720.12
537.225	727.12
537.44	674.12
537.654	705.12
537.868	715.12
538.082	713.12
538.296	695.12
538.51	687.12
538.724	688.12
538.938	711.12
539.153	722.12
539.367	722.12
539.581	710.12
539.795	698.12
540.009	716.12
540.222	716.12
540.436	684.12
540.65	721.12
540.864	701.12
541.078	698.12
541.292	712.12
541.506	704.12
541.72	730.12
541.934	726.12
542.147	723.12
542.361	712.12
542.575	702.12
542.789	715.12
543.002	699.12
543.216	698.12
543.43	703.12
543.644	715.12
543.857	742.12
544.071	750.12
544.285	732.12
544.498	736.12
544.712	715.12
544.925	729.12
545.139	722.12
545.352	740.12
545.566	747.12
545.779	739.12
545.993	744.12
546.206	761.12
546.42	760.12
546.633	714.12
546.847	723.12
547.06	697.12
547.274	728.12
547.487	734.12
547.7	737.12
547.914	736.12
548.127	718.12
548.34	720.12
548.554	704.12
548.767	732.12
548.98	710.12
549.193	731.12
549.407	726.12
549.62	739.12
549.833	708.12
550.046	739.12
550.259	718.12
550.473	732.12
550.686	726.12
550.899	744.12
551.112	715.12
551.325	719.12
551.538	717.12
551.751	715.12
551.964	728.12
552.177	730.12
552.39	718.12
552.603	750.12
552.816	767.12
553.029	757.12
553.242	771.12
553.455	793.12
553.667	820.12
553.88	779.12
554.093	751.12
554.306	758.12
554.519	747.12
554.732	730.12
554.944	729.12
555.157	710.12
555.37	689.12
555.583	678.12
555.795	666.12
556.008	675.12
556.221	648.12
556.433	639.12
556.646	630.12
556.859	658.12
557.071	626.12
557.284	633.12
557.496	631.12
557.709	629.12
557.921	616.12
558.134	626.12
558.346	618.12
558.559	609.12
558.771	620.12
558.984	627.12
559.196	631.12
559.409	602.12
559.621	630.12
559.833	600.12
560.046	606.12
560.258	624.12
560.47	656.12
560.683	626.12
560.895	623.12
561.107	593.12
561.32	616.12
561.532	621.12
561.744	633.12
561.956	605.12
562.168	604.12
562.381	623.12
562.593	599.12
562.805	615.12
563.017	604.12
563.229	618.12
563.441	622.12
563.653	595.12
563.865	610.12
564.077	624.12
564.289	646.12
564.501	640.12
564.713	641.12
564.925	642.12
565.137	658.12
565.349	666.12
565.561	692.12
565.773	698.12
565.985	749.12
566.197	782.12
566.408	824.12
566.62	867.12
566.832	890.12
567.044	912.12
567.255	920.12
567.467	929.12
567.679	1000.12
567.891	1036.12
568.102	1025.12
568.314	1001.12
568.526	906.12
568.737	828.12
568.949	784.12
569.161	754.12
569.372	702.12
569.584	678.12
569.795	657.12
570.007	625.12
570.218	582.12
570.43	627.12
570.641	608.12
570.853	617.12
571.064	634.12
571.276	625.12
571.487	610.12
571.698	607.12
571.91	568.12
572.121	572.12
572.333	546.12
572.544	560.12
572.755	529.12
572.966	538.12
573.178	548.12
573.389	514.12
573.6	508.12
573.811	529.12
574.023	485.12
574.234	489.12
574.445	516.12
574.656	515.12
574.867	526.12
575.078	514.12
575.289	500.12
575.501	511.12
575.712	513.12
575.923	511.12
576.134	492.12
576.345	494.12
576.556	490.12
576.767	487.12
576.978	466.12
577.188	477.12
577.399	507.12
577.61	475.12
577.821	497.12
578.032	477.12
578.243	468.12
578.454	452.12
578.665	479.12
578.875	466.12
579.086	465.12
579.297	449.12
579.508	453.12
579.718	473.12
579.929	482.12
580.14	445.12
580.35	432.12
580.561	436.12
580.772	458.12
580.982	461.12
581.193	447.12
581.403	448.12
581.614	450.12
581.825	438.12
582.035	438.12
582.246	442.12
582.456	447.12
582.667	460.12
582.877	458.12
583.087	436.12
583.298	444.12
583.508	450.12
583.719	433.12
583.929	446.12
584.139	434.12
584.35	428.12
584.56	447.12
584.77	434.12
584.981	434.12
585.191	410.12
585.401	427.12
585.611	449.12
585.821	433.12
586.032	430.12
586.242	436.12
586.452	417.12
586.662	421.12
586.872	416.12
587.082	406.12
587.292	409.12
587.502	424.12
587.713	435.12
587.923	414.12
588.133	414.12
588.343	438.12
588.553	437.12
588.762	419.12
588.972	430.12
589.182	431.12
589.392	429.12
589.602	475.12
589.812	458.12
590.022	433.12
590.232	450.12
590.441	423.12
590.651	425.12
590.861	445.12
591.071	432.12
591.281	419.12
591.49	455.12
591.7	462.12
591.91	475.12
592.119	473.12
592.329	462.12
592.539	475.12
592.748	489.12
592.958	490.12
593.167	505.12
593.377	500.12
593.587	525.12
593.796	510.12
594.006	535.12
594.215	511.12
594.424	536.12
594.634	518.12
594.843	505.12
595.053	477.12
595.262	478.12
595.472	449.12
595.681	444.12
595.89	445.12
596.1	456.12
596.309	424.12
596.518	399.12
596.727	422.12
596.937	406.12
597.146	425.12
597.355	398.12
597.564	402.12
597.774	384.12
597.983	415.12
598.192	373.12
598.401	384.12
598.61	378.12
598.819	403.12
599.028	386.12
599.237	374.12
599.446	373.12
599.655	380.12
599.864	379.12
600.073	369.12
600.282	359.12
600.491	370.12
600.7	380.12
600.909	378.12
601.118	399.12
601.327	382.12
601.536	370.12
601.745	379.12
601.953	397.12
602.162	386.12
602.371	360.12
602.58	359.12
602.789	376.12
602.997	371.12
603.206	379.12
603.415	381.12
603.623	360.12
603.832	371.12
604.041	358.12
604.249	350.12
604.458	353.12
604.666	375.12
604.875	363.12
605.084	357.12
605.292	362.12
605.501	358.12
605.709	371.12
605.918	379.12
606.126	353.12
606.334	353.12
606.543	363.12
606.751	362.12
606.96	351.12
607.168	371.12
607.376	363.12
607.585	374.12
607.793	342.12
608.001	352.12
608.21	368.12
608.418	369.12
608.626	363.12
608.834	360.12
609.043	353.12
609.251	359.12
609.459	350.12
609.667	366.12
609.875	376.12
610.083	346.12
610.291	363.12
610.499	372.12
610.707	386.12
610.916	380.12
611.124	387.12
611.332	376.12
611.54	386.12
611.748	386.12
611.955	366.12
612.163	362.12
612.371	369.12
612.579	330.12
612.787	333.12
612.995	376.12
613.203	345.12
613.411	360.12
613.618	348.12
613.826	354.12
614.034	346.12
614.242	336.12
614.449	355.12
614.657	338.12
614.865	359.12
615.072	347.12
615.28	334.12
615.488	332.12
615.695	342.12
615.903	337.12
616.111	332.12
616.318	336.12
616.526	351.12
616.733	338.12
616.941	348.12
617.148	327.12
617.356	329.12
617.563	323.12
617.771	343.12
617.978	334.12
618.185	342.12
618.393	338.12
618.6	334.12
618.807	332.12
619.015	319.12
619.222	318.12
619.429	334.12
619.637	320.12
619.844	307.12
620.051	311.12
620.258	323.12
620.466	315.12
620.673	290.12
620.88	297.12
621.087	310.12
621.294	301.12
621.501	303.12
621.708	289.12
621.915	310.12
622.122	296.12
622.329	303.12
622.536	302.12
622.743	286.12
622.95	290.12
623.157	291.12
623.364	296.12
623.571	302.12
623.778	296.12
623.985	290.12
624.192	291.12
624.399	291.12
624.606	283.12
624.812	278.12
625.019	287.12
625.226	289.12
625.433	284.12
625.639	272.12
625.846	272.12
626.053	263.12
626.259	274.12
626.466	274.12
626.673	279.12
626.879	276.12
627.086	287.12
627.293	276.12
627.499	258.12
627.706	270.12
627.912	285.12
628.119	286.12
628.325	279.12
628.532	274.12
628.738	286.12
628.945	262.12
629.151	264.12
629.357	266.12
629.564	279.12
629.77	278.12
629.976	273.12
630.183	264.12
630.389	256.12
630.595	275.12
630.802	264.12
631.008	284.12
631.214	263.12
631.42	263.12
631.627	272.12
631.833	277.12
632.039	267.12
632.245	266.12
632.451	264.12
632.657	249.12
632.863	243.12
633.069	269.12
633.275	283.12
633.481	268.12
633.688	262.12
633.893	250.12
634.099	246.12
634.305	282.12
634.511	260.12
634.717	251.12
634.923	294.12
635.129	284.12
635.335	282.12
635.541	269.12
635.747	304.12
635.952	319.12
636.158	377.12
636.364	505.12
636.57	672.12
636.775	514.12
636.981	433.12
637.187	382.12
637.392	338.12
637.598	317.12
637.804	328.12
638.009	314.12
638.215	292.12
638.421	279.12
638.626	289.12
638.832	271.12
639.037	252.12
639.243	278.12
639.448	259.12
639.654	250.12
639.859	252.12
640.065	254.12
640.27	268.12
640.475	239.12
640.681	246.12
640.886	241.12
641.091	230.12
641.297	234.12
641.502	224.12
641.707	240.12
641.913	243.12
642.118	232.12
642.323	235.12
642.528	228.12
642.733	221.12
642.939	243.12
643.144	221.12
643.349	225.12
643.554	231.12
643.759	230.12
643.964	207.12
644.169	217.12
644.374	217.12
644.579	215.12
644.784	208.12
644.989	218.12
645.194	224.12
645.399	229.12
645.604	224.12
645.809	209.12
646.014	215.12
646.219	231.12
646.423	214.12
646.628	230.12
646.833	210.12
647.038	224.12
647.243	205.12
647.447	224.12
647.652	223.12
647.857	202.12
648.062	234.12
648.266	221.12
648.471	217.12
648.676	243.12
648.88	229.12
649.085	223.12
649.289	206.12
649.494	209.12
649.698	214.12
649.903	218.12
650.107	225.12
650.312	210.12
650.516	203.12
650.721	200.12
650.925	209.12
651.13	205.12
651.334	203.12
651.539	192.12
651.743	193.12
651.947	206.12
652.152	194.12
652.356	195.12
652.56	187.12
652.764	172.12
652.969	185.12
653.173	176.12
653.377	181.12
653.581	186.12
653.785	182.12
653.99	172.12
654.194	170.12
654.398	178.12
654.602	179.12
654.806	176.12
655.01	189.12
655.214	178.12
655.418	187.12
655.622	164.12
655.826	156.12
656.03	158.12
656.234	169.12
656.438	180.12
656.642	194.12
656.846	190.12
657.049	163.12
657.253	160.12
657.457	146.12
657.661	148.12
657.865	149.12
658.068	140.12
658.272	125.12
658.476	139.12
658.68	124.12
658.883	136.12
659.087	130.12
659.291	117.12
659.494	124.12
659.698	110.12
659.901	108.12
660.105	120.12
660.309	109.12
660.512	99.12
660.716	107.12
660.919	103.12
661.123	100.12
661.326	114.12
661.53	89.12
661.733	105.12
661.936	97.12
662.14	86.12
662.343	115.12
662.546	92.12
662.75	95.12
662.953	94.12
663.156	90.12
663.36	112.12
663.563	95.12
663.766	97.12
663.969	103.12
664.173	92.12
664.376	82.12
664.579	82.12
664.782	86.12
664.985	79.12
665.188	92.12
665.391	90.12
665.594	100.12
665.797	88.12
666	82.12
666.203	88.12
666.406	82.12
666.609	83.12
666.812	87.12
667.015	89.12
667.218	104.12
667.421	93.12
667.624	89.12
667.827	85.12
668.03	84.12
668.232	87.12
668.435	88.12
668.638	85.12
668.841	83.12
669.043	78.12
669.246	76.12
669.449	82.12
669.651	86.12
669.854	96.12
670.057	88.12
670.259	82.12
670.462	81.12
670.665	75.12
670.867	90.12
671.07	93.12
671.272	87.12
671.475	89.12
671.677	88.12
671.88	71.12
672.082	91.12
672.284	83.12
672.487	81.12
672.689	98.12
672.892	103.12
