Data from FlinnAP5935BZINC.07152019.LAMPEdge.EN10.5scans.P1_HRD10591_15-01-51-579.txt Node
Date: Mon Jul 15 15:01:51 EDT 2019
User: cochatt
Spectrometer: HR+D1059
Trigger mode: 1
Integration Time (sec): 1.000000E-1
Scans to average: 1
Electric dark correction enabled: true
Nonlinearity correction enabled: false
Boxcar width: 0
XAxis mode: Wavelengths
Number of Pixels in Spectrum: 2048
>>>>>Begin Spectral Data<<<<<
223.165	-13.75
223.4	-13.75
223.635	-13.75
223.869	-17.75
224.104	-32.75
224.338	-17.75
224.573	-16.75
224.808	-2.75
225.042	-5.75
225.277	-6.75
225.511	4.25
225.746	14.25
225.98	9.25
226.215	12.25
226.449	16.25
226.683	11.25
226.918	21.25
227.152	25.25
227.387	34.25
227.621	43.25
227.856	37.25
228.09	41.25
228.324	45.25
228.559	53.25
228.793	81.25
229.027	178.25
229.262	169.25
229.496	166.25
229.73	203.25
229.964	195.25
230.199	191.25
230.433	178.25
230.667	197.25
230.901	194.25
231.136	211.25
231.37	214.25
231.604	205.25
231.838	215.25
232.072	217.25
232.306	230.25
232.541	241.25
232.775	210.25
233.009	233.25
233.243	234.25
233.477	230.25
233.711	235.25
233.945	230.25
234.179	230.25
234.413	249.25
234.647	236.25
234.881	256.25
235.115	229.25
235.349	254.25
235.583	270.25
235.817	236.25
236.051	271.25
236.285	259.25
236.519	266.25
236.753	254.25
236.987	260.25
237.221	282.25
237.455	267.25
237.689	273.25
237.922	289.25
238.156	288.25
238.39	257.25
238.624	279.25
238.858	285.25
239.091	277.25
239.325	274.25
239.559	292.25
239.793	301.25
240.027	310.25
240.26	315.25
240.494	311.25
240.728	320.25
240.961	313.25
241.195	335.25
241.429	316.25
241.662	332.25
241.896	338.25
242.13	348.25
242.363	338.25
242.597	357.25
242.83	369.25
243.064	365.25
243.298	362.25
243.531	391.25
243.765	382.25
243.998	380.25
244.232	382.25
244.465	392.25
244.699	396.25
244.932	428.25
245.166	415.25
245.399	415.25
245.633	418.25
245.866	435.25
246.099	421.25
246.333	440.25
246.566	448.25
246.8	428.25
247.033	434.25
247.266	459.25
247.5	462.25
247.733	462.25
247.966	474.25
248.2	482.25
248.433	485.25
248.666	486.25
248.899	499.25
249.133	513.25
249.366	526.25
249.599	556.25
249.832	605.25
250.066	684.25
250.299	814.25
250.532	1077.25
250.765	1209.25
250.998	1016.25
251.231	851.25
251.465	753.25
251.698	720.25
251.931	678.25
252.164	659.25
252.397	650.25
252.63	629.25
252.863	635.25
253.096	605.25
253.329	627.25
253.562	649.25
253.795	638.25
254.028	650.25
254.261	681.25
254.494	693.25
254.727	717.25
254.96	738.25
255.193	769.25
255.426	825.25
255.659	977.25
255.892	1369.25
256.124	1876.25
256.357	2137.25
256.59	1708.25
256.823	1294.25
257.056	1081.25
257.289	979.25
257.521	919.25
257.754	870.25
257.987	838.25
258.22	816.25
258.452	789.25
258.685	795.25
258.918	782.25
259.151	748.25
259.383	729.25
259.616	733.25
259.849	729.25
260.081	736.25
260.314	747.25
260.547	721.25
260.779	752.25
261.012	763.25
261.244	752.25
261.477	754.25
261.71	741.25
261.942	729.25
262.175	735.25
262.407	720.25
262.64	724.25
262.872	741.25
263.105	742.25
263.337	709.25
263.57	745.25
263.802	748.25
264.035	738.25
264.267	713.25
264.499	741.25
264.732	760.25
264.964	754.25
265.197	758.25
265.429	763.25
265.661	773.25
265.894	797.25
266.126	801.25
266.358	786.25
266.591	810.25
266.823	786.25
267.055	789.25
267.287	799.25
267.52	786.25
267.752	819.25
267.984	803.25
268.216	811.25
268.448	843.25
268.681	853.25
268.913	827.25
269.145	839.25
269.377	829.25
269.609	854.25
269.841	862.25
270.073	838.25
270.306	839.25
270.538	813.25
270.77	865.25
271.002	876.25
271.234	887.25
271.466	886.25
271.698	901.25
271.93	919.25
272.162	914.25
272.394	899.25
272.626	916.25
272.858	890.25
273.09	917.25
273.322	938.25
273.553	958.25
273.785	955.25
274.017	990.25
274.249	981.25
274.481	995.25
274.713	982.25
274.945	1000.25
275.176	1039.25
275.408	1059.25
275.64	1071.25
275.872	1101.25
276.104	1143.25
276.335	1129.25
276.567	1133.25
276.799	1171.25
277.031	1253.25
277.262	1320.25
277.494	1340.25
277.726	1289.25
277.957	1212.25
278.189	1203.25
278.421	1163.25
278.652	1163.25
278.884	1148.25
279.115	1174.25
279.347	1188.25
279.579	1225.25
279.81	1288.25
280.042	1395.25
280.273	1518.25
280.505	1575.25
280.736	1400.25
280.968	1307.25
281.199	1239.25
281.431	1211.25
281.662	1228.25
281.894	1220.25
282.125	1178.25
282.356	1170.25
282.588	1169.25
282.819	1163.25
283.051	1150.25
283.282	1140.25
283.513	1144.25
283.745	1137.25
283.976	1163.25
284.207	1143.25
284.439	1154.25
284.67	1158.25
284.901	1173.25
285.132	1163.25
285.364	1167.25
285.595	1166.25
285.826	1148.25
286.057	1193.25
286.288	1189.25
286.52	1194.25
286.751	1195.25
286.982	1192.25
287.213	1174.25
287.444	1167.25
287.675	1220.25
287.906	1191.25
288.138	1206.25
288.369	1222.25
288.6	1214.25
288.831	1223.25
289.062	1191.25
289.293	1222.25
289.524	1210.25
289.755	1228.25
289.986	1211.25
290.217	1198.25
290.448	1247.25
290.679	1207.25
290.91	1187.25
291.141	1210.25
291.371	1213.25
291.602	1191.25
291.833	1198.25
292.064	1185.25
292.295	1167.25
292.526	1191.25
292.757	1191.25
292.987	1191.25
293.218	1174.25
293.449	1198.25
293.68	1159.25
293.91	1153.25
294.141	1206.25
294.372	1163.25
294.603	1158.25
294.833	1216.25
295.064	1189.25
295.295	1195.25
295.525	1205.25
295.756	1198.25
295.987	1229.25
296.217	1178.25
296.448	1250.25
296.679	1198.25
296.909	1221.25
297.14	1237.25
297.37	1264.25
297.601	1259.25
297.831	1228.25
298.062	1228.25
298.292	1236.25
298.523	1306.25
298.753	1264.25
298.984	1293.25
299.214	1285.25
299.445	1297.25
299.675	1268.25
299.905	1301.25
300.136	1288.25
300.366	1284.25
300.597	1305.25
300.827	1311.25
301.057	1339.25
301.288	1331.25
301.518	1371.25
301.748	1354.25
301.979	1399.25
302.209	1429.25
302.439	1393.25
302.669	1364.25
302.9	1373.25
303.13	1380.25
303.36	1402.25
303.59	1437.25
303.82	1459.25
304.051	1479.25
304.281	1434.25
304.511	1411.25
304.741	1398.25
304.971	1378.25
305.201	1372.25
305.431	1398.25
305.661	1362.25
305.891	1338.25
306.121	1358.25
306.352	1371.25
306.582	1354.25
306.812	1382.25
307.042	1443.25
307.272	1513.25
307.502	1605.25
307.731	1598.25
307.961	1531.25
308.191	1445.25
308.421	1413.25
308.651	1378.25
308.881	1371.25
309.111	1366.25
309.341	1376.25
309.571	1350.25
309.8	1395.25
310.03	1389.25
310.26	1407.25
310.49	1421.25
310.72	1430.25
310.949	1370.25
311.179	1417.25
311.409	1403.25
311.639	1418.25
311.868	1408.25
312.098	1404.25
312.328	1419.25
312.557	1479.25
312.787	1426.25
313.017	1440.25
313.246	1426.25
313.476	1440.25
313.706	1481.25
313.935	1452.25
314.165	1440.25
314.394	1444.25
314.624	1461.25
314.853	1441.25
315.083	1484.25
315.312	1475.25
315.542	1466.25
315.771	1506.25
316.001	1477.25
316.23	1481.25
316.46	1458.25
316.689	1479.25
316.919	1469.25
317.148	1486.25
317.377	1489.25
317.607	1468.25
317.836	1487.25
318.065	1499.25
318.295	1518.25
318.524	1515.25
318.753	1491.25
318.983	1512.25
319.212	1484.25
319.441	1513.25
319.67	1545.25
319.9	1519.25
320.129	1521.25
320.358	1520.25
320.587	1538.25
320.816	1575.25
321.046	1538.25
321.275	1556.25
321.504	1575.25
321.733	1578.25
321.962	1557.25
322.191	1617.25
322.42	1614.25
322.649	1636.25
322.878	1662.25
323.108	1668.25
323.337	1715.25
323.566	1748.25
323.795	1759.25
324.024	1770.25
324.253	1801.25
324.482	1782.25
324.71	1798.25
324.939	1826.25
325.168	1892.25
325.397	1889.25
325.626	1945.25
325.855	1974.25
326.084	2049.25
326.313	2028.25
326.542	2076.25
326.77	2173.25
326.999	2209.25
327.228	2303.25
327.457	2536.25
327.686	2793.25
327.914	3435.25
328.143	4228.25
328.372	4941.25
328.6	4592.25
328.829	3462.25
329.058	3155.25
329.287	3163.25
329.515	3493.25
329.744	4226.25
329.972	5486.25
330.201	7403.25
330.43	8672.25
330.658	7185.25
330.887	4581.25
331.115	3558.25
331.344	3202.25
331.572	2877.25
331.801	2859.25
332.03	2778.25
332.258	2870.25
332.486	2892.25
332.715	2946.25
332.943	3137.25
333.172	3320.25
333.4	3667.25
333.629	4110.25
333.857	4854.25
334.085	6158.25
334.314	8423.25
334.542	10923.25
334.771	11324.25
334.999	7540.25
335.227	5035.25
335.455	3955.25
335.684	3412.25
335.912	3102.25
336.14	2819.25
336.369	2683.25
336.597	2573.25
336.825	2453.25
337.053	2401.25
337.281	2270.25
337.51	2214.25
337.738	2154.25
337.966	2131.25
338.194	2100.25
338.422	2013.25
338.65	2025.25
338.878	1969.25
339.106	1940.25
339.334	1917.25
339.562	1894.25
339.79	1846.25
340.018	1804.25
340.246	1804.25
340.474	1752.25
340.702	1743.25
340.93	1766.25
341.158	1770.25
341.386	1764.25
341.614	1729.25
341.842	1731.25
342.07	1678.25
342.298	1704.25
342.526	1678.25
342.754	1712.25
342.981	1720.25
343.209	1719.25
343.437	1771.25
343.665	1848.25
343.893	1914.25
344.12	1994.25
344.348	1913.25
344.576	1858.25
344.804	1785.25
345.031	1747.25
345.259	1725.25
345.487	1664.25
345.714	1637.25
345.942	1602.25
346.17	1620.25
346.397	1607.25
346.625	1575.25
346.853	1593.25
347.08	1577.25
347.308	1562.25
347.535	1575.25
347.763	1590.25
347.99	1583.25
348.218	1583.25
348.445	1592.25
348.673	1574.25
348.9	1548.25
349.128	1581.25
349.355	1561.25
349.583	1539.25
349.81	1565.25
350.037	1549.25
350.265	1542.25
350.492	1564.25
350.72	1562.25
350.947	1522.25
351.174	1521.25
351.402	1513.25
351.629	1545.25
351.856	1528.25
352.083	1538.25
352.311	1535.25
352.538	1492.25
352.765	1555.25
352.992	1546.25
353.22	1504.25
353.447	1504.25
353.674	1497.25
353.901	1541.25
354.128	1533.25
354.355	1530.25
354.583	1512.25
354.81	1491.25
355.037	1487.25
355.264	1505.25
355.491	1494.25
355.718	1527.25
355.945	1501.25
356.172	1528.25
356.399	1503.25
356.626	1496.25
356.853	1537.25
357.08	1518.25
357.307	1507.25
357.534	1442.25
357.761	1473.25
357.988	1498.25
358.215	1493.25
358.441	1470.25
358.668	1497.25
358.895	1510.25
359.122	1498.25
359.349	1493.25
359.576	1482.25
359.802	1441.25
360.029	1477.25
360.256	1492.25
360.483	1518.25
360.709	1490.25
360.936	1470.25
361.163	1470.25
361.39	1464.25
361.616	1456.25
361.843	1489.25
362.07	1477.25
362.296	1435.25
362.523	1437.25
362.749	1479.25
362.976	1471.25
363.203	1491.25
363.429	1441.25
363.656	1469.25
363.882	1462.25
364.109	1445.25
364.335	1424.25
364.562	1445.25
364.788	1450.25
365.015	1469.25
365.241	1467.25
365.468	1485.25
365.694	1439.25
365.92	1467.25
366.147	1461.25
366.373	1437.25
366.599	1471.25
366.826	1436.25
367.052	1446.25
367.278	1476.25
367.505	1469.25
367.731	1457.25
367.957	1473.25
368.184	1457.25
368.41	1472.25
368.636	1458.25
368.862	1483.25
369.089	1493.25
369.315	1491.25
369.541	1478.25
369.767	1487.25
369.993	1500.25
370.219	1461.25
370.445	1492.25
370.672	1527.25
370.898	1538.25
371.124	1515.25
371.35	1535.25
371.576	1541.25
371.802	1543.25
372.028	1516.25
372.254	1537.25
372.48	1539.25
372.706	1557.25
372.932	1612.25
373.158	1598.25
373.384	1586.25
373.61	1531.25
373.835	1512.25
374.061	1529.25
374.287	1529.25
374.513	1586.25
374.739	1638.25
374.965	1650.25
375.191	1659.25
375.416	1680.25
375.642	1624.25
375.868	1574.25
376.094	1533.25
376.319	1527.25
376.545	1534.25
376.771	1533.25
376.997	1532.25
377.222	1533.25
377.448	1504.25
377.674	1501.25
377.899	1490.25
378.125	1516.25
378.35	1508.25
378.576	1517.25
378.802	1519.25
379.027	1470.25
379.253	1522.25
379.478	1473.25
379.704	1491.25
379.929	1489.25
380.155	1501.25
380.38	1521.25
380.606	1523.25
380.831	1500.25
381.057	1521.25
381.282	1497.25
381.507	1509.25
381.733	1510.25
381.958	1518.25
382.184	1550.25
382.409	1559.25
382.634	1583.25
382.86	1594.25
383.085	1617.25
383.31	1631.25
383.535	1661.25
383.761	1650.25
383.986	1687.25
384.211	1715.25
384.436	1698.25
384.662	1731.25
384.887	1744.25
385.112	1741.25
385.337	1768.25
385.562	1774.25
385.787	1790.25
386.013	1829.25
386.238	1804.25
386.463	1772.25
386.688	1790.25
386.913	1762.25
387.138	1762.25
387.363	1780.25
387.588	1726.25
387.813	1757.25
388.038	1732.25
388.263	1765.25
388.488	1791.25
388.713	1768.25
388.938	1755.25
389.163	1695.25
389.387	1735.25
389.612	1682.25
389.837	1710.25
390.062	1686.25
390.287	1737.25
390.512	1746.25
390.736	1743.25
390.961	1763.25
391.186	1804.25
391.411	1880.25
391.636	1860.25
391.86	1914.25
392.085	1929.25
392.31	1939.25
392.534	1890.25
392.759	1875.25
392.984	1839.25
393.208	1797.25
393.433	1847.25
393.658	1798.25
393.882	1816.25
394.107	1833.25
394.331	1842.25
394.556	1825.25
394.78	1830.25
395.005	1872.25
395.229	1869.25
395.454	1871.25
395.678	1911.25
395.903	1916.25
396.127	1889.25
396.352	1877.25
396.576	1856.25
396.801	1856.25
397.025	1874.25
397.249	1909.25
397.474	1905.25
397.698	1923.25
397.922	1952.25
398.147	1963.25
398.371	2026.25
398.595	2061.25
398.82	2159.25
399.044	2274.25
399.268	2481.25
399.492	2808.25
399.717	3002.25
399.941	3003.25
400.165	2773.25
400.389	2539.25
400.613	2369.25
400.837	2274.25
401.062	2230.25
401.286	2180.25
401.51	2187.25
401.734	2113.25
401.958	2190.25
402.182	2143.25
402.406	2182.25
402.63	2253.25
402.854	2279.25
403.078	2311.25
403.302	2378.25
403.526	2417.25
403.75	2458.25
403.974	2492.25
404.198	2497.25
404.422	2558.25
404.645	2602.25
404.869	2731.25
405.093	2843.25
405.317	3030.25
405.541	3035.25
405.765	2841.25
405.988	2689.25
406.212	2545.25
406.436	2501.25
406.66	2490.25
406.883	2451.25
407.107	2591.25
407.331	2627.25
407.555	2730.25
407.778	2641.25
408.002	2603.25
408.226	2549.25
408.449	2500.25
408.673	2466.25
408.896	2383.25
409.12	2352.25
409.344	2379.25
409.567	2385.25
409.791	2378.25
410.014	2373.25
410.238	2301.25
410.461	2357.25
410.685	2305.25
410.908	2303.25
411.132	2315.25
411.355	2292.25
411.578	2306.25
411.802	2314.25
412.025	2460.25
412.249	2607.25
412.472	2764.25
412.695	2987.25
412.919	2921.25
413.142	2761.25
413.365	2623.25
413.589	2517.25
413.812	2423.25
414.035	2380.25
414.258	2365.25
414.482	2333.25
414.705	2282.25
414.928	2263.25
415.151	2228.25
415.374	2260.25
415.597	2241.25
415.821	2159.25
416.044	2198.25
416.267	2173.25
416.49	2125.25
416.713	2157.25
416.936	2148.25
417.159	2178.25
417.382	2217.25
417.605	2383.25
417.828	2373.25
418.051	2287.25
418.274	2249.25
418.497	2219.25
418.72	2220.25
418.943	2206.25
419.166	2314.25
419.389	2495.25
419.611	2516.25
419.834	2529.25
420.057	2521.25
420.28	2724.25
420.503	2732.25
420.726	2627.25
420.948	2544.25
421.171	2494.25
421.394	2382.25
421.617	2291.25
421.839	2281.25
422.062	2244.25
422.285	2190.25
422.507	2269.25
422.73	2231.25
422.953	2211.25
423.175	2243.25
423.398	2263.25
423.621	2209.25
423.843	2255.25
424.066	2225.25
424.288	2259.25
424.511	2184.25
424.733	2237.25
424.956	2149.25
425.178	2105.25
425.401	2155.25
425.623	2143.25
425.846	2099.25
426.068	2080.25
426.291	2093.25
426.513	2081.25
426.735	2089.25
426.958	2122.25
427.18	2096.25
427.402	2196.25
427.625	2322.25
427.847	2593.25
428.069	2834.25
428.292	2685.25
428.514	2370.25
428.736	2209.25
428.958	2105.25
429.181	1966.25
429.403	1926.25
429.625	1909.25
429.847	1908.25
430.069	1886.25
430.292	1890.25
430.514	1841.25
430.736	1878.25
430.958	1884.25
431.18	1862.25
431.402	1867.25
431.624	1829.25
431.846	1886.25
432.068	1873.25
432.29	1887.25
432.512	1857.25
432.734	1849.25
432.956	1835.25
433.178	1878.25
433.4	1888.25
433.622	1878.25
433.844	1894.25
434.066	1879.25
434.287	1889.25
434.509	1926.25
434.731	2003.25
434.953	2005.25
435.175	2014.25
435.397	2046.25
435.618	1934.25
435.84	1869.25
436.062	1898.25
436.284	1866.25
436.505	1855.25
436.727	1873.25
436.949	1806.25
437.17	1854.25
437.392	1808.25
437.614	1802.25
437.835	1757.25
438.057	1729.25
438.278	1733.25
438.5	1754.25
438.721	1749.25
438.943	1798.25
439.165	1755.25
439.386	1774.25
439.608	1802.25
439.829	1838.25
440.05	1786.25
440.272	1854.25
440.493	1801.25
440.715	1860.25
440.936	1894.25
441.158	1889.25
441.379	1936.25
441.6	2005.25
441.822	2003.25
442.043	2007.25
442.264	1941.25
442.486	1932.25
442.707	1986.25
442.928	1979.25
443.149	2059.25
443.371	1973.25
443.592	1981.25
443.813	2003.25
444.034	2011.25
444.255	2101.25
444.476	2155.25
444.698	2193.25
444.919	2341.25
445.14	2409.25
445.361	2214.25
445.582	2063.25
445.803	1993.25
446.024	1891.25
446.245	1893.25
446.466	1863.25
446.687	1845.25
446.908	1848.25
447.129	1810.25
447.35	1727.25
447.571	1761.25
447.792	1707.25
448.013	1737.25
448.234	1684.25
448.455	1707.25
448.675	1673.25
448.896	1639.25
449.117	1654.25
449.338	1691.25
449.559	1649.25
449.779	1641.25
450	1613.25
450.221	1623.25
450.442	1618.25
450.662	1617.25
450.883	1646.25
451.104	1677.25
451.324	1656.25
451.545	1623.25
451.766	1682.25
451.986	1614.25
452.207	1635.25
452.428	1611.25
452.648	1642.25
452.869	1613.25
453.089	1581.25
453.31	1625.25
453.53	1593.25
453.751	1591.25
453.971	1576.25
454.192	1600.25
454.412	1584.25
454.633	1580.25
454.853	1571.25
455.073	1568.25
455.294	1580.25
455.514	1568.25
455.734	1536.25
455.955	1530.25
456.175	1562.25
456.395	1529.25
456.616	1551.25
456.836	1575.25
457.056	1583.25
457.276	1553.25
457.497	1630.25
457.717	1609.25
457.937	1629.25
458.157	1639.25
458.377	1652.25
458.598	1673.25
458.818	1631.25
459.038	1740.25
459.258	1759.25
459.478	1849.25
459.698	1875.25
459.918	1907.25
460.138	1948.25
460.358	2017.25
460.578	2041.25
460.798	2089.25
461.018	2096.25
461.238	2053.25
461.458	2059.25
461.678	2057.25
461.898	2085.25
462.118	2072.25
462.338	2202.25
462.558	2234.25
462.777	2302.25
462.997	2491.25
463.217	2592.25
463.437	2657.25
463.657	2422.25
463.876	2345.25
464.096	2417.25
464.316	2354.25
464.536	2368.25
464.755	2291.25
464.975	2215.25
465.195	2142.25
465.414	2077.25
465.634	1960.25
465.854	1948.25
466.073	1900.25
466.293	1899.25
466.512	1821.25
466.732	1856.25
466.951	1880.25
467.171	1858.25
467.391	1901.25
467.61	2010.25
467.829	2149.25
468.049	2909.25
468.268	4263.25
468.488	3333.25
468.707	2572.25
468.927	2239.25
469.146	2150.25
469.365	2095.25
469.585	2021.25
469.804	2045.25
470.023	2053.25
470.243	2065.25
470.462	2045.25
470.681	2031.25
470.901	2084.25
471.12	2078.25
471.339	2118.25
471.558	2153.25
471.777	2304.25
471.997	2681.25
472.216	4237.25
472.435	7861.25
472.654	6323.25
472.873	4134.25
473.092	3329.25
473.311	2886.25
473.53	2625.25
473.749	2453.25
473.968	2313.25
474.187	2161.25
474.406	2146.25
474.625	2081.25
474.844	2047.25
475.063	2038.25
475.282	2031.25
475.501	1996.25
475.72	1969.25
475.939	1962.25
476.158	1981.25
476.377	1955.25
476.596	1969.25
476.814	1955.25
477.033	1981.25
477.252	2018.25
477.471	2100.25
477.69	2118.25
477.908	2128.25
478.127	2214.25
478.346	2233.25
478.564	2285.25
478.783	2279.25
479.002	2384.25
479.22	2372.25
479.439	2429.25
479.658	2486.25
479.876	2492.25
480.095	2642.25
480.313	2865.25
480.532	3058.25
480.751	3594.25
480.969	5021.25
481.188	10291.25
481.406	12519.25
481.624	7634.25
481.843	5391.25
482.061	4478.25
482.28	3919.25
482.498	3414.25
482.717	3213.25
482.935	3027.25
483.153	2881.25
483.372	2805.25
483.59	2732.25
483.808	2625.25
484.027	2600.25
484.245	2571.25
484.463	2520.25
484.681	2488.25
484.9	2492.25
485.118	2489.25
485.336	2484.25
485.554	2455.25
485.772	2449.25
485.99	2396.25
486.209	2475.25
486.427	2433.25
486.645	2449.25
486.863	2444.25
487.081	2385.25
487.299	2431.25
487.517	2451.25
487.735	2466.25
487.953	2531.25
488.171	2512.25
488.389	2515.25
488.607	2479.25
488.825	2468.25
489.043	2511.25
489.261	2565.25
489.479	2573.25
489.696	2627.25
489.914	2682.25
490.132	2771.25
490.35	2786.25
490.568	2845.25
490.786	2914.25
491.003	3011.25
491.221	3121.25
491.439	3323.25
491.657	3398.25
491.874	3431.25
492.092	3525.25
492.31	3535.25
492.527	3639.25
492.745	3767.25
492.963	3804.25
493.18	3796.25
493.398	3661.25
493.615	3619.25
493.833	3536.25
494.05	3470.25
494.268	3351.25
494.485	3280.25
494.703	3277.25
494.92	3189.25
495.138	3119.25
495.355	3057.25
495.573	3082.25
495.79	3014.25
496.008	2974.25
496.225	2972.25
496.442	2950.25
496.66	2914.25
496.877	2883.25
497.094	2927.25
497.312	2913.25
497.529	2932.25
497.746	3000.25
497.963	3038.25
498.181	3083.25
498.398	3167.25
498.615	3249.25
498.832	3429.25
499.049	3562.25
499.267	3727.25
499.484	4011.25
499.701	4303.25
499.918	4542.25
500.135	4951.25
500.352	5428.25
500.569	5633.25
500.786	5773.25
501.003	5493.25
501.22	4959.25
501.437	4547.25
501.654	4089.25
501.871	3834.25
502.088	3534.25
502.305	3399.25
502.522	3281.25
502.739	3147.25
502.956	3041.25
503.172	2927.25
503.389	2796.25
503.606	2700.25
503.823	2678.25
504.04	2670.25
504.256	2759.25
504.473	2750.25
504.69	2765.25
504.907	2694.25
505.123	2523.25
505.34	2462.25
505.557	2378.25
505.773	2316.25
505.99	2281.25
506.207	2230.25
506.423	2210.25
506.64	2158.25
506.856	2151.25
507.073	2157.25
507.289	2139.25
507.506	2118.25
507.722	2110.25
507.939	2098.25
508.155	2034.25
508.372	2043.25
508.588	2027.25
508.805	2028.25
509.021	1994.25
509.238	2011.25
509.454	1939.25
509.67	1973.25
509.887	1999.25
510.103	1942.25
510.319	1987.25
510.536	1956.25
510.752	1970.25
510.968	1993.25
511.184	2022.25
511.401	2074.25
511.617	2168.25
511.833	2478.25
512.049	2653.25
512.265	2530.25
512.481	2351.25
512.698	2221.25
512.914	2151.25
513.13	2101.25
513.346	2085.25
513.562	2028.25
513.778	2043.25
513.994	1966.25
514.21	2019.25
514.426	1965.25
514.642	1987.25
514.858	1975.25
515.074	1984.25
515.29	2015.25
515.506	2013.25
515.721	2028.25
515.937	2033.25
516.153	2031.25
516.369	2066.25
516.585	2121.25
516.801	2199.25
517.016	2212.25
517.232	2352.25
517.448	2425.25
517.664	2438.25
517.879	2400.25
518.095	2438.25
518.311	2419.25
518.527	2373.25
518.742	2278.25
518.958	2197.25
519.173	2170.25
519.389	2049.25
519.605	1989.25
519.82	1969.25
520.036	1938.25
520.251	1924.25
520.467	1919.25
520.682	1882.25
520.898	1853.25
521.113	1839.25
521.329	1840.25
521.544	1796.25
521.76	1801.25
521.975	1833.25
522.19	1782.25
522.406	1756.25
522.621	1750.25
522.836	1716.25
523.052	1772.25
523.267	1731.25
523.482	1701.25
523.698	1732.25
523.913	1739.25
524.128	1724.25
524.343	1705.25
524.559	1695.25
524.774	1682.25
524.989	1692.25
525.204	1688.25
525.419	1663.25
525.634	1704.25
525.849	1691.25
526.064	1675.25
526.28	1710.25
526.495	1657.25
526.71	1660.25
526.925	1658.25
527.14	1650.25
527.355	1691.25
527.57	1663.25
527.785	1667.25
527.999	1684.25
528.214	1683.25
528.429	1654.25
528.644	1659.25
528.859	1645.25
529.074	1702.25
529.289	1675.25
529.503	1687.25
529.718	1678.25
529.933	1681.25
530.148	1637.25
530.363	1674.25
530.577	1649.25
530.792	1652.25
531.007	1646.25
531.221	1653.25
531.436	1637.25
531.651	1687.25
531.865	1670.25
532.08	1639.25
532.295	1626.25
532.509	1622.25
532.724	1636.25
532.938	1673.25
533.153	1673.25
533.367	1684.25
533.582	1650.25
533.796	1660.25
534.011	1644.25
534.225	1630.25
534.44	1626.25
534.654	1633.25
534.868	1611.25
535.083	1599.25
535.297	1626.25
535.511	1642.25
535.726	1629.25
535.94	1618.25
536.154	1584.25
536.369	1569.25
536.583	1546.25
536.797	1533.25
537.011	1561.25
537.225	1555.25
537.44	1566.25
537.654	1531.25
537.868	1561.25
538.082	1523.25
538.296	1523.25
538.51	1530.25
538.724	1510.25
538.938	1517.25
539.153	1520.25
539.367	1522.25
539.581	1477.25
539.795	1461.25
540.009	1486.25
540.222	1514.25
540.436	1537.25
540.65	1491.25
540.864	1530.25
541.078	1517.25
541.292	1535.25
541.506	1489.25
541.72	1489.25
541.934	1471.25
542.147	1543.25
542.361	1489.25
542.575	1507.25
542.789	1508.25
543.002	1473.25
543.216	1505.25
543.43	1511.25
543.644	1480.25
543.857	1535.25
544.071	1530.25
544.285	1518.25
544.498	1535.25
544.712	1528.25
544.925	1592.25
545.139	1542.25
545.352	1523.25
545.566	1535.25
545.779	1564.25
545.993	1556.25
546.206	1577.25
546.42	1551.25
546.633	1544.25
546.847	1482.25
547.06	1517.25
547.274	1503.25
547.487	1521.25
547.7	1527.25
547.914	1530.25
548.127	1565.25
548.34	1568.25
548.554	1542.25
548.767	1565.25
548.98	1536.25
549.193	1582.25
549.407	1559.25
549.62	1550.25
549.833	1581.25
550.046	1552.25
550.259	1497.25
550.473	1499.25
550.686	1537.25
550.899	1518.25
551.112	1502.25
551.325	1476.25
551.538	1517.25
551.751	1489.25
551.964	1518.25
552.177	1522.25
552.39	1541.25
552.603	1595.25
552.816	1617.25
553.029	1651.25
553.242	1652.25
553.455	1651.25
553.667	1660.25
553.88	1639.25
554.093	1592.25
554.306	1635.25
554.519	1605.25
554.732	1547.25
554.944	1492.25
555.157	1476.25
555.37	1471.25
555.583	1433.25
555.795	1379.25
556.008	1435.25
556.221	1405.25
556.433	1382.25
556.646	1333.25
556.859	1325.25
557.071	1358.25
557.284	1373.25
557.496	1341.25
557.709	1284.25
557.921	1313.25
558.134	1287.25
558.346	1312.25
558.559	1312.25
558.771	1276.25
558.984	1286.25
559.196	1299.25
559.409	1274.25
559.621	1295.25
559.833	1284.25
560.046	1308.25
560.258	1342.25
560.47	1373.25
560.683	1322.25
560.895	1323.25
561.107	1286.25
561.32	1289.25
561.532	1259.25
561.744	1269.25
561.956	1272.25
562.168	1271.25
562.381	1266.25
562.593	1295.25
562.805	1275.25
563.017	1265.25
563.229	1308.25
563.441	1270.25
563.653	1295.25
563.865	1293.25
564.077	1279.25
564.289	1305.25
564.501	1300.25
564.713	1325.25
564.925	1342.25
565.137	1364.25
565.349	1417.25
565.561	1437.25
565.773	1457.25
565.985	1569.25
566.197	1607.25
566.408	1734.25
566.62	1811.25
566.832	1889.25
567.044	1924.25
567.255	1932.25
567.467	2001.25
567.679	2063.25
567.891	2165.25
568.102	2199.25
568.314	2086.25
568.526	1915.25
568.737	1773.25
568.949	1674.25
569.161	1546.25
569.372	1461.25
569.584	1389.25
569.795	1370.25
570.007	1354.25
570.218	1296.25
570.43	1298.25
570.641	1302.25
570.853	1308.25
571.064	1302.25
571.276	1275.25
571.487	1257.25
571.698	1198.25
571.91	1182.25
572.121	1170.25
572.333	1143.25
572.544	1119.25
572.755	1095.25
572.966	1111.25
573.178	1095.25
573.389	1091.25
573.6	1081.25
573.811	1077.25
574.023	1067.25
574.234	1065.25
574.445	1076.25
574.656	1071.25
574.867	1067.25
575.078	1023.25
575.289	1053.25
575.501	1027.25
575.712	1012.25
575.923	1014.25
576.134	1030.25
576.345	990.25
576.556	1045.25
576.767	1021.25
576.978	998.25
577.188	1027.25
577.399	981.25
577.61	997.25
577.821	984.25
578.032	989.25
578.243	964.25
578.454	991.25
578.665	944.25
578.875	959.25
579.086	951.25
579.297	948.25
579.508	915.25
579.718	929.25
579.929	936.25
580.14	936.25
580.35	917.25
580.561	927.25
580.772	924.25
580.982	927.25
581.193	918.25
581.403	899.25
581.614	906.25
581.825	881.25
582.035	908.25
582.246	897.25
582.456	902.25
582.667	884.25
582.877	897.25
583.087	894.25
583.298	879.25
583.508	906.25
583.719	885.25
583.929	915.25
584.139	905.25
584.35	881.25
584.56	868.25
584.77	875.25
584.981	855.25
585.191	875.25
585.401	855.25
585.611	887.25
585.821	883.25
586.032	876.25
586.242	872.25
586.452	876.25
586.662	873.25
586.872	845.25
587.082	842.25
587.292	866.25
587.502	878.25
587.713	862.25
587.923	859.25
588.133	889.25
588.343	864.25
588.553	862.25
588.762	862.25
588.972	851.25
589.182	862.25
589.392	887.25
589.602	988.25
589.812	973.25
590.022	914.25
590.232	883.25
590.441	866.25
590.651	896.25
590.861	895.25
591.071	880.25
591.281	901.25
591.49	938.25
591.7	898.25
591.91	922.25
592.119	935.25
592.329	957.25
592.539	959.25
592.748	1014.25
592.958	990.25
593.167	1027.25
593.377	1053.25
593.587	1051.25
593.796	1063.25
594.006	1073.25
594.215	1040.25
594.424	1079.25
594.634	1060.25
594.843	989.25
595.053	973.25
595.262	972.25
595.472	943.25
595.681	903.25
595.89	867.25
596.1	855.25
596.309	863.25
596.518	868.25
596.727	829.25
596.937	813.25
597.146	815.25
597.355	801.25
597.564	796.25
597.774	802.25
597.983	789.25
598.192	798.25
598.401	773.25
598.61	773.25
598.819	813.25
599.028	769.25
599.237	774.25
599.446	773.25
599.655	756.25
599.864	763.25
600.073	753.25
600.282	769.25
600.491	756.25
600.7	775.25
600.909	769.25
601.118	753.25
601.327	789.25
601.536	767.25
601.745	752.25
601.953	778.25
602.162	787.25
602.371	749.25
602.58	757.25
602.789	754.25
602.997	757.25
603.206	753.25
603.415	729.25
603.623	743.25
603.832	761.25
604.041	736.25
604.249	736.25
604.458	748.25
604.666	742.25
604.875	704.25
605.084	700.25
605.292	724.25
605.501	746.25
605.709	745.25
605.918	706.25
606.126	746.25
606.334	748.25
606.543	713.25
606.751	731.25
606.96	729.25
607.168	708.25
607.376	725.25
607.585	716.25
607.793	719.25
608.001	719.25
608.21	699.25
608.418	732.25
608.626	704.25
608.834	691.25
609.043	724.25
609.251	705.25
609.459	713.25
609.667	709.25
609.875	703.25
610.083	735.25
610.291	719.25
610.499	719.25
610.707	734.25
610.916	735.25
611.124	723.25
611.332	723.25
611.54	721.25
611.748	736.25
611.955	723.25
612.163	703.25
612.371	701.25
612.579	707.25
612.787	693.25
612.995	718.25
613.203	705.25
613.411	681.25
613.618	669.25
613.826	677.25
614.034	675.25
614.242	675.25
614.449	679.25
614.657	691.25
614.865	685.25
615.072	658.25
615.28	676.25
615.488	671.25
615.695	647.25
615.903	669.25
616.111	665.25
616.318	659.25
616.526	699.25
616.733	679.25
616.941	657.25
617.148	667.25
617.356	659.25
617.563	653.25
617.771	631.25
617.978	626.25
618.185	627.25
618.393	626.25
618.6	641.25
618.807	644.25
619.015	615.25
619.222	629.25
619.429	607.25
619.637	611.25
619.844	611.25
620.051	613.25
620.258	586.25
620.466	590.25
620.673	585.25
620.88	579.25
621.087	577.25
621.294	561.25
621.501	605.25
621.708	607.25
621.915	608.25
622.122	567.25
622.329	566.25
622.536	571.25
622.743	556.25
622.95	572.25
623.157	556.25
623.364	582.25
623.571	579.25
623.778	533.25
623.985	543.25
624.192	546.25
624.399	531.25
624.606	569.25
624.812	550.25
625.019	541.25
625.226	524.25
625.433	537.25
625.639	519.25
625.846	539.25
626.053	521.25
626.259	545.25
626.466	539.25
626.673	507.25
626.879	495.25
627.086	517.25
627.293	500.25
627.499	517.25
627.706	511.25
627.912	511.25
628.119	523.25
628.325	516.25
628.532	523.25
628.738	499.25
628.945	503.25
629.151	500.25
629.357	494.25
629.564	507.25
629.77	480.25
629.976	500.25
630.183	484.25
630.389	495.25
630.595	488.25
630.802	501.25
631.008	492.25
631.214	484.25
631.42	475.25
631.627	492.25
631.833	482.25
632.039	477.25
632.245	459.25
632.451	477.25
632.657	497.25
632.863	490.25
633.069	485.25
633.275	486.25
633.481	479.25
633.688	499.25
633.893	500.25
634.099	473.25
634.305	494.25
634.511	485.25
634.717	512.25
634.923	514.25
635.129	538.25
635.335	525.25
635.541	533.25
635.747	568.25
635.952	593.25
636.158	683.25
636.364	997.25
636.57	1257.25
636.775	948.25
636.981	799.25
637.187	734.25
637.392	654.25
637.598	640.25
637.804	603.25
638.009	569.25
638.215	559.25
638.421	551.25
638.626	527.25
638.832	530.25
639.037	519.25
639.243	453.25
639.448	479.25
639.654	478.25
639.859	475.25
640.065	444.25
640.27	459.25
640.475	441.25
640.681	458.25
640.886	446.25
641.091	449.25
641.297	445.25
641.502	435.25
641.707	437.25
641.913	436.25
642.118	398.25
642.323	409.25
642.528	423.25
642.733	426.25
642.939	405.25
643.144	415.25
643.349	394.25
643.554	389.25
643.759	409.25
643.964	388.25
644.169	403.25
644.374	415.25
644.579	396.25
644.784	392.25
644.989	400.25
645.194	411.25
645.399	389.25
645.604	383.25
645.809	381.25
646.014	398.25
646.219	384.25
646.423	383.25
646.628	403.25
646.833	400.25
647.038	402.25
647.243	390.25
647.447	399.25
647.652	398.25
647.857	419.25
648.062	401.25
648.266	411.25
648.471	402.25
648.676	423.25
648.88	407.25
649.085	396.25
649.289	387.25
649.494	380.25
649.698	398.25
649.903	373.25
650.107	359.25
650.312	367.25
650.516	350.25
650.721	357.25
650.925	373.25
651.13	368.25
651.334	337.25
651.539	330.25
651.743	313.25
651.947	310.25
652.152	329.25
652.356	347.25
652.56	329.25
652.764	310.25
652.969	305.25
653.173	309.25
653.377	283.25
653.581	297.25
653.785	295.25
653.99	291.25
654.194	292.25
654.398	267.25
654.602	285.25
654.806	287.25
655.01	282.25
655.214	267.25
655.418	266.25
655.622	271.25
655.826	283.25
656.03	262.25
656.234	293.25
656.438	288.25
656.642	309.25
656.846	292.25
657.049	260.25
657.253	233.25
657.457	238.25
657.661	220.25
657.865	210.25
658.068	203.25
658.272	202.25
658.476	188.25
658.68	188.25
658.883	183.25
659.087	171.25
659.291	162.25
659.494	141.25
659.698	148.25
659.901	144.25
660.105	138.25
660.309	153.25
660.512	142.25
660.716	139.25
660.919	143.25
661.123	129.25
661.326	127.25
661.53	127.25
661.733	109.25
661.936	111.25
662.14	110.25
662.343	103.25
662.546	94.25
662.75	101.25
662.953	112.25
663.156	104.25
663.36	102.25
663.563	106.25
663.766	100.25
663.969	93.25
664.173	106.25
664.376	87.25
664.579	93.25
664.782	69.25
664.985	89.25
665.188	89.25
665.391	99.25
665.594	67.25
665.797	94.25
666	93.25
666.203	82.25
666.406	79.25
666.609	92.25
666.812	87.25
667.015	91.25
667.218	82.25
667.421	81.25
667.624	84.25
667.827	102.25
668.03	94.25
668.232	99.25
668.435	101.25
668.638	96.25
668.841	101.25
669.043	94.25
669.246	88.25
669.449	79.25
669.651	94.25
669.854	86.25
670.057	97.25
670.259	88.25
670.462	89.25
670.665	93.25
670.867	82.25
671.07	89.25
671.272	93.25
671.475	101.25
671.677	99.25
671.88	97.25
672.082	78.25
672.284	97.25
672.487	96.25
672.689	90.25
672.892	88.25
