Data from FlinnAP9092KCOPPER.07152019.QSWITCHSynchronous.EN10.20scans.P1_HRD10591_14-49-17-574.txt Node
Date: Mon Jul 15 14:49:17 EDT 2019
User: cochatt
Spectrometer: HR+D1059
Trigger mode: 5
Integration Time (sec): 1.000000E-1
Scans to average: 1
Electric dark correction enabled: true
Nonlinearity correction enabled: false
Boxcar width: 0
XAxis mode: Wavelengths
Number of Pixels in Spectrum: 2048
>>>>>Begin Spectral Data<<<<<
223.165	-31.25
223.4	-31.25
223.635	-31.25
223.869	-32.25
224.104	-42.25
224.338	-5.25
224.573	-19.25
224.808	-26.25
225.042	13.75
225.277	2.75
225.511	-2.25
225.746	27.75
225.98	7.75
226.215	20.75
226.449	13.75
226.683	7.75
226.918	24.75
227.152	39.75
227.387	44.75
227.621	25.75
227.856	37.75
228.09	39.75
228.324	54.75
228.559	100.75
228.793	86.75
229.027	192.75
229.262	203.75
229.496	248.75
229.73	272.75
229.964	379.75
230.199	270.75
230.433	220.75
230.667	227.75
230.901	210.75
231.136	205.75
231.37	182.75
231.604	172.75
231.838	195.75
232.072	200.75
232.306	199.75
232.541	201.75
232.775	187.75
233.009	211.75
233.243	195.75
233.477	219.75
233.711	212.75
233.945	222.75
234.179	211.75
234.413	220.75
234.647	210.75
234.881	207.75
235.115	219.75
235.349	222.75
235.583	245.75
235.817	229.75
236.051	261.75
236.285	247.75
236.519	243.75
236.753	245.75
236.987	296.75
237.221	387.75
237.455	531.75
237.689	403.75
237.922	305.75
238.156	263.75
238.39	267.75
238.624	245.75
238.858	268.75
239.091	253.75
239.325	236.75
239.559	257.75
239.793	263.75
240.027	289.75
240.26	316.75
240.494	362.75
240.728	317.75
240.961	319.75
241.195	318.75
241.429	300.75
241.662	259.75
241.896	275.75
242.13	239.75
242.363	259.75
242.597	283.75
242.83	307.75
243.064	286.75
243.298	286.75
243.531	268.75
243.765	290.75
243.998	309.75
244.232	289.75
244.465	299.75
244.699	282.75
244.932	293.75
245.166	307.75
245.399	297.75
245.633	319.75
245.866	303.75
246.099	282.75
246.333	322.75
246.566	315.75
246.8	304.75
247.033	293.75
247.266	318.75
247.5	320.75
247.733	369.75
247.966	372.75
248.2	351.75
248.433	363.75
248.666	361.75
248.899	413.75
249.133	430.75
249.366	476.75
249.599	430.75
249.832	371.75
250.066	391.75
250.299	379.75
250.532	390.75
250.765	427.75
250.998	488.75
251.231	518.75
251.465	456.75
251.698	417.75
251.931	411.75
252.164	426.75
252.397	382.75
252.63	422.75
252.863	443.75
253.096	488.75
253.329	522.75
253.562	498.75
253.795	474.75
254.028	485.75
254.261	455.75
254.494	493.75
254.727	590.75
254.96	663.75
255.193	617.75
255.426	511.75
255.659	471.75
255.892	505.75
256.124	433.75
256.357	442.75
256.59	454.75
256.823	429.75
257.056	453.75
257.289	459.75
257.521	445.75
257.754	441.75
257.987	423.75
258.22	448.75
258.452	435.75
258.685	445.75
258.918	428.75
259.151	450.75
259.383	495.75
259.616	477.75
259.849	477.75
260.081	528.75
260.314	590.75
260.547	578.75
260.779	544.75
261.012	529.75
261.244	457.75
261.477	532.75
261.71	494.75
261.942	493.75
262.175	547.75
262.407	493.75
262.64	487.75
262.872	477.75
263.105	453.75
263.337	486.75
263.57	478.75
263.802	464.75
264.035	459.75
264.267	460.75
264.499	476.75
264.732	465.75
264.964	474.75
265.197	492.75
265.429	493.75
265.661	461.75
265.894	478.75
266.126	494.75
266.358	493.75
266.591	485.75
266.823	500.75
267.055	521.75
267.287	528.75
267.52	534.75
267.752	525.75
267.984	513.75
268.216	508.75
268.448	550.75
268.681	522.75
268.913	563.75
269.145	638.75
269.377	683.75
269.609	625.75
269.841	603.75
270.073	652.75
270.306	683.75
270.538	791.75
270.77	751.75
271.002	733.75
271.234	647.75
271.466	732.75
271.698	738.75
271.93	751.75
272.162	770.75
272.394	763.75
272.626	692.75
272.858	673.75
273.09	648.75
273.322	635.75
273.553	569.75
273.785	607.75
274.017	594.75
274.249	598.75
274.481	603.75
274.713	606.75
274.945	621.75
275.176	587.75
275.408	596.75
275.64	611.75
275.872	575.75
276.104	641.75
276.335	617.75
276.567	641.75
276.799	634.75
277.031	733.75
277.262	799.75
277.494	785.75
277.726	735.75
277.957	663.75
278.189	630.75
278.421	611.75
278.652	614.75
278.884	629.75
279.115	619.75
279.347	610.75
279.579	612.75
279.81	624.75
280.042	610.75
280.273	602.75
280.505	590.75
280.736	621.75
280.968	598.75
281.199	633.75
281.431	641.75
281.662	636.75
281.894	675.75
282.125	651.75
282.356	673.75
282.588	718.75
282.819	756.75
283.051	667.75
283.282	650.75
283.513	675.75
283.745	666.75
283.976	673.75
284.207	677.75
284.439	675.75
284.67	668.75
284.901	673.75
285.132	660.75
285.364	644.75
285.595	667.75
285.826	667.75
286.057	705.75
286.288	681.75
286.52	679.75
286.751	654.75
286.982	703.75
287.213	677.75
287.444	695.75
287.675	689.75
287.906	756.75
288.138	757.75
288.369	735.75
288.6	722.75
288.831	710.75
289.062	743.75
289.293	711.75
289.524	708.75
289.755	699.75
289.986	693.75
290.217	689.75
290.448	698.75
290.679	697.75
290.91	703.75
291.141	682.75
291.371	681.75
291.602	698.75
291.833	676.75
292.064	699.75
292.295	674.75
292.526	697.75
292.757	687.75
292.987	699.75
293.218	701.75
293.449	708.75
293.68	717.75
293.91	694.75
294.141	698.75
294.372	703.75
294.603	687.75
294.833	706.75
295.064	685.75
295.295	689.75
295.525	699.75
295.756	730.75
295.987	738.75
296.217	750.75
296.448	818.75
296.679	777.75
296.909	717.75
297.14	717.75
297.37	757.75
297.601	742.75
297.831	725.75
298.062	736.75
298.292	740.75
298.523	765.75
298.753	738.75
298.984	729.75
299.214	732.75
299.445	773.75
299.675	765.75
299.905	758.75
300.136	763.75
300.366	731.75
300.597	759.75
300.827	767.75
301.057	769.75
301.288	820.75
301.518	827.75
301.748	786.75
301.979	811.75
302.209	796.75
302.439	802.75
302.669	805.75
302.9	797.75
303.13	777.75
303.36	801.75
303.59	771.75
303.82	819.75
304.051	825.75
304.281	820.75
304.511	814.75
304.741	778.75
304.971	788.75
305.201	756.75
305.431	794.75
305.661	783.75
305.891	783.75
306.121	791.75
306.352	802.75
306.582	778.75
306.812	754.75
307.042	789.75
307.272	790.75
307.502	768.75
307.731	785.75
307.961	775.75
308.191	747.75
308.421	744.75
308.651	788.75
308.881	774.75
309.111	778.75
309.341	787.75
309.571	815.75
309.8	832.75
310.03	827.75
310.26	873.75
310.49	831.75
310.72	876.75
310.949	933.75
311.179	959.75
311.409	886.75
311.639	858.75
311.868	868.75
312.098	889.75
312.328	870.75
312.557	945.75
312.787	971.75
313.017	985.75
313.246	914.75
313.476	852.75
313.706	878.75
313.935	895.75
314.165	937.75
314.394	976.75
314.624	953.75
314.853	947.75
315.083	901.75
315.312	883.75
315.542	857.75
315.771	861.75
316.001	858.75
316.23	841.75
316.46	837.75
316.689	872.75
316.919	875.75
317.148	917.75
317.377	921.75
317.607	878.75
317.836	893.75
318.065	866.75
318.295	854.75
318.524	821.75
318.753	817.75
318.983	826.75
319.212	843.75
319.441	852.75
319.67	893.75
319.9	857.75
320.129	873.75
320.358	875.75
320.587	864.75
320.816	900.75
321.046	891.75
321.275	895.75
321.504	839.75
321.733	871.75
321.962	899.75
322.191	939.75
322.42	959.75
322.649	987.75
322.878	1016.75
323.108	1034.75
323.337	1040.75
323.566	1075.75
323.795	1168.75
324.024	1246.75
324.253	1493.75
324.482	2215.75
324.71	3705.75
324.939	5823.75
325.168	5027.75
325.397	2075.75
325.626	1349.75
325.855	1103.75
326.084	1084.75
326.313	1063.75
326.542	1093.75
326.77	1217.75
326.999	1453.75
327.228	2013.75
327.457	3332.75
327.686	4440.75
327.914	2627.75
328.143	1546.75
328.372	1311.75
328.6	1300.75
328.829	1243.75
329.058	1297.75
329.287	1413.75
329.515	1246.75
329.744	1145.75
329.972	1062.75
330.201	1109.75
330.43	1128.75
330.658	1240.75
330.887	1451.75
331.115	1457.75
331.344	1211.75
331.572	1143.75
331.801	1130.75
332.03	1163.75
332.258	1113.75
332.486	1043.75
332.715	1030.75
332.943	1108.75
333.172	1103.75
333.4	1160.75
333.629	1191.75
333.857	1215.75
334.085	1195.75
334.314	1169.75
334.542	1161.75
334.771	1147.75
334.999	1126.75
335.227	1114.75
335.455	1121.75
335.684	1136.75
335.912	1065.75
336.14	1070.75
336.369	1054.75
336.597	1108.75
336.825	1091.75
337.053	1047.75
337.281	1033.75
337.51	1030.75
337.738	1058.75
337.966	1034.75
338.194	1033.75
338.422	1030.75
338.65	1021.75
338.878	1034.75
339.106	1004.75
339.334	1022.75
339.562	978.75
339.79	945.75
340.018	962.75
340.246	957.75
340.474	1022.75
340.702	1026.75
340.93	951.75
341.158	985.75
341.386	950.75
341.614	994.75
341.842	1012.75
342.07	947.75
342.298	969.75
342.526	975.75
342.754	919.75
342.981	932.75
343.209	933.75
343.437	1015.75
343.665	995.75
343.893	1070.75
344.12	1116.75
344.348	1089.75
344.576	1023.75
344.804	1042.75
345.031	1017.75
345.259	1033.75
345.487	1047.75
345.714	974.75
345.942	966.75
346.17	939.75
346.397	934.75
346.625	925.75
346.853	934.75
347.08	921.75
347.308	929.75
347.535	957.75
347.763	999.75
347.99	971.75
348.218	966.75
348.445	995.75
348.673	966.75
348.9	932.75
349.128	912.75
349.355	863.75
349.583	869.75
349.81	861.75
350.037	899.75
350.265	889.75
350.492	870.75
350.72	901.75
350.947	890.75
351.174	933.75
351.402	937.75
351.629	951.75
351.856	909.75
352.083	928.75
352.311	949.75
352.538	967.75
352.765	982.75
352.992	958.75
353.22	912.75
353.447	915.75
353.674	929.75
353.901	863.75
354.128	861.75
354.355	860.75
354.583	894.75
354.81	884.75
355.037	897.75
355.264	848.75
355.491	845.75
355.718	819.75
355.945	855.75
356.172	832.75
356.399	855.75
356.626	823.75
356.853	849.75
357.08	857.75
357.307	878.75
357.534	834.75
357.761	832.75
357.988	868.75
358.215	827.75
358.441	852.75
358.668	846.75
358.895	868.75
359.122	859.75
359.349	854.75
359.576	922.75
359.802	963.75
360.029	1038.75
360.256	1110.75
360.483	1057.75
360.709	965.75
360.936	950.75
361.163	915.75
361.39	912.75
361.616	934.75
361.843	920.75
362.07	927.75
362.296	933.75
362.523	908.75
362.749	869.75
362.976	915.75
363.203	909.75
363.429	853.75
363.656	881.75
363.882	874.75
364.109	881.75
364.335	886.75
364.562	860.75
364.788	850.75
365.015	889.75
365.241	882.75
365.468	903.75
365.694	883.75
365.92	903.75
366.147	868.75
366.373	866.75
366.599	853.75
366.826	864.75
367.052	848.75
367.278	868.75
367.505	857.75
367.731	918.75
367.957	888.75
368.184	887.75
368.41	909.75
368.636	909.75
368.862	930.75
369.089	890.75
369.315	896.75
369.541	901.75
369.767	893.75
369.993	878.75
370.219	888.75
370.445	883.75
370.672	886.75
370.898	871.75
371.124	885.75
371.35	882.75
371.576	908.75
371.802	895.75
372.028	901.75
372.254	894.75
372.48	891.75
372.706	893.75
372.932	917.75
373.158	926.75
373.384	938.75
373.61	927.75
373.835	937.75
374.061	908.75
374.287	921.75
374.513	949.75
374.739	953.75
374.965	965.75
375.191	978.75
375.416	981.75
375.642	955.75
375.868	977.75
376.094	937.75
376.319	917.75
376.545	923.75
376.771	918.75
376.997	925.75
377.222	901.75
377.448	923.75
377.674	909.75
377.899	905.75
378.125	893.75
378.35	901.75
378.576	896.75
378.802	894.75
379.027	924.75
379.253	917.75
379.478	885.75
379.704	884.75
379.929	922.75
380.155	918.75
380.38	962.75
380.606	921.75
380.831	935.75
381.057	973.75
381.282	915.75
381.507	919.75
381.733	953.75
381.958	921.75
382.184	912.75
382.409	942.75
382.634	980.75
382.86	968.75
383.085	998.75
383.31	1017.75
383.535	1001.75
383.761	995.75
383.986	1013.75
384.211	1011.75
384.436	1020.75
384.662	1041.75
384.887	1065.75
385.112	1013.75
385.337	1057.75
385.562	1083.75
385.787	1053.75
386.013	1167.75
386.238	1147.75
386.463	1115.75
386.688	1101.75
386.913	1093.75
387.138	1084.75
387.363	1089.75
387.588	1081.75
387.813	1109.75
388.038	1061.75
388.263	1093.75
388.488	1062.75
388.713	1081.75
388.938	1099.75
389.163	1095.75
389.387	1078.75
389.612	1069.75
389.837	1057.75
390.062	1084.75
390.287	1079.75
390.512	1073.75
390.736	1062.75
390.961	1064.75
391.186	1103.75
391.411	1120.75
391.636	1111.75
391.86	1186.75
392.085	1169.75
392.31	1195.75
392.534	1162.75
392.759	1161.75
392.984	1130.75
393.208	1128.75
393.433	1122.75
393.658	1129.75
393.882	1155.75
394.107	1139.75
394.331	1167.75
394.556	1123.75
394.78	1153.75
395.005	1167.75
395.229	1167.75
395.454	1201.75
395.678	1224.75
395.903	1241.75
396.127	1269.75
396.352	1237.75
396.576	1167.75
396.801	1161.75
397.025	1180.75
397.249	1217.75
397.474	1255.75
397.698	1230.75
397.922	1277.75
398.147	1279.75
398.371	1310.75
398.595	1301.75
398.82	1319.75
399.044	1371.75
399.268	1506.75
399.492	1618.75
399.717	1858.75
399.941	1897.75
400.165	1846.75
400.389	1728.75
400.613	1543.75
400.837	1449.75
401.062	1420.75
401.286	1388.75
401.51	1385.75
401.734	1331.75
401.958	1374.75
402.182	1385.75
402.406	1423.75
402.63	1446.75
402.854	1449.75
403.078	1477.75
403.302	1474.75
403.526	1549.75
403.75	1539.75
403.974	1510.75
404.198	1514.75
404.422	1541.75
404.645	1550.75
404.869	1562.75
405.093	1569.75
405.317	1620.75
405.541	1657.75
405.765	1575.75
405.988	1526.75
406.212	1581.75
406.436	1631.75
406.66	1680.75
406.883	1647.75
407.107	1664.75
407.331	1837.75
407.555	2008.75
407.778	1993.75
408.002	1825.75
408.226	1670.75
408.449	1637.75
408.673	1632.75
408.896	1653.75
409.12	1773.75
409.344	1679.75
409.567	1548.75
409.791	1525.75
410.014	1543.75
410.238	1461.75
410.461	1514.75
410.685	1503.75
410.908	1515.75
411.132	1638.75
411.355	1674.75
411.578	1610.75
411.802	1488.75
412.025	1465.75
412.249	1429.75
412.472	1469.75
412.695	1422.75
412.919	1420.75
413.142	1422.75
413.365	1392.75
413.589	1433.75
413.812	1369.75
414.035	1433.75
414.258	1402.75
414.482	1360.75
414.705	1393.75
414.928	1416.75
415.151	1401.75
415.374	1408.75
415.597	1404.75
415.821	1411.75
416.044	1414.75
416.267	1439.75
416.49	1406.75
416.713	1359.75
416.936	1408.75
417.159	1388.75
417.382	1402.75
417.605	1437.75
417.828	1468.75
418.051	1519.75
418.274	1514.75
418.497	1465.75
418.72	1444.75
418.943	1483.75
419.166	1548.75
419.389	1585.75
419.611	1561.75
419.834	1494.75
420.057	1551.75
420.28	1516.75
420.503	1464.75
420.726	1448.75
420.948	1544.75
421.171	1669.75
421.394	1687.75
421.617	1589.75
421.839	1537.75
422.062	1523.75
422.285	1551.75
422.507	1702.75
422.73	1885.75
422.953	1781.75
423.175	1615.75
423.398	1597.75
423.621	1652.75
423.843	1720.75
424.066	1722.75
424.288	1669.75
424.511	1781.75
424.733	1825.75
424.956	2020.75
425.178	1917.75
425.401	1917.75
425.623	1975.75
425.846	1641.75
426.068	1562.75
426.291	1548.75
426.513	1532.75
426.735	1592.75
426.958	1696.75
427.18	1881.75
427.402	2329.75
427.625	2454.75
427.847	2026.75
428.069	1706.75
428.292	1555.75
428.514	1470.75
428.736	1414.75
428.958	1435.75
429.181	1409.75
429.403	1396.75
429.625	1397.75
429.847	1505.75
430.069	1707.75
430.292	1704.75
430.514	1441.75
430.736	1463.75
430.958	1408.75
431.18	1351.75
431.402	1344.75
431.624	1312.75
431.846	1250.75
432.068	1217.75
432.29	1218.75
432.512	1294.75
432.734	1397.75
432.956	1409.75
433.178	1451.75
433.4	1463.75
433.622	1442.75
433.844	1388.75
434.066	1353.75
434.287	1279.75
434.509	1250.75
434.731	1324.75
434.953	1429.75
435.175	1522.75
435.397	1589.75
435.618	1538.75
435.84	1655.75
436.062	2021.75
436.284	2167.75
436.505	1733.75
436.727	1609.75
436.949	1440.75
437.17	1439.75
437.392	1386.75
437.614	1396.75
437.835	1437.75
438.057	1687.75
438.278	2003.75
438.5	1975.75
438.721	2285.75
438.943	2177.75
439.165	1690.75
439.386	1644.75
439.608	1664.75
439.829	1683.75
440.05	1770.75
440.272	1979.75
440.493	1764.75
440.715	1634.75
440.936	1579.75
441.158	1611.75
441.379	1608.75
441.6	1686.75
441.822	1744.75
442.043	1794.75
442.264	2060.75
442.486	2157.75
442.707	1800.75
442.928	1736.75
443.149	1797.75
443.371	1898.75
443.592	1896.75
443.813	2175.75
444.034	2357.75
444.255	1961.75
444.476	1798.75
444.698	1827.75
444.919	1852.75
445.14	3542.75
445.361	2537.75
445.582	1955.75
445.803	2099.75
446.024	2422.75
446.245	2424.75
446.466	2162.75
446.687	1845.75
446.908	1719.75
447.129	1627.75
447.35	1546.75
447.571	1572.75
447.792	1521.75
448.013	1458.75
448.234	1535.75
448.455	1654.75
448.675	1985.75
448.896	2283.75
449.117	1905.75
449.338	1709.75
449.559	2129.75
449.779	2373.75
450	1870.75
450.221	1596.75
450.442	1449.75
450.662	1417.75
450.883	1475.75
451.104	1531.75
451.324	1444.75
451.545	1376.75
451.766	1270.75
451.986	1287.75
452.207	1278.75
452.428	1273.75
452.648	1260.75
452.869	1270.75
453.089	1266.75
453.31	1252.75
453.53	1223.75
453.751	1155.75
453.971	1175.75
454.192	1226.75
454.412	1191.75
454.633	1167.75
454.853	1216.75
455.073	1219.75
455.294	1316.75
455.514	1531.75
455.734	1445.75
455.955	1223.75
456.175	1137.75
456.395	1092.75
456.616	1082.75
456.836	1091.75
457.056	1061.75
457.276	1086.75
457.497	1099.75
457.717	1101.75
457.937	1100.75
458.157	1111.75
458.377	1123.75
458.598	1158.75
458.818	1325.75
459.038	1590.75
459.258	1594.75
459.478	1296.75
459.698	1217.75
459.918	1254.75
460.138	1283.75
460.358	1338.75
460.578	1370.75
460.798	1368.75
461.018	1429.75
461.238	1435.75
461.458	1372.75
461.678	1366.75
461.898	1406.75
462.118	1376.75
462.338	1417.75
462.558	1494.75
462.777	1501.75
462.997	1587.75
463.217	1662.75
463.437	1637.75
463.657	1552.75
463.876	1485.75
464.096	1494.75
464.316	1496.75
464.536	1541.75
464.755	1550.75
464.975	1523.75
465.195	1669.75
465.414	1797.75
465.634	1551.75
465.854	1365.75
466.073	1361.75
466.293	1329.75
466.512	1306.75
466.732	1294.75
466.951	1329.75
467.171	1353.75
467.391	1353.75
467.61	1380.75
467.829	1405.75
468.049	1339.75
468.268	1299.75
468.488	1291.75
468.707	1289.75
468.927	1298.75
469.146	1306.75
469.365	1340.75
469.585	1359.75
469.804	1399.75
470.023	1466.75
470.243	1481.75
470.462	1469.75
470.681	1517.75
470.901	1476.75
471.12	1443.75
471.339	1436.75
471.558	1443.75
471.777	1406.75
471.997	1322.75
472.216	1259.75
472.435	1190.75
472.654	1149.75
472.873	1161.75
473.092	1187.75
473.311	1219.75
473.53	1227.75
473.749	1309.75
473.968	1379.75
474.187	1669.75
474.406	1661.75
474.625	1380.75
474.844	1333.75
475.063	1275.75
475.282	1240.75
475.501	1219.75
475.72	1294.75
475.939	1300.75
476.158	1293.75
476.377	1258.75
476.596	1237.75
476.814	1227.75
477.033	1229.75
477.252	1271.75
477.471	1301.75
477.69	1374.75
477.908	1459.75
478.127	1503.75
478.346	1482.75
478.564	1464.75
478.783	1509.75
479.002	1568.75
479.22	1562.75
479.439	1564.75
479.658	1559.75
479.876	1506.75
480.095	1475.75
480.313	1661.75
480.532	1613.75
480.751	1526.75
480.969	1455.75
481.188	1437.75
481.406	1371.75
481.624	1307.75
481.843	1283.75
482.061	1295.75
482.28	1341.75
482.498	1346.75
482.717	1306.75
482.935	1403.75
483.153	1522.75
483.372	1575.75
483.59	1559.75
483.808	1475.75
484.027	1426.75
484.245	1438.75
484.463	1530.75
484.681	1600.75
484.9	1527.75
485.118	1513.75
485.336	1499.75
485.554	1427.75
485.772	1369.75
485.99	1413.75
486.209	1457.75
486.427	1435.75
486.645	1547.75
486.863	1693.75
487.081	1698.75
487.299	1594.75
487.517	1656.75
487.735	1797.75
487.953	1910.75
488.171	1894.75
488.389	1766.75
488.607	1717.75
488.825	1591.75
489.043	1531.75
489.261	1584.75
489.479	1617.75
489.696	1686.75
489.914	1673.75
490.132	1717.75
490.35	1799.75
490.568	1867.75
490.786	1944.75
491.003	2035.75
491.221	2099.75
491.439	2164.75
491.657	2255.75
491.874	2357.75
492.092	2413.75
492.31	2565.75
492.527	2425.75
492.745	2334.75
492.963	2277.75
493.18	2267.75
493.398	2280.75
493.615	2195.75
493.833	2161.75
494.05	2219.75
494.268	2131.75
494.485	2141.75
494.703	2147.75
494.92	2165.75
495.138	2137.75
495.355	2146.75
495.573	2133.75
495.79	2129.75
496.008	2164.75
496.225	2166.75
496.442	2105.75
496.66	2172.75
496.877	2025.75
497.094	2097.75
497.312	2099.75
497.529	2071.75
497.746	2039.75
497.963	1962.75
498.181	2050.75
498.398	2015.75
498.615	2048.75
498.832	2130.75
499.049	2183.75
499.267	2293.75
499.484	2497.75
499.701	2653.75
499.918	2886.75
500.135	3139.75
500.352	3425.75
500.569	3515.75
500.786	3513.75
501.003	3370.75
501.22	3127.75
501.437	2960.75
501.654	2775.75
501.871	2628.75
502.088	2467.75
502.305	2314.75
502.522	2233.75
502.739	2125.75
502.956	2034.75
503.172	1963.75
503.389	1846.75
503.606	1829.75
503.823	1870.75
504.04	1834.75
504.256	1834.75
504.473	1795.75
504.69	1873.75
504.907	1921.75
505.123	1766.75
505.34	1704.75
505.557	1715.75
505.773	1752.75
505.99	1693.75
506.207	1657.75
506.423	1665.75
506.64	1645.75
506.856	1601.75
507.073	1625.75
507.289	1596.75
507.506	1588.75
507.722	1612.75
507.939	1643.75
508.155	1602.75
508.372	1525.75
508.588	1453.75
508.805	1463.75
509.021	1463.75
509.238	1515.75
509.454	1533.75
509.67	1445.75
509.887	1403.75
510.103	1337.75
510.319	1390.75
510.536	1636.75
510.752	2701.75
510.968	1957.75
511.184	1281.75
511.401	1266.75
511.617	1261.75
511.833	1267.75
512.049	1250.75
512.265	1254.75
512.481	1271.75
512.698	1256.75
512.914	1307.75
513.13	1276.75
513.346	1242.75
513.562	1285.75
513.778	1317.75
513.994	1298.75
514.21	1341.75
514.426	1383.75
514.642	1510.75
514.858	1555.75
515.074	1621.75
515.29	2045.75
515.506	3134.75
515.721	2325.75
515.937	1598.75
516.153	1467.75
516.369	1421.75
516.585	1398.75
516.801	1341.75
517.016	1461.75
517.232	1488.75
517.448	1548.75
517.664	1541.75
517.879	1554.75
518.095	1567.75
518.311	1536.75
518.527	1492.75
518.742	1474.75
518.958	1461.75
519.173	1447.75
519.389	1458.75
519.605	1429.75
519.82	1404.75
520.036	1439.75
520.251	1454.75
520.467	1530.75
520.682	1460.75
520.898	1452.75
521.113	1430.75
521.329	1569.75
521.544	1788.75
521.76	2374.75
521.975	4261.75
522.19	3798.75
522.406	1947.75
522.621	1501.75
522.836	1396.75
523.052	1331.75
523.267	1273.75
523.482	1242.75
523.698	1293.75
523.913	1313.75
524.128	1301.75
524.343	1286.75
524.559	1304.75
524.774	1283.75
524.989	1295.75
525.204	1282.75
525.419	1260.75
525.634	1231.75
525.849	1186.75
526.064	1142.75
526.28	1144.75
526.495	1066.75
526.71	1039.75
526.925	1020.75
527.14	1010.75
527.355	1016.75
527.57	1069.75
527.785	1057.75
527.999	1084.75
528.214	1114.75
528.429	1171.75
528.644	1242.75
528.859	1300.75
529.074	1397.75
529.289	1492.75
529.503	1686.75
529.718	1509.75
529.933	1283.75
530.148	1146.75
530.363	1098.75
530.577	1036.75
530.792	1014.75
531.007	1009.75
531.221	1003.75
531.436	982.75
531.651	1017.75
531.865	1027.75
532.08	1004.75
532.295	1023.75
532.509	999.75
532.724	1018.75
532.938	1047.75
533.153	1093.75
533.367	1141.75
533.582	1209.75
533.796	1179.75
534.011	1107.75
534.225	1029.75
534.44	1007.75
534.654	1029.75
534.868	1061.75
535.083	1079.75
535.297	1063.75
535.511	1124.75
535.726	1128.75
535.94	1117.75
536.154	1059.75
536.369	998.75
536.583	1005.75
536.797	989.75
537.011	937.75
537.225	932.75
537.44	953.75
537.654	1021.75
537.868	1013.75
538.082	1021.75
538.296	1049.75
538.51	1058.75
538.724	1127.75
538.938	1166.75
539.153	1228.75
539.367	1226.75
539.581	1185.75
539.795	1068.75
540.009	1068.75
540.222	1089.75
540.436	1149.75
540.65	1194.75
540.864	1331.75
541.078	1417.75
541.292	1522.75
541.506	1604.75
541.72	1696.75
541.934	1841.75
542.147	1910.75
542.361	1847.75
542.575	1730.75
542.789	1612.75
543.002	1512.75
543.216	1444.75
543.43	1451.75
543.644	1509.75
543.857	1611.75
544.071	1711.75
544.285	1810.75
544.498	1723.75
544.712	1734.75
544.925	1752.75
545.139	1758.75
545.352	1759.75
545.566	1780.75
545.779	1760.75
545.993	1802.75
546.206	2025.75
546.42	2054.75
546.633	1781.75
546.847	1689.75
547.06	1690.75
547.274	1707.75
547.487	1719.75
547.7	1783.75
547.914	1691.75
548.127	1675.75
548.34	1657.75
548.554	1634.75
548.767	1628.75
548.98	1650.75
549.193	1610.75
549.407	1647.75
549.62	1648.75
549.833	1639.75
550.046	1593.75
550.259	1621.75
550.473	1569.75
550.686	1589.75
550.899	1517.75
551.112	1489.75
551.325	1459.75
551.538	1367.75
551.751	1269.75
551.964	1255.75
552.177	1317.75
552.39	1431.75
552.603	1573.75
552.816	1624.75
553.029	1579.75
553.242	1668.75
553.455	1745.75
553.667	1758.75
553.88	1694.75
554.093	1668.75
554.306	1665.75
554.519	1572.75
554.732	1533.75
554.944	1522.75
555.157	1487.75
555.37	1456.75
555.583	1425.75
555.795	1359.75
556.008	1345.75
556.221	1273.75
556.433	1310.75
556.646	1316.75
556.859	1291.75
557.071	1316.75
557.284	1341.75
557.496	1336.75
557.709	1355.75
557.921	1316.75
558.134	1321.75
558.346	1314.75
558.559	1269.75
558.771	1248.75
558.984	1243.75
559.196	1227.75
559.409	1189.75
559.621	1171.75
559.833	1150.75
560.046	1149.75
560.258	1189.75
560.47	1204.75
560.683	1174.75
560.895	1189.75
561.107	1214.75
561.32	1215.75
561.532	1198.75
561.744	1234.75
561.956	1235.75
562.168	1223.75
562.381	1224.75
562.593	1193.75
562.805	1209.75
563.017	1182.75
563.229	1176.75
563.441	1173.75
563.653	1148.75
563.865	1129.75
564.077	1151.75
564.289	1177.75
564.501	1170.75
564.713	1161.75
564.925	1173.75
565.137	1222.75
565.349	1223.75
565.561	1186.75
565.773	1231.75
565.985	1257.75
566.197	1326.75
566.408	1385.75
566.62	1451.75
566.832	1509.75
567.044	1517.75
567.255	1472.75
567.467	1482.75
567.679	1501.75
567.891	1554.75
568.102	1516.75
568.314	1411.75
568.526	1286.75
568.737	1198.75
568.949	1075.75
569.161	1006.75
569.372	939.75
569.584	920.75
569.795	898.75
570.007	900.75
570.218	967.75
570.43	956.75
570.641	901.75
570.853	925.75
571.064	955.75
571.276	974.75
571.487	986.75
571.698	949.75
571.91	922.75
572.121	891.75
572.333	888.75
572.544	831.75
572.755	805.75
572.966	730.75
573.178	727.75
573.389	719.75
573.6	707.75
573.811	696.75
574.023	702.75
574.234	698.75
574.445	708.75
574.656	740.75
574.867	774.75
575.078	766.75
575.289	754.75
575.501	791.75
575.712	740.75
575.923	723.75
576.134	760.75
576.345	777.75
576.556	783.75
576.767	789.75
576.978	801.75
577.188	854.75
577.399	765.75
577.61	726.75
577.821	719.75
578.032	717.75
578.243	793.75
578.454	1209.75
578.665	873.75
578.875	677.75
579.086	647.75
579.297	706.75
579.508	661.75
579.718	678.75
579.929	667.75
580.14	648.75
580.35	670.75
580.561	705.75
580.772	700.75
580.982	690.75
581.193	691.75
581.403	709.75
581.614	685.75
581.825	703.75
582.035	684.75
582.246	731.75
582.456	693.75
582.667	695.75
582.877	685.75
583.087	668.75
583.298	697.75
583.508	670.75
583.719	657.75
583.929	714.75
584.139	695.75
584.35	646.75
584.56	714.75
584.77	657.75
584.981	649.75
585.191	675.75
585.401	656.75
585.611	660.75
585.821	656.75
586.032	656.75
586.242	610.75
586.452	639.75
586.662	627.75
586.872	637.75
587.082	623.75
587.292	648.75
587.502	686.75
587.713	684.75
587.923	652.75
588.133	651.75
588.343	635.75
588.553	630.75
588.762	665.75
588.972	643.75
589.182	611.75
589.392	602.75
589.602	637.75
589.812	625.75
590.022	669.75
590.232	605.75
590.441	614.75
590.651	627.75
590.861	632.75
591.071	651.75
591.281	648.75
591.49	617.75
591.7	617.75
591.91	669.75
592.119	635.75
592.329	689.75
592.539	759.75
592.748	729.75
592.958	714.75
593.167	746.75
593.377	755.75
593.587	820.75
593.796	752.75
594.006	753.75
594.215	763.75
594.424	775.75
594.634	766.75
594.843	773.75
595.053	744.75
595.262	731.75
595.472	717.75
595.681	685.75
595.89	648.75
596.1	639.75
596.309	707.75
596.518	681.75
596.727	685.75
596.937	700.75
597.146	680.75
597.355	667.75
597.564	634.75
597.774	626.75
597.983	578.75
598.192	567.75
598.401	584.75
598.61	560.75
598.819	590.75
599.028	605.75
599.237	627.75
599.446	606.75
599.655	614.75
599.864	620.75
600.073	602.75
600.282	617.75
600.491	641.75
600.7	614.75
600.909	629.75
601.118	686.75
601.327	721.75
601.536	762.75
601.745	788.75
601.953	803.75
602.162	818.75
602.371	817.75
602.58	816.75
602.789	807.75
602.997	831.75
603.206	805.75
603.415	812.75
603.623	814.75
603.832	839.75
604.041	749.75
604.249	711.75
604.458	653.75
604.666	644.75
604.875	641.75
605.084	694.75
605.292	753.75
605.501	865.75
605.709	878.75
605.918	867.75
606.126	896.75
606.334	897.75
606.543	898.75
606.751	887.75
606.96	856.75
607.168	871.75
607.376	889.75
607.585	895.75
607.793	870.75
608.001	894.75
608.21	894.75
608.418	888.75
608.626	897.75
608.834	899.75
609.043	894.75
609.251	921.75
609.459	913.75
609.667	948.75
609.875	955.75
610.083	967.75
610.291	966.75
610.499	960.75
610.707	1048.75
610.916	1092.75
611.124	1218.75
611.332	1313.75
611.54	1442.75
611.748	1395.75
611.955	1261.75
612.163	1139.75
612.371	1073.75
612.579	1014.75
612.787	991.75
612.995	1039.75
613.203	1030.75
613.411	993.75
613.618	987.75
613.826	963.75
614.034	971.75
614.242	936.75
614.449	989.75
614.657	995.75
614.865	970.75
615.072	995.75
615.28	966.75
615.488	957.75
615.695	972.75
615.903	933.75
616.111	943.75
616.318	1007.75
616.526	938.75
616.733	949.75
616.941	921.75
617.148	940.75
617.356	903.75
617.563	881.75
617.771	870.75
617.978	857.75
618.185	927.75
618.393	924.75
618.6	945.75
618.807	917.75
619.015	933.75
619.222	902.75
619.429	852.75
619.637	825.75
619.844	730.75
620.051	786.75
620.258	845.75
620.466	885.75
620.673	854.75
620.88	834.75
621.087	806.75
621.294	811.75
621.501	765.75
621.708	767.75
621.915	846.75
622.122	824.75
622.329	871.75
622.536	862.75
622.743	843.75
622.95	837.75
623.157	819.75
623.364	843.75
623.571	837.75
623.778	841.75
623.985	857.75
624.192	842.75
624.399	825.75
624.606	855.75
624.812	779.75
625.019	744.75
625.226	745.75
625.433	742.75
625.639	676.75
625.846	633.75
626.053	575.75
626.259	553.75
626.466	566.75
626.673	541.75
626.879	533.75
627.086	593.75
627.293	654.75
627.499	705.75
627.706	747.75
627.912	766.75
628.119	789.75
628.325	807.75
628.532	754.75
628.738	735.75
628.945	693.75
629.151	724.75
629.357	671.75
629.564	694.75
629.77	694.75
629.976	668.75
630.183	631.75
630.389	625.75
630.595	663.75
630.802	718.75
631.008	713.75
631.214	701.75
631.42	701.75
631.627	701.75
631.833	628.75
632.039	631.75
632.245	650.75
632.451	683.75
632.657	637.75
632.863	659.75
633.069	640.75
633.275	651.75
633.481	613.75
633.688	621.75
633.893	644.75
634.099	633.75
634.305	603.75
634.511	567.75
634.717	558.75
634.923	518.75
635.129	525.75
635.335	508.75
635.541	537.75
635.747	545.75
635.952	575.75
636.158	600.75
636.364	647.75
636.57	633.75
636.775	621.75
636.981	604.75
637.187	623.75
637.392	628.75
637.598	649.75
637.804	661.75
638.009	609.75
638.215	614.75
638.421	618.75
638.626	587.75
638.832	601.75
639.037	597.75
639.243	564.75
639.448	583.75
639.654	606.75
639.859	571.75
640.065	553.75
640.27	643.75
640.475	577.75
640.681	573.75
640.886	612.75
641.091	599.75
641.297	641.75
641.502	589.75
641.707	625.75
641.913	595.75
642.118	580.75
642.323	594.75
642.528	636.75
642.733	603.75
642.939	607.75
643.144	578.75
643.349	555.75
643.554	598.75
643.759	567.75
643.964	574.75
644.169	572.75
644.374	554.75
644.579	574.75
644.784	554.75
644.989	574.75
645.194	535.75
645.399	599.75
645.604	586.75
645.809	578.75
646.014	554.75
646.219	573.75
646.423	570.75
646.628	564.75
646.833	574.75
647.038	591.75
647.243	571.75
647.447	592.75
647.652	581.75
647.857	575.75
648.062	592.75
648.266	582.75
648.471	583.75
648.676	598.75
648.88	583.75
649.085	569.75
649.289	571.75
649.494	586.75
649.698	646.75
649.903	602.75
650.107	567.75
650.312	567.75
650.516	551.75
650.721	545.75
650.925	526.75
651.13	513.75
651.334	497.75
651.539	481.75
651.743	478.75
651.947	505.75
652.152	509.75
652.356	472.75
652.56	463.75
652.764	443.75
652.969	426.75
653.173	435.75
653.377	405.75
653.581	406.75
653.785	437.75
653.99	413.75
654.194	405.75
654.398	390.75
654.602	390.75
654.806	358.75
655.01	405.75
655.214	385.75
655.418	374.75
655.622	375.75
655.826	379.75
656.03	382.75
656.234	374.75
656.438	378.75
656.642	376.75
656.846	375.75
657.049	335.75
657.253	345.75
657.457	293.75
657.661	314.75
657.865	284.75
658.068	267.75
658.272	246.75
658.476	247.75
658.68	240.75
658.883	229.75
659.087	225.75
659.291	221.75
659.494	206.75
659.698	214.75
659.901	198.75
660.105	202.75
660.309	192.75
660.512	181.75
660.716	182.75
660.919	166.75
661.123	189.75
661.326	155.75
661.53	153.75
661.733	173.75
661.936	163.75
662.14	129.75
662.343	144.75
662.546	137.75
662.75	140.75
662.953	154.75
663.156	121.75
663.36	116.75
663.563	130.75
663.766	110.75
663.969	111.75
664.173	106.75
664.376	101.75
664.579	118.75
664.782	102.75
664.985	119.75
665.188	122.75
665.391	129.75
665.594	97.75
665.797	108.75
666	98.75
666.203	109.75
666.406	91.75
666.609	102.75
666.812	110.75
667.015	119.75
667.218	127.75
667.421	103.75
667.624	101.75
667.827	120.75
668.03	113.75
668.232	100.75
668.435	123.75
668.638	116.75
668.841	122.75
669.043	96.75
669.246	115.75
669.449	100.75
669.651	113.75
669.854	89.75
670.057	93.75
670.259	108.75
670.462	105.75
670.665	107.75
670.867	129.75
671.07	117.75
671.272	139.75
671.475	140.75
671.677	117.75
671.88	109.75
672.082	98.75
672.284	128.75
672.487	127.75
672.689	106.75
672.892	116.75
