Data from FlinnAP9092KCOPPER.07152019.QSWITCH.EN10.P1_HRD10591_14-47-57-674.txt Node
Date: Mon Jul 15 14:47:57 EDT 2019
User: cochatt
Spectrometer: HR+D1059
Trigger mode: 3
Integration Time (sec): 1.000000E-1
Scans to average: 1
Electric dark correction enabled: true
Nonlinearity correction enabled: false
Boxcar width: 0
XAxis mode: Wavelengths
Number of Pixels in Spectrum: 2048
>>>>>Begin Spectral Data<<<<<
223.165	-7.94
223.4	-7.94
223.635	-7.94
223.869	-21.94
224.104	-7.94
224.338	-11.94
224.573	-8.94
224.808	-5.94
225.042	-11.94
225.277	-5.94
225.511	-3.94
225.746	-2.94
225.98	2.06
226.215	4.06
226.449	10.06
226.683	23.06
226.918	15.06
227.152	35.06
227.387	41.06
227.621	45.06
227.856	36.06
228.09	36.06
228.324	34.06
228.559	51.06
228.793	51.06
229.027	51.06
229.262	67.06
229.496	74.06
229.73	76.06
229.964	85.06
230.199	90.06
230.433	84.06
230.667	81.06
230.901	87.06
231.136	87.06
231.37	67.06
231.604	81.06
231.838	75.06
232.072	82.06
232.306	72.06
232.541	91.06
232.775	82.06
233.009	94.06
233.243	93.06
233.477	85.06
233.711	94.06
233.945	84.06
234.179	85.06
234.413	91.06
234.647	94.06
234.881	76.06
235.115	83.06
235.349	95.06
235.583	90.06
235.817	75.06
236.051	75.06
236.285	64.06
236.519	90.06
236.753	76.06
236.987	87.06
237.221	81.06
237.455	87.06
237.689	89.06
237.922	72.06
238.156	86.06
238.39	84.06
238.624	75.06
238.858	85.06
239.091	74.06
239.325	76.06
239.559	82.06
239.793	73.06
240.027	65.06
240.26	80.06
240.494	72.06
240.728	91.06
240.961	72.06
241.195	78.06
241.429	84.06
241.662	85.06
241.896	61.06
242.13	80.06
242.363	77.06
242.597	74.06
242.83	88.06
243.064	77.06
243.298	93.06
243.531	94.06
243.765	75.06
243.998	91.06
244.232	74.06
244.465	94.06
244.699	82.06
244.932	82.06
245.166	77.06
245.399	90.06
245.633	73.06
245.866	84.06
246.099	82.06
246.333	92.06
246.566	89.06
246.8	79.06
247.033	68.06
247.266	86.06
247.5	93.06
247.733	73.06
247.966	91.06
248.2	85.06
248.433	71.06
248.666	76.06
248.899	84.06
249.133	89.06
249.366	88.06
249.599	91.06
249.832	73.06
250.066	87.06
250.299	59.06
250.532	90.06
250.765	83.06
250.998	96.06
251.231	83.06
251.465	92.06
251.698	79.06
251.931	83.06
252.164	73.06
252.397	75.06
252.63	84.06
252.863	80.06
253.096	75.06
253.329	96.06
253.562	75.06
253.795	83.06
254.028	82.06
254.261	70.06
254.494	83.06
254.727	94.06
254.96	94.06
255.193	98.06
255.426	75.06
255.659	97.06
255.892	99.06
256.124	79.06
256.357	73.06
256.59	77.06
256.823	69.06
257.056	84.06
257.289	85.06
257.521	81.06
257.754	80.06
257.987	75.06
258.22	101.06
258.452	88.06
258.685	75.06
258.918	79.06
259.151	71.06
259.383	82.06
259.616	71.06
259.849	88.06
260.081	74.06
260.314	79.06
260.547	84.06
260.779	75.06
261.012	76.06
261.244	69.06
261.477	105.06
261.71	84.06
261.942	84.06
262.175	97.06
262.407	103.06
262.64	83.06
262.872	74.06
263.105	93.06
263.337	88.06
263.57	77.06
263.802	79.06
264.035	84.06
264.267	80.06
264.499	92.06
264.732	90.06
264.964	87.06
265.197	77.06
265.429	90.06
265.661	91.06
265.894	74.06
266.126	76.06
266.358	106.06
266.591	82.06
266.823	76.06
267.055	83.06
267.287	91.06
267.52	74.06
267.752	95.06
267.984	90.06
268.216	87.06
268.448	96.06
268.681	91.06
268.913	84.06
269.145	87.06
269.377	82.06
269.609	79.06
269.841	90.06
270.073	89.06
270.306	76.06
270.538	101.06
270.77	84.06
271.002	75.06
271.234	86.06
271.466	77.06
271.698	73.06
271.93	82.06
272.162	81.06
272.394	80.06
272.626	95.06
272.858	97.06
273.09	95.06
273.322	81.06
273.553	90.06
273.785	88.06
274.017	76.06
274.249	90.06
274.481	67.06
274.713	79.06
274.945	89.06
275.176	86.06
275.408	95.06
275.64	96.06
275.872	96.06
276.104	111.06
276.335	87.06
276.567	81.06
276.799	106.06
277.031	88.06
277.262	89.06
277.494	85.06
277.726	85.06
277.957	100.06
278.189	82.06
278.421	74.06
278.652	88.06
278.884	87.06
279.115	103.06
279.347	87.06
279.579	89.06
279.81	72.06
280.042	81.06
280.273	98.06
280.505	91.06
280.736	86.06
280.968	79.06
281.199	91.06
281.431	87.06
281.662	82.06
281.894	97.06
282.125	86.06
282.356	98.06
282.588	111.06
282.819	104.06
283.051	95.06
283.282	95.06
283.513	97.06
283.745	84.06
283.976	75.06
284.207	96.06
284.439	91.06
284.67	85.06
284.901	88.06
285.132	86.06
285.364	90.06
285.595	96.06
285.826	80.06
286.057	98.06
286.288	84.06
286.52	94.06
286.751	93.06
286.982	92.06
287.213	84.06
287.444	81.06
287.675	78.06
287.906	89.06
288.138	101.06
288.369	95.06
288.6	92.06
288.831	107.06
289.062	87.06
289.293	90.06
289.524	81.06
289.755	66.06
289.986	86.06
290.217	93.06
290.448	79.06
290.679	80.06
290.91	89.06
291.141	89.06
291.371	81.06
291.602	99.06
291.833	89.06
292.064	94.06
292.295	91.06
292.526	87.06
292.757	81.06
292.987	75.06
293.218	83.06
293.449	105.06
293.68	94.06
293.91	87.06
294.141	81.06
294.372	81.06
294.603	82.06
294.833	98.06
295.064	77.06
295.295	79.06
295.525	88.06
295.756	87.06
295.987	97.06
296.217	110.06
296.448	105.06
296.679	111.06
296.909	95.06
297.14	89.06
297.37	95.06
297.601	89.06
297.831	99.06
298.062	87.06
298.292	84.06
298.523	81.06
298.753	88.06
298.984	98.06
299.214	99.06
299.445	92.06
299.675	86.06
299.905	93.06
300.136	99.06
300.366	87.06
300.597	95.06
300.827	92.06
301.057	88.06
301.288	100.06
301.518	86.06
301.748	101.06
301.979	84.06
302.209	97.06
302.439	93.06
302.669	94.06
302.9	83.06
303.13	87.06
303.36	87.06
303.59	97.06
303.82	112.06
304.051	83.06
304.281	89.06
304.511	82.06
304.741	73.06
304.971	76.06
305.201	95.06
305.431	100.06
305.661	101.06
305.891	97.06
306.121	100.06
306.352	91.06
306.582	81.06
306.812	91.06
307.042	95.06
307.272	93.06
307.502	85.06
307.731	84.06
307.961	85.06
308.191	78.06
308.421	87.06
308.651	77.06
308.881	76.06
309.111	111.06
309.341	88.06
309.571	90.06
309.8	101.06
310.03	94.06
310.26	87.06
310.49	99.06
310.72	81.06
310.949	111.06
311.179	104.06
311.409	92.06
311.639	91.06
311.868	93.06
312.098	97.06
312.328	91.06
312.557	104.06
312.787	98.06
313.017	100.06
313.246	105.06
313.476	74.06
313.706	86.06
313.935	91.06
314.165	73.06
314.394	98.06
314.624	106.06
314.853	89.06
315.083	97.06
315.312	89.06
315.542	88.06
315.771	78.06
316.001	88.06
316.23	92.06
316.46	83.06
316.689	87.06
316.919	89.06
317.148	98.06
317.377	83.06
317.607	79.06
317.836	100.06
318.065	79.06
318.295	82.06
318.524	93.06
318.753	87.06
318.983	88.06
319.212	83.06
319.441	105.06
319.67	92.06
319.9	93.06
320.129	91.06
320.358	91.06
320.587	96.06
320.816	97.06
321.046	105.06
321.275	98.06
321.504	93.06
321.733	89.06
321.962	97.06
322.191	98.06
322.42	84.06
322.649	102.06
322.878	114.06
323.108	114.06
323.337	112.06
323.566	101.06
323.795	116.06
324.024	123.06
324.253	167.06
324.482	308.06
324.71	569.06
324.939	947.06
325.168	728.06
325.397	227.06
325.626	128.06
325.855	101.06
326.084	119.06
326.313	105.06
326.542	108.06
326.77	136.06
326.999	185.06
327.228	319.06
327.457	565.06
327.686	743.06
327.914	352.06
328.143	161.06
328.372	126.06
328.6	113.06
328.829	109.06
329.058	123.06
329.287	125.06
329.515	107.06
329.744	97.06
329.972	87.06
330.201	89.06
330.43	98.06
330.658	108.06
330.887	131.06
331.115	135.06
331.344	104.06
331.572	96.06
331.801	95.06
332.03	105.06
332.258	94.06
332.486	88.06
332.715	99.06
332.943	96.06
333.172	89.06
333.4	98.06
333.629	103.06
333.857	93.06
334.085	102.06
334.314	94.06
334.542	93.06
334.771	87.06
334.999	85.06
335.227	100.06
335.455	101.06
335.684	89.06
335.912	88.06
336.14	88.06
336.369	99.06
336.597	99.06
336.825	95.06
337.053	100.06
337.281	99.06
337.51	73.06
337.738	106.06
337.966	95.06
338.194	93.06
338.422	96.06
338.65	92.06
338.878	84.06
339.106	73.06
339.334	104.06
339.562	92.06
339.79	94.06
340.018	111.06
340.246	92.06
340.474	95.06
340.702	98.06
340.93	91.06
341.158	84.06
341.386	87.06
341.614	102.06
341.842	109.06
342.07	91.06
342.298	83.06
342.526	87.06
342.754	83.06
342.981	65.06
343.209	80.06
343.437	100.06
343.665	95.06
343.893	84.06
344.12	89.06
344.348	79.06
344.576	76.06
344.804	86.06
345.031	101.06
345.259	111.06
345.487	108.06
345.714	96.06
345.942	84.06
346.17	86.06
346.397	94.06
346.625	96.06
346.853	88.06
347.08	91.06
347.308	95.06
347.535	100.06
347.763	103.06
347.99	91.06
348.218	94.06
348.445	98.06
348.673	101.06
348.9	93.06
349.128	101.06
349.355	97.06
349.583	92.06
349.81	92.06
350.037	79.06
350.265	85.06
350.492	84.06
350.72	81.06
350.947	92.06
351.174	99.06
351.402	100.06
351.629	109.06
351.856	105.06
352.083	91.06
352.311	95.06
352.538	92.06
352.765	84.06
352.992	99.06
353.22	97.06
353.447	99.06
353.674	87.06
353.901	99.06
354.128	85.06
354.355	68.06
354.583	78.06
354.81	87.06
355.037	99.06
355.264	86.06
355.491	88.06
355.718	87.06
355.945	90.06
356.172	80.06
356.399	86.06
356.626	83.06
356.853	91.06
357.08	93.06
357.307	89.06
357.534	85.06
357.761	95.06
357.988	84.06
358.215	85.06
358.441	85.06
358.668	89.06
358.895	84.06
359.122	91.06
359.349	85.06
359.576	107.06
359.802	103.06
360.029	96.06
360.256	105.06
360.483	108.06
360.709	81.06
360.936	90.06
361.163	85.06
361.39	91.06
361.616	93.06
361.843	81.06
362.07	95.06
362.296	93.06
362.523	108.06
362.749	85.06
362.976	84.06
363.203	101.06
363.429	93.06
363.656	99.06
363.882	92.06
364.109	79.06
364.335	91.06
364.562	87.06
364.788	93.06
365.015	90.06
365.241	87.06
365.468	94.06
365.694	100.06
365.92	94.06
366.147	88.06
366.373	101.06
366.599	94.06
366.826	87.06
367.052	84.06
367.278	87.06
367.505	94.06
367.731	79.06
367.957	91.06
368.184	94.06
368.41	88.06
368.636	109.06
368.862	108.06
369.089	102.06
369.315	82.06
369.541	94.06
369.767	93.06
369.993	90.06
370.219	95.06
370.445	89.06
370.672	91.06
370.898	84.06
371.124	87.06
371.35	73.06
371.576	96.06
371.802	82.06
372.028	95.06
372.254	94.06
372.48	108.06
372.706	93.06
372.932	83.06
373.158	77.06
373.384	85.06
373.61	92.06
373.835	90.06
374.061	76.06
374.287	90.06
374.513	92.06
374.739	95.06
374.965	82.06
375.191	82.06
375.416	104.06
375.642	93.06
375.868	83.06
376.094	95.06
376.319	84.06
376.545	88.06
376.771	95.06
376.997	88.06
377.222	91.06
377.448	89.06
377.674	89.06
377.899	107.06
378.125	93.06
378.35	96.06
378.576	85.06
378.802	73.06
379.027	84.06
379.253	87.06
379.478	71.06
379.704	87.06
379.929	80.06
380.155	95.06
380.38	98.06
380.606	94.06
380.831	96.06
381.057	101.06
381.282	87.06
381.507	71.06
381.733	92.06
381.958	85.06
382.184	79.06
382.409	84.06
382.634	94.06
382.86	91.06
383.085	93.06
383.31	95.06
383.535	102.06
383.761	99.06
383.986	88.06
384.211	90.06
384.436	88.06
384.662	87.06
384.887	87.06
385.112	85.06
385.337	81.06
385.562	91.06
385.787	90.06
386.013	95.06
386.238	106.06
386.463	93.06
386.688	90.06
386.913	94.06
387.138	84.06
387.363	98.06
387.588	92.06
387.813	91.06
388.038	103.06
388.263	88.06
388.488	84.06
388.713	84.06
388.938	88.06
389.163	104.06
389.387	83.06
389.612	91.06
389.837	92.06
390.062	95.06
390.287	89.06
390.512	102.06
390.736	86.06
390.961	86.06
391.186	83.06
391.411	89.06
391.636	85.06
391.86	92.06
392.085	90.06
392.31	87.06
392.534	87.06
392.759	86.06
392.984	87.06
393.208	86.06
393.433	95.06
393.658	90.06
393.882	85.06
394.107	77.06
394.331	102.06
394.556	72.06
394.78	88.06
395.005	90.06
395.229	87.06
395.454	95.06
395.678	83.06
395.903	99.06
396.127	88.06
396.352	87.06
396.576	85.06
396.801	90.06
397.025	101.06
397.249	89.06
397.474	97.06
397.698	88.06
397.922	84.06
398.147	94.06
398.371	98.06
398.595	95.06
398.82	103.06
399.044	90.06
399.268	91.06
399.492	94.06
399.717	88.06
399.941	100.06
400.165	116.06
400.389	97.06
400.613	100.06
400.837	97.06
401.062	109.06
401.286	71.06
401.51	99.06
401.734	91.06
401.958	89.06
402.182	105.06
402.406	117.06
402.63	123.06
402.854	108.06
403.078	102.06
403.302	90.06
403.526	100.06
403.75	104.06
403.974	99.06
404.198	81.06
404.422	90.06
404.645	91.06
404.869	95.06
405.093	78.06
405.317	102.06
405.541	116.06
405.765	93.06
405.988	117.06
406.212	135.06
406.436	153.06
406.66	155.06
406.883	114.06
407.107	94.06
407.331	98.06
407.555	101.06
407.778	92.06
408.002	95.06
408.226	86.06
408.449	100.06
408.673	96.06
408.896	99.06
409.12	113.06
409.344	110.06
409.567	94.06
409.791	106.06
410.014	105.06
410.238	94.06
410.461	106.06
410.685	95.06
410.908	102.06
411.132	106.06
411.355	106.06
411.578	117.06
411.802	89.06
412.025	92.06
412.249	79.06
412.472	95.06
412.695	99.06
412.919	97.06
413.142	93.06
413.365	86.06
413.589	90.06
413.812	84.06
414.035	102.06
414.258	99.06
414.482	93.06
414.705	83.06
414.928	111.06
415.151	89.06
415.374	96.06
415.597	100.06
415.821	104.06
416.044	105.06
416.267	93.06
416.49	87.06
416.713	95.06
416.936	91.06
417.159	93.06
417.382	101.06
417.605	106.06
417.828	101.06
418.051	107.06
418.274	100.06
418.497	112.06
418.72	89.06
418.943	100.06
419.166	97.06
419.389	94.06
419.611	105.06
419.834	100.06
420.057	85.06
420.28	99.06
420.503	100.06
420.726	105.06
420.948	86.06
421.171	90.06
421.394	88.06
421.617	105.06
421.839	103.06
422.062	87.06
422.285	97.06
422.507	95.06
422.73	110.06
422.953	109.06
423.175	85.06
423.398	90.06
423.621	97.06
423.843	103.06
424.066	100.06
424.288	97.06
424.511	108.06
424.733	104.06
424.956	112.06
425.178	95.06
425.401	107.06
425.623	134.06
425.846	104.06
426.068	96.06
426.291	105.06
426.513	95.06
426.735	87.06
426.958	105.06
427.18	108.06
427.402	136.06
427.625	167.06
427.847	140.06
428.069	110.06
428.292	106.06
428.514	105.06
428.736	99.06
428.958	79.06
429.181	84.06
429.403	107.06
429.625	91.06
429.847	97.06
430.069	101.06
430.292	108.06
430.514	103.06
430.736	100.06
430.958	93.06
431.18	87.06
431.402	100.06
431.624	90.06
431.846	84.06
432.068	98.06
432.29	94.06
432.512	93.06
432.734	97.06
432.956	87.06
433.178	96.06
433.4	114.06
433.622	111.06
433.844	86.06
434.066	89.06
434.287	101.06
434.509	82.06
434.731	89.06
434.953	75.06
435.175	95.06
435.397	99.06
435.618	99.06
435.84	107.06
436.062	136.06
436.284	147.06
436.505	113.06
436.727	97.06
436.949	120.06
437.17	93.06
437.392	92.06
437.614	107.06
437.835	102.06
438.057	128.06
438.278	132.06
438.5	108.06
438.721	128.06
438.943	129.06
439.165	103.06
439.386	104.06
439.608	106.06
439.829	119.06
440.05	130.06
440.272	146.06
440.493	130.06
440.715	108.06
440.936	115.06
441.158	98.06
441.379	108.06
441.6	99.06
441.822	117.06
442.043	121.06
442.264	119.06
442.486	120.06
442.707	109.06
442.928	121.06
443.149	123.06
443.371	143.06
443.592	125.06
443.813	133.06
444.034	119.06
444.255	100.06
444.476	114.06
444.698	100.06
444.919	103.06
445.14	271.06
445.361	193.06
445.582	111.06
445.803	137.06
446.024	131.06
446.245	129.06
446.466	141.06
446.687	100.06
446.908	95.06
447.129	118.06
447.35	108.06
447.571	108.06
447.792	104.06
448.013	107.06
448.234	123.06
448.455	112.06
448.675	127.06
448.896	128.06
449.117	117.06
449.338	113.06
449.559	117.06
449.779	122.06
450	119.06
450.221	116.06
450.442	119.06
450.662	105.06
450.883	131.06
451.104	115.06
451.324	122.06
451.545	104.06
451.766	100.06
451.986	104.06
452.207	95.06
452.428	105.06
452.648	108.06
452.869	127.06
453.089	113.06
453.31	115.06
453.53	110.06
453.751	90.06
453.971	100.06
454.192	110.06
454.412	99.06
454.633	88.06
454.853	95.06
455.073	105.06
455.294	105.06
455.514	113.06
455.734	101.06
455.955	97.06
456.175	85.06
456.395	107.06
456.616	95.06
456.836	78.06
457.056	100.06
457.276	85.06
457.497	79.06
457.717	95.06
457.937	97.06
458.157	102.06
458.377	87.06
458.598	105.06
458.818	123.06
459.038	155.06
459.258	123.06
459.478	86.06
459.698	78.06
459.918	94.06
460.138	84.06
460.358	82.06
460.578	96.06
460.798	103.06
461.018	73.06
461.238	87.06
461.458	95.06
461.678	82.06
461.898	96.06
462.118	94.06
462.338	85.06
462.558	100.06
462.777	104.06
462.997	105.06
463.217	102.06
463.437	87.06
463.657	92.06
463.876	93.06
464.096	93.06
464.316	84.06
464.536	110.06
464.755	111.06
464.975	109.06
465.195	153.06
465.414	177.06
465.634	106.06
465.854	91.06
466.073	91.06
466.293	89.06
466.512	100.06
466.732	112.06
466.951	108.06
467.171	103.06
467.391	108.06
467.61	121.06
467.829	129.06
468.049	117.06
468.268	95.06
468.488	96.06
468.707	100.06
468.927	99.06
469.146	114.06
469.365	101.06
469.585	102.06
469.804	123.06
470.023	119.06
470.243	114.06
470.462	102.06
470.681	119.06
470.901	100.06
471.12	119.06
471.339	105.06
471.558	108.06
471.777	127.06
471.997	104.06
472.216	100.06
472.435	97.06
472.654	91.06
472.873	111.06
473.092	103.06
473.311	100.06
473.53	100.06
473.749	124.06
473.968	109.06
474.187	112.06
474.406	113.06
474.625	108.06
474.844	105.06
475.063	115.06
475.282	95.06
475.501	100.06
475.72	106.06
475.939	110.06
476.158	114.06
476.377	98.06
476.596	88.06
476.814	84.06
477.033	108.06
477.252	95.06
477.471	103.06
477.69	96.06
477.908	103.06
478.127	116.06
478.346	116.06
478.564	117.06
478.783	110.06
479.002	115.06
479.22	103.06
479.439	113.06
479.658	103.06
479.876	105.06
480.095	105.06
480.313	101.06
480.532	111.06
480.751	96.06
480.969	67.06
481.188	89.06
481.406	96.06
481.624	89.06
481.843	83.06
482.061	100.06
482.28	84.06
482.498	89.06
482.717	105.06
482.935	110.06
483.153	92.06
483.372	105.06
483.59	119.06
483.808	98.06
484.027	109.06
484.245	98.06
484.463	107.06
484.681	110.06
484.9	92.06
485.118	114.06
485.336	95.06
485.554	103.06
485.772	89.06
485.99	94.06
486.209	113.06
486.427	100.06
486.645	101.06
486.863	122.06
487.081	121.06
487.299	107.06
487.517	105.06
487.735	119.06
487.953	120.06
488.171	122.06
488.389	116.06
488.607	109.06
488.825	110.06
489.043	109.06
489.261	96.06
489.479	99.06
489.696	109.06
489.914	111.06
490.132	107.06
490.35	128.06
490.568	125.06
490.786	114.06
491.003	119.06
491.221	135.06
491.439	123.06
491.657	143.06
491.874	137.06
492.092	172.06
492.31	155.06
492.527	147.06
492.745	137.06
492.963	141.06
493.18	133.06
493.398	139.06
493.615	153.06
493.833	146.06
494.05	123.06
494.268	124.06
494.485	130.06
494.703	136.06
494.92	131.06
495.138	133.06
495.355	157.06
495.573	137.06
495.79	114.06
496.008	120.06
496.225	137.06
496.442	130.06
496.66	129.06
496.877	133.06
497.094	141.06
497.312	118.06
497.529	104.06
497.746	118.06
497.963	108.06
498.181	105.06
498.398	108.06
498.615	113.06
498.832	99.06
499.049	101.06
499.267	98.06
499.484	84.06
499.701	112.06
499.918	97.06
500.135	107.06
500.352	102.06
500.569	113.06
500.786	105.06
501.003	115.06
501.22	104.06
501.437	104.06
501.654	125.06
501.871	112.06
502.088	105.06
502.305	120.06
502.522	104.06
502.739	111.06
502.956	98.06
503.172	107.06
503.389	100.06
503.606	111.06
503.823	104.06
504.04	104.06
504.256	93.06
504.473	86.06
504.69	99.06
504.907	108.06
505.123	86.06
505.34	108.06
505.557	110.06
505.773	105.06
505.99	97.06
506.207	99.06
506.423	99.06
506.64	113.06
506.856	110.06
507.073	92.06
507.289	101.06
507.506	118.06
507.722	120.06
507.939	103.06
508.155	120.06
508.372	111.06
508.588	103.06
508.805	90.06
509.021	97.06
509.238	95.06
509.454	95.06
509.67	81.06
509.887	101.06
510.103	104.06
510.319	132.06
510.536	247.06
510.752	871.06
510.968	427.06
511.184	131.06
511.401	119.06
511.617	93.06
511.833	95.06
512.049	95.06
512.265	76.06
512.481	101.06
512.698	84.06
512.914	90.06
513.13	92.06
513.346	94.06
513.562	88.06
513.778	92.06
513.994	82.06
514.21	102.06
514.426	112.06
514.642	125.06
514.858	109.06
515.074	138.06
515.29	266.06
515.506	801.06
515.721	494.06
515.937	159.06
516.153	113.06
516.369	92.06
516.585	92.06
516.801	95.06
517.016	98.06
517.232	87.06
517.448	108.06
517.664	99.06
517.879	97.06
518.095	95.06
518.311	95.06
518.527	100.06
518.742	95.06
518.958	88.06
519.173	99.06
519.389	108.06
519.605	98.06
519.82	84.06
520.036	108.06
520.251	111.06
520.467	112.06
520.682	88.06
520.898	100.06
521.113	94.06
521.329	119.06
521.544	160.06
521.76	318.06
521.975	1181.06
522.19	1114.06
522.406	286.06
522.621	120.06
522.836	109.06
523.052	112.06
523.267	117.06
523.482	121.06
523.698	107.06
523.913	131.06
524.128	126.06
524.343	106.06
524.559	99.06
524.774	103.06
524.989	112.06
525.204	117.06
525.419	108.06
525.634	82.06
525.849	96.06
526.064	97.06
526.28	87.06
526.495	76.06
526.71	92.06
526.925	80.06
527.14	90.06
527.355	82.06
527.57	97.06
527.785	98.06
527.999	87.06
528.214	95.06
528.429	98.06
528.644	84.06
528.859	104.06
529.074	103.06
529.289	127.06
529.503	179.06
529.718	114.06
529.933	96.06
530.148	79.06
530.363	91.06
530.577	94.06
530.792	83.06
531.007	89.06
531.221	80.06
531.436	83.06
531.651	90.06
531.865	79.06
532.08	95.06
532.295	88.06
532.509	85.06
532.724	97.06
532.938	96.06
533.153	119.06
533.367	92.06
533.582	79.06
533.796	105.06
534.011	89.06
534.225	92.06
534.44	85.06
534.654	98.06
534.868	78.06
535.083	103.06
535.297	108.06
535.511	109.06
535.726	116.06
535.94	101.06
536.154	91.06
536.369	104.06
536.583	107.06
536.797	103.06
537.011	96.06
537.225	98.06
537.44	93.06
537.654	93.06
537.868	89.06
538.082	91.06
538.296	103.06
538.51	102.06
538.724	104.06
538.938	114.06
539.153	124.06
539.367	115.06
539.581	110.06
539.795	109.06
540.009	90.06
540.222	110.06
540.436	110.06
540.65	103.06
540.864	129.06
541.078	109.06
541.292	114.06
541.506	135.06
541.72	131.06
541.934	122.06
542.147	152.06
542.361	133.06
542.575	144.06
542.789	134.06
543.002	141.06
543.216	138.06
543.43	131.06
543.644	145.06
543.857	132.06
544.071	132.06
544.285	163.06
544.498	155.06
544.712	166.06
544.925	148.06
545.139	153.06
545.352	166.06
545.566	150.06
545.779	163.06
545.993	143.06
546.206	161.06
546.42	196.06
546.633	148.06
546.847	162.06
547.06	149.06
547.274	159.06
547.487	143.06
547.7	145.06
547.914	145.06
548.127	143.06
548.34	171.06
548.554	148.06
548.767	153.06
548.98	147.06
549.193	138.06
549.407	144.06
549.62	155.06
549.833	155.06
550.046	154.06
550.259	144.06
550.473	151.06
550.686	139.06
550.899	140.06
551.112	143.06
551.325	138.06
551.538	146.06
551.751	125.06
551.964	107.06
552.177	128.06
552.39	118.06
552.603	141.06
552.816	148.06
553.029	148.06
553.242	155.06
553.455	148.06
553.667	149.06
553.88	145.06
554.093	138.06
554.306	147.06
554.519	159.06
554.732	138.06
554.944	143.06
555.157	135.06
555.37	143.06
555.583	137.06
555.795	144.06
556.008	123.06
556.221	136.06
556.433	139.06
556.646	131.06
556.859	140.06
557.071	138.06
557.284	127.06
557.496	127.06
557.709	153.06
557.921	126.06
558.134	129.06
558.346	129.06
558.559	126.06
558.771	149.06
558.984	126.06
559.196	114.06
559.409	130.06
559.621	139.06
559.833	132.06
560.046	117.06
560.258	129.06
560.47	137.06
560.683	130.06
560.895	116.06
561.107	134.06
561.32	116.06
561.532	127.06
561.744	120.06
561.956	119.06
562.168	117.06
562.381	123.06
562.593	123.06
562.805	129.06
563.017	122.06
563.229	109.06
563.441	124.06
563.653	124.06
563.865	108.06
564.077	129.06
564.289	111.06
564.501	118.06
564.713	131.06
564.925	123.06
565.137	129.06
565.349	122.06
565.561	110.06
565.773	120.06
565.985	115.06
566.197	109.06
566.408	110.06
566.62	118.06
566.832	123.06
567.044	112.06
567.255	111.06
567.467	108.06
567.679	98.06
567.891	90.06
568.102	79.06
568.314	100.06
568.526	83.06
568.737	83.06
568.949	94.06
569.161	90.06
569.372	106.06
569.584	106.06
569.795	87.06
570.007	96.06
570.218	155.06
570.43	130.06
570.641	101.06
570.853	90.06
571.064	107.06
571.276	112.06
571.487	98.06
571.698	100.06
571.91	113.06
572.121	102.06
572.333	85.06
572.544	103.06
572.755	74.06
572.966	93.06
573.178	91.06
573.389	93.06
573.6	87.06
573.811	86.06
574.023	81.06
574.234	89.06
574.445	91.06
574.656	88.06
574.867	89.06
575.078	101.06
575.289	106.06
575.501	100.06
575.712	88.06
575.923	97.06
576.134	104.06
576.345	94.06
576.556	119.06
576.767	100.06
576.978	113.06
577.188	92.06
577.399	84.06
577.61	93.06
577.821	113.06
578.032	95.06
578.243	157.06
578.454	383.06
578.665	171.06
578.875	99.06
579.086	93.06
579.297	88.06
579.508	88.06
579.718	99.06
579.929	87.06
580.14	84.06
580.35	84.06
580.561	92.06
580.772	93.06
580.982	103.06
581.193	81.06
581.403	102.06
581.614	87.06
581.825	94.06
582.035	88.06
582.246	98.06
582.456	84.06
582.667	90.06
582.877	92.06
583.087	94.06
583.298	106.06
583.508	98.06
583.719	92.06
583.929	100.06
584.139	88.06
584.35	99.06
584.56	105.06
584.77	84.06
584.981	81.06
585.191	86.06
585.401	110.06
585.611	109.06
585.821	80.06
586.032	94.06
586.242	86.06
586.452	80.06
586.662	98.06
586.872	90.06
587.082	96.06
587.292	90.06
587.502	94.06
587.713	99.06
587.923	97.06
588.133	99.06
588.343	101.06
588.553	101.06
588.762	101.06
588.972	100.06
589.182	100.06
589.392	100.06
589.602	99.06
589.812	88.06
590.022	97.06
590.232	89.06
590.441	91.06
590.651	87.06
590.861	83.06
591.071	92.06
591.281	85.06
591.49	99.06
591.7	88.06
591.91	91.06
592.119	91.06
592.329	97.06
592.539	92.06
592.748	96.06
592.958	96.06
593.167	89.06
593.377	98.06
593.587	93.06
593.796	101.06
594.006	89.06
594.215	91.06
594.424	84.06
594.634	92.06
594.843	81.06
595.053	102.06
595.262	99.06
595.472	98.06
595.681	100.06
595.89	93.06
596.1	92.06
596.309	97.06
596.518	105.06
596.727	105.06
596.937	101.06
597.146	93.06
597.355	98.06
597.564	97.06
597.774	83.06
597.983	95.06
598.192	77.06
598.401	89.06
598.61	87.06
598.819	84.06
599.028	85.06
599.237	103.06
599.446	99.06
599.655	93.06
599.864	91.06
600.073	92.06
600.282	82.06
600.491	90.06
600.7	98.06
600.909	99.06
601.118	104.06
601.327	106.06
601.536	107.06
601.745	102.06
601.953	111.06
602.162	124.06
602.371	121.06
602.58	111.06
602.789	131.06
602.997	122.06
603.206	109.06
603.415	104.06
603.623	118.06
603.832	104.06
604.041	99.06
604.249	93.06
604.458	111.06
604.666	106.06
604.875	97.06
605.084	109.06
605.292	107.06
605.501	111.06
605.709	114.06
605.918	121.06
606.126	122.06
606.334	133.06
606.543	125.06
606.751	115.06
606.96	127.06
607.168	125.06
607.376	135.06
607.585	128.06
607.793	135.06
608.001	121.06
608.21	135.06
608.418	127.06
608.626	121.06
608.834	132.06
609.043	131.06
609.251	132.06
609.459	143.06
609.667	122.06
609.875	131.06
610.083	115.06
610.291	114.06
610.499	125.06
610.707	137.06
610.916	139.06
611.124	146.06
611.332	153.06
611.54	154.06
611.748	177.06
611.955	157.06
612.163	152.06
612.371	134.06
612.579	148.06
612.787	145.06
612.995	144.06
613.203	132.06
613.411	160.06
613.618	136.06
613.826	135.06
614.034	136.06
614.242	155.06
614.449	146.06
614.657	135.06
614.865	138.06
615.072	131.06
615.28	145.06
615.488	143.06
615.695	130.06
615.903	137.06
616.111	138.06
616.318	146.06
616.526	128.06
616.733	138.06
616.941	139.06
617.148	135.06
617.356	137.06
617.563	123.06
617.771	125.06
617.978	140.06
618.185	145.06
618.393	130.06
618.6	146.06
618.807	140.06
619.015	140.06
619.222	136.06
619.429	135.06
619.637	127.06
619.844	120.06
620.051	128.06
620.258	139.06
620.466	131.06
620.673	139.06
620.88	120.06
621.087	124.06
621.294	123.06
621.501	124.06
621.708	113.06
621.915	114.06
622.122	130.06
622.329	126.06
622.536	128.06
622.743	136.06
622.95	116.06
623.157	124.06
623.364	128.06
623.571	127.06
623.778	143.06
623.985	125.06
624.192	132.06
624.399	124.06
624.606	142.06
624.812	123.06
625.019	109.06
625.226	123.06
625.433	123.06
625.639	122.06
625.846	117.06
626.053	105.06
626.259	90.06
626.466	95.06
626.673	98.06
626.879	101.06
627.086	121.06
627.293	117.06
627.499	110.06
627.706	118.06
627.912	124.06
628.119	117.06
628.325	113.06
628.532	127.06
628.738	118.06
628.945	115.06
629.151	113.06
629.357	110.06
629.564	129.06
629.77	121.06
629.976	110.06
630.183	124.06
630.389	100.06
630.595	121.06
630.802	128.06
631.008	114.06
631.214	119.06
631.42	121.06
631.627	118.06
631.833	112.06
632.039	132.06
632.245	107.06
632.451	113.06
632.657	109.06
632.863	117.06
633.069	114.06
633.275	113.06
633.481	107.06
633.688	113.06
633.893	120.06
634.099	119.06
634.305	108.06
634.511	105.06
634.717	110.06
634.923	112.06
635.129	110.06
635.335	98.06
635.541	101.06
635.747	108.06
635.952	106.06
636.158	114.06
636.364	115.06
636.57	117.06
636.775	120.06
636.981	103.06
637.187	106.06
637.392	97.06
637.598	128.06
637.804	111.06
638.009	107.06
638.215	99.06
638.421	111.06
638.626	113.06
638.832	116.06
639.037	106.06
639.243	108.06
639.448	116.06
639.654	113.06
639.859	103.06
640.065	113.06
640.27	122.06
640.475	112.06
640.681	109.06
640.886	110.06
641.091	114.06
641.297	117.06
641.502	104.06
641.707	121.06
641.913	122.06
642.118	111.06
642.323	117.06
642.528	128.06
642.733	123.06
642.939	118.06
643.144	120.06
643.349	107.06
643.554	117.06
643.759	94.06
643.964	108.06
644.169	125.06
644.374	113.06
644.579	115.06
644.784	125.06
644.989	124.06
645.194	124.06
645.399	116.06
645.604	120.06
645.809	120.06
646.014	106.06
646.219	105.06
646.423	114.06
646.628	116.06
646.833	108.06
647.038	119.06
647.243	119.06
647.447	116.06
647.652	109.06
647.857	117.06
648.062	119.06
648.266	121.06
648.471	116.06
648.676	114.06
648.88	128.06
649.085	114.06
649.289	111.06
649.494	122.06
649.698	129.06
649.903	116.06
650.107	114.06
650.312	127.06
650.516	101.06
650.721	120.06
650.925	106.06
651.13	109.06
651.334	108.06
651.539	112.06
651.743	112.06
651.947	104.06
652.152	107.06
652.356	107.06
652.56	101.06
652.764	104.06
652.969	96.06
653.173	103.06
653.377	113.06
653.581	107.06
653.785	91.06
653.99	97.06
654.194	95.06
654.398	103.06
654.602	97.06
654.806	87.06
655.01	115.06
655.214	113.06
655.418	105.06
655.622	103.06
655.826	85.06
656.03	105.06
656.234	109.06
656.438	98.06
656.642	111.06
656.846	107.06
657.049	101.06
657.253	97.06
657.457	96.06
657.661	93.06
657.865	100.06
658.068	91.06
658.272	96.06
658.476	88.06
658.68	77.06
658.883	79.06
659.087	74.06
659.291	89.06
659.494	101.06
659.698	91.06
659.901	81.06
660.105	86.06
660.309	95.06
660.512	82.06
660.716	93.06
660.919	89.06
661.123	66.06
661.326	81.06
661.53	83.06
661.733	97.06
661.936	92.06
662.14	88.06
662.343	81.06
662.546	93.06
662.75	79.06
662.953	91.06
663.156	91.06
663.36	78.06
663.563	92.06
663.766	88.06
663.969	92.06
664.173	72.06
664.376	77.06
664.579	81.06
664.782	78.06
664.985	73.06
665.188	89.06
665.391	86.06
665.594	90.06
665.797	94.06
666	84.06
666.203	80.06
666.406	76.06
666.609	85.06
666.812	83.06
667.015	86.06
667.218	93.06
667.421	91.06
667.624	82.06
667.827	75.06
668.03	83.06
668.232	79.06
668.435	82.06
668.638	90.06
668.841	82.06
669.043	78.06
669.246	78.06
669.449	95.06
669.651	90.06
669.854	89.06
670.057	83.06
670.259	94.06
670.462	88.06
670.665	80.06
670.867	88.06
671.07	89.06
671.272	99.06
671.475	99.06
671.677	76.06
671.88	75.06
672.082	71.06
672.284	87.06
672.487	99.06
672.689	82.06
672.892	93.06
