Data from FlinnAP9092KCOPPER.07152019.QSWITCHSynchronous.EN10.20scans.P1_HRD10591_14-49-12-574.txt Node
Date: Mon Jul 15 14:49:12 EDT 2019
User: cochatt
Spectrometer: HR+D1059
Trigger mode: 5
Integration Time (sec): 1.000000E-1
Scans to average: 1
Electric dark correction enabled: true
Nonlinearity correction enabled: false
Boxcar width: 0
XAxis mode: Wavelengths
Number of Pixels in Spectrum: 2048
>>>>>Begin Spectral Data<<<<<
223.165	-40.62
223.4	-40.62
223.635	-40.62
223.869	-32.62
224.104	-46.62
224.338	1.38
224.573	0.38
224.808	-8.62
225.042	7.38
225.277	1.38
225.511	6.38
225.746	14.38
225.98	7.38
226.215	23.38
226.449	-5.62
226.683	17.38
226.918	19.38
227.152	35.38
227.387	58.38
227.621	47.38
227.856	60.38
228.09	55.38
228.324	67.38
228.559	84.38
228.793	106.38
229.027	205.38
229.262	228.38
229.496	245.38
229.73	280.38
229.964	342.38
230.199	297.38
230.433	212.38
230.667	218.38
230.901	221.38
231.136	214.38
231.37	206.38
231.604	195.38
231.838	193.38
232.072	199.38
232.306	213.38
232.541	213.38
232.775	199.38
233.009	195.38
233.243	223.38
233.477	202.38
233.711	211.38
233.945	219.38
234.179	215.38
234.413	229.38
234.647	226.38
234.881	221.38
235.115	222.38
235.349	223.38
235.583	231.38
235.817	234.38
236.051	249.38
236.285	248.38
236.519	255.38
236.753	240.38
236.987	272.38
237.221	358.38
237.455	519.38
237.689	401.38
237.922	303.38
238.156	264.38
238.39	247.38
238.624	237.38
238.858	247.38
239.091	267.38
239.325	248.38
239.559	267.38
239.793	260.38
240.027	292.38
240.26	317.38
240.494	365.38
240.728	327.38
240.961	335.38
241.195	329.38
241.429	291.38
241.662	261.38
241.896	272.38
242.13	254.38
242.363	265.38
242.597	280.38
242.83	290.38
243.064	282.38
243.298	279.38
243.531	284.38
243.765	302.38
243.998	301.38
244.232	303.38
244.465	302.38
244.699	290.38
244.932	299.38
245.166	311.38
245.399	318.38
245.633	296.38
245.866	308.38
246.099	313.38
246.333	296.38
246.566	294.38
246.8	323.38
247.033	328.38
247.266	341.38
247.5	341.38
247.733	340.38
247.966	360.38
248.2	375.38
248.433	364.38
248.666	348.38
248.899	399.38
249.133	456.38
249.366	518.38
249.599	441.38
249.832	392.38
250.066	409.38
250.299	352.38
250.532	396.38
250.765	447.38
250.998	493.38
251.231	517.38
251.465	476.38
251.698	420.38
251.931	395.38
252.164	410.38
252.397	414.38
252.63	423.38
252.863	410.38
253.096	474.38
253.329	522.38
253.562	501.38
253.795	476.38
254.028	468.38
254.261	475.38
254.494	476.38
254.727	591.38
254.96	665.38
255.193	590.38
255.426	501.38
255.659	469.38
255.892	456.38
256.124	446.38
256.357	436.38
256.59	436.38
256.823	421.38
257.056	430.38
257.289	453.38
257.521	432.38
257.754	403.38
257.987	450.38
258.22	455.38
258.452	434.38
258.685	446.38
258.918	427.38
259.151	444.38
259.383	475.38
259.616	475.38
259.849	491.38
260.081	545.38
260.314	588.38
260.547	616.38
260.779	556.38
261.012	540.38
261.244	486.38
261.477	506.38
261.71	483.38
261.942	492.38
262.175	535.38
262.407	502.38
262.64	463.38
262.872	468.38
263.105	466.38
263.337	468.38
263.57	459.38
263.802	478.38
264.035	476.38
264.267	486.38
264.499	471.38
264.732	494.38
264.964	477.38
265.197	472.38
265.429	470.38
265.661	490.38
265.894	487.38
266.126	500.38
266.358	496.38
266.591	482.38
266.823	516.38
267.055	497.38
267.287	515.38
267.52	486.38
267.752	502.38
267.984	516.38
268.216	513.38
268.448	544.38
268.681	515.38
268.913	567.38
269.145	650.38
269.377	695.38
269.609	652.38
269.841	613.38
270.073	629.38
270.306	662.38
270.538	782.38
270.77	738.38
271.002	694.38
271.234	673.38
271.466	704.38
271.698	742.38
271.93	735.38
272.162	742.38
272.394	795.38
272.626	700.38
272.858	636.38
273.09	631.38
273.322	619.38
273.553	600.38
273.785	594.38
274.017	589.38
274.249	614.38
274.481	619.38
274.713	587.38
274.945	627.38
275.176	611.38
275.408	604.38
275.64	603.38
275.872	604.38
276.104	624.38
276.335	610.38
276.567	650.38
276.799	659.38
277.031	747.38
277.262	781.38
277.494	767.38
277.726	707.38
277.957	646.38
278.189	623.38
278.421	619.38
278.652	617.38
278.884	622.38
279.115	607.38
279.347	611.38
279.579	628.38
279.81	612.38
280.042	619.38
280.273	620.38
280.505	617.38
280.736	621.38
280.968	615.38
281.199	645.38
281.431	637.38
281.662	626.38
281.894	653.38
282.125	648.38
282.356	688.38
282.588	717.38
282.819	740.38
283.051	669.38
283.282	628.38
283.513	650.38
283.745	650.38
283.976	664.38
284.207	677.38
284.439	668.38
284.67	678.38
284.901	685.38
285.132	682.38
285.364	653.38
285.595	635.38
285.826	686.38
286.057	680.38
286.288	691.38
286.52	670.38
286.751	640.38
286.982	668.38
287.213	667.38
287.444	666.38
287.675	695.38
287.906	703.38
288.138	742.38
288.369	760.38
288.6	732.38
288.831	715.38
289.062	731.38
289.293	703.38
289.524	674.38
289.755	686.38
289.986	673.38
290.217	688.38
290.448	676.38
290.679	692.38
290.91	714.38
291.141	684.38
291.371	709.38
291.602	706.38
291.833	703.38
292.064	710.38
292.295	711.38
292.526	721.38
292.757	703.38
292.987	718.38
293.218	667.38
293.449	694.38
293.68	696.38
293.91	690.38
294.141	667.38
294.372	679.38
294.603	686.38
294.833	684.38
295.064	670.38
295.295	710.38
295.525	698.38
295.756	733.38
295.987	729.38
296.217	769.38
296.448	811.38
296.679	736.38
296.909	714.38
297.14	718.38
297.37	728.38
297.601	718.38
297.831	699.38
298.062	728.38
298.292	739.38
298.523	751.38
298.753	735.38
298.984	731.38
299.214	738.38
299.445	791.38
299.675	774.38
299.905	784.38
300.136	770.38
300.366	733.38
300.597	741.38
300.827	774.38
301.057	780.38
301.288	814.38
301.518	776.38
301.748	776.38
301.979	803.38
302.209	796.38
302.439	810.38
302.669	792.38
302.9	777.38
303.13	770.38
303.36	783.38
303.59	771.38
303.82	824.38
304.051	811.38
304.281	788.38
304.511	800.38
304.741	787.38
304.971	757.38
305.201	777.38
305.431	782.38
305.661	774.38
305.891	751.38
306.121	767.38
306.352	775.38
306.582	783.38
306.812	770.38
307.042	778.38
307.272	769.38
307.502	767.38
307.731	779.38
307.961	770.38
308.191	742.38
308.421	764.38
308.651	790.38
308.881	785.38
309.111	804.38
309.341	783.38
309.571	802.38
309.8	797.38
310.03	821.38
310.26	889.38
310.49	862.38
310.72	872.38
310.949	907.38
311.179	922.38
311.409	903.38
311.639	882.38
311.868	862.38
312.098	855.38
312.328	903.38
312.557	934.38
312.787	970.38
313.017	982.38
313.246	907.38
313.476	852.38
313.706	872.38
313.935	891.38
314.165	905.38
314.394	956.38
314.624	950.38
314.853	898.38
315.083	900.38
315.312	904.38
315.542	860.38
315.771	859.38
316.001	838.38
316.23	842.38
316.46	844.38
316.689	846.38
316.919	843.38
317.148	904.38
317.377	890.38
317.607	874.38
317.836	884.38
318.065	882.38
318.295	859.38
318.524	820.38
318.753	822.38
318.983	856.38
319.212	862.38
319.441	831.38
319.67	867.38
319.9	856.38
320.129	856.38
320.358	863.38
320.587	887.38
320.816	841.38
321.046	879.38
321.275	913.38
321.504	875.38
321.733	869.38
321.962	899.38
322.191	917.38
322.42	905.38
322.649	969.38
322.878	989.38
323.108	1026.38
323.337	1063.38
323.566	1095.38
323.795	1150.38
324.024	1244.38
324.253	1502.38
324.482	2213.38
324.71	3726.38
324.939	5886.38
325.168	5101.38
325.397	2100.38
325.626	1370.38
325.855	1130.38
326.084	1088.38
326.313	1042.38
326.542	1057.38
326.77	1192.38
326.999	1421.38
327.228	2054.38
327.457	3431.38
327.686	4531.38
327.914	2669.38
328.143	1544.38
328.372	1348.38
328.6	1307.38
328.829	1236.38
329.058	1295.38
329.287	1398.38
329.515	1216.38
329.744	1169.38
329.972	1074.38
330.201	1085.38
330.43	1136.38
330.658	1277.38
330.887	1440.38
331.115	1498.38
331.344	1222.38
331.572	1119.38
331.801	1154.38
332.03	1148.38
332.258	1099.38
332.486	1094.38
332.715	1080.38
332.943	1069.38
333.172	1082.38
333.4	1120.38
333.629	1174.38
333.857	1180.38
334.085	1184.38
334.314	1155.38
334.542	1141.38
334.771	1146.38
334.999	1123.38
335.227	1135.38
335.455	1117.38
335.684	1055.38
335.912	1068.38
336.14	1059.38
336.369	1067.38
336.597	1080.38
336.825	1069.38
337.053	1056.38
337.281	1038.38
337.51	1037.38
337.738	1050.38
337.966	1026.38
338.194	1036.38
338.422	1026.38
338.65	1046.38
338.878	1020.38
339.106	990.38
339.334	1007.38
339.562	974.38
339.79	954.38
340.018	947.38
340.246	989.38
340.474	978.38
340.702	1003.38
340.93	995.38
341.158	945.38
341.386	988.38
341.614	979.38
341.842	990.38
342.07	960.38
342.298	949.38
342.526	927.38
342.754	948.38
342.981	933.38
343.209	948.38
343.437	1001.38
343.665	973.38
343.893	1047.38
344.12	1129.38
344.348	1087.38
344.576	1058.38
344.804	1015.38
345.031	1055.38
345.259	1047.38
345.487	1024.38
345.714	974.38
345.942	919.38
346.17	923.38
346.397	869.38
346.625	918.38
346.853	896.38
347.08	911.38
347.308	924.38
347.535	965.38
347.763	980.38
347.99	1012.38
348.218	950.38
348.445	968.38
348.673	986.38
348.9	962.38
349.128	951.38
349.355	889.38
349.583	895.38
349.81	859.38
350.037	876.38
350.265	895.38
350.492	878.38
350.72	862.38
350.947	900.38
351.174	934.38
351.402	941.38
351.629	916.38
351.856	895.38
352.083	949.38
352.311	957.38
352.538	962.38
352.765	992.38
352.992	960.38
353.22	926.38
353.447	904.38
353.674	904.38
353.901	878.38
354.128	860.38
354.355	847.38
354.583	847.38
354.81	872.38
355.037	843.38
355.264	856.38
355.491	839.38
355.718	842.38
355.945	872.38
356.172	844.38
356.399	847.38
356.626	828.38
356.853	833.38
357.08	878.38
357.307	856.38
357.534	820.38
357.761	851.38
357.988	870.38
358.215	860.38
358.441	842.38
358.668	851.38
358.895	874.38
359.122	844.38
359.349	858.38
359.576	920.38
359.802	948.38
360.029	1084.38
360.256	1120.38
360.483	1063.38
360.709	934.38
360.936	988.38
361.163	915.38
361.39	936.38
361.616	921.38
361.843	896.38
362.07	916.38
362.296	935.38
362.523	914.38
362.749	925.38
362.976	891.38
363.203	907.38
363.429	877.38
363.656	887.38
363.882	852.38
364.109	872.38
364.335	882.38
364.562	879.38
364.788	847.38
365.015	861.38
365.241	859.38
365.468	901.38
365.694	892.38
365.92	890.38
366.147	884.38
366.373	866.38
366.599	882.38
366.826	871.38
367.052	838.38
367.278	840.38
367.505	876.38
367.731	881.38
367.957	877.38
368.184	886.38
368.41	898.38
368.636	912.38
368.862	927.38
369.089	926.38
369.315	912.38
369.541	898.38
369.767	868.38
369.993	905.38
370.219	870.38
370.445	880.38
370.672	888.38
370.898	850.38
371.124	894.38
371.35	897.38
371.576	892.38
371.802	891.38
372.028	892.38
372.254	891.38
372.48	905.38
372.706	912.38
372.932	912.38
373.158	931.38
373.384	951.38
373.61	938.38
373.835	924.38
374.061	903.38
374.287	918.38
374.513	920.38
374.739	934.38
374.965	939.38
375.191	923.38
375.416	964.38
375.642	950.38
375.868	962.38
376.094	932.38
376.319	909.38
376.545	906.38
376.771	916.38
376.997	926.38
377.222	923.38
377.448	894.38
377.674	899.38
377.899	929.38
378.125	898.38
378.35	921.38
378.576	883.38
378.802	892.38
379.027	891.38
379.253	919.38
379.478	901.38
379.704	910.38
379.929	903.38
380.155	887.38
380.38	937.38
380.606	948.38
380.831	931.38
381.057	984.38
381.282	954.38
381.507	912.38
381.733	964.38
381.958	928.38
382.184	941.38
382.409	963.38
382.634	967.38
382.86	992.38
383.085	1002.38
383.31	990.38
383.535	996.38
383.761	993.38
383.986	1047.38
384.211	1005.38
384.436	1022.38
384.662	1075.38
384.887	1076.38
385.112	1057.38
385.337	1071.38
385.562	1069.38
385.787	1052.38
386.013	1128.38
386.238	1113.38
386.463	1102.38
386.688	1067.38
386.913	1055.38
387.138	1091.38
387.363	1064.38
387.588	1082.38
387.813	1098.38
388.038	1062.38
388.263	1097.38
388.488	1067.38
388.713	1087.38
388.938	1071.38
389.163	1097.38
389.387	1114.38
389.612	1068.38
389.837	1083.38
390.062	1060.38
390.287	1054.38
390.512	1071.38
390.736	1074.38
390.961	1052.38
391.186	1091.38
391.411	1116.38
391.636	1114.38
391.86	1159.38
392.085	1201.38
392.31	1190.38
392.534	1206.38
392.759	1176.38
392.984	1132.38
393.208	1135.38
393.433	1095.38
393.658	1149.38
393.882	1099.38
394.107	1111.38
394.331	1131.38
394.556	1110.38
394.78	1127.38
395.005	1144.38
395.229	1167.38
395.454	1215.38
395.678	1169.38
395.903	1257.38
396.127	1278.38
396.352	1250.38
396.576	1199.38
396.801	1114.38
397.025	1146.38
397.249	1199.38
397.474	1225.38
397.698	1227.38
397.922	1266.38
398.147	1288.38
398.371	1325.38
398.595	1295.38
398.82	1339.38
399.044	1375.38
399.268	1462.38
399.492	1668.38
399.717	1836.38
399.941	1901.38
400.165	1851.38
400.389	1754.38
400.613	1597.38
400.837	1446.38
401.062	1375.38
401.286	1358.38
401.51	1359.38
401.734	1336.38
401.958	1385.38
402.182	1386.38
402.406	1429.38
402.63	1422.38
402.854	1443.38
403.078	1465.38
403.302	1450.38
403.526	1518.38
403.75	1524.38
403.974	1523.38
404.198	1488.38
404.422	1559.38
404.645	1542.38
404.869	1506.38
405.093	1553.38
405.317	1617.38
405.541	1616.38
405.765	1580.38
405.988	1503.38
406.212	1576.38
406.436	1634.38
406.66	1688.38
406.883	1617.38
407.107	1682.38
407.331	1808.38
407.555	2016.38
407.778	1998.38
408.002	1833.38
408.226	1666.38
408.449	1613.38
408.673	1592.38
408.896	1661.38
409.12	1767.38
409.344	1706.38
409.567	1531.38
409.791	1511.38
410.014	1443.38
410.238	1487.38
410.461	1462.38
410.685	1461.38
410.908	1518.38
411.132	1603.38
411.355	1661.38
411.578	1564.38
411.802	1482.38
412.025	1422.38
412.249	1438.38
412.472	1478.38
412.695	1437.38
412.919	1389.38
413.142	1426.38
413.365	1422.38
413.589	1412.38
413.812	1367.38
414.035	1433.38
414.258	1364.38
414.482	1378.38
414.705	1403.38
414.928	1436.38
415.151	1390.38
415.374	1375.38
415.597	1341.38
415.821	1348.38
416.044	1380.38
416.267	1433.38
416.49	1406.38
416.713	1417.38
416.936	1389.38
417.159	1401.38
417.382	1434.38
417.605	1411.38
417.828	1548.38
418.051	1540.38
418.274	1535.38
418.497	1446.38
418.72	1449.38
418.943	1482.38
419.166	1538.38
419.389	1627.38
419.611	1602.38
419.834	1513.38
420.057	1556.38
420.28	1470.38
420.503	1442.38
420.726	1449.38
420.948	1525.38
421.171	1618.38
421.394	1734.38
421.617	1545.38
421.839	1526.38
422.062	1529.38
422.285	1524.38
422.507	1670.38
422.73	1904.38
422.953	1786.38
423.175	1614.38
423.398	1604.38
423.621	1603.38
423.843	1664.38
424.066	1697.38
424.288	1658.38
424.511	1711.38
424.733	1858.38
424.956	2025.38
425.178	1940.38
425.401	1938.38
425.623	1968.38
425.846	1667.38
426.068	1575.38
426.291	1519.38
426.513	1533.38
426.735	1583.38
426.958	1700.38
427.18	1881.38
427.402	2313.38
427.625	2402.38
427.847	2032.38
428.069	1691.38
428.292	1579.38
428.514	1509.38
428.736	1451.38
428.958	1437.38
429.181	1410.38
429.403	1364.38
429.625	1412.38
429.847	1514.38
430.069	1726.38
430.292	1709.38
430.514	1450.38
430.736	1413.38
430.958	1392.38
431.18	1348.38
431.402	1346.38
431.624	1275.38
431.846	1233.38
432.068	1177.38
432.29	1244.38
432.512	1312.38
432.734	1370.38
432.956	1415.38
433.178	1453.38
433.4	1461.38
433.622	1440.38
433.844	1356.38
434.066	1328.38
434.287	1248.38
434.509	1252.38
434.731	1327.38
434.953	1404.38
435.175	1494.38
435.397	1610.38
435.618	1538.38
435.84	1639.38
436.062	1959.38
436.284	2096.38
436.505	1703.38
436.727	1597.38
436.949	1519.38
437.17	1451.38
437.392	1415.38
437.614	1405.38
437.835	1423.38
438.057	1663.38
438.278	1962.38
438.5	1991.38
438.721	2268.38
438.943	2165.38
439.165	1748.38
439.386	1643.38
439.608	1663.38
439.829	1635.38
440.05	1798.38
440.272	1988.38
440.493	1768.38
440.715	1672.38
440.936	1587.38
441.158	1562.38
441.379	1608.38
441.6	1688.38
441.822	1746.38
442.043	1770.38
442.264	2042.38
442.486	2142.38
442.707	1822.38
442.928	1733.38
443.149	1756.38
443.371	1923.38
443.592	1888.38
443.813	2198.38
444.034	2390.38
444.255	1920.38
444.476	1800.38
444.698	1776.38
444.919	1840.38
445.14	3550.38
445.361	2562.38
445.582	1984.38
445.803	2139.38
446.024	2450.38
446.245	2398.38
446.466	2166.38
446.687	1828.38
446.908	1689.38
447.129	1598.38
447.35	1582.38
447.571	1552.38
447.792	1472.38
448.013	1528.38
448.234	1574.38
448.455	1685.38
448.675	1999.38
448.896	2300.38
449.117	1866.38
449.338	1683.38
449.559	2097.38
449.779	2392.38
450	1876.38
450.221	1589.38
450.442	1478.38
450.662	1430.38
450.883	1470.38
451.104	1542.38
451.324	1455.38
451.545	1377.38
451.766	1352.38
451.986	1280.38
452.207	1303.38
452.428	1252.38
452.648	1252.38
452.869	1270.38
453.089	1263.38
453.31	1266.38
453.53	1210.38
453.751	1143.38
453.971	1152.38
454.192	1220.38
454.412	1198.38
454.633	1186.38
454.853	1189.38
455.073	1186.38
455.294	1281.38
455.514	1552.38
455.734	1446.38
455.955	1238.38
456.175	1161.38
456.395	1140.38
456.616	1074.38
456.836	1110.38
457.056	1094.38
457.276	1045.38
457.497	1083.38
457.717	1099.38
457.937	1114.38
458.157	1110.38
458.377	1100.38
458.598	1162.38
458.818	1353.38
459.038	1576.38
459.258	1601.38
459.478	1304.38
459.698	1226.38
459.918	1227.38
460.138	1290.38
460.358	1376.38
460.578	1362.38
460.798	1396.38
461.018	1414.38
461.238	1402.38
461.458	1369.38
461.678	1344.38
461.898	1355.38
462.118	1406.38
462.338	1423.38
462.558	1459.38
462.777	1494.38
462.997	1587.38
463.217	1632.38
463.437	1643.38
463.657	1531.38
463.876	1483.38
464.096	1478.38
464.316	1495.38
464.536	1558.38
464.755	1542.38
464.975	1499.38
465.195	1653.38
465.414	1796.38
465.634	1544.38
465.854	1368.38
466.073	1336.38
466.293	1343.38
466.512	1303.38
466.732	1295.38
466.951	1309.38
467.171	1304.38
467.391	1366.38
467.61	1388.38
467.829	1400.38
468.049	1357.38
468.268	1322.38
468.488	1319.38
468.707	1286.38
468.927	1340.38
469.146	1315.38
469.365	1356.38
469.585	1320.38
469.804	1413.38
470.023	1463.38
470.243	1469.38
470.462	1455.38
470.681	1542.38
470.901	1469.38
471.12	1452.38
471.339	1446.38
471.558	1444.38
471.777	1444.38
471.997	1296.38
472.216	1248.38
472.435	1191.38
472.654	1088.38
472.873	1132.38
473.092	1166.38
473.311	1242.38
473.53	1247.38
473.749	1288.38
473.968	1396.38
474.187	1670.38
474.406	1680.38
474.625	1411.38
474.844	1286.38
475.063	1257.38
475.282	1247.38
475.501	1224.38
475.72	1328.38
475.939	1247.38
476.158	1276.38
476.377	1310.38
476.596	1245.38
476.814	1245.38
477.033	1258.38
477.252	1253.38
477.471	1307.38
477.69	1394.38
477.908	1472.38
478.127	1517.38
478.346	1462.38
478.564	1460.38
478.783	1547.38
479.002	1573.38
479.22	1534.38
479.439	1582.38
479.658	1525.38
479.876	1470.38
480.095	1484.38
480.313	1628.38
480.532	1601.38
480.751	1540.38
480.969	1449.38
481.188	1418.38
481.406	1359.38
481.624	1260.38
481.843	1266.38
482.061	1244.38
482.28	1342.38
482.498	1337.38
482.717	1305.38
482.935	1421.38
483.153	1505.38
483.372	1566.38
483.59	1525.38
483.808	1455.38
484.027	1447.38
484.245	1488.38
484.463	1460.38
484.681	1605.38
484.9	1548.38
485.118	1504.38
485.336	1501.38
485.554	1414.38
485.772	1396.38
485.99	1403.38
486.209	1456.38
486.427	1428.38
486.645	1488.38
486.863	1672.38
487.081	1674.38
487.299	1577.38
487.517	1666.38
487.735	1752.38
487.953	1846.38
488.171	1869.38
488.389	1782.38
488.607	1700.38
488.825	1571.38
489.043	1540.38
489.261	1565.38
489.479	1599.38
489.696	1654.38
489.914	1696.38
490.132	1693.38
490.35	1799.38
490.568	1826.38
490.786	1950.38
491.003	2018.38
491.221	2122.38
491.439	2152.38
491.657	2183.38
491.874	2350.38
492.092	2404.38
492.31	2525.38
492.527	2460.38
492.745	2331.38
492.963	2287.38
493.18	2262.38
493.398	2192.38
493.615	2214.38
493.833	2184.38
494.05	2200.38
494.268	2170.38
494.485	2111.38
494.703	2142.38
494.92	2166.38
495.138	2125.38
495.355	2160.38
495.573	2167.38
495.79	2104.38
496.008	2115.38
496.225	2074.38
496.442	2111.38
496.66	2135.38
496.877	2052.38
497.094	2053.38
497.312	2010.38
497.529	2102.38
497.746	2034.38
497.963	1986.38
498.181	1978.38
498.398	1997.38
498.615	2053.38
498.832	2102.38
499.049	2124.38
499.267	2326.38
499.484	2462.38
499.701	2646.38
499.918	2838.38
500.135	3169.38
500.352	3376.38
500.569	3470.38
500.786	3411.38
501.003	3340.38
501.22	3096.38
501.437	2984.38
501.654	2812.38
501.871	2586.38
502.088	2406.38
502.305	2273.38
502.522	2194.38
502.739	2136.38
502.956	1974.38
503.172	1918.38
503.389	1873.38
503.606	1850.38
503.823	1881.38
504.04	1834.38
504.256	1830.38
504.473	1814.38
504.69	1878.38
504.907	1861.38
505.123	1774.38
505.34	1735.38
505.557	1745.38
505.773	1708.38
505.99	1663.38
506.207	1700.38
506.423	1648.38
506.64	1622.38
506.856	1622.38
507.073	1629.38
507.289	1608.38
507.506	1583.38
507.722	1612.38
507.939	1628.38
508.155	1565.38
508.372	1518.38
508.588	1505.38
508.805	1466.38
509.021	1472.38
509.238	1519.38
509.454	1515.38
509.67	1447.38
509.887	1386.38
510.103	1379.38
510.319	1372.38
510.536	1615.38
510.752	2782.38
510.968	1957.38
511.184	1304.38
511.401	1230.38
511.617	1267.38
511.833	1242.38
512.049	1222.38
512.265	1284.38
512.481	1275.38
512.698	1276.38
512.914	1306.38
513.13	1254.38
513.346	1230.38
513.562	1250.38
513.778	1263.38
513.994	1305.38
514.21	1307.38
514.426	1380.38
514.642	1468.38
514.858	1552.38
515.074	1609.38
515.29	2038.38
515.506	3163.38
515.721	2396.38
515.937	1610.38
516.153	1455.38
516.369	1412.38
516.585	1381.38
516.801	1372.38
517.016	1432.38
517.232	1481.38
517.448	1556.38
517.664	1542.38
517.879	1604.38
518.095	1567.38
518.311	1523.38
518.527	1482.38
518.742	1460.38
518.958	1460.38
519.173	1452.38
519.389	1435.38
519.605	1403.38
519.82	1395.38
520.036	1472.38
520.251	1519.38
520.467	1535.38
520.682	1461.38
520.898	1405.38
521.113	1442.38
521.329	1588.38
521.544	1802.38
521.76	2426.38
521.975	4391.38
522.19	3912.38
522.406	2000.38
522.621	1475.38
522.836	1416.38
523.052	1349.38
523.267	1332.38
523.482	1291.38
523.698	1274.38
523.913	1310.38
524.128	1331.38
524.343	1324.38
524.559	1301.38
524.774	1240.38
524.989	1279.38
525.204	1299.38
525.419	1293.38
525.634	1218.38
525.849	1189.38
526.064	1128.38
526.28	1134.38
526.495	1069.38
526.71	1049.38
526.925	1037.38
527.14	1013.38
527.355	1037.38
527.57	1079.38
527.785	1047.38
527.999	1056.38
528.214	1159.38
528.429	1157.38
528.644	1196.38
528.859	1282.38
529.074	1390.38
529.289	1531.38
529.503	1719.38
529.718	1506.38
529.933	1241.38
530.148	1149.38
530.363	1105.38
530.577	1058.38
530.792	988.38
531.007	997.38
531.221	1027.38
531.436	991.38
531.651	1053.38
531.865	1035.38
532.08	1044.38
532.295	1044.38
532.509	1005.38
532.724	1022.38
532.938	1036.38
533.153	1119.38
533.367	1153.38
533.582	1197.38
533.796	1225.38
534.011	1141.38
534.225	1049.38
534.44	991.38
534.654	1051.38
534.868	1016.38
535.083	1070.38
535.297	1092.38
535.511	1118.38
535.726	1165.38
535.94	1113.38
536.154	1048.38
536.369	1000.38
536.583	972.38
536.797	973.38
537.011	954.38
537.225	973.38
537.44	977.38
537.654	1013.38
537.868	963.38
538.082	1019.38
538.296	1043.38
538.51	1083.38
538.724	1154.38
538.938	1192.38
539.153	1239.38
539.367	1286.38
539.581	1186.38
539.795	1059.38
540.009	1034.38
540.222	1039.38
540.436	1112.38
540.65	1203.38
540.864	1293.38
541.078	1418.38
541.292	1507.38
541.506	1584.38
541.72	1708.38
541.934	1845.38
542.147	1921.38
542.361	1852.38
542.575	1726.38
542.789	1616.38
543.002	1489.38
543.216	1430.38
543.43	1424.38
543.644	1527.38
543.857	1622.38
544.071	1687.38
544.285	1744.38
544.498	1747.38
544.712	1783.38
544.925	1748.38
545.139	1702.38
545.352	1693.38
545.566	1757.38
545.779	1763.38
545.993	1802.38
546.206	2024.38
546.42	2024.38
546.633	1768.38
546.847	1686.38
547.06	1701.38
547.274	1701.38
547.487	1773.38
547.7	1726.38
547.914	1685.38
548.127	1660.38
548.34	1663.38
548.554	1625.38
548.767	1646.38
548.98	1631.38
549.193	1655.38
549.407	1626.38
549.62	1630.38
549.833	1639.38
550.046	1572.38
550.259	1578.38
550.473	1564.38
550.686	1566.38
550.899	1534.38
551.112	1480.38
551.325	1404.38
551.538	1340.38
551.751	1271.38
551.964	1264.38
552.177	1330.38
552.39	1442.38
552.603	1518.38
552.816	1571.38
553.029	1630.38
553.242	1684.38
553.455	1733.38
553.667	1755.38
553.88	1724.38
554.093	1636.38
554.306	1666.38
554.519	1611.38
554.732	1540.38
554.944	1510.38
555.157	1503.38
555.37	1447.38
555.583	1435.38
555.795	1422.38
556.008	1325.38
556.221	1278.38
556.433	1282.38
556.646	1266.38
556.859	1312.38
557.071	1354.38
557.284	1349.38
557.496	1336.38
557.709	1330.38
557.921	1318.38
558.134	1328.38
558.346	1319.38
558.559	1268.38
558.771	1253.38
558.984	1233.38
559.196	1212.38
559.409	1214.38
559.621	1231.38
559.833	1170.38
560.046	1151.38
560.258	1179.38
560.47	1188.38
560.683	1231.38
560.895	1184.38
561.107	1213.38
561.32	1201.38
561.532	1237.38
561.744	1221.38
561.956	1221.38
562.168	1232.38
562.381	1193.38
562.593	1210.38
562.805	1211.38
563.017	1192.38
563.229	1158.38
563.441	1197.38
563.653	1164.38
563.865	1150.38
564.077	1182.38
564.289	1187.38
564.501	1165.38
564.713	1188.38
564.925	1163.38
565.137	1199.38
565.349	1200.38
565.561	1221.38
565.773	1245.38
565.985	1259.38
566.197	1296.38
566.408	1381.38
566.62	1441.38
566.832	1509.38
567.044	1524.38
567.255	1485.38
567.467	1470.38
567.679	1524.38
567.891	1530.38
568.102	1517.38
568.314	1412.38
568.526	1268.38
568.737	1154.38
568.949	1086.38
569.161	993.38
569.372	933.38
569.584	906.38
569.795	895.38
570.007	894.38
570.218	962.38
570.43	943.38
570.641	912.38
570.853	923.38
571.064	958.38
571.276	1003.38
571.487	965.38
571.698	954.38
571.91	927.38
572.121	930.38
572.333	892.38
572.544	826.38
572.755	800.38
572.966	746.38
573.178	733.38
573.389	733.38
573.6	671.38
573.811	701.38
574.023	695.38
574.234	710.38
574.445	712.38
574.656	735.38
574.867	749.38
575.078	770.38
575.289	772.38
575.501	798.38
575.712	728.38
575.923	729.38
576.134	756.38
576.345	774.38
576.556	789.38
576.767	785.38
576.978	810.38
577.188	866.38
577.399	758.38
577.61	716.38
577.821	719.38
578.032	745.38
578.243	814.38
578.454	1221.38
578.665	851.38
578.875	695.38
579.086	668.38
579.297	722.38
579.508	672.38
579.718	686.38
579.929	645.38
580.14	670.38
580.35	652.38
580.561	668.38
580.772	670.38
580.982	678.38
581.193	692.38
581.403	688.38
581.614	696.38
581.825	705.38
582.035	673.38
582.246	707.38
582.456	676.38
582.667	699.38
582.877	684.38
583.087	698.38
583.298	695.38
583.508	704.38
583.719	667.38
583.929	686.38
584.139	648.38
584.35	675.38
584.56	680.38
584.77	646.38
584.981	668.38
585.191	639.38
585.401	666.38
585.611	641.38
585.821	648.38
586.032	645.38
586.242	605.38
586.452	642.38
586.662	619.38
586.872	604.38
587.082	618.38
587.292	628.38
587.502	680.38
587.713	694.38
587.923	678.38
588.133	639.38
588.343	619.38
588.553	624.38
588.762	690.38
588.972	652.38
589.182	622.38
589.392	614.38
589.602	636.38
589.812	605.38
590.022	652.38
590.232	621.38
590.441	626.38
590.651	606.38
590.861	610.38
591.071	618.38
591.281	648.38
591.49	631.38
591.7	646.38
591.91	662.38
592.119	655.38
592.329	678.38
592.539	712.38
592.748	734.38
592.958	736.38
593.167	718.38
593.377	774.38
593.587	834.38
593.796	771.38
594.006	739.38
594.215	761.38
594.424	775.38
594.634	798.38
594.843	777.38
595.053	760.38
595.262	734.38
595.472	699.38
595.681	674.38
595.89	638.38
596.1	658.38
596.309	673.38
596.518	672.38
596.727	678.38
596.937	676.38
597.146	656.38
597.355	656.38
597.564	634.38
597.774	628.38
597.983	589.38
598.192	571.38
598.401	549.38
598.61	546.38
598.819	608.38
599.028	619.38
599.237	607.38
599.446	639.38
599.655	607.38
599.864	601.38
600.073	594.38
600.282	638.38
600.491	605.38
600.7	619.38
600.909	638.38
601.118	688.38
601.327	743.38
601.536	729.38
601.745	780.38
601.953	806.38
602.162	815.38
602.371	816.38
602.58	792.38
602.789	821.38
602.997	839.38
603.206	831.38
603.415	811.38
603.623	806.38
603.832	830.38
604.041	778.38
604.249	716.38
604.458	664.38
604.666	628.38
604.875	635.38
605.084	693.38
605.292	772.38
605.501	818.38
605.709	855.38
605.918	892.38
606.126	868.38
606.334	880.38
606.543	852.38
606.751	891.38
606.96	890.38
607.168	887.38
607.376	871.38
607.585	893.38
607.793	873.38
608.001	894.38
608.21	889.38
608.418	900.38
608.626	913.38
608.834	916.38
609.043	947.38
609.251	922.38
609.459	909.38
609.667	943.38
609.875	988.38
610.083	1004.38
610.291	975.38
610.499	1009.38
610.707	1037.38
610.916	1102.38
611.124	1185.38
611.332	1292.38
611.54	1422.38
611.748	1366.38
611.955	1232.38
612.163	1134.38
612.371	1096.38
612.579	1029.38
612.787	1016.38
612.995	999.38
613.203	1054.38
613.411	999.38
613.618	987.38
613.826	948.38
614.034	950.38
614.242	984.38
614.449	995.38
614.657	995.38
614.865	972.38
615.072	958.38
615.28	936.38
615.488	961.38
615.695	952.38
615.903	973.38
616.111	968.38
616.318	982.38
616.526	958.38
616.733	992.38
616.941	932.38
617.148	909.38
617.356	931.38
617.563	900.38
617.771	872.38
617.978	858.38
618.185	888.38
618.393	923.38
618.6	939.38
618.807	879.38
619.015	917.38
619.222	896.38
619.429	871.38
619.637	818.38
619.844	739.38
620.051	767.38
620.258	812.38
620.466	857.38
620.673	875.38
620.88	815.38
621.087	819.38
621.294	808.38
621.501	760.38
621.708	802.38
621.915	810.38
622.122	843.38
622.329	859.38
622.536	859.38
622.743	833.38
622.95	811.38
623.157	834.38
623.364	866.38
623.571	832.38
623.778	838.38
623.985	866.38
624.192	827.38
624.399	832.38
624.606	848.38
624.812	785.38
625.019	732.38
625.226	749.38
625.433	728.38
625.639	657.38
625.846	630.38
626.053	568.38
626.259	546.38
626.466	570.38
626.673	542.38
626.879	524.38
627.086	599.38
627.293	675.38
627.499	701.38
627.706	737.38
627.912	756.38
628.119	778.38
628.325	803.38
628.532	754.38
628.738	745.38
628.945	750.38
629.151	702.38
629.357	690.38
629.564	702.38
629.77	709.38
629.976	696.38
630.183	655.38
630.389	640.38
630.595	702.38
630.802	716.38
631.008	736.38
631.214	725.38
631.42	698.38
631.627	677.38
631.833	602.38
632.039	635.38
632.245	623.38
632.451	652.38
632.657	655.38
632.863	655.38
633.069	656.38
633.275	642.38
633.481	603.38
633.688	612.38
633.893	618.38
634.099	578.38
634.305	602.38
634.511	605.38
634.717	569.38
634.923	524.38
635.129	527.38
635.335	526.38
635.541	540.38
635.747	556.38
635.952	588.38
636.158	620.38
636.364	625.38
636.57	634.38
636.775	612.38
636.981	634.38
637.187	644.38
637.392	652.38
637.598	637.38
637.804	645.38
638.009	630.38
638.215	618.38
638.421	602.38
638.626	616.38
638.832	616.38
639.037	590.38
639.243	574.38
639.448	569.38
639.654	605.38
639.859	560.38
640.065	567.38
640.27	652.38
640.475	576.38
640.681	565.38
640.886	583.38
641.091	598.38
641.297	632.38
641.502	594.38
641.707	595.38
641.913	603.38
642.118	603.38
642.323	583.38
642.528	610.38
642.733	616.38
642.939	596.38
643.144	572.38
643.349	578.38
643.554	579.38
643.759	565.38
643.964	558.38
644.169	585.38
644.374	538.38
644.579	580.38
644.784	564.38
644.989	557.38
645.194	568.38
645.399	596.38
645.604	570.38
645.809	578.38
646.014	551.38
646.219	582.38
646.423	591.38
646.628	578.38
646.833	583.38
647.038	585.38
647.243	592.38
647.447	565.38
647.652	592.38
647.857	567.38
648.062	573.38
648.266	588.38
648.471	620.38
648.676	574.38
648.88	576.38
649.085	577.38
649.289	594.38
649.494	556.38
649.698	646.38
649.903	620.38
650.107	578.38
650.312	556.38
650.516	543.38
650.721	546.38
650.925	526.38
651.13	495.38
651.334	502.38
651.539	517.38
651.743	510.38
651.947	488.38
652.152	498.38
652.356	478.38
652.56	463.38
652.764	450.38
652.969	457.38
653.173	442.38
653.377	415.38
653.581	420.38
653.785	423.38
653.99	400.38
654.194	400.38
654.398	399.38
654.602	391.38
654.806	400.38
655.01	409.38
655.214	399.38
655.418	371.38
655.622	371.38
655.826	375.38
656.03	371.38
656.234	387.38
656.438	386.38
656.642	378.38
656.846	371.38
657.049	330.38
657.253	342.38
657.457	299.38
657.661	296.38
657.865	285.38
658.068	269.38
658.272	247.38
658.476	260.38
658.68	245.38
658.883	238.38
659.087	228.38
659.291	236.38
659.494	228.38
659.698	219.38
659.901	213.38
660.105	217.38
660.309	192.38
660.512	179.38
660.716	194.38
660.919	179.38
661.123	201.38
661.326	172.38
661.53	167.38
661.733	180.38
661.936	166.38
662.14	138.38
662.343	158.38
662.546	150.38
662.75	160.38
662.953	158.38
663.156	138.38
663.36	134.38
663.563	140.38
663.766	118.38
663.969	125.38
664.173	115.38
664.376	112.38
664.579	117.38
664.782	126.38
664.985	104.38
665.188	116.38
665.391	111.38
665.594	102.38
665.797	108.38
666	117.38
666.203	110.38
666.406	115.38
666.609	110.38
666.812	111.38
667.015	126.38
667.218	138.38
667.421	125.38
667.624	103.38
667.827	120.38
668.03	93.38
668.232	106.38
668.435	119.38
668.638	111.38
668.841	125.38
669.043	96.38
669.246	117.38
669.449	114.38
669.651	111.38
669.854	123.38
670.057	117.38
670.259	124.38
670.462	112.38
670.665	116.38
670.867	99.38
671.07	126.38
671.272	130.38
671.475	158.38
671.677	135.38
671.88	111.38
672.082	116.38
672.284	127.38
672.487	138.38
672.689	115.38
672.892	114.38
