Data from FlinnAP9092KCOPPER.07152019.QSWITCHSynchronous.EN10.20scans.P1_HRD10591_14-49-26-574.txt Node
Date: Mon Jul 15 14:49:26 EDT 2019
User: cochatt
Spectrometer: HR+D1059
Trigger mode: 5
Integration Time (sec): 1.000000E-1
Scans to average: 1
Electric dark correction enabled: true
Nonlinearity correction enabled: false
Boxcar width: 0
XAxis mode: Wavelengths
Number of Pixels in Spectrum: 2048
>>>>>Begin Spectral Data<<<<<
223.165	-46.69
223.4	-46.69
223.635	-46.69
223.869	-37.69
224.104	-45.69
224.338	9.31
224.573	-5.69
224.808	-16.69
225.042	19.31
225.277	-11.69
225.511	0.31
225.746	30.31
225.98	22.31
226.215	11.31
226.449	13.31
226.683	6.31
226.918	20.31
227.152	31.31
227.387	45.31
227.621	56.31
227.856	55.31
228.09	36.31
228.324	42.31
228.559	75.31
228.793	99.31
229.027	191.31
229.262	212.31
229.496	233.31
229.73	262.31
229.964	368.31
230.199	259.31
230.433	213.31
230.667	233.31
230.901	206.31
231.136	200.31
231.37	212.31
231.604	199.31
231.838	222.31
232.072	188.31
232.306	204.31
232.541	200.31
232.775	197.31
233.009	211.31
233.243	205.31
233.477	207.31
233.711	215.31
233.945	180.31
234.179	208.31
234.413	220.31
234.647	220.31
234.881	227.31
235.115	211.31
235.349	218.31
235.583	263.31
235.817	237.31
236.051	250.31
236.285	234.31
236.519	246.31
236.753	266.31
236.987	290.31
237.221	367.31
237.455	533.31
237.689	383.31
237.922	294.31
238.156	263.31
238.39	255.31
238.624	237.31
238.858	256.31
239.091	257.31
239.325	238.31
239.559	248.31
239.793	272.31
240.027	286.31
240.26	284.31
240.494	377.31
240.728	344.31
240.961	340.31
241.195	329.31
241.429	279.31
241.662	271.31
241.896	264.31
242.13	259.31
242.363	259.31
242.597	261.31
242.83	292.31
243.064	279.31
243.298	285.31
243.531	275.31
243.765	272.31
243.998	282.31
244.232	296.31
244.465	298.31
244.699	313.31
244.932	293.31
245.166	284.31
245.399	311.31
245.633	326.31
245.866	308.31
246.099	313.31
246.333	303.31
246.566	298.31
246.8	311.31
247.033	318.31
247.266	334.31
247.5	358.31
247.733	348.31
247.966	351.31
248.2	352.31
248.433	353.31
248.666	368.31
248.899	398.31
249.133	438.31
249.366	476.31
249.599	449.31
249.832	382.31
250.066	402.31
250.299	379.31
250.532	393.31
250.765	435.31
250.998	478.31
251.231	518.31
251.465	476.31
251.698	418.31
251.931	398.31
252.164	386.31
252.397	400.31
252.63	418.31
252.863	424.31
253.096	468.31
253.329	492.31
253.562	482.31
253.795	455.31
254.028	452.31
254.261	434.31
254.494	483.31
254.727	593.31
254.96	690.31
255.193	591.31
255.426	527.31
255.659	459.31
255.892	482.31
256.124	431.31
256.357	461.31
256.59	451.31
256.823	432.31
257.056	441.31
257.289	449.31
257.521	459.31
257.754	427.31
257.987	432.31
258.22	471.31
258.452	451.31
258.685	440.31
258.918	425.31
259.151	466.31
259.383	491.31
259.616	485.31
259.849	498.31
260.081	514.31
260.314	566.31
260.547	603.31
260.779	537.31
261.012	496.31
261.244	476.31
261.477	487.31
261.71	463.31
261.942	497.31
262.175	519.31
262.407	499.31
262.64	488.31
262.872	446.31
263.105	470.31
263.337	484.31
263.57	473.31
263.802	462.31
264.035	480.31
264.267	465.31
264.499	460.31
264.732	504.31
264.964	479.31
265.197	472.31
265.429	467.31
265.661	463.31
265.894	489.31
266.126	493.31
266.358	495.31
266.591	474.31
266.823	511.31
267.055	508.31
267.287	528.31
267.52	491.31
267.752	503.31
267.984	491.31
268.216	504.31
268.448	554.31
268.681	534.31
268.913	578.31
269.145	621.31
269.377	666.31
269.609	640.31
269.841	616.31
270.073	624.31
270.306	704.31
270.538	744.31
270.77	735.31
271.002	699.31
271.234	648.31
271.466	669.31
271.698	720.31
271.93	752.31
272.162	734.31
272.394	734.31
272.626	663.31
272.858	617.31
273.09	619.31
273.322	612.31
273.553	592.31
273.785	600.31
274.017	590.31
274.249	578.31
274.481	594.31
274.713	609.31
274.945	621.31
275.176	587.31
275.408	605.31
275.64	612.31
275.872	600.31
276.104	621.31
276.335	590.31
276.567	621.31
276.799	631.31
277.031	714.31
277.262	794.31
277.494	788.31
277.726	704.31
277.957	644.31
278.189	618.31
278.421	628.31
278.652	613.31
278.884	636.31
279.115	632.31
279.347	619.31
279.579	618.31
279.81	598.31
280.042	607.31
280.273	607.31
280.505	606.31
280.736	621.31
280.968	612.31
281.199	620.31
281.431	645.31
281.662	637.31
281.894	629.31
282.125	655.31
282.356	672.31
282.588	704.31
282.819	721.31
283.051	662.31
283.282	610.31
283.513	652.31
283.745	668.31
283.976	673.31
284.207	691.31
284.439	682.31
284.67	683.31
284.901	658.31
285.132	642.31
285.364	629.31
285.595	666.31
285.826	640.31
286.057	704.31
286.288	667.31
286.52	676.31
286.751	653.31
286.982	680.31
287.213	653.31
287.444	695.31
287.675	706.31
287.906	727.31
288.138	709.31
288.369	717.31
288.6	732.31
288.831	690.31
289.062	725.31
289.293	674.31
289.524	696.31
289.755	685.31
289.986	664.31
290.217	695.31
290.448	688.31
290.679	702.31
290.91	686.31
291.141	669.31
291.371	664.31
291.602	672.31
291.833	674.31
292.064	677.31
292.295	695.31
292.526	712.31
292.757	711.31
292.987	693.31
293.218	691.31
293.449	718.31
293.68	694.31
293.91	673.31
294.141	676.31
294.372	677.31
294.603	665.31
294.833	692.31
295.064	665.31
295.295	720.31
295.525	685.31
295.756	701.31
295.987	712.31
296.217	750.31
296.448	790.31
296.679	721.31
296.909	714.31
297.14	699.31
297.37	732.31
297.601	728.31
297.831	698.31
298.062	737.31
298.292	732.31
298.523	760.31
298.753	754.31
298.984	726.31
299.214	764.31
299.445	719.31
299.675	728.31
299.905	756.31
300.136	761.31
300.366	723.31
300.597	746.31
300.827	767.31
301.057	768.31
301.288	811.31
301.518	785.31
301.748	774.31
301.979	790.31
302.209	773.31
302.439	804.31
302.669	822.31
302.9	785.31
303.13	790.31
303.36	807.31
303.59	782.31
303.82	781.31
304.051	791.31
304.281	822.31
304.511	784.31
304.741	773.31
304.971	759.31
305.201	787.31
305.431	754.31
305.661	751.31
305.891	742.31
306.121	777.31
306.352	774.31
306.582	780.31
306.812	753.31
307.042	780.31
307.272	754.31
307.502	736.31
307.731	760.31
307.961	761.31
308.191	745.31
308.421	755.31
308.651	764.31
308.881	762.31
309.111	764.31
309.341	762.31
309.571	788.31
309.8	810.31
310.03	840.31
310.26	858.31
310.49	847.31
310.72	859.31
310.949	904.31
311.179	922.31
311.409	894.31
311.639	845.31
311.868	864.31
312.098	884.31
312.328	857.31
312.557	898.31
312.787	977.31
313.017	972.31
313.246	917.31
313.476	877.31
313.706	848.31
313.935	894.31
314.165	910.31
314.394	934.31
314.624	918.31
314.853	921.31
315.083	888.31
315.312	884.31
315.542	850.31
315.771	835.31
316.001	834.31
316.23	828.31
316.46	830.31
316.689	865.31
316.919	857.31
317.148	894.31
317.377	906.31
317.607	912.31
317.836	872.31
318.065	850.31
318.295	860.31
318.524	843.31
318.753	822.31
318.983	824.31
319.212	866.31
319.441	860.31
319.67	893.31
319.9	840.31
320.129	839.31
320.358	848.31
320.587	828.31
320.816	862.31
321.046	888.31
321.275	914.31
321.504	880.31
321.733	894.31
321.962	896.31
322.191	896.31
322.42	906.31
322.649	984.31
322.878	1011.31
323.108	988.31
323.337	1022.31
323.566	1081.31
323.795	1145.31
324.024	1251.31
324.253	1458.31
324.482	2180.31
324.71	3694.31
324.939	5853.31
325.168	5034.31
325.397	2050.31
325.626	1272.31
325.855	1139.31
326.084	1052.31
326.313	1030.31
326.542	1090.31
326.77	1192.31
326.999	1441.31
327.228	2061.31
327.457	3348.31
327.686	4418.31
327.914	2570.31
328.143	1524.31
328.372	1307.31
328.6	1250.31
328.829	1209.31
329.058	1268.31
329.287	1354.31
329.515	1228.31
329.744	1102.31
329.972	1055.31
330.201	1066.31
330.43	1145.31
330.658	1246.31
330.887	1419.31
331.115	1486.31
331.344	1183.31
331.572	1142.31
331.801	1117.31
332.03	1136.31
332.258	1129.31
332.486	1088.31
332.715	1064.31
332.943	1077.31
333.172	1103.31
333.4	1148.31
333.629	1189.31
333.857	1171.31
334.085	1133.31
334.314	1160.31
334.542	1138.31
334.771	1151.31
334.999	1151.31
335.227	1152.31
335.455	1109.31
335.684	1069.31
335.912	1090.31
336.14	1063.31
336.369	1056.31
336.597	1094.31
336.825	1089.31
337.053	1066.31
337.281	1051.31
337.51	1004.31
337.738	1033.31
337.966	1004.31
338.194	1022.31
338.422	1040.31
338.65	1007.31
338.878	1028.31
339.106	975.31
339.334	1005.31
339.562	961.31
339.79	957.31
340.018	941.31
340.246	933.31
340.474	979.31
340.702	977.31
340.93	960.31
341.158	972.31
341.386	974.31
341.614	987.31
341.842	942.31
342.07	924.31
342.298	963.31
342.526	949.31
342.754	938.31
342.981	912.31
343.209	938.31
343.437	984.31
343.665	986.31
343.893	1035.31
344.12	1087.31
344.348	1055.31
344.576	1057.31
344.804	1000.31
345.031	994.31
345.259	1046.31
345.487	1008.31
345.714	973.31
345.942	929.31
346.17	919.31
346.397	912.31
346.625	891.31
346.853	905.31
347.08	892.31
347.308	926.31
347.535	923.31
347.763	967.31
347.99	989.31
348.218	948.31
348.445	941.31
348.673	930.31
348.9	930.31
349.128	934.31
349.355	873.31
349.583	910.31
349.81	886.31
350.037	870.31
350.265	918.31
350.492	863.31
350.72	863.31
350.947	890.31
351.174	908.31
351.402	955.31
351.629	934.31
351.856	877.31
352.083	938.31
352.311	960.31
352.538	958.31
352.765	997.31
352.992	963.31
353.22	893.31
353.447	908.31
353.674	928.31
353.901	894.31
354.128	862.31
354.355	844.31
354.583	875.31
354.81	855.31
355.037	862.31
355.264	854.31
355.491	847.31
355.718	838.31
355.945	854.31
356.172	852.31
356.399	846.31
356.626	823.31
356.853	836.31
357.08	847.31
357.307	830.31
357.534	826.31
357.761	830.31
357.988	855.31
358.215	887.31
358.441	816.31
358.668	824.31
358.895	839.31
359.122	857.31
359.349	858.31
359.576	898.31
359.802	970.31
360.029	1052.31
360.256	1090.31
360.483	1064.31
360.709	922.31
360.936	953.31
361.163	898.31
361.39	918.31
361.616	926.31
361.843	894.31
362.07	908.31
362.296	914.31
362.523	910.31
362.749	898.31
362.976	898.31
363.203	911.31
363.429	853.31
363.656	887.31
363.882	874.31
364.109	914.31
364.335	876.31
364.562	874.31
364.788	830.31
365.015	875.31
365.241	868.31
365.468	899.31
365.694	870.31
365.92	889.31
366.147	866.31
366.373	855.31
366.599	839.31
366.826	839.31
367.052	838.31
367.278	869.31
367.505	868.31
367.731	867.31
367.957	873.31
368.184	848.31
368.41	877.31
368.636	938.31
368.862	964.31
369.089	868.31
369.315	892.31
369.541	894.31
369.767	892.31
369.993	909.31
370.219	896.31
370.445	896.31
370.672	877.31
370.898	894.31
371.124	888.31
371.35	885.31
371.576	896.31
371.802	856.31
372.028	893.31
372.254	884.31
372.48	914.31
372.706	887.31
372.932	922.31
373.158	878.31
373.384	908.31
373.61	914.31
373.835	901.31
374.061	892.31
374.287	924.31
374.513	911.31
374.739	934.31
374.965	954.31
375.191	958.31
375.416	986.31
375.642	931.31
375.868	946.31
376.094	912.31
376.319	889.31
376.545	898.31
376.771	870.31
376.997	916.31
377.222	888.31
377.448	885.31
377.674	902.31
377.899	888.31
378.125	888.31
378.35	904.31
378.576	871.31
378.802	876.31
379.027	936.31
379.253	913.31
379.478	889.31
379.704	895.31
379.929	902.31
380.155	915.31
380.38	900.31
380.606	908.31
380.831	911.31
381.057	965.31
381.282	931.31
381.507	963.31
381.733	955.31
381.958	884.31
382.184	908.31
382.409	949.31
382.634	970.31
382.86	958.31
383.085	986.31
383.31	973.31
383.535	1017.31
383.761	972.31
383.986	1012.31
384.211	987.31
384.436	1027.31
384.662	1003.31
384.887	1030.31
385.112	1044.31
385.337	1052.31
385.562	1068.31
385.787	1096.31
386.013	1128.31
386.238	1103.31
386.463	1097.31
386.688	1066.31
386.913	1050.31
387.138	1043.31
387.363	1053.31
387.588	1096.31
387.813	1080.31
388.038	1057.31
388.263	1088.31
388.488	1067.31
388.713	1046.31
388.938	1089.31
389.163	1103.31
389.387	1062.31
389.612	1032.31
389.837	1072.31
390.062	1085.31
390.287	1044.31
390.512	1058.31
390.736	1059.31
390.961	1063.31
391.186	1088.31
391.411	1127.31
391.636	1138.31
391.86	1168.31
392.085	1218.31
392.31	1228.31
392.534	1174.31
392.759	1161.31
392.984	1140.31
393.208	1101.31
393.433	1115.31
393.658	1092.31
393.882	1106.31
394.107	1148.31
394.331	1162.31
394.556	1130.31
394.78	1129.31
395.005	1162.31
395.229	1170.31
395.454	1207.31
395.678	1200.31
395.903	1266.31
396.127	1302.31
396.352	1282.31
396.576	1164.31
396.801	1142.31
397.025	1154.31
397.249	1189.31
397.474	1219.31
397.698	1189.31
397.922	1251.31
398.147	1248.31
398.371	1316.31
398.595	1286.31
398.82	1285.31
399.044	1379.31
399.268	1450.31
399.492	1638.31
399.717	1840.31
399.941	1881.31
400.165	1782.31
400.389	1705.31
400.613	1555.31
400.837	1435.31
401.062	1405.31
401.286	1352.31
401.51	1326.31
401.734	1345.31
401.958	1340.31
402.182	1337.31
402.406	1414.31
402.63	1456.31
402.854	1478.31
403.078	1484.31
403.302	1481.31
403.526	1506.31
403.75	1518.31
403.974	1511.31
404.198	1517.31
404.422	1547.31
404.645	1542.31
404.869	1501.31
405.093	1522.31
405.317	1550.31
405.541	1617.31
405.765	1547.31
405.988	1485.31
406.212	1543.31
406.436	1622.31
406.66	1664.31
406.883	1611.31
407.107	1709.31
407.331	1810.31
407.555	1983.31
407.778	1952.31
408.002	1809.31
408.226	1660.31
408.449	1608.31
408.673	1587.31
408.896	1700.31
409.12	1758.31
409.344	1666.31
409.567	1517.31
409.791	1503.31
410.014	1469.31
410.238	1465.31
410.461	1508.31
410.685	1499.31
410.908	1505.31
411.132	1644.31
411.355	1688.31
411.578	1576.31
411.802	1448.31
412.025	1385.31
412.249	1426.31
412.472	1458.31
412.695	1442.31
412.919	1412.31
413.142	1425.31
413.365	1395.31
413.589	1401.31
413.812	1377.31
414.035	1350.31
414.258	1362.31
414.482	1318.31
414.705	1434.31
414.928	1389.31
415.151	1390.31
415.374	1375.31
415.597	1376.31
415.821	1387.31
416.044	1423.31
416.267	1444.31
416.49	1373.31
416.713	1373.31
416.936	1398.31
417.159	1362.31
417.382	1445.31
417.605	1408.31
417.828	1485.31
418.051	1521.31
418.274	1501.31
418.497	1430.31
418.72	1445.31
418.943	1458.31
419.166	1556.31
419.389	1613.31
419.611	1586.31
419.834	1543.31
420.057	1542.31
420.28	1504.31
420.503	1510.31
420.726	1472.31
420.948	1487.31
421.171	1618.31
421.394	1688.31
421.617	1568.31
421.839	1528.31
422.062	1513.31
422.285	1514.31
422.507	1703.31
422.73	1904.31
422.953	1765.31
423.175	1579.31
423.398	1566.31
423.621	1610.31
423.843	1704.31
424.066	1674.31
424.288	1670.31
424.511	1687.31
424.733	1859.31
424.956	2058.31
425.178	1927.31
425.401	1940.31
425.623	1949.31
425.846	1680.31
426.068	1599.31
426.291	1522.31
426.513	1516.31
426.735	1607.31
426.958	1705.31
427.18	1886.31
427.402	2220.31
427.625	2472.31
427.847	1996.31
428.069	1731.31
428.292	1531.31
428.514	1459.31
428.736	1414.31
428.958	1391.31
429.181	1391.31
429.403	1373.31
429.625	1422.31
429.847	1497.31
430.069	1710.31
430.292	1725.31
430.514	1444.31
430.736	1410.31
430.958	1406.31
431.18	1354.31
431.402	1334.31
431.624	1265.31
431.846	1268.31
432.068	1186.31
432.29	1230.31
432.512	1312.31
432.734	1368.31
432.956	1387.31
433.178	1452.31
433.4	1488.31
433.622	1417.31
433.844	1388.31
434.066	1309.31
434.287	1274.31
434.509	1213.31
434.731	1272.31
434.953	1418.31
435.175	1514.31
435.397	1577.31
435.618	1535.31
435.84	1661.31
436.062	1956.31
436.284	2080.31
436.505	1705.31
436.727	1578.31
436.949	1481.31
437.17	1438.31
437.392	1389.31
437.614	1418.31
437.835	1432.31
438.057	1663.31
438.278	1992.31
438.5	1972.31
438.721	2286.31
438.943	2165.31
439.165	1670.31
439.386	1611.31
439.608	1675.31
439.829	1625.31
440.05	1812.31
440.272	1946.31
440.493	1808.31
440.715	1632.31
440.936	1598.31
441.158	1597.31
441.379	1571.31
441.6	1641.31
441.822	1698.31
442.043	1771.31
442.264	2011.31
442.486	2125.31
442.707	1770.31
442.928	1693.31
443.149	1758.31
443.371	1854.31
443.592	1911.31
443.813	2200.31
444.034	2328.31
444.255	1893.31
444.476	1792.31
444.698	1835.31
444.919	1806.31
445.14	3343.31
445.361	2453.31
445.582	1918.31
445.803	2170.31
446.024	2415.31
446.245	2397.31
446.466	2156.31
446.687	1783.31
446.908	1704.31
447.129	1615.31
447.35	1549.31
447.571	1525.31
447.792	1487.31
448.013	1470.31
448.234	1547.31
448.455	1650.31
448.675	1978.31
448.896	2299.31
449.117	1908.31
449.338	1738.31
449.559	2114.31
449.779	2411.31
450	1881.31
450.221	1557.31
450.442	1448.31
450.662	1440.31
450.883	1452.31
451.104	1479.31
451.324	1466.31
451.545	1348.31
451.766	1349.31
451.986	1279.31
452.207	1294.31
452.428	1247.31
452.648	1284.31
452.869	1224.31
453.089	1263.31
453.31	1248.31
453.53	1195.31
453.751	1178.31
453.971	1158.31
454.192	1224.31
454.412	1183.31
454.633	1174.31
454.853	1204.31
455.073	1223.31
455.294	1314.31
455.514	1496.31
455.734	1418.31
455.955	1259.31
456.175	1132.31
456.395	1111.31
456.616	1108.31
456.836	1094.31
457.056	1063.31
457.276	1055.31
457.497	1069.31
457.717	1098.31
457.937	1097.31
458.157	1096.31
458.377	1111.31
458.598	1151.31
458.818	1284.31
459.038	1591.31
459.258	1596.31
459.478	1297.31
459.698	1206.31
459.918	1236.31
460.138	1256.31
460.358	1358.31
460.578	1397.31
460.798	1376.31
461.018	1404.31
461.238	1376.31
461.458	1352.31
461.678	1371.31
461.898	1360.31
462.118	1386.31
462.338	1438.31
462.558	1515.31
462.777	1486.31
462.997	1597.31
463.217	1638.31
463.437	1630.31
463.657	1542.31
463.876	1468.31
464.096	1495.31
464.316	1486.31
464.536	1554.31
464.755	1533.31
464.975	1542.31
465.195	1614.31
465.414	1779.31
465.634	1513.31
465.854	1387.31
466.073	1336.31
466.293	1317.31
466.512	1322.31
466.732	1304.31
466.951	1315.31
467.171	1356.31
467.391	1384.31
467.61	1414.31
467.829	1372.31
468.049	1344.31
468.268	1296.31
468.488	1344.31
468.707	1304.31
468.927	1322.31
469.146	1280.31
469.365	1339.31
469.585	1308.31
469.804	1355.31
470.023	1446.31
470.243	1438.31
470.462	1472.31
470.681	1531.31
470.901	1471.31
471.12	1436.31
471.339	1452.31
471.558	1403.31
471.777	1366.31
471.997	1314.31
472.216	1263.31
472.435	1175.31
472.654	1106.31
472.873	1145.31
473.092	1150.31
473.311	1237.31
473.53	1272.31
473.749	1284.31
473.968	1401.31
474.187	1676.31
474.406	1688.31
474.625	1378.31
474.844	1346.31
475.063	1292.31
475.282	1255.31
475.501	1214.31
475.72	1300.31
475.939	1255.31
476.158	1298.31
476.377	1283.31
476.596	1243.31
476.814	1228.31
477.033	1227.31
477.252	1265.31
477.471	1310.31
477.69	1403.31
477.908	1446.31
478.127	1511.31
478.346	1473.31
478.564	1469.31
478.783	1495.31
479.002	1542.31
479.22	1575.31
479.439	1591.31
479.658	1526.31
479.876	1502.31
480.095	1451.31
480.313	1629.31
480.532	1615.31
480.751	1523.31
480.969	1419.31
481.188	1374.31
481.406	1362.31
481.624	1327.31
481.843	1283.31
482.061	1270.31
482.28	1339.31
482.498	1319.31
482.717	1304.31
482.935	1369.31
483.153	1503.31
483.372	1540.31
483.59	1550.31
483.808	1456.31
484.027	1430.31
484.245	1423.31
484.463	1505.31
484.681	1571.31
484.9	1508.31
485.118	1538.31
485.336	1451.31
485.554	1395.31
485.772	1366.31
485.99	1374.31
486.209	1406.31
486.427	1420.31
486.645	1497.31
486.863	1640.31
487.081	1661.31
487.299	1606.31
487.517	1646.31
487.735	1753.31
487.953	1903.31
488.171	1886.31
488.389	1772.31
488.607	1679.31
488.825	1594.31
489.043	1535.31
489.261	1580.31
489.479	1619.31
489.696	1670.31
489.914	1633.31
490.132	1705.31
490.35	1788.31
490.568	1854.31
490.786	1967.31
491.003	1994.31
491.221	2073.31
491.439	2189.31
491.657	2212.31
491.874	2358.31
492.092	2381.31
492.31	2485.31
492.527	2435.31
492.745	2325.31
492.963	2294.31
493.18	2232.31
493.398	2207.31
493.615	2197.31
493.833	2153.31
494.05	2204.31
494.268	2133.31
494.485	2143.31
494.703	2183.31
494.92	2134.31
495.138	2088.31
495.355	2116.31
495.573	2176.31
495.79	2127.31
496.008	2148.31
496.225	2066.31
496.442	2044.31
496.66	2085.31
496.877	2074.31
497.094	2085.31
497.312	2020.31
497.529	2040.31
497.746	2038.31
497.963	1986.31
498.181	2014.31
498.398	2030.31
498.615	2021.31
498.832	2091.31
499.049	2199.31
499.267	2307.31
499.484	2467.31
499.701	2652.31
499.918	2882.31
500.135	3111.31
500.352	3406.31
500.569	3439.31
500.786	3502.31
501.003	3338.31
501.22	3082.31
501.437	2960.31
501.654	2738.31
501.871	2590.31
502.088	2412.31
502.305	2274.31
502.522	2197.31
502.739	2083.31
502.956	2010.31
503.172	1867.31
503.389	1821.31
503.606	1889.31
503.823	1830.31
504.04	1816.31
504.256	1802.31
504.473	1812.31
504.69	1846.31
504.907	1881.31
505.123	1758.31
505.34	1684.31
505.557	1682.31
505.773	1671.31
505.99	1674.31
506.207	1680.31
506.423	1645.31
506.64	1631.31
506.856	1596.31
507.073	1585.31
507.289	1577.31
507.506	1554.31
507.722	1631.31
507.939	1620.31
508.155	1555.31
508.372	1474.31
508.588	1484.31
508.805	1475.31
509.021	1423.31
509.238	1527.31
509.454	1512.31
509.67	1440.31
509.887	1422.31
510.103	1361.31
510.319	1398.31
510.536	1612.31
510.752	2599.31
510.968	1907.31
511.184	1311.31
511.401	1273.31
511.617	1256.31
511.833	1254.31
512.049	1258.31
512.265	1251.31
512.481	1254.31
512.698	1296.31
512.914	1298.31
513.13	1238.31
513.346	1274.31
513.562	1255.31
513.778	1270.31
513.994	1266.31
514.21	1310.31
514.426	1387.31
514.642	1472.31
514.858	1524.31
515.074	1592.31
515.29	2021.31
515.506	3138.31
515.721	2294.31
515.937	1594.31
516.153	1440.31
516.369	1415.31
516.585	1435.31
516.801	1383.31
517.016	1450.31
517.232	1449.31
517.448	1544.31
517.664	1523.31
517.879	1554.31
518.095	1534.31
518.311	1513.31
518.527	1501.31
518.742	1481.31
518.958	1391.31
519.173	1438.31
519.389	1408.31
519.605	1389.31
519.82	1388.31
520.036	1450.31
520.251	1476.31
520.467	1496.31
520.682	1432.31
520.898	1411.31
521.113	1474.31
521.329	1561.31
521.544	1765.31
521.76	2372.31
521.975	4191.31
522.19	3722.31
522.406	1948.31
522.621	1472.31
522.836	1352.31
523.052	1326.31
523.267	1276.31
523.482	1268.31
523.698	1289.31
523.913	1310.31
524.128	1313.31
524.343	1311.31
524.559	1274.31
524.774	1248.31
524.989	1296.31
525.204	1272.31
525.419	1282.31
525.634	1210.31
525.849	1199.31
526.064	1135.31
526.28	1141.31
526.495	1061.31
526.71	1024.31
526.925	985.31
527.14	1017.31
527.355	1007.31
527.57	1050.31
527.785	1058.31
527.999	1043.31
528.214	1113.31
528.429	1176.31
528.644	1219.31
528.859	1330.31
529.074	1380.31
529.289	1483.31
529.503	1688.31
529.718	1519.31
529.933	1284.31
530.148	1135.31
530.363	1092.31
530.577	1026.31
530.792	1019.31
531.007	994.31
531.221	1032.31
531.436	1020.31
531.651	1017.31
531.865	1003.31
532.08	1000.31
532.295	1045.31
532.509	1005.31
532.724	972.31
532.938	1020.31
533.153	1046.31
533.367	1121.31
533.582	1202.31
533.796	1161.31
534.011	1131.31
534.225	1050.31
534.44	1020.31
534.654	1032.31
534.868	1063.31
535.083	1054.31
535.297	1050.31
535.511	1091.31
535.726	1156.31
535.94	1098.31
536.154	1034.31
536.369	953.31
536.583	950.31
536.797	976.31
537.011	967.31
537.225	979.31
537.44	983.31
537.654	1005.31
537.868	987.31
538.082	1003.31
538.296	1052.31
538.51	1092.31
538.724	1140.31
538.938	1196.31
539.153	1247.31
539.367	1216.31
539.581	1175.31
539.795	1083.31
540.009	1048.31
540.222	1080.31
540.436	1099.31
540.65	1248.31
540.864	1301.31
541.078	1404.31
541.292	1468.31
541.506	1555.31
541.72	1727.31
541.934	1860.31
542.147	1906.31
542.361	1799.31
542.575	1679.31
542.789	1601.31
543.002	1474.31
543.216	1425.31
543.43	1425.31
543.644	1544.31
543.857	1646.31
544.071	1678.31
544.285	1759.31
544.498	1692.31
544.712	1763.31
544.925	1757.31
545.139	1706.31
545.352	1727.31
545.566	1731.31
545.779	1725.31
545.993	1773.31
546.206	2005.31
546.42	2033.31
546.633	1762.31
546.847	1671.31
547.06	1646.31
547.274	1730.31
547.487	1744.31
547.7	1763.31
547.914	1697.31
548.127	1654.31
548.34	1650.31
548.554	1609.31
548.767	1618.31
548.98	1638.31
549.193	1614.31
549.407	1636.31
549.62	1643.31
549.833	1637.31
550.046	1589.31
550.259	1600.31
550.473	1552.31
550.686	1570.31
550.899	1525.31
551.112	1509.31
551.325	1412.31
551.538	1334.31
551.751	1244.31
551.964	1211.31
552.177	1348.31
552.39	1451.31
552.603	1524.31
552.816	1596.31
553.029	1608.31
553.242	1655.31
553.455	1725.31
553.667	1758.31
553.88	1701.31
554.093	1636.31
554.306	1646.31
554.519	1559.31
554.732	1512.31
554.944	1520.31
555.157	1462.31
555.37	1460.31
555.583	1430.31
555.795	1383.31
556.008	1298.31
556.221	1280.31
556.433	1312.31
556.646	1289.31
556.859	1286.31
557.071	1305.31
557.284	1310.31
557.496	1337.31
557.709	1298.31
557.921	1349.31
558.134	1308.31
558.346	1272.31
558.559	1290.31
558.771	1218.31
558.984	1232.31
559.196	1218.31
559.409	1185.31
559.621	1198.31
559.833	1151.31
560.046	1194.31
560.258	1218.31
560.47	1224.31
560.683	1200.31
560.895	1206.31
561.107	1194.31
561.32	1168.31
561.532	1200.31
561.744	1219.31
561.956	1243.31
562.168	1236.31
562.381	1195.31
562.593	1208.31
562.805	1170.31
563.017	1162.31
563.229	1152.31
563.441	1183.31
563.653	1152.31
563.865	1167.31
564.077	1119.31
564.289	1151.31
564.501	1158.31
564.713	1186.31
564.925	1180.31
565.137	1206.31
565.349	1207.31
565.561	1202.31
565.773	1206.31
565.985	1253.31
566.197	1306.31
566.408	1364.31
566.62	1459.31
566.832	1478.31
567.044	1502.31
567.255	1466.31
567.467	1475.31
567.679	1452.31
567.891	1526.31
568.102	1513.31
568.314	1410.31
568.526	1292.31
568.737	1167.31
568.949	1076.31
569.161	1000.31
569.372	943.31
569.584	880.31
569.795	902.31
570.007	867.31
570.218	954.31
570.43	917.31
570.641	887.31
570.853	895.31
571.064	958.31
571.276	988.31
571.487	974.31
571.698	946.31
571.91	934.31
572.121	910.31
572.333	849.31
572.544	826.31
572.755	786.31
572.966	762.31
573.178	730.31
573.389	725.31
573.6	695.31
573.811	675.31
574.023	699.31
574.234	686.31
574.445	737.31
574.656	733.31
574.867	762.31
575.078	791.31
575.289	774.31
575.501	758.31
575.712	745.31
575.923	770.31
576.134	759.31
576.345	752.31
576.556	792.31
576.767	770.31
576.978	792.31
577.188	858.31
577.399	757.31
577.61	706.31
577.821	744.31
578.032	756.31
578.243	789.31
578.454	1174.31
578.665	846.31
578.875	696.31
579.086	664.31
579.297	715.31
579.508	635.31
579.718	643.31
579.929	656.31
580.14	659.31
580.35	642.31
580.561	670.31
580.772	693.31
580.982	710.31
581.193	680.31
581.403	700.31
581.614	708.31
581.825	680.31
582.035	684.31
582.246	708.31
582.456	681.31
582.667	692.31
582.877	701.31
583.087	648.31
583.298	685.31
583.508	685.31
583.719	660.31
583.929	704.31
584.139	678.31
584.35	656.31
584.56	677.31
584.77	674.31
584.981	679.31
585.191	660.31
585.401	662.31
585.611	647.31
585.821	649.31
586.032	646.31
586.242	633.31
586.452	630.31
586.662	624.31
586.872	607.31
587.082	621.31
587.292	656.31
587.502	671.31
587.713	691.31
587.923	662.31
588.133	656.31
588.343	664.31
588.553	630.31
588.762	652.31
588.972	632.31
589.182	613.31
589.392	618.31
589.602	638.31
589.812	613.31
590.022	662.31
590.232	607.31
590.441	626.31
590.651	623.31
590.861	620.31
591.071	631.31
591.281	670.31
591.49	649.31
591.7	646.31
591.91	663.31
592.119	648.31
592.329	714.31
592.539	737.31
592.748	740.31
592.958	765.31
593.167	732.31
593.377	760.31
593.587	806.31
593.796	791.31
594.006	755.31
594.215	740.31
594.424	784.31
594.634	779.31
594.843	797.31
595.053	794.31
595.262	733.31
595.472	725.31
595.681	711.31
595.89	655.31
596.1	654.31
596.309	686.31
596.518	664.31
596.727	708.31
596.937	652.31
597.146	675.31
597.355	676.31
597.564	602.31
597.774	643.31
597.983	578.31
598.192	593.31
598.401	540.31
598.61	572.31
598.819	607.31
599.028	637.31
599.237	636.31
599.446	610.31
599.655	615.31
599.864	595.31
600.073	611.31
600.282	643.31
600.491	636.31
600.7	634.31
600.909	626.31
601.118	699.31
601.327	749.31
601.536	770.31
601.745	760.31
601.953	803.31
602.162	783.31
602.371	778.31
602.58	809.31
602.789	815.31
602.997	796.31
603.206	862.31
603.415	832.31
603.623	822.31
603.832	820.31
604.041	766.31
604.249	713.31
604.458	662.31
604.666	626.31
604.875	662.31
605.084	710.31
605.292	764.31
605.501	812.31
605.709	873.31
605.918	876.31
606.126	898.31
606.334	872.31
606.543	877.31
606.751	866.31
606.96	858.31
607.168	855.31
607.376	835.31
607.585	885.31
607.793	872.31
608.001	893.31
608.21	902.31
608.418	908.31
608.626	891.31
608.834	900.31
609.043	910.31
609.251	887.31
609.459	909.31
609.667	942.31
609.875	965.31
610.083	972.31
610.291	986.31
610.499	992.31
610.707	1043.31
610.916	1090.31
611.124	1188.31
611.332	1291.31
611.54	1428.31
611.748	1360.31
611.955	1226.31
612.163	1135.31
612.371	1082.31
612.579	1039.31
612.787	1026.31
612.995	1019.31
613.203	1033.31
613.411	1037.31
613.618	943.31
613.826	944.31
614.034	968.31
614.242	980.31
614.449	981.31
614.657	968.31
614.865	973.31
615.072	985.31
615.28	960.31
615.488	938.31
615.695	945.31
615.903	950.31
616.111	903.31
616.318	972.31
616.526	930.31
616.733	969.31
616.941	959.31
617.148	962.31
617.356	930.31
617.563	925.31
617.771	891.31
617.978	869.31
618.185	873.31
618.393	891.31
618.6	934.31
618.807	910.31
619.015	890.31
619.222	895.31
619.429	888.31
619.637	809.31
619.844	733.31
620.051	768.31
620.258	853.31
620.466	849.31
620.673	858.31
620.88	846.31
621.087	861.31
621.294	822.31
621.501	789.31
621.708	784.31
621.915	817.31
622.122	846.31
622.329	883.31
622.536	886.31
622.743	869.31
622.95	849.31
623.157	810.31
623.364	861.31
623.571	859.31
623.778	825.31
623.985	857.31
624.192	854.31
624.399	842.31
624.606	857.31
624.812	802.31
625.019	772.31
625.226	736.31
625.433	746.31
625.639	676.31
625.846	624.31
626.053	572.31
626.259	555.31
626.466	554.31
626.673	550.31
626.879	527.31
627.086	619.31
627.293	677.31
627.499	734.31
627.706	782.31
627.912	775.31
628.119	760.31
628.325	766.31
628.532	756.31
628.738	732.31
628.945	694.31
629.151	699.31
629.357	679.31
629.564	691.31
629.77	703.31
629.976	685.31
630.183	636.31
630.389	617.31
630.595	708.31
630.802	706.31
631.008	730.31
631.214	716.31
631.42	718.31
631.627	690.31
631.833	601.31
632.039	652.31
632.245	642.31
632.451	671.31
632.657	653.31
632.863	644.31
633.069	646.31
633.275	642.31
633.481	606.31
633.688	610.31
633.893	607.31
634.099	605.31
634.305	603.31
634.511	580.31
634.717	562.31
634.923	530.31
635.129	517.31
635.335	538.31
635.541	509.31
635.747	550.31
635.952	587.31
636.158	626.31
636.364	646.31
636.57	623.31
636.775	653.31
636.981	629.31
637.187	660.31
637.392	645.31
637.598	643.31
637.804	640.31
638.009	615.31
638.215	619.31
638.421	606.31
638.626	608.31
638.832	598.31
639.037	586.31
639.243	587.31
639.448	567.31
639.654	597.31
639.859	539.31
640.065	574.31
640.27	648.31
640.475	591.31
640.681	550.31
640.886	578.31
641.091	609.31
641.297	646.31
641.502	598.31
641.707	610.31
641.913	614.31
642.118	589.31
642.323	599.31
642.528	603.31
642.733	598.31
642.939	607.31
643.144	570.31
643.349	570.31
643.554	582.31
643.759	568.31
643.964	544.31
644.169	590.31
644.374	552.31
644.579	574.31
644.784	572.31
644.989	562.31
645.194	563.31
645.399	602.31
645.604	585.31
645.809	574.31
646.014	566.31
646.219	564.31
646.423	573.31
646.628	571.31
646.833	597.31
647.038	590.31
647.243	581.31
647.447	591.31
647.652	583.31
647.857	575.31
648.062	591.31
648.266	562.31
648.471	573.31
648.676	582.31
648.88	581.31
649.085	584.31
649.289	561.31
649.494	570.31
649.698	639.31
649.903	619.31
650.107	582.31
650.312	575.31
650.516	522.31
650.721	538.31
650.925	510.31
651.13	508.31
651.334	499.31
651.539	490.31
651.743	491.31
651.947	495.31
652.152	500.31
652.356	478.31
652.56	462.31
652.764	469.31
652.969	442.31
653.173	446.31
653.377	413.31
653.581	413.31
653.785	428.31
653.99	406.31
654.194	427.31
654.398	396.31
654.602	400.31
654.806	386.31
655.01	421.31
655.214	399.31
655.418	406.31
655.622	365.31
655.826	368.31
656.03	379.31
656.234	390.31
656.438	391.31
656.642	367.31
656.846	369.31
657.049	344.31
657.253	345.31
657.457	339.31
657.661	303.31
657.865	277.31
658.068	280.31
658.272	247.31
658.476	276.31
658.68	250.31
658.883	212.31
659.087	228.31
659.291	246.31
659.494	222.31
659.698	216.31
659.901	206.31
660.105	194.31
660.309	185.31
660.512	181.31
660.716	187.31
660.919	171.31
661.123	205.31
661.326	162.31
661.53	172.31
661.733	158.31
661.936	157.31
662.14	144.31
662.343	147.31
662.546	150.31
662.75	130.31
662.953	167.31
663.156	120.31
663.36	132.31
663.563	130.31
663.766	120.31
663.969	138.31
664.173	112.31
664.376	122.31
664.579	116.31
664.782	117.31
664.985	127.31
665.188	107.31
665.391	114.31
665.594	98.31
665.797	119.31
666	108.31
666.203	112.31
666.406	109.31
666.609	101.31
666.812	115.31
667.015	111.31
667.218	129.31
667.421	130.31
667.624	112.31
667.827	120.31
668.03	109.31
668.232	114.31
668.435	100.31
668.638	114.31
668.841	125.31
669.043	91.31
669.246	118.31
669.449	109.31
669.651	144.31
669.854	114.31
670.057	122.31
670.259	100.31
670.462	120.31
670.665	120.31
670.867	125.31
671.07	126.31
671.272	130.31
671.475	152.31
671.677	109.31
671.88	112.31
672.082	92.31
672.284	131.31
672.487	130.31
672.689	102.31
672.892	98.31
