Data from FlinnAP9092KCOPPER.07152019.QSWITCHSynchronous.EN10.20scans.P1_HRD10591_14-49-15-574.txt Node
Date: Mon Jul 15 14:49:15 EDT 2019
User: cochatt
Spectrometer: HR+D1059
Trigger mode: 5
Integration Time (sec): 1.000000E-1
Scans to average: 1
Electric dark correction enabled: true
Nonlinearity correction enabled: false
Boxcar width: 0
XAxis mode: Wavelengths
Number of Pixels in Spectrum: 2048
>>>>>Begin Spectral Data<<<<<
223.165	-28.12
223.4	-28.12
223.635	-28.12
223.869	-29.12
224.104	-43.12
224.338	0.88
224.573	-16.12
224.808	-13.12
225.042	19.88
225.277	-0.12
225.511	-10.12
225.746	16.88
225.98	-2.12
226.215	9.88
226.449	19.88
226.683	21.88
226.918	25.88
227.152	26.88
227.387	43.88
227.621	28.88
227.856	63.88
228.09	25.88
228.324	55.88
228.559	90.88
228.793	100.88
229.027	196.88
229.262	216.88
229.496	234.88
229.73	281.88
229.964	373.88
230.199	263.88
230.433	225.88
230.667	211.88
230.901	194.88
231.136	191.88
231.37	193.88
231.604	184.88
231.838	187.88
232.072	213.88
232.306	220.88
232.541	196.88
232.775	195.88
233.009	196.88
233.243	200.88
233.477	214.88
233.711	216.88
233.945	212.88
234.179	205.88
234.413	230.88
234.647	220.88
234.881	217.88
235.115	228.88
235.349	204.88
235.583	235.88
235.817	227.88
236.051	257.88
236.285	244.88
236.519	241.88
236.753	239.88
236.987	289.88
237.221	360.88
237.455	522.88
237.689	407.88
237.922	305.88
238.156	276.88
238.39	257.88
238.624	246.88
238.858	241.88
239.091	241.88
239.325	239.88
239.559	267.88
239.793	269.88
240.027	311.88
240.26	311.88
240.494	345.88
240.728	310.88
240.961	312.88
241.195	296.88
241.429	300.88
241.662	258.88
241.896	253.88
242.13	275.88
242.363	267.88
242.597	259.88
242.83	289.88
243.064	274.88
243.298	287.88
243.531	255.88
243.765	300.88
243.998	290.88
244.232	300.88
244.465	303.88
244.699	279.88
244.932	280.88
245.166	293.88
245.399	303.88
245.633	301.88
245.866	289.88
246.099	284.88
246.333	305.88
246.566	297.88
246.8	308.88
247.033	314.88
247.266	323.88
247.5	325.88
247.733	365.88
247.966	364.88
248.2	360.88
248.433	363.88
248.666	368.88
248.899	423.88
249.133	444.88
249.366	498.88
249.599	441.88
249.832	390.88
250.066	385.88
250.299	379.88
250.532	375.88
250.765	422.88
250.998	483.88
251.231	492.88
251.465	469.88
251.698	394.88
251.931	410.88
252.164	413.88
252.397	409.88
252.63	421.88
252.863	416.88
253.096	458.88
253.329	507.88
253.562	497.88
253.795	477.88
254.028	461.88
254.261	467.88
254.494	471.88
254.727	587.88
254.96	663.88
255.193	607.88
255.426	523.88
255.659	476.88
255.892	462.88
256.124	430.88
256.357	452.88
256.59	452.88
256.823	419.88
257.056	450.88
257.289	442.88
257.521	448.88
257.754	448.88
257.987	436.88
258.22	480.88
258.452	413.88
258.685	455.88
258.918	437.88
259.151	447.88
259.383	488.88
259.616	490.88
259.849	479.88
260.081	544.88
260.314	570.88
260.547	586.88
260.779	545.88
261.012	509.88
261.244	471.88
261.477	516.88
261.71	483.88
261.942	489.88
262.175	542.88
262.407	541.88
262.64	461.88
262.872	483.88
263.105	474.88
263.337	488.88
263.57	467.88
263.802	458.88
264.035	461.88
264.267	460.88
264.499	478.88
264.732	485.88
264.964	469.88
265.197	465.88
265.429	479.88
265.661	489.88
265.894	481.88
266.126	519.88
266.358	490.88
266.591	510.88
266.823	502.88
267.055	519.88
267.287	522.88
267.52	515.88
267.752	524.88
267.984	529.88
268.216	506.88
268.448	552.88
268.681	545.88
268.913	584.88
269.145	634.88
269.377	667.88
269.609	642.88
269.841	633.88
270.073	615.88
270.306	705.88
270.538	753.88
270.77	753.88
271.002	694.88
271.234	668.88
271.466	699.88
271.698	700.88
271.93	764.88
272.162	748.88
272.394	755.88
272.626	691.88
272.858	668.88
273.09	633.88
273.322	599.88
273.553	583.88
273.785	610.88
274.017	585.88
274.249	587.88
274.481	616.88
274.713	581.88
274.945	625.88
275.176	589.88
275.408	611.88
275.64	608.88
275.872	599.88
276.104	590.88
276.335	604.88
276.567	637.88
276.799	685.88
277.031	731.88
277.262	803.88
277.494	797.88
277.726	721.88
277.957	675.88
278.189	629.88
278.421	614.88
278.652	633.88
278.884	601.88
279.115	620.88
279.347	628.88
279.579	626.88
279.81	617.88
280.042	599.88
280.273	596.88
280.505	596.88
280.736	609.88
280.968	624.88
281.199	631.88
281.431	636.88
281.662	629.88
281.894	641.88
282.125	660.88
282.356	721.88
282.588	737.88
282.819	759.88
283.051	655.88
283.282	627.88
283.513	674.88
283.745	645.88
283.976	677.88
284.207	688.88
284.439	652.88
284.67	636.88
284.901	675.88
285.132	645.88
285.364	639.88
285.595	662.88
285.826	667.88
286.057	679.88
286.288	670.88
286.52	678.88
286.751	670.88
286.982	689.88
287.213	674.88
287.444	693.88
287.675	692.88
287.906	712.88
288.138	723.88
288.369	726.88
288.6	737.88
288.831	713.88
289.062	731.88
289.293	716.88
289.524	675.88
289.755	689.88
289.986	672.88
290.217	697.88
290.448	689.88
290.679	695.88
290.91	709.88
291.141	695.88
291.371	679.88
291.602	672.88
291.833	699.88
292.064	683.88
292.295	698.88
292.526	689.88
292.757	710.88
292.987	685.88
293.218	708.88
293.449	714.88
293.68	693.88
293.91	688.88
294.141	698.88
294.372	708.88
294.603	728.88
294.833	696.88
295.064	659.88
295.295	702.88
295.525	694.88
295.756	759.88
295.987	729.88
296.217	787.88
296.448	820.88
296.679	743.88
296.909	721.88
297.14	729.88
297.37	722.88
297.601	698.88
297.831	725.88
298.062	725.88
298.292	753.88
298.523	740.88
298.753	751.88
298.984	741.88
299.214	740.88
299.445	746.88
299.675	740.88
299.905	778.88
300.136	751.88
300.366	724.88
300.597	742.88
300.827	769.88
301.057	766.88
301.288	817.88
301.518	824.88
301.748	794.88
301.979	755.88
302.209	790.88
302.439	825.88
302.669	782.88
302.9	797.88
303.13	788.88
303.36	773.88
303.59	823.88
303.82	799.88
304.051	820.88
304.281	809.88
304.511	812.88
304.741	767.88
304.971	759.88
305.201	783.88
305.431	759.88
305.661	795.88
305.891	754.88
306.121	765.88
306.352	759.88
306.582	770.88
306.812	785.88
307.042	772.88
307.272	760.88
307.502	776.88
307.731	788.88
307.961	773.88
308.191	751.88
308.421	780.88
308.651	783.88
308.881	751.88
309.111	769.88
309.341	769.88
309.571	786.88
309.8	855.88
310.03	854.88
310.26	875.88
310.49	848.88
310.72	882.88
310.949	923.88
311.179	955.88
311.409	887.88
311.639	856.88
311.868	876.88
312.098	884.88
312.328	883.88
312.557	956.88
312.787	979.88
313.017	985.88
313.246	921.88
313.476	869.88
313.706	850.88
313.935	868.88
314.165	922.88
314.394	990.88
314.624	967.88
314.853	908.88
315.083	898.88
315.312	887.88
315.542	832.88
315.771	843.88
316.001	870.88
316.23	861.88
316.46	870.88
316.689	848.88
316.919	864.88
317.148	917.88
317.377	931.88
317.607	908.88
317.836	854.88
318.065	844.88
318.295	853.88
318.524	831.88
318.753	832.88
318.983	859.88
319.212	845.88
319.441	847.88
319.67	899.88
319.9	871.88
320.129	857.88
320.358	853.88
320.587	885.88
320.816	871.88
321.046	877.88
321.275	924.88
321.504	865.88
321.733	872.88
321.962	884.88
322.191	913.88
322.42	933.88
322.649	991.88
322.878	1001.88
323.108	1021.88
323.337	1067.88
323.566	1116.88
323.795	1196.88
324.024	1225.88
324.253	1507.88
324.482	2245.88
324.71	3739.88
324.939	5873.88
325.168	5122.88
325.397	2089.88
325.626	1323.88
325.855	1144.88
326.084	1052.88
326.313	1066.88
326.542	1068.88
326.77	1187.88
326.999	1437.88
327.228	2096.88
327.457	3420.88
327.686	4486.88
327.914	2685.88
328.143	1558.88
328.372	1354.88
328.6	1295.88
328.829	1205.88
329.058	1304.88
329.287	1359.88
329.515	1275.88
329.744	1133.88
329.972	1110.88
330.201	1076.88
330.43	1146.88
330.658	1234.88
330.887	1475.88
331.115	1499.88
331.344	1222.88
331.572	1146.88
331.801	1151.88
332.03	1143.88
332.258	1125.88
332.486	1077.88
332.715	1066.88
332.943	1077.88
333.172	1097.88
333.4	1107.88
333.629	1169.88
333.857	1220.88
334.085	1195.88
334.314	1155.88
334.542	1168.88
334.771	1139.88
334.999	1139.88
335.227	1127.88
335.455	1110.88
335.684	1088.88
335.912	1066.88
336.14	1047.88
336.369	1051.88
336.597	1085.88
336.825	1083.88
337.053	1058.88
337.281	1027.88
337.51	1028.88
337.738	1069.88
337.966	1015.88
338.194	1036.88
338.422	1036.88
338.65	1023.88
338.878	1002.88
339.106	987.88
339.334	1016.88
339.562	962.88
339.79	963.88
340.018	1001.88
340.246	949.88
340.474	999.88
340.702	1008.88
340.93	982.88
341.158	964.88
341.386	977.88
341.614	979.88
341.842	948.88
342.07	936.88
342.298	955.88
342.526	920.88
342.754	917.88
342.981	956.88
343.209	917.88
343.437	1001.88
343.665	1013.88
343.893	1067.88
344.12	1142.88
344.348	1067.88
344.576	1042.88
344.804	1009.88
345.031	1042.88
345.259	1062.88
345.487	1023.88
345.714	978.88
345.942	930.88
346.17	916.88
346.397	923.88
346.625	905.88
346.853	939.88
347.08	895.88
347.308	951.88
347.535	917.88
347.763	941.88
347.99	967.88
348.218	979.88
348.445	973.88
348.673	988.88
348.9	948.88
349.128	916.88
349.355	873.88
349.583	893.88
349.81	872.88
350.037	887.88
350.265	901.88
350.492	884.88
350.72	887.88
350.947	877.88
351.174	935.88
351.402	958.88
351.629	943.88
351.856	923.88
352.083	923.88
352.311	955.88
352.538	954.88
352.765	994.88
352.992	925.88
353.22	927.88
353.447	921.88
353.674	909.88
353.901	903.88
354.128	886.88
354.355	849.88
354.583	863.88
354.81	850.88
355.037	888.88
355.264	831.88
355.491	849.88
355.718	836.88
355.945	862.88
356.172	852.88
356.399	844.88
356.626	857.88
356.853	839.88
357.08	853.88
357.307	832.88
357.534	822.88
357.761	826.88
357.988	843.88
358.215	833.88
358.441	860.88
358.668	851.88
358.895	842.88
359.122	865.88
359.349	899.88
359.576	925.88
359.802	964.88
360.029	1065.88
360.256	1113.88
360.483	1063.88
360.709	934.88
360.936	977.88
361.163	929.88
361.39	929.88
361.616	946.88
361.843	906.88
362.07	937.88
362.296	937.88
362.523	882.88
362.749	902.88
362.976	883.88
363.203	927.88
363.429	863.88
363.656	874.88
363.882	843.88
364.109	883.88
364.335	890.88
364.562	862.88
364.788	834.88
365.015	879.88
365.241	888.88
365.468	892.88
365.694	875.88
365.92	893.88
366.147	870.88
366.373	863.88
366.599	850.88
366.826	835.88
367.052	890.88
367.278	872.88
367.505	847.88
367.731	911.88
367.957	888.88
368.184	900.88
368.41	891.88
368.636	921.88
368.862	949.88
369.089	891.88
369.315	861.88
369.541	899.88
369.767	893.88
369.993	890.88
370.219	879.88
370.445	887.88
370.672	874.88
370.898	868.88
371.124	897.88
371.35	859.88
371.576	913.88
371.802	889.88
372.028	881.88
372.254	908.88
372.48	916.88
372.706	884.88
372.932	928.88
373.158	915.88
373.384	944.88
373.61	947.88
373.835	925.88
374.061	909.88
374.287	933.88
374.513	972.88
374.739	943.88
374.965	959.88
375.191	953.88
375.416	964.88
375.642	929.88
375.868	955.88
376.094	936.88
376.319	912.88
376.545	892.88
376.771	897.88
376.997	911.88
377.222	889.88
377.448	917.88
377.674	905.88
377.899	907.88
378.125	881.88
378.35	893.88
378.576	880.88
378.802	886.88
379.027	910.88
379.253	924.88
379.478	895.88
379.704	901.88
379.929	927.88
380.155	923.88
380.38	919.88
380.606	895.88
380.831	933.88
381.057	964.88
381.282	913.88
381.507	938.88
381.733	927.88
381.958	940.88
382.184	907.88
382.409	938.88
382.634	993.88
382.86	957.88
383.085	1008.88
383.31	1005.88
383.535	997.88
383.761	1012.88
383.986	1003.88
384.211	1029.88
384.436	1019.88
384.662	1029.88
384.887	1030.88
385.112	1065.88
385.337	1074.88
385.562	1065.88
385.787	1077.88
386.013	1156.88
386.238	1108.88
386.463	1107.88
386.688	1105.88
386.913	1067.88
387.138	1093.88
387.363	1086.88
387.588	1079.88
387.813	1083.88
388.038	1075.88
388.263	1073.88
388.488	1085.88
388.713	1075.88
388.938	1079.88
389.163	1080.88
389.387	1077.88
389.612	1077.88
389.837	1058.88
390.062	1070.88
390.287	1081.88
390.512	1064.88
390.736	1063.88
390.961	1083.88
391.186	1125.88
391.411	1115.88
391.636	1166.88
391.86	1155.88
392.085	1184.88
392.31	1168.88
392.534	1180.88
392.759	1181.88
392.984	1113.88
393.208	1128.88
393.433	1109.88
393.658	1124.88
393.882	1113.88
394.107	1139.88
394.331	1152.88
394.556	1141.88
394.78	1151.88
395.005	1155.88
395.229	1133.88
395.454	1219.88
395.678	1203.88
395.903	1222.88
396.127	1265.88
396.352	1260.88
396.576	1158.88
396.801	1161.88
397.025	1144.88
397.249	1204.88
397.474	1240.88
397.698	1227.88
397.922	1227.88
398.147	1267.88
398.371	1274.88
398.595	1299.88
398.82	1333.88
399.044	1369.88
399.268	1491.88
399.492	1655.88
399.717	1780.88
399.941	1817.88
400.165	1820.88
400.389	1741.88
400.613	1572.88
400.837	1426.88
401.062	1419.88
401.286	1393.88
401.51	1404.88
401.734	1366.88
401.958	1348.88
402.182	1379.88
402.406	1459.88
402.63	1436.88
402.854	1469.88
403.078	1485.88
403.302	1488.88
403.526	1558.88
403.75	1533.88
403.974	1504.88
404.198	1516.88
404.422	1520.88
404.645	1525.88
404.869	1513.88
405.093	1561.88
405.317	1576.88
405.541	1620.88
405.765	1562.88
405.988	1552.88
406.212	1576.88
406.436	1636.88
406.66	1701.88
406.883	1643.88
407.107	1690.88
407.331	1808.88
407.555	2032.88
407.778	2017.88
408.002	1839.88
408.226	1681.88
408.449	1616.88
408.673	1608.88
408.896	1667.88
409.12	1764.88
409.344	1670.88
409.567	1541.88
409.791	1529.88
410.014	1475.88
410.238	1433.88
410.461	1496.88
410.685	1506.88
410.908	1509.88
411.132	1605.88
411.355	1671.88
411.578	1608.88
411.802	1471.88
412.025	1422.88
412.249	1477.88
412.472	1436.88
412.695	1400.88
412.919	1384.88
413.142	1441.88
413.365	1369.88
413.589	1383.88
413.812	1364.88
414.035	1403.88
414.258	1356.88
414.482	1367.88
414.705	1404.88
414.928	1413.88
415.151	1369.88
415.374	1419.88
415.597	1411.88
415.821	1403.88
416.044	1425.88
416.267	1413.88
416.49	1368.88
416.713	1363.88
416.936	1422.88
417.159	1378.88
417.382	1457.88
417.605	1415.88
417.828	1472.88
418.051	1497.88
418.274	1488.88
418.497	1492.88
418.72	1495.88
418.943	1465.88
419.166	1553.88
419.389	1604.88
419.611	1575.88
419.834	1547.88
420.057	1529.88
420.28	1538.88
420.503	1454.88
420.726	1483.88
420.948	1507.88
421.171	1599.88
421.394	1724.88
421.617	1531.88
421.839	1515.88
422.062	1535.88
422.285	1503.88
422.507	1689.88
422.73	1919.88
422.953	1780.88
423.175	1594.88
423.398	1575.88
423.621	1627.88
423.843	1684.88
424.066	1685.88
424.288	1652.88
424.511	1696.88
424.733	1857.88
424.956	2055.88
425.178	1917.88
425.401	1947.88
425.623	1957.88
425.846	1643.88
426.068	1555.88
426.291	1526.88
426.513	1511.88
426.735	1539.88
426.958	1669.88
427.18	1879.88
427.402	2269.88
427.625	2451.88
427.847	2026.88
428.069	1711.88
428.292	1535.88
428.514	1452.88
428.736	1420.88
428.958	1402.88
429.181	1407.88
429.403	1387.88
429.625	1467.88
429.847	1543.88
430.069	1693.88
430.292	1685.88
430.514	1437.88
430.736	1415.88
430.958	1452.88
431.18	1371.88
431.402	1371.88
431.624	1308.88
431.846	1233.88
432.068	1201.88
432.29	1248.88
432.512	1341.88
432.734	1362.88
432.956	1399.88
433.178	1487.88
433.4	1489.88
433.622	1415.88
433.844	1385.88
434.066	1333.88
434.287	1235.88
434.509	1257.88
434.731	1301.88
434.953	1399.88
435.175	1487.88
435.397	1610.88
435.618	1542.88
435.84	1614.88
436.062	1999.88
436.284	2125.88
436.505	1713.88
436.727	1511.88
436.949	1506.88
437.17	1427.88
437.392	1369.88
437.614	1396.88
437.835	1418.88
438.057	1697.88
438.278	1981.88
438.5	1963.88
438.721	2271.88
438.943	2185.88
439.165	1707.88
439.386	1642.88
439.608	1655.88
439.829	1681.88
440.05	1782.88
440.272	1995.88
440.493	1834.88
440.715	1647.88
440.936	1609.88
441.158	1593.88
441.379	1603.88
441.6	1651.88
441.822	1701.88
442.043	1804.88
442.264	2057.88
442.486	2116.88
442.707	1826.88
442.928	1728.88
443.149	1795.88
443.371	1862.88
443.592	1938.88
443.813	2177.88
444.034	2357.88
444.255	1937.88
444.476	1821.88
444.698	1819.88
444.919	1780.88
445.14	3504.88
445.361	2553.88
445.582	1945.88
445.803	2164.88
446.024	2405.88
446.245	2426.88
446.466	2181.88
446.687	1829.88
446.908	1674.88
447.129	1632.88
447.35	1545.88
447.571	1565.88
447.792	1497.88
448.013	1458.88
448.234	1521.88
448.455	1670.88
448.675	1965.88
448.896	2282.88
449.117	1872.88
449.338	1753.88
449.559	2100.88
449.779	2379.88
450	1847.88
450.221	1579.88
450.442	1447.88
450.662	1385.88
450.883	1440.88
451.104	1514.88
451.324	1453.88
451.545	1352.88
451.766	1346.88
451.986	1271.88
452.207	1263.88
452.428	1238.88
452.648	1271.88
452.869	1289.88
453.089	1265.88
453.31	1275.88
453.53	1180.88
453.751	1179.88
453.971	1170.88
454.192	1225.88
454.412	1210.88
454.633	1155.88
454.853	1220.88
455.073	1198.88
455.294	1285.88
455.514	1560.88
455.734	1419.88
455.955	1206.88
456.175	1140.88
456.395	1089.88
456.616	1125.88
456.836	1088.88
457.056	1074.88
457.276	1046.88
457.497	1087.88
457.717	1071.88
457.937	1097.88
458.157	1122.88
458.377	1124.88
458.598	1147.88
458.818	1319.88
459.038	1562.88
459.258	1579.88
459.478	1283.88
459.698	1223.88
459.918	1218.88
460.138	1284.88
460.358	1346.88
460.578	1363.88
460.798	1387.88
461.018	1389.88
461.238	1386.88
461.458	1376.88
461.678	1354.88
461.898	1378.88
462.118	1396.88
462.338	1448.88
462.558	1471.88
462.777	1503.88
462.997	1542.88
463.217	1623.88
463.437	1635.88
463.657	1549.88
463.876	1482.88
464.096	1505.88
464.316	1483.88
464.536	1569.88
464.755	1582.88
464.975	1555.88
465.195	1611.88
465.414	1817.88
465.634	1540.88
465.854	1388.88
466.073	1364.88
466.293	1338.88
466.512	1335.88
466.732	1288.88
466.951	1344.88
467.171	1356.88
467.391	1375.88
467.61	1427.88
467.829	1428.88
468.049	1387.88
468.268	1321.88
468.488	1279.88
468.707	1304.88
468.927	1277.88
469.146	1308.88
469.365	1333.88
469.585	1367.88
469.804	1384.88
470.023	1421.88
470.243	1444.88
470.462	1498.88
470.681	1498.88
470.901	1473.88
471.12	1419.88
471.339	1457.88
471.558	1416.88
471.777	1409.88
471.997	1304.88
472.216	1257.88
472.435	1171.88
472.654	1119.88
472.873	1131.88
473.092	1155.88
473.311	1199.88
473.53	1248.88
473.749	1264.88
473.968	1373.88
474.187	1724.88
474.406	1675.88
474.625	1418.88
474.844	1335.88
475.063	1263.88
475.282	1259.88
475.501	1243.88
475.72	1271.88
475.939	1283.88
476.158	1285.88
476.377	1307.88
476.596	1253.88
476.814	1265.88
477.033	1235.88
477.252	1262.88
477.471	1337.88
477.69	1374.88
477.908	1480.88
478.127	1478.88
478.346	1511.88
478.564	1496.88
478.783	1518.88
479.002	1561.88
479.22	1576.88
479.439	1560.88
479.658	1504.88
479.876	1489.88
480.095	1467.88
480.313	1648.88
480.532	1607.88
480.751	1510.88
480.969	1398.88
481.188	1372.88
481.406	1311.88
481.624	1292.88
481.843	1265.88
482.061	1270.88
482.28	1334.88
482.498	1349.88
482.717	1327.88
482.935	1377.88
483.153	1510.88
483.372	1535.88
483.59	1552.88
483.808	1480.88
484.027	1431.88
484.245	1431.88
484.463	1488.88
484.681	1570.88
484.9	1489.88
485.118	1541.88
485.336	1493.88
485.554	1435.88
485.772	1387.88
485.99	1361.88
486.209	1450.88
486.427	1429.88
486.645	1467.88
486.863	1634.88
487.081	1663.88
487.299	1587.88
487.517	1643.88
487.735	1787.88
487.953	1880.88
488.171	1892.88
488.389	1800.88
488.607	1709.88
488.825	1568.88
489.043	1546.88
489.261	1600.88
489.479	1590.88
489.696	1655.88
489.914	1652.88
490.132	1692.88
490.35	1787.88
490.568	1860.88
490.786	1961.88
491.003	1985.88
491.221	2107.88
491.439	2195.88
491.657	2179.88
491.874	2314.88
492.092	2390.88
492.31	2482.88
492.527	2433.88
492.745	2312.88
492.963	2291.88
493.18	2226.88
493.398	2225.88
493.615	2212.88
493.833	2217.88
494.05	2190.88
494.268	2117.88
494.485	2089.88
494.703	2129.88
494.92	2137.88
495.138	2167.88
495.355	2107.88
495.573	2101.88
495.79	2096.88
496.008	2148.88
496.225	2094.88
496.442	2113.88
496.66	2109.88
496.877	2099.88
497.094	2089.88
497.312	2060.88
497.529	2088.88
497.746	2023.88
497.963	1993.88
498.181	2050.88
498.398	1977.88
498.615	2049.88
498.832	2071.88
499.049	2181.88
499.267	2320.88
499.484	2467.88
499.701	2651.88
499.918	2856.88
500.135	3103.88
500.352	3387.88
500.569	3487.88
500.786	3507.88
501.003	3357.88
501.22	3144.88
501.437	2967.88
501.654	2744.88
501.871	2661.88
502.088	2443.88
502.305	2325.88
502.522	2201.88
502.739	2102.88
502.956	2051.88
503.172	1945.88
503.389	1891.88
503.606	1854.88
503.823	1839.88
504.04	1852.88
504.256	1848.88
504.473	1823.88
504.69	1857.88
504.907	1893.88
505.123	1765.88
505.34	1716.88
505.557	1704.88
505.773	1724.88
505.99	1668.88
506.207	1685.88
506.423	1696.88
506.64	1643.88
506.856	1597.88
507.073	1593.88
507.289	1600.88
507.506	1568.88
507.722	1596.88
507.939	1636.88
508.155	1577.88
508.372	1491.88
508.588	1464.88
508.805	1400.88
509.021	1458.88
509.238	1505.88
509.454	1515.88
509.67	1436.88
509.887	1388.88
510.103	1341.88
510.319	1387.88
510.536	1614.88
510.752	2762.88
510.968	1981.88
511.184	1328.88
511.401	1270.88
511.617	1287.88
511.833	1235.88
512.049	1254.88
512.265	1256.88
512.481	1289.88
512.698	1264.88
512.914	1281.88
513.13	1282.88
513.346	1263.88
513.562	1271.88
513.778	1274.88
513.994	1283.88
514.21	1333.88
514.426	1377.88
514.642	1488.88
514.858	1549.88
515.074	1653.88
515.29	2053.88
515.506	3236.88
515.721	2358.88
515.937	1610.88
516.153	1450.88
516.369	1414.88
516.585	1392.88
516.801	1393.88
517.016	1430.88
517.232	1479.88
517.448	1523.88
517.664	1562.88
517.879	1532.88
518.095	1549.88
518.311	1517.88
518.527	1495.88
518.742	1468.88
518.958	1449.88
519.173	1413.88
519.389	1444.88
519.605	1398.88
519.82	1397.88
520.036	1427.88
520.251	1453.88
520.467	1521.88
520.682	1452.88
520.898	1474.88
521.113	1468.88
521.329	1572.88
521.544	1831.88
521.76	2408.88
521.975	4480.88
522.19	3908.88
522.406	2023.88
522.621	1514.88
522.836	1375.88
523.052	1335.88
523.267	1300.88
523.482	1299.88
523.698	1283.88
523.913	1312.88
524.128	1322.88
524.343	1297.88
524.559	1315.88
524.774	1247.88
524.989	1347.88
525.204	1293.88
525.419	1291.88
525.634	1223.88
525.849	1170.88
526.064	1151.88
526.28	1111.88
526.495	1055.88
526.71	1021.88
526.925	1040.88
527.14	1009.88
527.355	1010.88
527.57	1029.88
527.785	1014.88
527.999	1021.88
528.214	1121.88
528.429	1170.88
528.644	1225.88
528.859	1292.88
529.074	1367.88
529.289	1512.88
529.503	1747.88
529.718	1519.88
529.933	1285.88
530.148	1123.88
530.363	1075.88
530.577	1037.88
530.792	1049.88
531.007	999.88
531.221	988.88
531.436	994.88
531.651	992.88
531.865	1003.88
532.08	1000.88
532.295	987.88
532.509	1025.88
532.724	1003.88
532.938	1047.88
533.153	1073.88
533.367	1115.88
533.582	1187.88
533.796	1192.88
534.011	1128.88
534.225	980.88
534.44	1027.88
534.654	1033.88
534.868	1038.88
535.083	1045.88
535.297	1065.88
535.511	1128.88
535.726	1148.88
535.94	1091.88
536.154	1047.88
536.369	999.88
536.583	969.88
536.797	980.88
537.011	966.88
537.225	957.88
537.44	964.88
537.654	979.88
537.868	992.88
538.082	978.88
538.296	1057.88
538.51	1070.88
538.724	1152.88
538.938	1200.88
539.153	1224.88
539.367	1252.88
539.581	1153.88
539.795	1051.88
540.009	1035.88
540.222	1044.88
540.436	1156.88
540.65	1212.88
540.864	1320.88
541.078	1444.88
541.292	1504.88
541.506	1589.88
541.72	1701.88
541.934	1790.88
542.147	1897.88
542.361	1852.88
542.575	1678.88
542.789	1620.88
543.002	1484.88
543.216	1408.88
543.43	1448.88
543.644	1525.88
543.857	1612.88
544.071	1728.88
544.285	1760.88
544.498	1708.88
544.712	1754.88
544.925	1756.88
545.139	1702.88
545.352	1736.88
545.566	1735.88
545.779	1749.88
545.993	1791.88
546.206	1978.88
546.42	2023.88
546.633	1748.88
546.847	1696.88
547.06	1678.88
547.274	1699.88
547.487	1779.88
547.7	1721.88
547.914	1661.88
548.127	1687.88
548.34	1619.88
548.554	1619.88
548.767	1633.88
548.98	1638.88
549.193	1628.88
549.407	1640.88
549.62	1624.88
549.833	1632.88
550.046	1604.88
550.259	1558.88
550.473	1529.88
550.686	1564.88
550.899	1505.88
551.112	1489.88
551.325	1449.88
551.538	1369.88
551.751	1244.88
551.964	1226.88
552.177	1380.88
552.39	1436.88
552.603	1525.88
552.816	1633.88
553.029	1635.88
553.242	1688.88
553.455	1706.88
553.667	1700.88
553.88	1705.88
554.093	1629.88
554.306	1662.88
554.519	1567.88
554.732	1509.88
554.944	1489.88
555.157	1482.88
555.37	1445.88
555.583	1431.88
555.795	1404.88
556.008	1322.88
556.221	1275.88
556.433	1289.88
556.646	1292.88
556.859	1269.88
557.071	1328.88
557.284	1303.88
557.496	1321.88
557.709	1329.88
557.921	1345.88
558.134	1327.88
558.346	1307.88
558.559	1269.88
558.771	1221.88
558.984	1221.88
559.196	1224.88
559.409	1225.88
559.621	1219.88
559.833	1176.88
560.046	1169.88
560.258	1192.88
560.47	1218.88
560.683	1231.88
560.895	1176.88
561.107	1234.88
561.32	1231.88
561.532	1211.88
561.744	1210.88
561.956	1239.88
562.168	1212.88
562.381	1211.88
562.593	1218.88
562.805	1219.88
563.017	1180.88
563.229	1171.88
563.441	1175.88
563.653	1168.88
563.865	1152.88
564.077	1123.88
564.289	1187.88
564.501	1158.88
564.713	1153.88
564.925	1188.88
565.137	1180.88
565.349	1223.88
565.561	1189.88
565.773	1232.88
565.985	1247.88
566.197	1322.88
566.408	1385.88
566.62	1459.88
566.832	1458.88
567.044	1511.88
567.255	1463.88
567.467	1466.88
567.679	1488.88
567.891	1547.88
568.102	1523.88
568.314	1415.88
568.526	1279.88
568.737	1231.88
568.949	1059.88
569.161	988.88
569.372	933.88
569.584	887.88
569.795	897.88
570.007	867.88
570.218	966.88
570.43	929.88
570.641	886.88
570.853	931.88
571.064	941.88
571.276	971.88
571.487	956.88
571.698	974.88
571.91	925.88
572.121	896.88
572.333	868.88
572.544	858.88
572.755	805.88
572.966	731.88
573.178	729.88
573.389	709.88
573.6	707.88
573.811	694.88
574.023	679.88
574.234	698.88
574.445	724.88
574.656	748.88
574.867	768.88
575.078	759.88
575.289	763.88
575.501	759.88
575.712	723.88
575.923	729.88
576.134	728.88
576.345	753.88
576.556	815.88
576.767	804.88
576.978	812.88
577.188	859.88
577.399	761.88
577.61	710.88
577.821	735.88
578.032	731.88
578.243	799.88
578.454	1257.88
578.665	887.88
578.875	658.88
579.086	661.88
579.297	707.88
579.508	668.88
579.718	635.88
579.929	660.88
580.14	675.88
580.35	654.88
580.561	695.88
580.772	664.88
580.982	707.88
581.193	677.88
581.403	690.88
581.614	691.88
581.825	666.88
582.035	669.88
582.246	691.88
582.456	656.88
582.667	693.88
582.877	671.88
583.087	685.88
583.298	688.88
583.508	661.88
583.719	663.88
583.929	671.88
584.139	663.88
584.35	651.88
584.56	689.88
584.77	664.88
584.981	652.88
585.191	652.88
585.401	664.88
585.611	653.88
585.821	621.88
586.032	664.88
586.242	639.88
586.452	627.88
586.662	644.88
586.872	610.88
587.082	633.88
587.292	647.88
587.502	672.88
587.713	692.88
587.923	679.88
588.133	639.88
588.343	628.88
588.553	609.88
588.762	657.88
588.972	621.88
589.182	595.88
589.392	616.88
589.602	617.88
589.812	623.88
590.022	652.88
590.232	599.88
590.441	607.88
590.651	600.88
590.861	607.88
591.071	623.88
591.281	649.88
591.49	613.88
591.7	639.88
591.91	687.88
592.119	665.88
592.329	671.88
592.539	715.88
592.748	739.88
592.958	724.88
593.167	744.88
593.377	760.88
593.587	825.88
593.796	751.88
594.006	738.88
594.215	780.88
594.424	769.88
594.634	787.88
594.843	778.88
595.053	760.88
595.262	711.88
595.472	713.88
595.681	682.88
595.89	659.88
596.1	660.88
596.309	652.88
596.518	684.88
596.727	684.88
596.937	709.88
597.146	671.88
597.355	661.88
597.564	636.88
597.774	617.88
597.983	579.88
598.192	562.88
598.401	536.88
598.61	553.88
598.819	566.88
599.028	620.88
599.237	630.88
599.446	629.88
599.655	623.88
599.864	624.88
600.073	597.88
600.282	642.88
600.491	635.88
600.7	615.88
600.909	643.88
601.118	679.88
601.327	721.88
601.536	759.88
601.745	786.88
601.953	829.88
602.162	821.88
602.371	817.88
602.58	795.88
602.789	801.88
602.997	821.88
603.206	819.88
603.415	793.88
603.623	799.88
603.832	796.88
604.041	792.88
604.249	737.88
604.458	643.88
604.666	615.88
604.875	639.88
605.084	709.88
605.292	782.88
605.501	829.88
605.709	848.88
605.918	882.88
606.126	897.88
606.334	887.88
606.543	871.88
606.751	890.88
606.96	844.88
607.168	876.88
607.376	841.88
607.585	879.88
607.793	879.88
608.001	858.88
608.21	905.88
608.418	931.88
608.626	896.88
608.834	936.88
609.043	909.88
609.251	930.88
609.459	895.88
609.667	983.88
609.875	972.88
610.083	979.88
610.291	983.88
610.499	970.88
610.707	1010.88
610.916	1065.88
611.124	1185.88
611.332	1338.88
611.54	1423.88
611.748	1351.88
611.955	1241.88
612.163	1119.88
612.371	1081.88
612.579	1018.88
612.787	1030.88
612.995	1036.88
613.203	1050.88
613.411	982.88
613.618	987.88
613.826	972.88
614.034	960.88
614.242	973.88
614.449	954.88
614.657	967.88
614.865	999.88
615.072	966.88
615.28	940.88
615.488	949.88
615.695	929.88
615.903	949.88
616.111	938.88
616.318	958.88
616.526	939.88
616.733	986.88
616.941	933.88
617.148	947.88
617.356	913.88
617.563	909.88
617.771	856.88
617.978	868.88
618.185	908.88
618.393	929.88
618.6	929.88
618.807	898.88
619.015	914.88
619.222	888.88
619.429	843.88
619.637	820.88
619.844	744.88
620.051	769.88
620.258	833.88
620.466	865.88
620.673	865.88
620.88	804.88
621.087	799.88
621.294	807.88
621.501	749.88
621.708	752.88
621.915	825.88
622.122	853.88
622.329	886.88
622.536	881.88
622.743	840.88
622.95	817.88
623.157	824.88
623.364	851.88
623.571	851.88
623.778	863.88
623.985	861.88
624.192	835.88
624.399	808.88
624.606	807.88
624.812	792.88
625.019	753.88
625.226	742.88
625.433	718.88
625.639	670.88
625.846	636.88
626.053	565.88
626.259	561.88
626.466	553.88
626.673	527.88
626.879	549.88
627.086	611.88
627.293	652.88
627.499	687.88
627.706	737.88
627.912	745.88
628.119	778.88
628.325	815.88
628.532	755.88
628.738	737.88
628.945	711.88
629.151	707.88
629.357	653.88
629.564	677.88
629.77	725.88
629.976	689.88
630.183	623.88
630.389	644.88
630.595	718.88
630.802	716.88
631.008	717.88
631.214	709.88
631.42	703.88
631.627	690.88
631.833	611.88
632.039	644.88
632.245	656.88
632.451	665.88
632.657	650.88
632.863	631.88
633.069	642.88
633.275	620.88
633.481	604.88
633.688	589.88
633.893	619.88
634.099	599.88
634.305	588.88
634.511	572.88
634.717	545.88
634.923	522.88
635.129	498.88
635.335	498.88
635.541	497.88
635.747	559.88
635.952	562.88
636.158	618.88
636.364	625.88
636.57	614.88
636.775	623.88
636.981	631.88
637.187	634.88
637.392	625.88
637.598	657.88
637.804	653.88
638.009	626.88
638.215	635.88
638.421	613.88
638.626	597.88
638.832	603.88
639.037	586.88
639.243	583.88
639.448	588.88
639.654	593.88
639.859	576.88
640.065	571.88
640.27	625.88
640.475	576.88
640.681	563.88
640.886	593.88
641.091	597.88
641.297	629.88
641.502	616.88
641.707	609.88
641.913	602.88
642.118	600.88
642.323	567.88
642.528	611.88
642.733	604.88
642.939	575.88
643.144	578.88
643.349	579.88
643.554	570.88
643.759	575.88
643.964	563.88
644.169	586.88
644.374	560.88
644.579	559.88
644.784	561.88
644.989	573.88
645.194	571.88
645.399	580.88
645.604	543.88
645.809	571.88
646.014	559.88
646.219	567.88
646.423	570.88
646.628	571.88
646.833	583.88
647.038	581.88
647.243	607.88
647.447	581.88
647.652	588.88
647.857	554.88
648.062	593.88
648.266	563.88
648.471	576.88
648.676	594.88
648.88	584.88
649.085	597.88
649.289	564.88
649.494	579.88
649.698	653.88
649.903	586.88
650.107	568.88
650.312	570.88
650.516	546.88
650.721	527.88
650.925	525.88
651.13	499.88
651.334	502.88
651.539	472.88
651.743	480.88
651.947	498.88
652.152	481.88
652.356	481.88
652.56	463.88
652.764	441.88
652.969	449.88
653.173	415.88
653.377	437.88
653.581	413.88
653.785	421.88
653.99	416.88
654.194	416.88
654.398	386.88
654.602	391.88
654.806	377.88
655.01	431.88
655.214	409.88
655.418	371.88
655.622	355.88
655.826	363.88
656.03	356.88
656.234	385.88
656.438	393.88
656.642	369.88
656.846	348.88
657.049	355.88
657.253	334.88
657.457	323.88
657.661	305.88
657.865	299.88
658.068	295.88
658.272	257.88
658.476	256.88
658.68	218.88
658.883	241.88
659.087	228.88
659.291	229.88
659.494	233.88
659.698	216.88
659.901	202.88
660.105	198.88
660.309	165.88
660.512	193.88
660.716	192.88
660.919	175.88
661.123	200.88
661.326	165.88
661.53	159.88
661.733	167.88
661.936	154.88
662.14	145.88
662.343	135.88
662.546	135.88
662.75	136.88
662.953	152.88
663.156	95.88
663.36	131.88
663.563	140.88
663.766	120.88
663.969	124.88
664.173	124.88
664.376	91.88
664.579	119.88
664.782	105.88
664.985	121.88
665.188	112.88
665.391	111.88
665.594	104.88
665.797	100.88
666	112.88
666.203	111.88
666.406	100.88
666.609	112.88
666.812	131.88
667.015	102.88
667.218	130.88
667.421	122.88
667.624	112.88
667.827	123.88
668.03	102.88
668.232	104.88
668.435	103.88
668.638	82.88
668.841	127.88
669.043	108.88
669.246	132.88
669.449	99.88
669.651	132.88
669.854	107.88
670.057	124.88
670.259	101.88
670.462	109.88
670.665	115.88
670.867	123.88
671.07	119.88
671.272	135.88
671.475	162.88
671.677	111.88
671.88	114.88
672.082	93.88
672.284	117.88
672.487	120.88
672.689	102.88
672.892	118.88
