Data from FlinnAP9092KCOPPER.07152019.LAMP.EN10.P1_HRD10591_14-45-27-668.txt Node
Date: Mon Jul 15 14:45:27 EDT 2019
User: cochatt
Spectrometer: HR+D1059
Trigger mode: 3
Integration Time (sec): 1.000000E-1
Scans to average: 1
Electric dark correction enabled: true
Nonlinearity correction enabled: false
Boxcar width: 0
XAxis mode: Wavelengths
Number of Pixels in Spectrum: 2048
>>>>>Begin Spectral Data<<<<<
223.165	-14.5
223.4	-14.5
223.635	-14.5
223.869	-18.5
224.104	-15.5
224.338	-24.5
224.573	-18.5
224.808	-11.5
225.042	-4.5
225.277	5.5
225.511	5.5
225.746	5.5
225.98	16.5
226.215	-11.5
226.449	17.5
226.683	14.5
226.918	32.5
227.152	21.5
227.387	31.5
227.621	36.5
227.856	43.5
228.09	37.5
228.324	45.5
228.559	57.5
228.793	97.5
229.027	171.5
229.262	183.5
229.496	196.5
229.73	244.5
229.964	316.5
230.199	244.5
230.433	195.5
230.667	196.5
230.901	185.5
231.136	167.5
231.37	159.5
231.604	166.5
231.838	177.5
232.072	164.5
232.306	166.5
232.541	194.5
232.775	181.5
233.009	185.5
233.243	181.5
233.477	172.5
233.711	194.5
233.945	185.5
234.179	183.5
234.413	200.5
234.647	207.5
234.881	182.5
235.115	205.5
235.349	199.5
235.583	207.5
235.817	203.5
236.051	212.5
236.285	220.5
236.519	227.5
236.753	226.5
236.987	277.5
237.221	335.5
237.455	494.5
237.689	375.5
237.922	247.5
238.156	237.5
238.39	225.5
238.624	221.5
238.858	235.5
239.091	218.5
239.325	230.5
239.559	213.5
239.793	224.5
240.027	246.5
240.26	273.5
240.494	303.5
240.728	325.5
240.961	304.5
241.195	294.5
241.429	256.5
241.662	254.5
241.896	235.5
242.13	230.5
242.363	247.5
242.597	240.5
242.83	262.5
243.064	267.5
243.298	268.5
243.531	251.5
243.765	267.5
243.998	268.5
244.232	259.5
244.465	260.5
244.699	267.5
244.932	278.5
245.166	270.5
245.399	260.5
245.633	277.5
245.866	281.5
246.099	273.5
246.333	279.5
246.566	291.5
246.8	274.5
247.033	297.5
247.266	302.5
247.5	312.5
247.733	329.5
247.966	337.5
248.2	331.5
248.433	319.5
248.666	356.5
248.899	374.5
249.133	409.5
249.366	425.5
249.599	396.5
249.832	356.5
250.066	358.5
250.299	336.5
250.532	365.5
250.765	405.5
250.998	470.5
251.231	498.5
251.465	438.5
251.698	426.5
251.931	405.5
252.164	398.5
252.397	387.5
252.63	397.5
252.863	432.5
253.096	459.5
253.329	480.5
253.562	469.5
253.795	454.5
254.028	435.5
254.261	436.5
254.494	456.5
254.727	557.5
254.96	654.5
255.193	587.5
255.426	492.5
255.659	438.5
255.892	438.5
256.124	408.5
256.357	417.5
256.59	421.5
256.823	418.5
257.056	417.5
257.289	409.5
257.521	415.5
257.754	424.5
257.987	429.5
258.22	431.5
258.452	414.5
258.685	419.5
258.918	437.5
259.151	435.5
259.383	453.5
259.616	467.5
259.849	471.5
260.081	501.5
260.314	554.5
260.547	553.5
260.779	531.5
261.012	486.5
261.244	479.5
261.477	458.5
261.71	454.5
261.942	500.5
262.175	490.5
262.407	479.5
262.64	464.5
262.872	439.5
263.105	469.5
263.337	451.5
263.57	440.5
263.802	453.5
264.035	443.5
264.267	450.5
264.499	443.5
264.732	445.5
264.964	459.5
265.197	455.5
265.429	470.5
265.661	465.5
265.894	444.5
266.126	435.5
266.358	455.5
266.591	479.5
266.823	493.5
267.055	492.5
267.287	510.5
267.52	490.5
267.752	489.5
267.984	501.5
268.216	491.5
268.448	503.5
268.681	537.5
268.913	531.5
269.145	585.5
269.377	633.5
269.609	608.5
269.841	581.5
270.073	575.5
270.306	667.5
270.538	740.5
270.77	742.5
271.002	685.5
271.234	647.5
271.466	659.5
271.698	700.5
271.93	722.5
272.162	746.5
272.394	698.5
272.626	682.5
272.858	631.5
273.09	599.5
273.322	579.5
273.553	558.5
273.785	595.5
274.017	557.5
274.249	589.5
274.481	587.5
274.713	593.5
274.945	582.5
275.176	587.5
275.408	561.5
275.64	565.5
275.872	599.5
276.104	588.5
276.335	596.5
276.567	621.5
276.799	654.5
277.031	695.5
277.262	727.5
277.494	753.5
277.726	682.5
277.957	634.5
278.189	614.5
278.421	616.5
278.652	590.5
278.884	609.5
279.115	591.5
279.347	598.5
279.579	589.5
279.81	590.5
280.042	572.5
280.273	569.5
280.505	607.5
280.736	593.5
280.968	601.5
281.199	612.5
281.431	603.5
281.662	641.5
281.894	624.5
282.125	619.5
282.356	642.5
282.588	724.5
282.819	729.5
283.051	651.5
283.282	626.5
283.513	623.5
283.745	611.5
283.976	661.5
284.207	632.5
284.439	623.5
284.67	657.5
284.901	629.5
285.132	637.5
285.364	651.5
285.595	641.5
285.826	644.5
286.057	635.5
286.288	649.5
286.52	657.5
286.751	660.5
286.982	656.5
287.213	645.5
287.444	681.5
287.675	678.5
287.906	692.5
288.138	718.5
288.369	695.5
288.6	705.5
288.831	708.5
289.062	707.5
289.293	664.5
289.524	694.5
289.755	671.5
289.986	679.5
290.217	696.5
290.448	669.5
290.679	673.5
290.91	677.5
291.141	685.5
291.371	668.5
291.602	670.5
291.833	665.5
292.064	665.5
292.295	659.5
292.526	681.5
292.757	670.5
292.987	701.5
293.218	690.5
293.449	682.5
293.68	686.5
293.91	691.5
294.141	690.5
294.372	688.5
294.603	667.5
294.833	705.5
295.064	686.5
295.295	684.5
295.525	703.5
295.756	701.5
295.987	724.5
296.217	745.5
296.448	801.5
296.679	733.5
296.909	692.5
297.14	683.5
297.37	676.5
297.601	699.5
297.831	727.5
298.062	742.5
298.292	729.5
298.523	734.5
298.753	739.5
298.984	717.5
299.214	747.5
299.445	742.5
299.675	746.5
299.905	717.5
300.136	711.5
300.366	715.5
300.597	724.5
300.827	754.5
301.057	747.5
301.288	805.5
301.518	800.5
301.748	793.5
301.979	791.5
302.209	775.5
302.439	799.5
302.669	791.5
302.9	794.5
303.13	774.5
303.36	789.5
303.59	779.5
303.82	762.5
304.051	774.5
304.281	791.5
304.511	754.5
304.741	750.5
304.971	758.5
305.201	730.5
305.431	729.5
305.661	756.5
305.891	718.5
306.121	746.5
306.352	774.5
306.582	774.5
306.812	755.5
307.042	754.5
307.272	759.5
307.502	746.5
307.731	763.5
307.961	758.5
308.191	754.5
308.421	739.5
308.651	731.5
308.881	790.5
309.111	797.5
309.341	769.5
309.571	786.5
309.8	791.5
310.03	827.5
310.26	858.5
310.49	826.5
310.72	849.5
310.949	911.5
311.179	951.5
311.409	867.5
311.639	843.5
311.868	851.5
312.098	853.5
312.328	854.5
312.557	907.5
312.787	948.5
313.017	978.5
313.246	889.5
313.476	845.5
313.706	862.5
313.935	889.5
314.165	895.5
314.394	908.5
314.624	907.5
314.853	916.5
315.083	887.5
315.312	867.5
315.542	813.5
315.771	839.5
316.001	821.5
316.23	799.5
316.46	819.5
316.689	846.5
316.919	834.5
317.148	882.5
317.377	883.5
317.607	875.5
317.836	874.5
318.065	833.5
318.295	837.5
318.524	832.5
318.753	810.5
318.983	811.5
319.212	841.5
319.441	851.5
319.67	862.5
319.9	845.5
320.129	811.5
320.358	820.5
320.587	849.5
320.816	856.5
321.046	874.5
321.275	842.5
321.504	878.5
321.733	858.5
321.962	859.5
322.191	884.5
322.42	931.5
322.649	947.5
322.878	991.5
323.108	961.5
323.337	1018.5
323.566	1083.5
323.795	1115.5
324.024	1206.5
324.253	1432.5
324.482	2146.5
324.71	3565.5
324.939	5627.5
325.168	4890.5
325.397	2014.5
325.626	1284.5
325.855	1089.5
326.084	1071.5
326.313	1043.5
326.542	1067.5
326.77	1162.5
326.999	1435.5
327.228	2014.5
327.457	3330.5
327.686	4375.5
327.914	2556.5
328.143	1469.5
328.372	1294.5
328.6	1257.5
328.829	1201.5
329.058	1276.5
329.287	1363.5
329.515	1244.5
329.744	1069.5
329.972	1043.5
330.201	1072.5
330.43	1140.5
330.658	1219.5
330.887	1402.5
331.115	1460.5
331.344	1185.5
331.572	1060.5
331.801	1122.5
332.03	1128.5
332.258	1115.5
332.486	1074.5
332.715	1061.5
332.943	1081.5
333.172	1107.5
333.4	1117.5
333.629	1127.5
333.857	1171.5
334.085	1178.5
334.314	1141.5
334.542	1117.5
334.771	1144.5
334.999	1126.5
335.227	1113.5
335.455	1063.5
335.684	1058.5
335.912	1074.5
336.14	1011.5
336.369	1066.5
336.597	1075.5
336.825	1093.5
337.053	1031.5
337.281	1013.5
337.51	1003.5
337.738	1036.5
337.966	1033.5
338.194	1027.5
338.422	1025.5
338.65	981.5
338.878	955.5
339.106	982.5
339.334	967.5
339.562	982.5
339.79	977.5
340.018	943.5
340.246	954.5
340.474	971.5
340.702	980.5
340.93	954.5
341.158	931.5
341.386	954.5
341.614	958.5
341.842	950.5
342.07	947.5
342.298	925.5
342.526	923.5
342.754	905.5
342.981	896.5
343.209	909.5
343.437	949.5
343.665	989.5
343.893	1014.5
344.12	1086.5
344.348	1057.5
344.576	1035.5
344.804	1024.5
345.031	1026.5
345.259	1044.5
345.487	973.5
345.714	944.5
345.942	922.5
346.17	925.5
346.397	893.5
346.625	923.5
346.853	914.5
347.08	895.5
347.308	927.5
347.535	933.5
347.763	998.5
347.99	943.5
348.218	929.5
348.445	970.5
348.673	933.5
348.9	910.5
349.128	921.5
349.355	881.5
349.583	867.5
349.81	869.5
350.037	890.5
350.265	878.5
350.492	875.5
350.72	851.5
350.947	870.5
351.174	943.5
351.402	946.5
351.629	934.5
351.856	919.5
352.083	933.5
352.311	958.5
352.538	975.5
352.765	979.5
352.992	942.5
353.22	887.5
353.447	902.5
353.674	891.5
353.901	876.5
354.128	829.5
354.355	835.5
354.583	833.5
354.81	859.5
355.037	827.5
355.264	846.5
355.491	827.5
355.718	823.5
355.945	836.5
356.172	804.5
356.399	822.5
356.626	821.5
356.853	830.5
357.08	843.5
357.307	830.5
357.534	820.5
357.761	817.5
357.988	825.5
358.215	817.5
358.441	819.5
358.668	842.5
358.895	839.5
359.122	858.5
359.349	888.5
359.576	868.5
359.802	919.5
360.029	1037.5
360.256	1110.5
360.483	1019.5
360.709	918.5
360.936	914.5
361.163	884.5
361.39	907.5
361.616	906.5
361.843	891.5
362.07	868.5
362.296	916.5
362.523	883.5
362.749	898.5
362.976	896.5
363.203	855.5
363.429	853.5
363.656	873.5
363.882	867.5
364.109	845.5
364.335	854.5
364.562	860.5
364.788	854.5
365.015	879.5
365.241	829.5
365.468	898.5
365.694	901.5
365.92	869.5
366.147	878.5
366.373	851.5
366.599	837.5
366.826	834.5
367.052	834.5
367.278	836.5
367.505	876.5
367.731	826.5
367.957	873.5
368.184	869.5
368.41	860.5
368.636	904.5
368.862	895.5
369.089	899.5
369.315	843.5
369.541	875.5
369.767	854.5
369.993	891.5
370.219	877.5
370.445	896.5
370.672	871.5
370.898	861.5
371.124	886.5
371.35	918.5
371.576	852.5
371.802	878.5
372.028	900.5
372.254	880.5
372.48	881.5
372.706	908.5
372.932	907.5
373.158	922.5
373.384	895.5
373.61	900.5
373.835	908.5
374.061	875.5
374.287	908.5
374.513	889.5
374.739	927.5
374.965	918.5
375.191	949.5
375.416	928.5
375.642	904.5
375.868	926.5
376.094	900.5
376.319	910.5
376.545	895.5
376.771	896.5
376.997	911.5
377.222	889.5
377.448	878.5
377.674	908.5
377.899	906.5
378.125	882.5
378.35	885.5
378.576	894.5
378.802	898.5
379.027	896.5
379.253	890.5
379.478	884.5
379.704	890.5
379.929	924.5
380.155	920.5
380.38	929.5
380.606	917.5
380.831	906.5
381.057	916.5
381.282	902.5
381.507	915.5
381.733	921.5
381.958	891.5
382.184	923.5
382.409	929.5
382.634	983.5
382.86	951.5
383.085	941.5
383.31	964.5
383.535	993.5
383.761	1001.5
383.986	1007.5
384.211	1011.5
384.436	1033.5
384.662	1003.5
384.887	1046.5
385.112	1021.5
385.337	1054.5
385.562	1051.5
385.787	1050.5
386.013	1062.5
386.238	1104.5
386.463	1107.5
386.688	1100.5
386.913	1079.5
387.138	1081.5
387.363	1044.5
387.588	1032.5
387.813	1041.5
388.038	1073.5
388.263	1057.5
388.488	1062.5
388.713	1107.5
388.938	1085.5
389.163	1101.5
389.387	1053.5
389.612	1069.5
389.837	1069.5
390.062	1054.5
390.287	1052.5
390.512	1056.5
390.736	1027.5
390.961	1073.5
391.186	1075.5
391.411	1103.5
391.636	1128.5
391.86	1154.5
392.085	1164.5
392.31	1176.5
392.534	1170.5
392.759	1161.5
392.984	1126.5
393.208	1133.5
393.433	1107.5
393.658	1069.5
393.882	1121.5
394.107	1122.5
394.331	1115.5
394.556	1139.5
394.78	1132.5
395.005	1145.5
395.229	1140.5
395.454	1152.5
395.678	1191.5
395.903	1193.5
396.127	1249.5
396.352	1210.5
396.576	1173.5
396.801	1117.5
397.025	1163.5
397.249	1172.5
397.474	1188.5
397.698	1186.5
397.922	1262.5
398.147	1265.5
398.371	1285.5
398.595	1289.5
398.82	1297.5
399.044	1412.5
399.268	1484.5
399.492	1663.5
399.717	1808.5
399.941	1846.5
400.165	1801.5
400.389	1723.5
400.613	1547.5
400.837	1409.5
401.062	1392.5
401.286	1380.5
401.51	1327.5
401.734	1363.5
401.958	1382.5
402.182	1391.5
402.406	1431.5
402.63	1479.5
402.854	1452.5
403.078	1463.5
403.302	1446.5
403.526	1503.5
403.75	1519.5
403.974	1510.5
404.198	1472.5
404.422	1525.5
404.645	1499.5
404.869	1520.5
405.093	1517.5
405.317	1605.5
405.541	1623.5
405.765	1510.5
405.988	1519.5
406.212	1572.5
406.436	1613.5
406.66	1656.5
406.883	1593.5
407.107	1668.5
407.331	1790.5
407.555	2007.5
407.778	1986.5
408.002	1809.5
408.226	1622.5
408.449	1622.5
408.673	1551.5
408.896	1668.5
409.12	1756.5
409.344	1669.5
409.567	1497.5
409.791	1488.5
410.014	1488.5
410.238	1486.5
410.461	1493.5
410.685	1519.5
410.908	1521.5
411.132	1605.5
411.355	1666.5
411.578	1574.5
411.802	1455.5
412.025	1425.5
412.249	1471.5
412.472	1413.5
412.695	1407.5
412.919	1386.5
413.142	1397.5
413.365	1377.5
413.589	1388.5
413.812	1391.5
414.035	1374.5
414.258	1383.5
414.482	1349.5
414.705	1400.5
414.928	1393.5
415.151	1389.5
415.374	1381.5
415.597	1382.5
415.821	1355.5
416.044	1421.5
416.267	1392.5
416.49	1386.5
416.713	1394.5
416.936	1389.5
417.159	1414.5
417.382	1411.5
417.605	1450.5
417.828	1497.5
418.051	1541.5
418.274	1491.5
418.497	1454.5
418.72	1513.5
418.943	1458.5
419.166	1563.5
419.389	1621.5
419.611	1543.5
419.834	1527.5
420.057	1562.5
420.28	1523.5
420.503	1449.5
420.726	1463.5
420.948	1488.5
421.171	1568.5
421.394	1686.5
421.617	1574.5
421.839	1571.5
422.062	1495.5
422.285	1528.5
422.507	1670.5
422.73	1890.5
422.953	1757.5
423.175	1615.5
423.398	1572.5
423.621	1586.5
423.843	1717.5
424.066	1675.5
424.288	1685.5
424.511	1721.5
424.733	1843.5
424.956	2034.5
425.178	1903.5
425.401	1902.5
425.623	1979.5
425.846	1689.5
426.068	1570.5
426.291	1520.5
426.513	1536.5
426.735	1545.5
426.958	1630.5
427.18	1856.5
427.402	2202.5
427.625	2405.5
427.847	2053.5
428.069	1689.5
428.292	1551.5
428.514	1447.5
428.736	1453.5
428.958	1455.5
429.181	1419.5
429.403	1366.5
429.625	1403.5
429.847	1505.5
430.069	1670.5
430.292	1643.5
430.514	1424.5
430.736	1402.5
430.958	1384.5
431.18	1341.5
431.402	1341.5
431.624	1273.5
431.846	1245.5
432.068	1171.5
432.29	1223.5
432.512	1297.5
432.734	1381.5
432.956	1387.5
433.178	1403.5
433.4	1480.5
433.622	1429.5
433.844	1363.5
434.066	1296.5
434.287	1252.5
434.509	1230.5
434.731	1328.5
434.953	1395.5
435.175	1518.5
435.397	1589.5
435.618	1570.5
435.84	1535.5
436.062	1835.5
436.284	2017.5
436.505	1691.5
436.727	1550.5
436.949	1455.5
437.17	1459.5
437.392	1396.5
437.614	1383.5
437.835	1401.5
438.057	1646.5
438.278	1949.5
438.5	1927.5
438.721	2215.5
438.943	2117.5
439.165	1700.5
439.386	1623.5
439.608	1635.5
439.829	1621.5
440.05	1758.5
440.272	1919.5
440.493	1756.5
440.715	1663.5
440.936	1573.5
441.158	1572.5
441.379	1603.5
441.6	1668.5
441.822	1711.5
442.043	1807.5
442.264	1976.5
442.486	2118.5
442.707	1782.5
442.928	1731.5
443.149	1794.5
443.371	1881.5
443.592	1892.5
443.813	2150.5
444.034	2304.5
444.255	1901.5
444.476	1803.5
444.698	1806.5
444.919	1814.5
445.14	1879.5
445.361	1874.5
445.582	1871.5
445.803	2096.5
446.024	2377.5
446.245	2385.5
446.466	2129.5
446.687	1823.5
446.908	1685.5
447.129	1616.5
447.35	1590.5
447.571	1524.5
447.792	1534.5
448.013	1558.5
448.234	1536.5
448.455	1634.5
448.675	1953.5
448.896	2221.5
449.117	1865.5
449.338	1751.5
449.559	2061.5
449.779	2334.5
450	1806.5
450.221	1586.5
450.442	1505.5
450.662	1415.5
450.883	1446.5
451.104	1492.5
451.324	1483.5
451.545	1381.5
451.766	1340.5
451.986	1301.5
452.207	1242.5
452.428	1256.5
452.648	1249.5
452.869	1237.5
453.089	1269.5
453.31	1264.5
453.53	1167.5
453.751	1149.5
453.971	1135.5
454.192	1234.5
454.412	1208.5
454.633	1181.5
454.853	1192.5
455.073	1188.5
455.294	1376.5
455.514	1525.5
455.734	1385.5
455.955	1215.5
456.175	1158.5
456.395	1086.5
456.616	1102.5
456.836	1078.5
457.056	1067.5
457.276	1035.5
457.497	1086.5
457.717	1077.5
457.937	1104.5
458.157	1135.5
458.377	1117.5
458.598	1174.5
458.818	1262.5
459.038	1561.5
459.258	1625.5
459.478	1299.5
459.698	1225.5
459.918	1233.5
460.138	1284.5
460.358	1348.5
460.578	1337.5
460.798	1348.5
461.018	1396.5
461.238	1359.5
461.458	1376.5
461.678	1379.5
461.898	1385.5
462.118	1374.5
462.338	1445.5
462.558	1437.5
462.777	1485.5
462.997	1553.5
463.217	1619.5
463.437	1637.5
463.657	1546.5
463.876	1479.5
464.096	1474.5
464.316	1439.5
464.536	1560.5
464.755	1527.5
464.975	1566.5
465.195	1614.5
465.414	1782.5
465.634	1538.5
465.854	1402.5
466.073	1363.5
466.293	1348.5
466.512	1336.5
466.732	1311.5
466.951	1357.5
467.171	1361.5
467.391	1362.5
467.61	1417.5
467.829	1422.5
468.049	1369.5
468.268	1357.5
468.488	1336.5
468.707	1319.5
468.927	1328.5
469.146	1343.5
469.365	1379.5
469.585	1374.5
469.804	1414.5
470.023	1450.5
470.243	1461.5
470.462	1540.5
470.681	1524.5
470.901	1520.5
471.12	1455.5
471.339	1450.5
471.558	1428.5
471.777	1427.5
471.997	1350.5
472.216	1273.5
472.435	1193.5
472.654	1134.5
472.873	1133.5
473.092	1197.5
473.311	1188.5
473.53	1263.5
473.749	1276.5
473.968	1375.5
474.187	1601.5
474.406	1677.5
474.625	1391.5
474.844	1331.5
475.063	1290.5
475.282	1247.5
475.501	1220.5
475.72	1273.5
475.939	1305.5
476.158	1329.5
476.377	1326.5
476.596	1270.5
476.814	1259.5
477.033	1212.5
477.252	1270.5
477.471	1351.5
477.69	1433.5
477.908	1493.5
478.127	1474.5
478.346	1515.5
478.564	1534.5
478.783	1506.5
479.002	1558.5
479.22	1587.5
479.439	1561.5
479.658	1560.5
479.876	1509.5
480.095	1474.5
480.313	1630.5
480.532	1597.5
480.751	1503.5
480.969	1431.5
481.188	1401.5
481.406	1341.5
481.624	1285.5
481.843	1255.5
482.061	1265.5
482.28	1316.5
482.498	1304.5
482.717	1282.5
482.935	1403.5
483.153	1510.5
483.372	1546.5
483.59	1541.5
483.808	1489.5
484.027	1426.5
484.245	1431.5
484.463	1517.5
484.681	1545.5
484.9	1493.5
485.118	1493.5
485.336	1476.5
485.554	1410.5
485.772	1369.5
485.99	1359.5
486.209	1396.5
486.427	1423.5
486.645	1517.5
486.863	1678.5
487.081	1686.5
487.299	1580.5
487.517	1611.5
487.735	1767.5
487.953	1919.5
488.171	1874.5
488.389	1782.5
488.607	1682.5
488.825	1591.5
489.043	1550.5
489.261	1559.5
489.479	1624.5
489.696	1659.5
489.914	1652.5
490.132	1672.5
490.35	1784.5
490.568	1868.5
490.786	1982.5
491.003	2044.5
491.221	2126.5
491.439	2167.5
491.657	2274.5
491.874	2264.5
492.092	2469.5
492.31	2552.5
492.527	2469.5
492.745	2329.5
492.963	2297.5
493.18	2208.5
493.398	2261.5
493.615	2259.5
493.833	2215.5
494.05	2180.5
494.268	2173.5
494.485	2141.5
494.703	2157.5
494.92	2212.5
495.138	2173.5
495.355	2139.5
495.573	2125.5
495.79	2142.5
496.008	2166.5
496.225	2133.5
496.442	2129.5
496.66	2045.5
496.877	2046.5
497.094	2075.5
497.312	2110.5
497.529	2097.5
497.746	2027.5
497.963	2003.5
498.181	2026.5
498.398	1989.5
498.615	2052.5
498.832	2102.5
499.049	2186.5
499.267	2315.5
499.484	2457.5
499.701	2667.5
499.918	2865.5
500.135	3147.5
500.352	3444.5
500.569	3501.5
500.786	3506.5
501.003	3319.5
501.22	3139.5
501.437	2882.5
501.654	2780.5
501.871	2680.5
502.088	2501.5
502.305	2270.5
502.522	2196.5
502.739	2110.5
502.956	2015.5
503.172	1938.5
503.389	1886.5
503.606	1877.5
503.823	1895.5
504.04	1833.5
504.256	1818.5
504.473	1799.5
504.69	1803.5
504.907	1823.5
505.123	1773.5
505.34	1782.5
505.557	1722.5
505.773	1719.5
505.99	1677.5
506.207	1652.5
506.423	1628.5
506.64	1638.5
506.856	1603.5
507.073	1583.5
507.289	1589.5
507.506	1574.5
507.722	1564.5
507.939	1633.5
508.155	1580.5
508.372	1496.5
508.588	1475.5
508.805	1439.5
509.021	1435.5
509.238	1515.5
509.454	1508.5
509.67	1437.5
509.887	1387.5
510.103	1379.5
510.319	1403.5
510.536	1593.5
510.752	2752.5
510.968	1963.5
511.184	1333.5
511.401	1275.5
511.617	1254.5
511.833	1249.5
512.049	1276.5
512.265	1255.5
512.481	1277.5
512.698	1309.5
512.914	1286.5
513.13	1280.5
513.346	1281.5
513.562	1234.5
513.778	1247.5
513.994	1301.5
514.21	1297.5
514.426	1339.5
514.642	1468.5
514.858	1499.5
515.074	1579.5
515.29	2040.5
515.506	3213.5
515.721	2402.5
515.937	1563.5
516.153	1459.5
516.369	1390.5
516.585	1427.5
516.801	1420.5
517.016	1436.5
517.232	1478.5
517.448	1565.5
517.664	1567.5
517.879	1537.5
518.095	1555.5
518.311	1505.5
518.527	1500.5
518.742	1497.5
518.958	1463.5
519.173	1433.5
519.389	1442.5
519.605	1397.5
519.82	1420.5
520.036	1447.5
520.251	1485.5
520.467	1517.5
520.682	1473.5
520.898	1404.5
521.113	1453.5
521.329	1546.5
521.544	1803.5
521.76	2398.5
521.975	4415.5
522.19	3870.5
522.406	1949.5
522.621	1506.5
522.836	1370.5
523.052	1333.5
523.267	1316.5
523.482	1284.5
523.698	1274.5
523.913	1303.5
524.128	1299.5
524.343	1331.5
524.559	1283.5
524.774	1313.5
524.989	1254.5
525.204	1293.5
525.419	1286.5
525.634	1231.5
525.849	1187.5
526.064	1127.5
526.28	1120.5
526.495	1101.5
526.71	1041.5
526.925	992.5
527.14	995.5
527.355	1036.5
527.57	1011.5
527.785	1038.5
527.999	1067.5
528.214	1137.5
528.429	1177.5
528.644	1253.5
528.859	1319.5
529.074	1411.5
529.289	1552.5
529.503	1729.5
529.718	1546.5
529.933	1285.5
530.148	1147.5
530.363	1065.5
530.577	1040.5
530.792	1026.5
531.007	977.5
531.221	989.5
531.436	1008.5
531.651	998.5
531.865	989.5
532.08	993.5
532.295	1004.5
532.509	1003.5
532.724	1030.5
532.938	1017.5
533.153	1090.5
533.367	1138.5
533.582	1208.5
533.796	1199.5
534.011	1125.5
534.225	1028.5
534.44	1037.5
534.654	1005.5
534.868	1039.5
535.083	1021.5
535.297	1067.5
535.511	1095.5
535.726	1137.5
535.94	1106.5
536.154	1040.5
536.369	992.5
536.583	977.5
536.797	996.5
537.011	943.5
537.225	965.5
537.44	961.5
537.654	998.5
537.868	999.5
538.082	1007.5
538.296	979.5
538.51	1067.5
538.724	1133.5
538.938	1182.5
539.153	1203.5
539.367	1246.5
539.581	1159.5
539.795	1069.5
540.009	1037.5
540.222	1022.5
540.436	1069.5
540.65	1149.5
540.864	1306.5
541.078	1405.5
541.292	1430.5
541.506	1569.5
541.72	1627.5
541.934	1739.5
542.147	1817.5
542.361	1669.5
542.575	1534.5
542.789	1461.5
543.002	1311.5
543.216	1254.5
543.43	1265.5
543.644	1304.5
543.857	1401.5
544.071	1497.5
544.285	1625.5
544.498	1597.5
544.712	1607.5
544.925	1636.5
545.139	1601.5
545.352	1664.5
545.566	1669.5
545.779	1684.5
545.993	1681.5
546.206	1716.5
546.42	1758.5
546.633	1725.5
546.847	1683.5
547.06	1700.5
547.274	1709.5
547.487	1786.5
547.7	1808.5
547.914	1763.5
548.127	1650.5
548.34	1702.5
548.554	1637.5
548.767	1650.5
548.98	1582.5
549.193	1624.5
549.407	1632.5
549.62	1641.5
549.833	1647.5
550.046	1633.5
550.259	1633.5
550.473	1533.5
550.686	1553.5
550.899	1538.5
551.112	1489.5
551.325	1455.5
551.538	1329.5
551.751	1222.5
551.964	1174.5
552.177	1300.5
552.39	1409.5
552.603	1529.5
552.816	1595.5
553.029	1637.5
553.242	1709.5
553.455	1794.5
553.667	1764.5
553.88	1737.5
554.093	1721.5
554.306	1678.5
554.519	1619.5
554.732	1573.5
554.944	1515.5
555.157	1533.5
555.37	1465.5
555.583	1477.5
555.795	1417.5
556.008	1331.5
556.221	1309.5
556.433	1330.5
556.646	1327.5
556.859	1371.5
557.071	1351.5
557.284	1388.5
557.496	1389.5
557.709	1398.5
557.921	1385.5
558.134	1365.5
558.346	1351.5
558.559	1325.5
558.771	1276.5
558.984	1292.5
559.196	1241.5
559.409	1230.5
559.621	1226.5
559.833	1187.5
560.046	1213.5
560.258	1259.5
560.47	1242.5
560.683	1243.5
560.895	1247.5
561.107	1255.5
561.32	1205.5
561.532	1258.5
561.744	1241.5
561.956	1266.5
562.168	1249.5
562.381	1237.5
562.593	1213.5
562.805	1194.5
563.017	1186.5
563.229	1213.5
563.441	1196.5
563.653	1190.5
563.865	1192.5
564.077	1191.5
564.289	1200.5
564.501	1154.5
564.713	1195.5
564.925	1189.5
565.137	1227.5
565.349	1232.5
565.561	1230.5
565.773	1242.5
565.985	1302.5
566.197	1324.5
566.408	1449.5
566.62	1479.5
566.832	1503.5
567.044	1552.5
567.255	1533.5
567.467	1517.5
567.679	1525.5
567.891	1549.5
568.102	1496.5
568.314	1406.5
568.526	1277.5
568.737	1177.5
568.949	1059.5
569.161	983.5
569.372	923.5
569.584	885.5
569.795	848.5
570.007	889.5
570.218	951.5
570.43	927.5
570.641	897.5
570.853	914.5
571.064	978.5
571.276	987.5
571.487	986.5
571.698	947.5
571.91	919.5
572.121	906.5
572.333	880.5
572.544	825.5
572.755	793.5
572.966	763.5
573.178	724.5
573.389	715.5
573.6	690.5
573.811	679.5
574.023	687.5
574.234	691.5
574.445	707.5
574.656	713.5
574.867	771.5
575.078	767.5
575.289	762.5
575.501	770.5
575.712	737.5
575.923	741.5
576.134	741.5
576.345	745.5
576.556	774.5
576.767	799.5
576.978	772.5
577.188	801.5
577.399	761.5
577.61	731.5
577.821	727.5
578.032	723.5
578.243	847.5
578.454	1195.5
578.665	855.5
578.875	677.5
579.086	645.5
579.297	639.5
579.508	629.5
579.718	634.5
579.929	639.5
580.14	643.5
580.35	609.5
580.561	654.5
580.772	640.5
580.982	685.5
581.193	701.5
581.403	658.5
581.614	671.5
581.825	647.5
582.035	661.5
582.246	640.5
582.456	652.5
582.667	669.5
582.877	634.5
583.087	660.5
583.298	629.5
583.508	645.5
583.719	626.5
583.929	587.5
584.139	580.5
584.35	590.5
584.56	609.5
584.77	608.5
584.981	632.5
585.191	610.5
585.401	607.5
585.611	600.5
585.821	582.5
586.032	601.5
586.242	585.5
586.452	594.5
586.662	572.5
586.872	578.5
587.082	577.5
587.292	564.5
587.502	591.5
587.713	588.5
587.923	585.5
588.133	599.5
588.343	574.5
588.553	565.5
588.762	575.5
588.972	606.5
589.182	575.5
589.392	574.5
589.602	576.5
589.812	590.5
590.022	605.5
590.232	593.5
590.441	588.5
590.651	593.5
590.861	585.5
591.071	589.5
591.281	628.5
591.49	622.5
591.7	602.5
591.91	603.5
592.119	645.5
592.329	675.5
592.539	675.5
592.748	707.5
592.958	717.5
593.167	723.5
593.377	708.5
593.587	735.5
593.796	715.5
594.006	719.5
594.215	762.5
594.424	779.5
594.634	768.5
594.843	784.5
595.053	760.5
595.262	743.5
595.472	697.5
595.681	649.5
595.89	623.5
596.1	636.5
596.309	666.5
596.518	667.5
596.727	703.5
596.937	693.5
597.146	685.5
597.355	662.5
597.564	614.5
597.774	595.5
597.983	582.5
598.192	559.5
598.401	540.5
598.61	572.5
598.819	550.5
599.028	607.5
599.237	605.5
599.446	597.5
599.655	591.5
599.864	575.5
600.073	577.5
600.282	596.5
600.491	629.5
600.7	622.5
600.909	633.5
601.118	674.5
601.327	755.5
601.536	768.5
601.745	791.5
601.953	802.5
602.162	841.5
602.371	825.5
602.58	841.5
602.789	822.5
602.997	858.5
603.206	848.5
603.415	867.5
603.623	842.5
603.832	835.5
604.041	779.5
604.249	718.5
604.458	662.5
604.666	640.5
604.875	671.5
605.084	718.5
605.292	791.5
605.501	864.5
605.709	873.5
605.918	904.5
606.126	913.5
606.334	900.5
606.543	884.5
606.751	896.5
606.96	912.5
607.168	917.5
607.376	895.5
607.585	923.5
607.793	914.5
608.001	915.5
608.21	942.5
608.418	928.5
608.626	952.5
608.834	952.5
609.043	932.5
609.251	939.5
609.459	942.5
609.667	940.5
609.875	987.5
610.083	991.5
610.291	936.5
610.499	919.5
610.707	953.5
610.916	964.5
611.124	983.5
611.332	1009.5
611.54	1028.5
611.748	987.5
611.955	993.5
612.163	993.5
612.371	980.5
612.579	982.5
612.787	972.5
612.995	963.5
613.203	971.5
613.411	945.5
613.618	958.5
613.826	943.5
614.034	929.5
614.242	933.5
614.449	960.5
614.657	946.5
614.865	947.5
615.072	942.5
615.28	960.5
615.488	943.5
615.695	982.5
615.903	957.5
616.111	957.5
616.318	987.5
616.526	973.5
616.733	961.5
616.941	978.5
617.148	995.5
617.356	977.5
617.563	914.5
617.771	900.5
617.978	839.5
618.185	889.5
618.393	903.5
618.6	939.5
618.807	939.5
619.015	937.5
619.222	901.5
619.429	862.5
619.637	800.5
619.844	729.5
620.051	753.5
620.258	807.5
620.466	835.5
620.673	857.5
620.88	855.5
621.087	828.5
621.294	785.5
621.501	760.5
621.708	773.5
621.915	807.5
622.122	843.5
622.329	889.5
622.536	864.5
622.743	860.5
622.95	823.5
623.157	831.5
623.364	864.5
623.571	882.5
623.778	841.5
623.985	832.5
624.192	822.5
624.399	833.5
624.606	830.5
624.812	800.5
625.019	735.5
625.226	729.5
625.433	742.5
625.639	679.5
625.846	653.5
626.053	584.5
626.259	533.5
626.466	523.5
626.673	534.5
626.879	551.5
627.086	567.5
627.293	667.5
627.499	709.5
627.706	781.5
627.912	805.5
628.119	831.5
628.325	810.5
628.532	778.5
628.738	739.5
628.945	723.5
629.151	719.5
629.357	703.5
629.564	680.5
629.77	694.5
629.976	684.5
630.183	632.5
630.389	653.5
630.595	711.5
630.802	711.5
631.008	715.5
631.214	693.5
631.42	667.5
631.627	630.5
631.833	630.5
632.039	647.5
632.245	659.5
632.451	658.5
632.657	668.5
632.863	676.5
633.069	659.5
633.275	668.5
633.481	634.5
633.688	613.5
633.893	629.5
634.099	609.5
634.305	620.5
634.511	627.5
634.717	563.5
634.923	523.5
635.129	515.5
635.335	533.5
635.541	565.5
635.747	575.5
635.952	582.5
636.158	621.5
636.364	638.5
636.57	631.5
636.775	665.5
636.981	651.5
637.187	654.5
637.392	680.5
637.598	683.5
637.804	668.5
638.009	640.5
638.215	632.5
638.421	613.5
638.626	633.5
638.832	633.5
639.037	614.5
639.243	601.5
639.448	602.5
639.654	590.5
639.859	588.5
640.065	589.5
640.27	615.5
640.475	593.5
640.681	576.5
640.886	608.5
641.091	632.5
641.297	628.5
641.502	633.5
641.707	647.5
641.913	621.5
642.118	622.5
642.323	609.5
642.528	621.5
642.733	598.5
642.939	609.5
643.144	563.5
643.349	601.5
643.554	585.5
643.759	576.5
643.964	563.5
644.169	576.5
644.374	563.5
644.579	596.5
644.784	594.5
644.989	603.5
645.194	549.5
645.399	593.5
645.604	578.5
645.809	579.5
646.014	587.5
646.219	606.5
646.423	603.5
646.628	601.5
646.833	594.5
647.038	581.5
647.243	581.5
647.447	596.5
647.652	599.5
647.857	579.5
648.062	596.5
648.266	624.5
648.471	619.5
648.676	596.5
648.88	630.5
649.085	602.5
649.289	587.5
649.494	591.5
649.698	655.5
649.903	640.5
650.107	575.5
650.312	559.5
650.516	557.5
650.721	541.5
650.925	533.5
651.13	514.5
651.334	509.5
651.539	501.5
651.743	516.5
651.947	501.5
652.152	498.5
652.356	495.5
652.56	487.5
652.764	465.5
652.969	448.5
653.173	441.5
653.377	455.5
653.581	407.5
653.785	421.5
653.99	412.5
654.194	413.5
654.398	409.5
654.602	399.5
654.806	418.5
655.01	411.5
655.214	393.5
655.418	388.5
655.622	382.5
655.826	371.5
656.03	368.5
656.234	383.5
656.438	393.5
656.642	378.5
656.846	366.5
657.049	344.5
657.253	312.5
657.457	306.5
657.661	305.5
657.865	295.5
658.068	269.5
658.272	282.5
658.476	230.5
658.68	257.5
658.883	223.5
659.087	229.5
659.291	218.5
659.494	201.5
659.698	206.5
659.901	211.5
660.105	201.5
660.309	195.5
660.512	168.5
660.716	179.5
660.919	159.5
661.123	159.5
661.326	143.5
661.53	147.5
661.733	145.5
661.936	134.5
662.14	127.5
662.343	129.5
662.546	122.5
662.75	107.5
662.953	104.5
663.156	94.5
663.36	116.5
663.563	105.5
663.766	101.5
663.969	104.5
664.173	97.5
664.376	94.5
664.579	87.5
664.782	95.5
664.985	94.5
665.188	97.5
665.391	83.5
665.594	101.5
665.797	86.5
666	78.5
666.203	105.5
666.406	94.5
666.609	101.5
666.812	95.5
667.015	86.5
667.218	91.5
667.421	86.5
667.624	96.5
667.827	90.5
668.03	86.5
668.232	66.5
668.435	82.5
668.638	84.5
668.841	93.5
669.043	86.5
669.246	89.5
669.449	77.5
669.651	99.5
669.854	95.5
670.057	94.5
670.259	75.5
670.462	93.5
670.665	92.5
670.867	78.5
671.07	96.5
671.272	97.5
671.475	84.5
671.677	94.5
671.88	87.5
672.082	97.5
672.284	97.5
672.487	89.5
672.689	99.5
672.892	91.5
