Data from FlinnAP9092KCOPPER.07152019.QSWITCHSynchronous.EN10.20scans.P1_HRD10591_14-49-24-574.txt Node
Date: Mon Jul 15 14:49:24 EDT 2019
User: cochatt
Spectrometer: HR+D1059
Trigger mode: 5
Integration Time (sec): 1.000000E-1
Scans to average: 1
Electric dark correction enabled: true
Nonlinearity correction enabled: false
Boxcar width: 0
XAxis mode: Wavelengths
Number of Pixels in Spectrum: 2048
>>>>>Begin Spectral Data<<<<<
223.165	-20.88
223.4	-20.88
223.635	-20.88
223.869	-38.88
224.104	-40.88
224.338	15.12
224.573	-20.88
224.808	-1.88
225.042	8.12
225.277	-13.88
225.511	-7.88
225.746	12.12
225.98	13.12
226.215	8.12
226.449	19.12
226.683	8.12
226.918	33.12
227.152	28.12
227.387	30.12
227.621	42.12
227.856	64.12
228.09	34.12
228.324	64.12
228.559	79.12
228.793	95.12
229.027	199.12
229.262	197.12
229.496	227.12
229.73	278.12
229.964	357.12
230.199	244.12
230.433	202.12
230.667	233.12
230.901	203.12
231.136	208.12
231.37	195.12
231.604	201.12
231.838	193.12
232.072	194.12
232.306	204.12
232.541	198.12
232.775	204.12
233.009	202.12
233.243	203.12
233.477	200.12
233.711	214.12
233.945	229.12
234.179	201.12
234.413	243.12
234.647	224.12
234.881	213.12
235.115	216.12
235.349	208.12
235.583	222.12
235.817	222.12
236.051	222.12
236.285	236.12
236.519	244.12
236.753	250.12
236.987	278.12
237.221	363.12
237.455	522.12
237.689	397.12
237.922	286.12
238.156	265.12
238.39	259.12
238.624	257.12
238.858	254.12
239.091	234.12
239.325	237.12
239.559	253.12
239.793	237.12
240.027	283.12
240.26	295.12
240.494	339.12
240.728	314.12
240.961	313.12
241.195	307.12
241.429	291.12
241.662	257.12
241.896	239.12
242.13	272.12
242.363	257.12
242.597	277.12
242.83	301.12
243.064	264.12
243.298	293.12
243.531	281.12
243.765	280.12
243.998	280.12
244.232	301.12
244.465	311.12
244.699	290.12
244.932	285.12
245.166	295.12
245.399	311.12
245.633	301.12
245.866	296.12
246.099	286.12
246.333	292.12
246.566	313.12
246.8	308.12
247.033	307.12
247.266	325.12
247.5	343.12
247.733	353.12
247.966	374.12
248.2	355.12
248.433	343.12
248.666	378.12
248.899	391.12
249.133	438.12
249.366	495.12
249.599	409.12
249.832	378.12
250.066	394.12
250.299	372.12
250.532	395.12
250.765	411.12
250.998	479.12
251.231	517.12
251.465	460.12
251.698	420.12
251.931	374.12
252.164	404.12
252.397	397.12
252.63	396.12
252.863	422.12
253.096	473.12
253.329	526.12
253.562	489.12
253.795	455.12
254.028	457.12
254.261	448.12
254.494	490.12
254.727	604.12
254.96	649.12
255.193	585.12
255.426	511.12
255.659	479.12
255.892	468.12
256.124	443.12
256.357	439.12
256.59	450.12
256.823	424.12
257.056	452.12
257.289	436.12
257.521	444.12
257.754	429.12
257.987	439.12
258.22	449.12
258.452	430.12
258.685	435.12
258.918	437.12
259.151	444.12
259.383	468.12
259.616	462.12
259.849	489.12
260.081	531.12
260.314	569.12
260.547	591.12
260.779	545.12
261.012	515.12
261.244	482.12
261.477	497.12
261.71	462.12
261.942	487.12
262.175	526.12
262.407	503.12
262.64	461.12
262.872	465.12
263.105	448.12
263.337	474.12
263.57	463.12
263.802	485.12
264.035	466.12
264.267	458.12
264.499	458.12
264.732	477.12
264.964	455.12
265.197	460.12
265.429	491.12
265.661	488.12
265.894	464.12
266.126	513.12
266.358	475.12
266.591	506.12
266.823	539.12
267.055	505.12
267.287	528.12
267.52	501.12
267.752	524.12
267.984	498.12
268.216	507.12
268.448	514.12
268.681	552.12
268.913	572.12
269.145	612.12
269.377	673.12
269.609	621.12
269.841	609.12
270.073	598.12
270.306	690.12
270.538	723.12
270.77	726.12
271.002	676.12
271.234	660.12
271.466	703.12
271.698	715.12
271.93	772.12
272.162	745.12
272.394	759.12
272.626	693.12
272.858	650.12
273.09	638.12
273.322	609.12
273.553	581.12
273.785	591.12
274.017	590.12
274.249	598.12
274.481	585.12
274.713	594.12
274.945	645.12
275.176	603.12
275.408	609.12
275.64	587.12
275.872	575.12
276.104	615.12
276.335	626.12
276.567	611.12
276.799	650.12
277.031	693.12
277.262	755.12
277.494	780.12
277.726	687.12
277.957	649.12
278.189	630.12
278.421	655.12
278.652	591.12
278.884	615.12
279.115	596.12
279.347	619.12
279.579	628.12
279.81	599.12
280.042	612.12
280.273	619.12
280.505	601.12
280.736	605.12
280.968	574.12
281.199	600.12
281.431	635.12
281.662	652.12
281.894	636.12
282.125	617.12
282.356	685.12
282.588	716.12
282.819	737.12
283.051	649.12
283.282	640.12
283.513	659.12
283.745	660.12
283.976	666.12
284.207	684.12
284.439	663.12
284.67	702.12
284.901	646.12
285.132	663.12
285.364	645.12
285.595	661.12
285.826	663.12
286.057	679.12
286.288	669.12
286.52	706.12
286.751	681.12
286.982	700.12
287.213	661.12
287.444	686.12
287.675	701.12
287.906	709.12
288.138	749.12
288.369	745.12
288.6	728.12
288.831	714.12
289.062	707.12
289.293	702.12
289.524	697.12
289.755	687.12
289.986	685.12
290.217	696.12
290.448	703.12
290.679	692.12
290.91	711.12
291.141	684.12
291.371	678.12
291.602	692.12
291.833	655.12
292.064	664.12
292.295	697.12
292.526	689.12
292.757	681.12
292.987	711.12
293.218	686.12
293.449	670.12
293.68	709.12
293.91	683.12
294.141	709.12
294.372	698.12
294.603	696.12
294.833	687.12
295.064	695.12
295.295	710.12
295.525	676.12
295.756	720.12
295.987	717.12
296.217	775.12
296.448	781.12
296.679	729.12
296.909	694.12
297.14	710.12
297.37	720.12
297.601	717.12
297.831	720.12
298.062	737.12
298.292	747.12
298.523	742.12
298.753	753.12
298.984	748.12
299.214	737.12
299.445	734.12
299.675	743.12
299.905	761.12
300.136	750.12
300.366	753.12
300.597	745.12
300.827	746.12
301.057	745.12
301.288	788.12
301.518	785.12
301.748	790.12
301.979	788.12
302.209	793.12
302.439	781.12
302.669	787.12
302.9	771.12
303.13	782.12
303.36	793.12
303.59	773.12
303.82	802.12
304.051	802.12
304.281	783.12
304.511	790.12
304.741	750.12
304.971	769.12
305.201	767.12
305.431	788.12
305.661	761.12
305.891	744.12
306.121	802.12
306.352	764.12
306.582	789.12
306.812	771.12
307.042	781.12
307.272	748.12
307.502	749.12
307.731	782.12
307.961	781.12
308.191	776.12
308.421	763.12
308.651	779.12
308.881	760.12
309.111	754.12
309.341	758.12
309.571	790.12
309.8	818.12
310.03	847.12
310.26	853.12
310.49	848.12
310.72	863.12
310.949	900.12
311.179	935.12
311.409	855.12
311.639	859.12
311.868	895.12
312.098	879.12
312.328	878.12
312.557	945.12
312.787	963.12
313.017	966.12
313.246	919.12
313.476	863.12
313.706	853.12
313.935	877.12
314.165	934.12
314.394	947.12
314.624	956.12
314.853	907.12
315.083	884.12
315.312	849.12
315.542	844.12
315.771	860.12
316.001	847.12
316.23	823.12
316.46	819.12
316.689	845.12
316.919	814.12
317.148	892.12
317.377	935.12
317.607	864.12
317.836	869.12
318.065	857.12
318.295	854.12
318.524	846.12
318.753	839.12
318.983	829.12
319.212	852.12
319.441	843.12
319.67	855.12
319.9	844.12
320.129	855.12
320.358	863.12
320.587	893.12
320.816	858.12
321.046	871.12
321.275	895.12
321.504	872.12
321.733	870.12
321.962	882.12
322.191	919.12
322.42	922.12
322.649	958.12
322.878	1014.12
323.108	1003.12
323.337	1077.12
323.566	1113.12
323.795	1158.12
324.024	1207.12
324.253	1458.12
324.482	2204.12
324.71	3586.12
324.939	5735.12
325.168	4973.12
325.397	2078.12
325.626	1308.12
325.855	1121.12
326.084	1054.12
326.313	1045.12
326.542	1085.12
326.77	1217.12
326.999	1430.12
327.228	2006.12
327.457	3250.12
327.686	4285.12
327.914	2526.12
328.143	1537.12
328.372	1316.12
328.6	1238.12
328.829	1225.12
329.058	1261.12
329.287	1331.12
329.515	1235.12
329.744	1135.12
329.972	1053.12
330.201	1064.12
330.43	1115.12
330.658	1230.12
330.887	1452.12
331.115	1449.12
331.344	1170.12
331.572	1109.12
331.801	1095.12
332.03	1135.12
332.258	1094.12
332.486	1073.12
332.715	1057.12
332.943	1082.12
333.172	1121.12
333.4	1123.12
333.629	1164.12
333.857	1183.12
334.085	1173.12
334.314	1151.12
334.542	1150.12
334.771	1120.12
334.999	1131.12
335.227	1115.12
335.455	1097.12
335.684	1094.12
335.912	1089.12
336.14	1056.12
336.369	1056.12
336.597	1097.12
336.825	1068.12
337.053	1052.12
337.281	1023.12
337.51	1007.12
337.738	1040.12
337.966	1040.12
338.194	1003.12
338.422	1035.12
338.65	1029.12
338.878	1006.12
339.106	964.12
339.334	1017.12
339.562	967.12
339.79	957.12
340.018	959.12
340.246	936.12
340.474	975.12
340.702	968.12
340.93	963.12
341.158	959.12
341.386	959.12
341.614	962.12
341.842	975.12
342.07	948.12
342.298	938.12
342.526	929.12
342.754	930.12
342.981	934.12
343.209	949.12
343.437	989.12
343.665	1012.12
343.893	1062.12
344.12	1090.12
344.348	1076.12
344.576	1035.12
344.804	1041.12
345.031	1010.12
345.259	1052.12
345.487	1034.12
345.714	960.12
345.942	943.12
346.17	925.12
346.397	938.12
346.625	908.12
346.853	898.12
347.08	883.12
347.308	912.12
347.535	956.12
347.763	962.12
347.99	952.12
348.218	942.12
348.445	973.12
348.673	953.12
348.9	947.12
349.128	957.12
349.355	887.12
349.583	882.12
349.81	889.12
350.037	867.12
350.265	887.12
350.492	889.12
350.72	891.12
350.947	874.12
351.174	947.12
351.402	925.12
351.629	939.12
351.856	920.12
352.083	947.12
352.311	967.12
352.538	949.12
352.765	973.12
352.992	952.12
353.22	899.12
353.447	911.12
353.674	911.12
353.901	875.12
354.128	852.12
354.355	822.12
354.583	842.12
354.81	852.12
355.037	867.12
355.264	831.12
355.491	840.12
355.718	838.12
355.945	842.12
356.172	834.12
356.399	846.12
356.626	834.12
356.853	860.12
357.08	870.12
357.307	826.12
357.534	849.12
357.761	825.12
357.988	856.12
358.215	820.12
358.441	847.12
358.668	855.12
358.895	856.12
359.122	857.12
359.349	868.12
359.576	891.12
359.802	959.12
360.029	1020.12
360.256	1080.12
360.483	1048.12
360.709	929.12
360.936	947.12
361.163	897.12
361.39	911.12
361.616	924.12
361.843	886.12
362.07	918.12
362.296	932.12
362.523	903.12
362.749	904.12
362.976	907.12
363.203	936.12
363.429	822.12
363.656	881.12
363.882	891.12
364.109	876.12
364.335	867.12
364.562	852.12
364.788	855.12
365.015	874.12
365.241	887.12
365.468	883.12
365.694	884.12
365.92	875.12
366.147	871.12
366.373	851.12
366.599	839.12
366.826	838.12
367.052	856.12
367.278	823.12
367.505	881.12
367.731	884.12
367.957	868.12
368.184	883.12
368.41	886.12
368.636	919.12
368.862	912.12
369.089	919.12
369.315	889.12
369.541	879.12
369.767	894.12
369.993	901.12
370.219	875.12
370.445	847.12
370.672	903.12
370.898	879.12
371.124	885.12
371.35	887.12
371.576	888.12
371.802	884.12
372.028	861.12
372.254	908.12
372.48	885.12
372.706	908.12
372.932	911.12
373.158	915.12
373.384	943.12
373.61	932.12
373.835	933.12
374.061	906.12
374.287	897.12
374.513	910.12
374.739	928.12
374.965	926.12
375.191	996.12
375.416	963.12
375.642	947.12
375.868	954.12
376.094	923.12
376.319	903.12
376.545	898.12
376.771	901.12
376.997	907.12
377.222	901.12
377.448	904.12
377.674	921.12
377.899	887.12
378.125	900.12
378.35	902.12
378.576	876.12
378.802	882.12
379.027	899.12
379.253	921.12
379.478	889.12
379.704	904.12
379.929	876.12
380.155	899.12
380.38	894.12
380.606	929.12
380.831	927.12
381.057	954.12
381.282	904.12
381.507	898.12
381.733	943.12
381.958	914.12
382.184	904.12
382.409	934.12
382.634	982.12
382.86	968.12
383.085	959.12
383.31	979.12
383.535	990.12
383.761	987.12
383.986	1005.12
384.211	1006.12
384.436	1004.12
384.662	1010.12
384.887	1031.12
385.112	1016.12
385.337	1066.12
385.562	1062.12
385.787	1051.12
386.013	1141.12
386.238	1115.12
386.463	1088.12
386.688	1118.12
386.913	1052.12
387.138	1075.12
387.363	1083.12
387.588	1086.12
387.813	1102.12
388.038	1056.12
388.263	1074.12
388.488	1094.12
388.713	1063.12
388.938	1074.12
389.163	1085.12
389.387	1083.12
389.612	1040.12
389.837	1056.12
390.062	1040.12
390.287	1079.12
390.512	1041.12
390.736	1078.12
390.961	1097.12
391.186	1090.12
391.411	1117.12
391.636	1177.12
391.86	1173.12
392.085	1185.12
392.31	1189.12
392.534	1147.12
392.759	1132.12
392.984	1114.12
393.208	1125.12
393.433	1137.12
393.658	1130.12
393.882	1117.12
394.107	1102.12
394.331	1130.12
394.556	1121.12
394.78	1146.12
395.005	1129.12
395.229	1126.12
395.454	1196.12
395.678	1203.12
395.903	1213.12
396.127	1265.12
396.352	1244.12
396.576	1157.12
396.801	1130.12
397.025	1157.12
397.249	1178.12
397.474	1237.12
397.698	1252.12
397.922	1245.12
398.147	1285.12
398.371	1253.12
398.595	1322.12
398.82	1305.12
399.044	1363.12
399.268	1480.12
399.492	1685.12
399.717	1815.12
399.941	1883.12
400.165	1852.12
400.389	1734.12
400.613	1524.12
400.837	1454.12
401.062	1373.12
401.286	1369.12
401.51	1352.12
401.734	1339.12
401.958	1399.12
402.182	1386.12
402.406	1457.12
402.63	1435.12
402.854	1436.12
403.078	1459.12
403.302	1463.12
403.526	1513.12
403.75	1525.12
403.974	1523.12
404.198	1507.12
404.422	1571.12
404.645	1564.12
404.869	1532.12
405.093	1564.12
405.317	1548.12
405.541	1598.12
405.765	1522.12
405.988	1525.12
406.212	1524.12
406.436	1608.12
406.66	1712.12
406.883	1622.12
407.107	1678.12
407.331	1771.12
407.555	1977.12
407.778	2007.12
408.002	1805.12
408.226	1653.12
408.449	1610.12
408.673	1611.12
408.896	1679.12
409.12	1731.12
409.344	1622.12
409.567	1511.12
409.791	1489.12
410.014	1459.12
410.238	1464.12
410.461	1487.12
410.685	1451.12
410.908	1501.12
411.132	1607.12
411.355	1665.12
411.578	1557.12
411.802	1449.12
412.025	1407.12
412.249	1447.12
412.472	1432.12
412.695	1425.12
412.919	1430.12
413.142	1410.12
413.365	1377.12
413.589	1405.12
413.812	1382.12
414.035	1438.12
414.258	1380.12
414.482	1380.12
414.705	1410.12
414.928	1402.12
415.151	1375.12
415.374	1373.12
415.597	1389.12
415.821	1360.12
416.044	1398.12
416.267	1414.12
416.49	1405.12
416.713	1376.12
416.936	1412.12
417.159	1396.12
417.382	1438.12
417.605	1417.12
417.828	1473.12
418.051	1524.12
418.274	1491.12
418.497	1443.12
418.72	1430.12
418.943	1452.12
419.166	1519.12
419.389	1629.12
419.611	1559.12
419.834	1532.12
420.057	1543.12
420.28	1476.12
420.503	1460.12
420.726	1452.12
420.948	1490.12
421.171	1660.12
421.394	1697.12
421.617	1539.12
421.839	1510.12
422.062	1522.12
422.285	1508.12
422.507	1675.12
422.73	1905.12
422.953	1774.12
423.175	1615.12
423.398	1580.12
423.621	1613.12
423.843	1695.12
424.066	1689.12
424.288	1627.12
424.511	1721.12
424.733	1822.12
424.956	2022.12
425.178	1921.12
425.401	1926.12
425.623	2008.12
425.846	1674.12
426.068	1553.12
426.291	1535.12
426.513	1573.12
426.735	1560.12
426.958	1647.12
427.18	1881.12
427.402	2225.12
427.625	2460.12
427.847	2014.12
428.069	1702.12
428.292	1537.12
428.514	1460.12
428.736	1422.12
428.958	1419.12
429.181	1403.12
429.403	1374.12
429.625	1387.12
429.847	1473.12
430.069	1721.12
430.292	1693.12
430.514	1422.12
430.736	1416.12
430.958	1411.12
431.18	1344.12
431.402	1328.12
431.624	1291.12
431.846	1242.12
432.068	1222.12
432.29	1227.12
432.512	1277.12
432.734	1385.12
432.956	1381.12
433.178	1452.12
433.4	1475.12
433.622	1393.12
433.844	1354.12
434.066	1299.12
434.287	1267.12
434.509	1259.12
434.731	1286.12
434.953	1363.12
435.175	1510.12
435.397	1608.12
435.618	1524.12
435.84	1645.12
436.062	1985.12
436.284	2062.12
436.505	1713.12
436.727	1551.12
436.949	1491.12
437.17	1442.12
437.392	1380.12
437.614	1398.12
437.835	1403.12
438.057	1659.12
438.278	1946.12
438.5	1913.12
438.721	2274.12
438.943	2179.12
439.165	1711.12
439.386	1625.12
439.608	1653.12
439.829	1634.12
440.05	1768.12
440.272	1922.12
440.493	1776.12
440.715	1618.12
440.936	1566.12
441.158	1578.12
441.379	1581.12
441.6	1667.12
441.822	1709.12
442.043	1810.12
442.264	2064.12
442.486	2115.12
442.707	1778.12
442.928	1710.12
443.149	1772.12
443.371	1874.12
443.592	1931.12
443.813	2166.12
444.034	2317.12
444.255	1915.12
444.476	1787.12
444.698	1781.12
444.919	1813.12
445.14	3338.12
445.361	2469.12
445.582	1919.12
445.803	2106.12
446.024	2404.12
446.245	2369.12
446.466	2142.12
446.687	1834.12
446.908	1709.12
447.129	1619.12
447.35	1569.12
447.571	1542.12
447.792	1504.12
448.013	1495.12
448.234	1525.12
448.455	1628.12
448.675	1959.12
448.896	2282.12
449.117	1874.12
449.338	1733.12
449.559	2130.12
449.779	2393.12
450	1843.12
450.221	1554.12
450.442	1469.12
450.662	1413.12
450.883	1460.12
451.104	1483.12
451.324	1419.12
451.545	1385.12
451.766	1319.12
451.986	1290.12
452.207	1279.12
452.428	1268.12
452.648	1271.12
452.869	1241.12
453.089	1341.12
453.31	1269.12
453.53	1198.12
453.751	1133.12
453.971	1157.12
454.192	1211.12
454.412	1165.12
454.633	1213.12
454.853	1182.12
455.073	1219.12
455.294	1260.12
455.514	1527.12
455.734	1412.12
455.955	1229.12
456.175	1142.12
456.395	1133.12
456.616	1081.12
456.836	1085.12
457.056	1068.12
457.276	1037.12
457.497	1076.12
457.717	1081.12
457.937	1100.12
458.157	1109.12
458.377	1122.12
458.598	1153.12
458.818	1279.12
459.038	1572.12
459.258	1597.12
459.478	1271.12
459.698	1195.12
459.918	1245.12
460.138	1274.12
460.358	1357.12
460.578	1379.12
460.798	1393.12
461.018	1390.12
461.238	1380.12
461.458	1355.12
461.678	1327.12
461.898	1351.12
462.118	1378.12
462.338	1413.12
462.558	1473.12
462.777	1444.12
462.997	1505.12
463.217	1607.12
463.437	1619.12
463.657	1537.12
463.876	1479.12
464.096	1471.12
464.316	1492.12
464.536	1558.12
464.755	1538.12
464.975	1507.12
465.195	1604.12
465.414	1769.12
465.634	1489.12
465.854	1365.12
466.073	1317.12
466.293	1334.12
466.512	1300.12
466.732	1324.12
466.951	1336.12
467.171	1350.12
467.391	1344.12
467.61	1357.12
467.829	1389.12
468.049	1364.12
468.268	1315.12
468.488	1299.12
468.707	1292.12
468.927	1291.12
469.146	1253.12
469.365	1317.12
469.585	1344.12
469.804	1382.12
470.023	1429.12
470.243	1451.12
470.462	1460.12
470.681	1496.12
470.901	1439.12
471.12	1437.12
471.339	1409.12
471.558	1438.12
471.777	1413.12
471.997	1334.12
472.216	1253.12
472.435	1195.12
472.654	1131.12
472.873	1170.12
473.092	1146.12
473.311	1207.12
473.53	1218.12
473.749	1253.12
473.968	1394.12
474.187	1657.12
474.406	1640.12
474.625	1409.12
474.844	1344.12
475.063	1277.12
475.282	1239.12
475.501	1221.12
475.72	1275.12
475.939	1250.12
476.158	1277.12
476.377	1306.12
476.596	1238.12
476.814	1237.12
477.033	1225.12
477.252	1248.12
477.471	1310.12
477.69	1422.12
477.908	1475.12
478.127	1493.12
478.346	1458.12
478.564	1453.12
478.783	1496.12
479.002	1533.12
479.22	1562.12
479.439	1572.12
479.658	1500.12
479.876	1453.12
480.095	1446.12
480.313	1638.12
480.532	1601.12
480.751	1517.12
480.969	1411.12
481.188	1397.12
481.406	1362.12
481.624	1310.12
481.843	1255.12
482.061	1261.12
482.28	1303.12
482.498	1328.12
482.717	1294.12
482.935	1359.12
483.153	1475.12
483.372	1537.12
483.59	1537.12
483.808	1480.12
484.027	1447.12
484.245	1427.12
484.463	1487.12
484.681	1559.12
484.9	1479.12
485.118	1477.12
485.336	1493.12
485.554	1383.12
485.772	1413.12
485.99	1361.12
486.209	1411.12
486.427	1450.12
486.645	1528.12
486.863	1657.12
487.081	1670.12
487.299	1592.12
487.517	1634.12
487.735	1739.12
487.953	1896.12
488.171	1902.12
488.389	1751.12
488.607	1709.12
488.825	1533.12
489.043	1552.12
489.261	1564.12
489.479	1597.12
489.696	1636.12
489.914	1613.12
490.132	1718.12
490.35	1782.12
490.568	1831.12
490.786	1935.12
491.003	1992.12
491.221	2115.12
491.439	2152.12
491.657	2176.12
491.874	2323.12
492.092	2430.12
492.31	2497.12
492.527	2394.12
492.745	2290.12
492.963	2253.12
493.18	2183.12
493.398	2245.12
493.615	2185.12
493.833	2190.12
494.05	2183.12
494.268	2138.12
494.485	2095.12
494.703	2121.12
494.92	2119.12
495.138	2123.12
495.355	2104.12
495.573	2110.12
495.79	2075.12
496.008	2114.12
496.225	2091.12
496.442	2059.12
496.66	2097.12
496.877	2069.12
497.094	2087.12
497.312	2077.12
497.529	2040.12
497.746	2024.12
497.963	2003.12
498.181	1988.12
498.398	1982.12
498.615	2058.12
498.832	2085.12
499.049	2154.12
499.267	2279.12
499.484	2462.12
499.701	2615.12
499.918	2863.12
500.135	3123.12
500.352	3369.12
500.569	3462.12
500.786	3502.12
501.003	3279.12
501.22	3125.12
501.437	2917.12
501.654	2753.12
501.871	2663.12
502.088	2408.12
502.305	2307.12
502.522	2201.12
502.739	2123.12
502.956	2015.12
503.172	1939.12
503.389	1880.12
503.606	1837.12
503.823	1810.12
504.04	1841.12
504.256	1819.12
504.473	1798.12
504.69	1847.12
504.907	1850.12
505.123	1743.12
505.34	1729.12
505.557	1706.12
505.773	1705.12
505.99	1634.12
506.207	1653.12
506.423	1639.12
506.64	1622.12
506.856	1646.12
507.073	1582.12
507.289	1563.12
507.506	1567.12
507.722	1570.12
507.939	1620.12
508.155	1547.12
508.372	1428.12
508.588	1450.12
508.805	1486.12
509.021	1450.12
509.238	1501.12
509.454	1482.12
509.67	1410.12
509.887	1344.12
510.103	1365.12
510.319	1380.12
510.536	1607.12
510.752	2776.12
510.968	1932.12
511.184	1295.12
511.401	1286.12
511.617	1300.12
511.833	1226.12
512.049	1241.12
512.265	1226.12
512.481	1262.12
512.698	1261.12
512.914	1298.12
513.13	1294.12
513.346	1182.12
513.562	1209.12
513.778	1278.12
513.994	1272.12
514.21	1303.12
514.426	1357.12
514.642	1454.12
514.858	1509.12
515.074	1589.12
515.29	1992.12
515.506	3139.12
515.721	2308.12
515.937	1603.12
516.153	1430.12
516.369	1371.12
516.585	1388.12
516.801	1378.12
517.016	1463.12
517.232	1455.12
517.448	1516.12
517.664	1544.12
517.879	1518.12
518.095	1570.12
518.311	1522.12
518.527	1475.12
518.742	1469.12
518.958	1433.12
519.173	1412.12
519.389	1415.12
519.605	1392.12
519.82	1395.12
520.036	1459.12
520.251	1475.12
520.467	1528.12
520.682	1441.12
520.898	1435.12
521.113	1403.12
521.329	1538.12
521.544	1783.12
521.76	2327.12
521.975	4286.12
522.19	3789.12
522.406	1905.12
522.621	1470.12
522.836	1363.12
523.052	1333.12
523.267	1301.12
523.482	1256.12
523.698	1251.12
523.913	1279.12
524.128	1299.12
524.343	1299.12
524.559	1318.12
524.774	1276.12
524.989	1287.12
525.204	1297.12
525.419	1250.12
525.634	1191.12
525.849	1168.12
526.064	1130.12
526.28	1146.12
526.495	1062.12
526.71	1026.12
526.925	994.12
527.14	1035.12
527.355	1013.12
527.57	1046.12
527.785	1044.12
527.999	1032.12
528.214	1092.12
528.429	1165.12
528.644	1191.12
528.859	1305.12
529.074	1339.12
529.289	1496.12
529.503	1668.12
529.718	1462.12
529.933	1230.12
530.148	1120.12
530.363	1100.12
530.577	1029.12
530.792	1032.12
531.007	1026.12
531.221	1036.12
531.436	1006.12
531.651	991.12
531.865	983.12
532.08	1009.12
532.295	1021.12
532.509	995.12
532.724	992.12
532.938	1041.12
533.153	1038.12
533.367	1104.12
533.582	1189.12
533.796	1145.12
534.011	1115.12
534.225	1031.12
534.44	988.12
534.654	1045.12
534.868	1011.12
535.083	1053.12
535.297	1053.12
535.511	1108.12
535.726	1131.12
535.94	1085.12
536.154	1039.12
536.369	1004.12
536.583	951.12
536.797	978.12
537.011	965.12
537.225	978.12
537.44	961.12
537.654	969.12
537.868	990.12
538.082	999.12
538.296	1035.12
538.51	1058.12
538.724	1135.12
538.938	1174.12
539.153	1241.12
539.367	1254.12
539.581	1144.12
539.795	1067.12
540.009	1064.12
540.222	1095.12
540.436	1098.12
540.65	1177.12
540.864	1294.12
541.078	1380.12
541.292	1494.12
541.506	1569.12
541.72	1694.12
541.934	1821.12
542.147	1931.12
542.361	1797.12
542.575	1690.12
542.789	1614.12
543.002	1473.12
543.216	1433.12
543.43	1446.12
543.644	1502.12
543.857	1613.12
544.071	1687.12
544.285	1749.12
544.498	1735.12
544.712	1758.12
544.925	1765.12
545.139	1725.12
545.352	1711.12
545.566	1750.12
545.779	1755.12
545.993	1796.12
546.206	2018.12
546.42	2006.12
546.633	1746.12
546.847	1704.12
547.06	1694.12
547.274	1720.12
547.487	1777.12
547.7	1783.12
547.914	1693.12
548.127	1658.12
548.34	1629.12
548.554	1657.12
548.767	1619.12
548.98	1654.12
549.193	1618.12
549.407	1641.12
549.62	1654.12
549.833	1625.12
550.046	1619.12
550.259	1572.12
550.473	1536.12
550.686	1558.12
550.899	1506.12
551.112	1470.12
551.325	1425.12
551.538	1365.12
551.751	1241.12
551.964	1202.12
552.177	1307.12
552.39	1431.12
552.603	1535.12
552.816	1589.12
553.029	1614.12
553.242	1664.12
553.455	1700.12
553.667	1730.12
553.88	1706.12
554.093	1633.12
554.306	1603.12
554.519	1572.12
554.732	1566.12
554.944	1516.12
555.157	1498.12
555.37	1488.12
555.583	1416.12
555.795	1399.12
556.008	1323.12
556.221	1310.12
556.433	1276.12
556.646	1303.12
556.859	1275.12
557.071	1319.12
557.284	1322.12
557.496	1306.12
557.709	1316.12
557.921	1327.12
558.134	1323.12
558.346	1282.12
558.559	1268.12
558.771	1255.12
558.984	1256.12
559.196	1249.12
559.409	1232.12
559.621	1178.12
559.833	1133.12
560.046	1152.12
560.258	1203.12
560.47	1223.12
560.683	1201.12
560.895	1180.12
561.107	1225.12
561.32	1206.12
561.532	1219.12
561.744	1219.12
561.956	1246.12
562.168	1243.12
562.381	1187.12
562.593	1201.12
562.805	1190.12
563.017	1185.12
563.229	1169.12
563.441	1180.12
563.653	1176.12
563.865	1159.12
564.077	1140.12
564.289	1143.12
564.501	1158.12
564.713	1174.12
564.925	1182.12
565.137	1178.12
565.349	1216.12
565.561	1216.12
565.773	1271.12
565.985	1255.12
566.197	1330.12
566.408	1414.12
566.62	1451.12
566.832	1486.12
567.044	1485.12
567.255	1510.12
567.467	1498.12
567.679	1501.12
567.891	1563.12
568.102	1520.12
568.314	1421.12
568.526	1247.12
568.737	1172.12
568.949	1057.12
569.161	983.12
569.372	917.12
569.584	937.12
569.795	884.12
570.007	876.12
570.218	945.12
570.43	935.12
570.641	886.12
570.853	929.12
571.064	962.12
571.276	960.12
571.487	973.12
571.698	996.12
571.91	926.12
572.121	879.12
572.333	853.12
572.544	814.12
572.755	786.12
572.966	726.12
573.178	713.12
573.389	722.12
573.6	711.12
573.811	695.12
574.023	667.12
574.234	678.12
574.445	715.12
574.656	723.12
574.867	735.12
575.078	742.12
575.289	769.12
575.501	775.12
575.712	730.12
575.923	756.12
576.134	723.12
576.345	773.12
576.556	809.12
576.767	785.12
576.978	777.12
577.188	841.12
577.399	773.12
577.61	717.12
577.821	731.12
578.032	724.12
578.243	809.12
578.454	1219.12
578.665	845.12
578.875	686.12
579.086	672.12
579.297	688.12
579.508	671.12
579.718	644.12
579.929	671.12
580.14	660.12
580.35	648.12
580.561	673.12
580.772	680.12
580.982	690.12
581.193	706.12
581.403	702.12
581.614	696.12
581.825	692.12
582.035	673.12
582.246	665.12
582.456	668.12
582.667	683.12
582.877	691.12
583.087	695.12
583.298	691.12
583.508	651.12
583.719	669.12
583.929	679.12
584.139	668.12
584.35	639.12
584.56	675.12
584.77	681.12
584.981	666.12
585.191	655.12
585.401	667.12
585.611	645.12
585.821	650.12
586.032	645.12
586.242	636.12
586.452	648.12
586.662	635.12
586.872	611.12
587.082	609.12
587.292	639.12
587.502	652.12
587.713	671.12
587.923	683.12
588.133	659.12
588.343	632.12
588.553	621.12
588.762	667.12
588.972	627.12
589.182	606.12
589.392	611.12
589.602	584.12
589.812	604.12
590.022	634.12
590.232	633.12
590.441	614.12
590.651	605.12
590.861	617.12
591.071	626.12
591.281	635.12
591.49	622.12
591.7	635.12
591.91	666.12
592.119	646.12
592.329	686.12
592.539	707.12
592.748	747.12
592.958	732.12
593.167	756.12
593.377	772.12
593.587	815.12
593.796	758.12
594.006	726.12
594.215	758.12
594.424	777.12
594.634	785.12
594.843	771.12
595.053	771.12
595.262	740.12
595.472	732.12
595.681	679.12
595.89	644.12
596.1	649.12
596.309	659.12
596.518	686.12
596.727	699.12
596.937	687.12
597.146	668.12
597.355	675.12
597.564	641.12
597.774	648.12
597.983	583.12
598.192	588.12
598.401	563.12
598.61	563.12
598.819	617.12
599.028	634.12
599.237	621.12
599.446	611.12
599.655	609.12
599.864	613.12
600.073	589.12
600.282	636.12
600.491	638.12
600.7	646.12
600.909	623.12
601.118	667.12
601.327	724.12
601.536	750.12
601.745	791.12
601.953	812.12
602.162	810.12
602.371	828.12
602.58	783.12
602.789	824.12
602.997	797.12
603.206	869.12
603.415	808.12
603.623	803.12
603.832	779.12
604.041	765.12
604.249	713.12
604.458	656.12
604.666	637.12
604.875	665.12
605.084	674.12
605.292	760.12
605.501	823.12
605.709	854.12
605.918	871.12
606.126	874.12
606.334	872.12
606.543	883.12
606.751	901.12
606.96	891.12
607.168	889.12
607.376	861.12
607.585	860.12
607.793	887.12
608.001	892.12
608.21	885.12
608.418	865.12
608.626	855.12
608.834	921.12
609.043	895.12
609.251	893.12
609.459	897.12
609.667	981.12
609.875	963.12
610.083	988.12
610.291	966.12
610.499	979.12
610.707	1029.12
610.916	1074.12
611.124	1166.12
611.332	1337.12
611.54	1421.12
611.748	1366.12
611.955	1228.12
612.163	1130.12
612.371	1059.12
612.579	1033.12
612.787	1008.12
612.995	1035.12
613.203	1054.12
613.411	1013.12
613.618	974.12
613.826	980.12
614.034	951.12
614.242	979.12
614.449	982.12
614.657	950.12
614.865	961.12
615.072	962.12
615.28	949.12
615.488	950.12
615.695	988.12
615.903	925.12
616.111	958.12
616.318	995.12
616.526	949.12
616.733	973.12
616.941	954.12
617.148	962.12
617.356	912.12
617.563	897.12
617.771	893.12
617.978	825.12
618.185	883.12
618.393	921.12
618.6	919.12
618.807	892.12
619.015	926.12
619.222	896.12
619.429	839.12
619.637	811.12
619.844	753.12
620.051	782.12
620.258	837.12
620.466	890.12
620.673	819.12
620.88	800.12
621.087	838.12
621.294	837.12
621.501	755.12
621.708	772.12
621.915	815.12
622.122	850.12
622.329	889.12
622.536	865.12
622.743	847.12
622.95	858.12
623.157	807.12
623.364	847.12
623.571	837.12
623.778	829.12
623.985	865.12
624.192	843.12
624.399	816.12
624.606	845.12
624.812	777.12
625.019	754.12
625.226	749.12
625.433	741.12
625.639	646.12
625.846	623.12
626.053	576.12
626.259	553.12
626.466	557.12
626.673	534.12
626.879	516.12
627.086	571.12
627.293	662.12
627.499	704.12
627.706	737.12
627.912	767.12
628.119	762.12
628.325	784.12
628.532	740.12
628.738	729.12
628.945	718.12
629.151	709.12
629.357	679.12
629.564	690.12
629.77	705.12
629.976	666.12
630.183	637.12
630.389	613.12
630.595	690.12
630.802	718.12
631.008	722.12
631.214	697.12
631.42	687.12
631.627	673.12
631.833	637.12
632.039	629.12
632.245	662.12
632.451	665.12
632.657	648.12
632.863	630.12
633.069	640.12
633.275	667.12
633.481	619.12
633.688	611.12
633.893	613.12
634.099	603.12
634.305	607.12
634.511	594.12
634.717	572.12
634.923	525.12
635.129	530.12
635.335	531.12
635.541	517.12
635.747	559.12
635.952	597.12
636.158	627.12
636.364	643.12
636.57	631.12
636.775	627.12
636.981	638.12
637.187	646.12
637.392	620.12
637.598	647.12
637.804	658.12
638.009	614.12
638.215	616.12
638.421	625.12
638.626	629.12
638.832	617.12
639.037	567.12
639.243	585.12
639.448	580.12
639.654	614.12
639.859	565.12
640.065	563.12
640.27	639.12
640.475	555.12
640.681	559.12
640.886	591.12
641.091	605.12
641.297	620.12
641.502	574.12
641.707	603.12
641.913	611.12
642.118	591.12
642.323	566.12
642.528	626.12
642.733	615.12
642.939	591.12
643.144	601.12
643.349	567.12
643.554	589.12
643.759	586.12
643.964	560.12
644.169	593.12
644.374	548.12
644.579	574.12
644.784	569.12
644.989	569.12
645.194	581.12
645.399	602.12
645.604	555.12
645.809	586.12
646.014	563.12
646.219	558.12
646.423	577.12
646.628	569.12
646.833	574.12
647.038	580.12
647.243	582.12
647.447	562.12
647.652	576.12
647.857	527.12
648.062	589.12
648.266	571.12
648.471	603.12
648.676	605.12
648.88	585.12
649.085	575.12
649.289	553.12
649.494	597.12
649.698	631.12
649.903	603.12
650.107	565.12
650.312	611.12
650.516	549.12
650.721	529.12
650.925	517.12
651.13	499.12
651.334	494.12
651.539	515.12
651.743	503.12
651.947	479.12
652.152	493.12
652.356	485.12
652.56	470.12
652.764	442.12
652.969	438.12
653.173	443.12
653.377	428.12
653.581	414.12
653.785	420.12
653.99	418.12
654.194	411.12
654.398	389.12
654.602	389.12
654.806	395.12
655.01	421.12
655.214	401.12
655.418	378.12
655.622	375.12
655.826	376.12
656.03	383.12
656.234	377.12
656.438	367.12
656.642	360.12
656.846	344.12
657.049	331.12
657.253	329.12
657.457	317.12
657.661	294.12
657.865	281.12
658.068	283.12
658.272	257.12
658.476	247.12
658.68	234.12
658.883	228.12
659.087	228.12
659.291	229.12
659.494	209.12
659.698	215.12
659.901	213.12
660.105	210.12
660.309	196.12
660.512	192.12
660.716	187.12
660.919	182.12
661.123	201.12
661.326	179.12
661.53	166.12
661.733	167.12
661.936	160.12
662.14	143.12
662.343	147.12
662.546	140.12
662.75	152.12
662.953	162.12
663.156	128.12
663.36	129.12
663.563	130.12
663.766	113.12
663.969	130.12
664.173	115.12
664.376	121.12
664.579	120.12
664.782	119.12
664.985	104.12
665.188	94.12
665.391	105.12
665.594	102.12
665.797	100.12
666	120.12
666.203	116.12
666.406	78.12
666.609	113.12
666.812	117.12
667.015	100.12
667.218	139.12
667.421	129.12
667.624	102.12
667.827	122.12
668.03	90.12
668.232	94.12
668.435	90.12
668.638	106.12
668.841	142.12
669.043	105.12
669.246	119.12
669.449	110.12
669.651	139.12
669.854	115.12
670.057	115.12
670.259	93.12
670.462	103.12
670.665	110.12
670.867	130.12
671.07	129.12
671.272	133.12
671.475	148.12
671.677	121.12
671.88	132.12
672.082	117.12
672.284	117.12
672.487	126.12
672.689	123.12
672.892	101.12
