Data from FlinnAP9092KCOPPER.07152019.QSWITCHSynchronous.EN10.20scans.P1_HRD10591_14-49-18-574.txt Node
Date: Mon Jul 15 14:49:18 EDT 2019
User: cochatt
Spectrometer: HR+D1059
Trigger mode: 5
Integration Time (sec): 1.000000E-1
Scans to average: 1
Electric dark correction enabled: true
Nonlinearity correction enabled: false
Boxcar width: 0
XAxis mode: Wavelengths
Number of Pixels in Spectrum: 2048
>>>>>Begin Spectral Data<<<<<
223.165	-31.31
223.4	-31.31
223.635	-31.31
223.869	-36.31
224.104	-43.31
224.338	1.69
224.573	-22.31
224.808	-10.31
225.042	-0.31
225.277	8.69
225.511	-14.31
225.746	16.69
225.98	19.69
226.215	14.69
226.449	15.69
226.683	14.69
226.918	36.69
227.152	29.69
227.387	36.69
227.621	45.69
227.856	51.69
228.09	32.69
228.324	42.69
228.559	78.69
228.793	83.69
229.027	202.69
229.262	211.69
229.496	206.69
229.73	246.69
229.964	347.69
230.199	271.69
230.433	217.69
230.667	209.69
230.901	202.69
231.136	198.69
231.37	202.69
231.604	198.69
231.838	209.69
232.072	197.69
232.306	202.69
232.541	209.69
232.775	210.69
233.009	189.69
233.243	196.69
233.477	189.69
233.711	207.69
233.945	228.69
234.179	213.69
234.413	206.69
234.647	216.69
234.881	202.69
235.115	207.69
235.349	219.69
235.583	240.69
235.817	215.69
236.051	240.69
236.285	237.69
236.519	220.69
236.753	232.69
236.987	256.69
237.221	354.69
237.455	500.69
237.689	400.69
237.922	293.69
238.156	273.69
238.39	249.69
238.624	240.69
238.858	248.69
239.091	252.69
239.325	221.69
239.559	227.69
239.793	261.69
240.027	279.69
240.26	304.69
240.494	362.69
240.728	301.69
240.961	319.69
241.195	325.69
241.429	299.69
241.662	259.69
241.896	260.69
242.13	249.69
242.363	261.69
242.597	254.69
242.83	264.69
243.064	283.69
243.298	274.69
243.531	281.69
243.765	293.69
243.998	286.69
244.232	295.69
244.465	308.69
244.699	280.69
244.932	291.69
245.166	287.69
245.399	320.69
245.633	319.69
245.866	296.69
246.099	301.69
246.333	308.69
246.566	313.69
246.8	321.69
247.033	309.69
247.266	332.69
247.5	323.69
247.733	338.69
247.966	347.69
248.2	350.69
248.433	335.69
248.666	353.69
248.899	406.69
249.133	445.69
249.366	483.69
249.599	433.69
249.832	388.69
250.066	370.69
250.299	347.69
250.532	396.69
250.765	419.69
250.998	480.69
251.231	507.69
251.465	469.69
251.698	431.69
251.931	407.69
252.164	401.69
252.397	399.69
252.63	412.69
252.863	421.69
253.096	483.69
253.329	520.69
253.562	502.69
253.795	474.69
254.028	466.69
254.261	465.69
254.494	470.69
254.727	585.69
254.96	661.69
255.193	607.69
255.426	497.69
255.659	478.69
255.892	471.69
256.124	436.69
256.357	431.69
256.59	435.69
256.823	434.69
257.056	405.69
257.289	421.69
257.521	425.69
257.754	436.69
257.987	437.69
258.22	451.69
258.452	451.69
258.685	436.69
258.918	425.69
259.151	434.69
259.383	495.69
259.616	470.69
259.849	506.69
260.081	505.69
260.314	585.69
260.547	582.69
260.779	560.69
261.012	543.69
261.244	498.69
261.477	505.69
261.71	463.69
261.942	500.69
262.175	535.69
262.407	478.69
262.64	457.69
262.872	469.69
263.105	441.69
263.337	488.69
263.57	471.69
263.802	465.69
264.035	481.69
264.267	469.69
264.499	468.69
264.732	486.69
264.964	474.69
265.197	459.69
265.429	482.69
265.661	455.69
265.894	472.69
266.126	497.69
266.358	486.69
266.591	481.69
266.823	495.69
267.055	507.69
267.287	528.69
267.52	513.69
267.752	526.69
267.984	507.69
268.216	521.69
268.448	550.69
268.681	542.69
268.913	577.69
269.145	590.69
269.377	673.69
269.609	631.69
269.841	595.69
270.073	617.69
270.306	674.69
270.538	759.69
270.77	721.69
271.002	719.69
271.234	669.69
271.466	693.69
271.698	723.69
271.93	751.69
272.162	783.69
272.394	778.69
272.626	710.69
272.858	639.69
273.09	637.69
273.322	625.69
273.553	576.69
273.785	605.69
274.017	574.69
274.249	590.69
274.481	605.69
274.713	591.69
274.945	610.69
275.176	616.69
275.408	618.69
275.64	624.69
275.872	600.69
276.104	600.69
276.335	613.69
276.567	616.69
276.799	636.69
277.031	734.69
277.262	776.69
277.494	814.69
277.726	723.69
277.957	657.69
278.189	637.69
278.421	617.69
278.652	604.69
278.884	609.69
279.115	605.69
279.347	621.69
279.579	622.69
279.81	598.69
280.042	601.69
280.273	620.69
280.505	598.69
280.736	604.69
280.968	601.69
281.199	615.69
281.431	603.69
281.662	633.69
281.894	636.69
282.125	637.69
282.356	688.69
282.588	727.69
282.819	739.69
283.051	654.69
283.282	638.69
283.513	669.69
283.745	682.69
283.976	689.69
284.207	665.69
284.439	669.69
284.67	690.69
284.901	645.69
285.132	651.69
285.364	648.69
285.595	650.69
285.826	637.69
286.057	704.69
286.288	634.69
286.52	669.69
286.751	649.69
286.982	671.69
287.213	657.69
287.444	661.69
287.675	692.69
287.906	705.69
288.138	723.69
288.369	720.69
288.6	731.69
288.831	709.69
289.062	710.69
289.293	699.69
289.524	690.69
289.755	689.69
289.986	690.69
290.217	696.69
290.448	681.69
290.679	691.69
290.91	703.69
291.141	662.69
291.371	681.69
291.602	671.69
291.833	664.69
292.064	682.69
292.295	694.69
292.526	705.69
292.757	706.69
292.987	678.69
293.218	682.69
293.449	705.69
293.68	699.69
293.91	673.69
294.141	680.69
294.372	658.69
294.603	698.69
294.833	708.69
295.064	663.69
295.295	698.69
295.525	670.69
295.756	745.69
295.987	713.69
296.217	745.69
296.448	774.69
296.679	733.69
296.909	722.69
297.14	721.69
297.37	752.69
297.601	715.69
297.831	701.69
298.062	741.69
298.292	736.69
298.523	756.69
298.753	727.69
298.984	749.69
299.214	725.69
299.445	738.69
299.675	771.69
299.905	753.69
300.136	731.69
300.366	696.69
300.597	735.69
300.827	757.69
301.057	790.69
301.288	807.69
301.518	793.69
301.748	783.69
301.979	790.69
302.209	783.69
302.439	804.69
302.669	807.69
302.9	781.69
303.13	780.69
303.36	801.69
303.59	794.69
303.82	808.69
304.051	810.69
304.281	791.69
304.511	753.69
304.741	749.69
304.971	743.69
305.201	793.69
305.431	772.69
305.661	795.69
305.891	751.69
306.121	752.69
306.352	772.69
306.582	774.69
306.812	767.69
307.042	761.69
307.272	791.69
307.502	764.69
307.731	777.69
307.961	750.69
308.191	769.69
308.421	765.69
308.651	742.69
308.881	744.69
309.111	799.69
309.341	758.69
309.571	757.69
309.8	844.69
310.03	873.69
310.26	877.69
310.49	829.69
310.72	871.69
310.949	916.69
311.179	943.69
311.409	886.69
311.639	874.69
311.868	858.69
312.098	873.69
312.328	875.69
312.557	925.69
312.787	949.69
313.017	971.69
313.246	918.69
313.476	845.69
313.706	814.69
313.935	871.69
314.165	941.69
314.394	927.69
314.624	938.69
314.853	896.69
315.083	901.69
315.312	878.69
315.542	858.69
315.771	832.69
316.001	818.69
316.23	841.69
316.46	842.69
316.689	847.69
316.919	853.69
317.148	889.69
317.377	897.69
317.607	869.69
317.836	848.69
318.065	851.69
318.295	824.69
318.524	829.69
318.753	831.69
318.983	872.69
319.212	878.69
319.441	877.69
319.67	891.69
319.9	849.69
320.129	847.69
320.358	863.69
320.587	827.69
320.816	847.69
321.046	878.69
321.275	897.69
321.504	855.69
321.733	881.69
321.962	869.69
322.191	917.69
322.42	917.69
322.649	986.69
322.878	1010.69
323.108	1008.69
323.337	1024.69
323.566	1077.69
323.795	1134.69
324.024	1224.69
324.253	1444.69
324.482	2145.69
324.71	3585.69
324.939	5489.69
325.168	4806.69
325.397	2020.69
325.626	1329.69
325.855	1101.69
326.084	1053.69
326.313	1033.69
326.542	1047.69
326.77	1164.69
326.999	1374.69
327.228	2014.69
327.457	3229.69
327.686	4262.69
327.914	2502.69
328.143	1471.69
328.372	1299.69
328.6	1229.69
328.829	1194.69
329.058	1281.69
329.287	1343.69
329.515	1221.69
329.744	1122.69
329.972	1061.69
330.201	1057.69
330.43	1122.69
330.658	1218.69
330.887	1432.69
331.115	1473.69
331.344	1248.69
331.572	1145.69
331.801	1126.69
332.03	1141.69
332.258	1133.69
332.486	1058.69
332.715	1077.69
332.943	1081.69
333.172	1120.69
333.4	1123.69
333.629	1140.69
333.857	1147.69
334.085	1141.69
334.314	1158.69
334.542	1122.69
334.771	1097.69
334.999	1120.69
335.227	1115.69
335.455	1079.69
335.684	1112.69
335.912	1082.69
336.14	1034.69
336.369	1033.69
336.597	1099.69
336.825	1113.69
337.053	1074.69
337.281	1025.69
337.51	996.69
337.738	1046.69
337.966	998.69
338.194	1045.69
338.422	1029.69
338.65	1023.69
338.878	987.69
339.106	1012.69
339.334	993.69
339.562	962.69
339.79	951.69
340.018	965.69
340.246	949.69
340.474	955.69
340.702	966.69
340.93	959.69
341.158	968.69
341.386	972.69
341.614	997.69
341.842	923.69
342.07	925.69
342.298	977.69
342.526	926.69
342.754	937.69
342.981	907.69
343.209	917.69
343.437	986.69
343.665	1006.69
343.893	1062.69
344.12	1062.69
344.348	1067.69
344.576	1032.69
344.804	993.69
345.031	1049.69
345.259	1055.69
345.487	1028.69
345.714	966.69
345.942	921.69
346.17	927.69
346.397	910.69
346.625	914.69
346.853	917.69
347.08	918.69
347.308	933.69
347.535	951.69
347.763	953.69
347.99	970.69
348.218	962.69
348.445	951.69
348.673	965.69
348.9	946.69
349.128	928.69
349.355	891.69
349.583	901.69
349.81	877.69
350.037	872.69
350.265	931.69
350.492	861.69
350.72	867.69
350.947	882.69
351.174	907.69
351.402	942.69
351.629	909.69
351.856	902.69
352.083	921.69
352.311	943.69
352.538	963.69
352.765	957.69
352.992	939.69
353.22	925.69
353.447	900.69
353.674	896.69
353.901	870.69
354.128	857.69
354.355	840.69
354.583	848.69
354.81	839.69
355.037	861.69
355.264	835.69
355.491	822.69
355.718	827.69
355.945	854.69
356.172	844.69
356.399	877.69
356.626	831.69
356.853	816.69
357.08	835.69
357.307	841.69
357.534	830.69
357.761	821.69
357.988	855.69
358.215	846.69
358.441	846.69
358.668	809.69
358.895	830.69
359.122	877.69
359.349	859.69
359.576	904.69
359.802	941.69
360.029	1034.69
360.256	1130.69
360.483	1040.69
360.709	939.69
360.936	963.69
361.163	904.69
361.39	893.69
361.616	915.69
361.843	897.69
362.07	917.69
362.296	898.69
362.523	898.69
362.749	880.69
362.976	899.69
363.203	915.69
363.429	878.69
363.656	890.69
363.882	858.69
364.109	874.69
364.335	859.69
364.562	864.69
364.788	842.69
365.015	875.69
365.241	881.69
365.468	881.69
365.694	876.69
365.92	889.69
366.147	850.69
366.373	871.69
366.599	858.69
366.826	825.69
367.052	853.69
367.278	857.69
367.505	852.69
367.731	897.69
367.957	877.69
368.184	869.69
368.41	897.69
368.636	901.69
368.862	937.69
369.089	905.69
369.315	894.69
369.541	903.69
369.767	901.69
369.993	889.69
370.219	865.69
370.445	881.69
370.672	864.69
370.898	881.69
371.124	881.69
371.35	858.69
371.576	881.69
371.802	870.69
372.028	854.69
372.254	882.69
372.48	886.69
372.706	915.69
372.932	925.69
373.158	907.69
373.384	950.69
373.61	941.69
373.835	930.69
374.061	878.69
374.287	913.69
374.513	925.69
374.739	954.69
374.965	953.69
375.191	953.69
375.416	962.69
375.642	951.69
375.868	956.69
376.094	921.69
376.319	915.69
376.545	903.69
376.771	904.69
376.997	912.69
377.222	920.69
377.448	938.69
377.674	919.69
377.899	898.69
378.125	891.69
378.35	909.69
378.576	862.69
378.802	889.69
379.027	909.69
379.253	925.69
379.478	883.69
379.704	870.69
379.929	905.69
380.155	909.69
380.38	876.69
380.606	910.69
380.831	922.69
381.057	971.69
381.282	897.69
381.507	906.69
381.733	948.69
381.958	917.69
382.184	930.69
382.409	953.69
382.634	987.69
382.86	943.69
383.085	998.69
383.31	963.69
383.535	1038.69
383.761	986.69
383.986	1018.69
384.211	1017.69
384.436	1026.69
384.662	1023.69
384.887	1054.69
385.112	1049.69
385.337	1035.69
385.562	1041.69
385.787	1067.69
386.013	1157.69
386.238	1103.69
386.463	1087.69
386.688	1084.69
386.913	1081.69
387.138	1071.69
387.363	1063.69
387.588	1109.69
387.813	1072.69
388.038	1079.69
388.263	1075.69
388.488	1096.69
388.713	1074.69
388.938	1079.69
389.163	1085.69
389.387	1072.69
389.612	1077.69
389.837	1074.69
390.062	1090.69
390.287	1057.69
390.512	1086.69
390.736	1064.69
390.961	1053.69
391.186	1097.69
391.411	1130.69
391.636	1149.69
391.86	1157.69
392.085	1178.69
392.31	1211.69
392.534	1214.69
392.759	1123.69
392.984	1123.69
393.208	1093.69
393.433	1117.69
393.658	1114.69
393.882	1133.69
394.107	1119.69
394.331	1146.69
394.556	1079.69
394.78	1120.69
395.005	1142.69
395.229	1125.69
395.454	1156.69
395.678	1189.69
395.903	1224.69
396.127	1259.69
396.352	1227.69
396.576	1133.69
396.801	1122.69
397.025	1136.69
397.249	1166.69
397.474	1229.69
397.698	1194.69
397.922	1247.69
398.147	1286.69
398.371	1285.69
398.595	1292.69
398.82	1314.69
399.044	1365.69
399.268	1471.69
399.492	1631.69
399.717	1821.69
399.941	1898.69
400.165	1834.69
400.389	1749.69
400.613	1545.69
400.837	1412.69
401.062	1374.69
401.286	1327.69
401.51	1354.69
401.734	1348.69
401.958	1390.69
402.182	1403.69
402.406	1418.69
402.63	1452.69
402.854	1466.69
403.078	1474.69
403.302	1468.69
403.526	1557.69
403.75	1552.69
403.974	1505.69
404.198	1525.69
404.422	1539.69
404.645	1525.69
404.869	1529.69
405.093	1550.69
405.317	1585.69
405.541	1609.69
405.765	1528.69
405.988	1521.69
406.212	1553.69
406.436	1617.69
406.66	1693.69
406.883	1621.69
407.107	1673.69
407.331	1783.69
407.555	1975.69
407.778	1978.69
408.002	1795.69
408.226	1629.69
408.449	1615.69
408.673	1605.69
408.896	1609.69
409.12	1767.69
409.344	1650.69
409.567	1535.69
409.791	1506.69
410.014	1505.69
410.238	1452.69
410.461	1496.69
410.685	1493.69
410.908	1486.69
411.132	1655.69
411.355	1639.69
411.578	1602.69
411.802	1459.69
412.025	1431.69
412.249	1439.69
412.472	1430.69
412.695	1413.69
412.919	1363.69
413.142	1392.69
413.365	1361.69
413.589	1404.69
413.812	1385.69
414.035	1389.69
414.258	1378.69
414.482	1375.69
414.705	1404.69
414.928	1385.69
415.151	1417.69
415.374	1389.69
415.597	1395.69
415.821	1360.69
416.044	1367.69
416.267	1399.69
416.49	1381.69
416.713	1369.69
416.936	1370.69
417.159	1447.69
417.382	1443.69
417.605	1427.69
417.828	1451.69
418.051	1503.69
418.274	1529.69
418.497	1462.69
418.72	1474.69
418.943	1433.69
419.166	1533.69
419.389	1606.69
419.611	1566.69
419.834	1542.69
420.057	1569.69
420.28	1548.69
420.503	1464.69
420.726	1455.69
420.948	1489.69
421.171	1599.69
421.394	1683.69
421.617	1544.69
421.839	1543.69
422.062	1519.69
422.285	1560.69
422.507	1657.69
422.73	1883.69
422.953	1753.69
423.175	1622.69
423.398	1524.69
423.621	1591.69
423.843	1675.69
424.066	1675.69
424.288	1661.69
424.511	1692.69
424.733	1794.69
424.956	2019.69
425.178	1898.69
425.401	1959.69
425.623	1970.69
425.846	1715.69
426.068	1549.69
426.291	1525.69
426.513	1517.69
426.735	1541.69
426.958	1657.69
427.18	1901.69
427.402	2211.69
427.625	2399.69
427.847	2013.69
428.069	1696.69
428.292	1530.69
428.514	1449.69
428.736	1415.69
428.958	1412.69
429.181	1381.69
429.403	1385.69
429.625	1420.69
429.847	1510.69
430.069	1720.69
430.292	1700.69
430.514	1439.69
430.736	1394.69
430.958	1379.69
431.18	1367.69
431.402	1315.69
431.624	1282.69
431.846	1215.69
432.068	1199.69
432.29	1227.69
432.512	1281.69
432.734	1374.69
432.956	1401.69
433.178	1466.69
433.4	1492.69
433.622	1450.69
433.844	1377.69
434.066	1318.69
434.287	1240.69
434.509	1237.69
434.731	1342.69
434.953	1399.69
435.175	1471.69
435.397	1613.69
435.618	1521.69
435.84	1656.69
436.062	1950.69
436.284	2085.69
436.505	1665.69
436.727	1545.69
436.949	1474.69
437.17	1444.69
437.392	1389.69
437.614	1382.69
437.835	1403.69
438.057	1644.69
438.278	1901.69
438.5	1939.69
438.721	2264.69
438.943	2142.69
439.165	1717.69
439.386	1619.69
439.608	1671.69
439.829	1649.69
440.05	1765.69
440.272	1885.69
440.493	1771.69
440.715	1615.69
440.936	1581.69
441.158	1569.69
441.379	1577.69
441.6	1647.69
441.822	1675.69
442.043	1777.69
442.264	2013.69
442.486	2081.69
442.707	1768.69
442.928	1741.69
443.149	1718.69
443.371	1853.69
443.592	1911.69
443.813	2099.69
444.034	2337.69
444.255	1947.69
444.476	1781.69
444.698	1801.69
444.919	1829.69
445.14	3510.69
445.361	2581.69
445.582	1921.69
445.803	2085.69
446.024	2385.69
446.245	2334.69
446.466	2090.69
446.687	1797.69
446.908	1696.69
447.129	1591.69
447.35	1543.69
447.571	1531.69
447.792	1499.69
448.013	1490.69
448.234	1541.69
448.455	1655.69
448.675	1960.69
448.896	2227.69
449.117	1829.69
449.338	1762.69
449.559	2072.69
449.779	2350.69
450	1830.69
450.221	1595.69
450.442	1454.69
450.662	1403.69
450.883	1436.69
451.104	1509.69
451.324	1474.69
451.545	1364.69
451.766	1341.69
451.986	1235.69
452.207	1238.69
452.428	1270.69
452.648	1271.69
452.869	1238.69
453.089	1239.69
453.31	1265.69
453.53	1153.69
453.751	1139.69
453.971	1141.69
454.192	1204.69
454.412	1213.69
454.633	1209.69
454.853	1204.69
455.073	1203.69
455.294	1267.69
455.514	1494.69
455.734	1447.69
455.955	1219.69
456.175	1127.69
456.395	1073.69
456.616	1073.69
456.836	1110.69
457.056	1065.69
457.276	1049.69
457.497	1047.69
457.717	1089.69
457.937	1113.69
458.157	1112.69
458.377	1101.69
458.598	1129.69
458.818	1278.69
459.038	1553.69
459.258	1605.69
459.478	1269.69
459.698	1219.69
459.918	1237.69
460.138	1282.69
460.358	1317.69
460.578	1356.69
460.798	1381.69
461.018	1408.69
461.238	1381.69
461.458	1369.69
461.678	1389.69
461.898	1400.69
462.118	1389.69
462.338	1433.69
462.558	1447.69
462.777	1460.69
462.997	1571.69
463.217	1593.69
463.437	1642.69
463.657	1540.69
463.876	1459.69
464.096	1489.69
464.316	1495.69
464.536	1549.69
464.755	1537.69
464.975	1512.69
465.195	1632.69
465.414	1749.69
465.634	1503.69
465.854	1368.69
466.073	1308.69
466.293	1328.69
466.512	1318.69
466.732	1310.69
466.951	1328.69
467.171	1296.69
467.391	1330.69
467.61	1367.69
467.829	1370.69
468.049	1323.69
468.268	1329.69
468.488	1325.69
468.707	1277.69
468.927	1295.69
469.146	1302.69
469.365	1354.69
469.585	1341.69
469.804	1358.69
470.023	1400.69
470.243	1459.69
470.462	1450.69
470.681	1505.69
470.901	1476.69
471.12	1437.69
471.339	1435.69
471.558	1440.69
471.777	1391.69
471.997	1317.69
472.216	1249.69
472.435	1160.69
472.654	1123.69
472.873	1122.69
473.092	1157.69
473.311	1179.69
473.53	1249.69
473.749	1305.69
473.968	1403.69
474.187	1666.69
474.406	1627.69
474.625	1405.69
474.844	1345.69
475.063	1255.69
475.282	1220.69
475.501	1207.69
475.72	1289.69
475.939	1243.69
476.158	1311.69
476.377	1281.69
476.596	1234.69
476.814	1242.69
477.033	1232.69
477.252	1251.69
477.471	1343.69
477.69	1385.69
477.908	1452.69
478.127	1503.69
478.346	1478.69
478.564	1484.69
478.783	1529.69
479.002	1569.69
479.22	1528.69
479.439	1557.69
479.658	1518.69
479.876	1498.69
480.095	1490.69
480.313	1579.69
480.532	1577.69
480.751	1488.69
480.969	1422.69
481.188	1360.69
481.406	1327.69
481.624	1318.69
481.843	1263.69
482.061	1258.69
482.28	1333.69
482.498	1334.69
482.717	1267.69
482.935	1394.69
483.153	1501.69
483.372	1561.69
483.59	1587.69
483.808	1446.69
484.027	1434.69
484.245	1422.69
484.463	1487.69
484.681	1591.69
484.9	1495.69
485.118	1510.69
485.336	1475.69
485.554	1420.69
485.772	1364.69
485.99	1417.69
486.209	1421.69
486.427	1413.69
486.645	1493.69
486.863	1660.69
487.081	1653.69
487.299	1582.69
487.517	1618.69
487.735	1755.69
487.953	1868.69
488.171	1901.69
488.389	1789.69
488.607	1688.69
488.825	1575.69
489.043	1547.69
489.261	1587.69
489.479	1592.69
489.696	1612.69
489.914	1658.69
490.132	1709.69
490.35	1782.69
490.568	1847.69
490.786	1935.69
491.003	2007.69
491.221	2103.69
491.439	2166.69
491.657	2212.69
491.874	2290.69
492.092	2433.69
492.31	2499.69
492.527	2444.69
492.745	2279.69
492.963	2284.69
493.18	2268.69
493.398	2207.69
493.615	2206.69
493.833	2203.69
494.05	2171.69
494.268	2152.69
494.485	2145.69
494.703	2093.69
494.92	2134.69
495.138	2104.69
495.355	2125.69
495.573	2157.69
495.79	2074.69
496.008	2117.69
496.225	2115.69
496.442	2121.69
496.66	2094.69
496.877	2077.69
497.094	2135.69
497.312	2046.69
497.529	2073.69
497.746	2022.69
497.963	1988.69
498.181	2021.69
498.398	2002.69
498.615	2027.69
498.832	2081.69
499.049	2190.69
499.267	2293.69
499.484	2456.69
499.701	2681.69
499.918	2815.69
500.135	3091.69
500.352	3401.69
500.569	3412.69
500.786	3446.69
501.003	3301.69
501.22	3119.69
501.437	2952.69
501.654	2719.69
501.871	2597.69
502.088	2463.69
502.305	2310.69
502.522	2125.69
502.739	2091.69
502.956	2013.69
503.172	1917.69
503.389	1866.69
503.606	1823.69
503.823	1879.69
504.04	1815.69
504.256	1794.69
504.473	1795.69
504.69	1833.69
504.907	1878.69
505.123	1699.69
505.34	1736.69
505.557	1708.69
505.773	1729.69
505.99	1668.69
506.207	1683.69
506.423	1642.69
506.64	1621.69
506.856	1598.69
507.073	1600.69
507.289	1607.69
507.506	1577.69
507.722	1597.69
507.939	1598.69
508.155	1560.69
508.372	1481.69
508.588	1450.69
508.805	1447.69
509.021	1457.69
509.238	1511.69
509.454	1498.69
509.67	1433.69
509.887	1394.69
510.103	1331.69
510.319	1349.69
510.536	1595.69
510.752	2643.69
510.968	1922.69
511.184	1344.69
511.401	1270.69
511.617	1236.69
511.833	1230.69
512.049	1233.69
512.265	1259.69
512.481	1258.69
512.698	1258.69
512.914	1220.69
513.13	1266.69
513.346	1234.69
513.562	1266.69
513.778	1258.69
513.994	1297.69
514.21	1295.69
514.426	1369.69
514.642	1463.69
514.858	1513.69
515.074	1583.69
515.29	2004.69
515.506	3007.69
515.721	2280.69
515.937	1619.69
516.153	1449.69
516.369	1392.69
516.585	1364.69
516.801	1361.69
517.016	1465.69
517.232	1487.69
517.448	1549.69
517.664	1512.69
517.879	1555.69
518.095	1562.69
518.311	1534.69
518.527	1483.69
518.742	1483.69
518.958	1453.69
519.173	1419.69
519.389	1431.69
519.605	1400.69
519.82	1391.69
520.036	1439.69
520.251	1501.69
520.467	1522.69
520.682	1439.69
520.898	1413.69
521.113	1463.69
521.329	1533.69
521.544	1758.69
521.76	2382.69
521.975	4150.69
522.19	3721.69
522.406	1938.69
522.621	1480.69
522.836	1373.69
523.052	1331.69
523.267	1285.69
523.482	1262.69
523.698	1253.69
523.913	1289.69
524.128	1323.69
524.343	1277.69
524.559	1302.69
524.774	1279.69
524.989	1298.69
525.204	1271.69
525.419	1241.69
525.634	1205.69
525.849	1147.69
526.064	1126.69
526.28	1125.69
526.495	1044.69
526.71	1043.69
526.925	1026.69
527.14	1019.69
527.355	1019.69
527.57	1037.69
527.785	1030.69
527.999	1043.69
528.214	1099.69
528.429	1187.69
528.644	1237.69
528.859	1269.69
529.074	1357.69
529.289	1473.69
529.503	1661.69
529.718	1485.69
529.933	1259.69
530.148	1136.69
530.363	1111.69
530.577	1025.69
530.792	1013.69
531.007	1000.69
531.221	1039.69
531.436	989.69
531.651	1019.69
531.865	997.69
532.08	985.69
532.295	1036.69
532.509	1021.69
532.724	1000.69
532.938	1035.69
533.153	1055.69
533.367	1122.69
533.582	1178.69
533.796	1194.69
534.011	1097.69
534.225	1030.69
534.44	981.69
534.654	1036.69
534.868	1048.69
535.083	1045.69
535.297	1064.69
535.511	1100.69
535.726	1124.69
535.94	1097.69
536.154	1076.69
536.369	984.69
536.583	946.69
536.797	990.69
537.011	951.69
537.225	940.69
537.44	938.69
537.654	995.69
537.868	1012.69
538.082	1031.69
538.296	1035.69
538.51	1053.69
538.724	1161.69
538.938	1153.69
539.153	1206.69
539.367	1213.69
539.581	1151.69
539.795	1079.69
540.009	1044.69
540.222	1041.69
540.436	1113.69
540.65	1186.69
540.864	1248.69
541.078	1426.69
541.292	1508.69
541.506	1573.69
541.72	1706.69
541.934	1823.69
542.147	1894.69
542.361	1823.69
542.575	1688.69
542.789	1573.69
543.002	1482.69
543.216	1466.69
543.43	1415.69
543.644	1491.69
543.857	1597.69
544.071	1714.69
544.285	1710.69
544.498	1753.69
544.712	1722.69
544.925	1768.69
545.139	1731.69
545.352	1687.69
545.566	1769.69
545.779	1751.69
545.993	1748.69
546.206	1977.69
546.42	2035.69
546.633	1719.69
546.847	1681.69
547.06	1663.69
547.274	1695.69
547.487	1699.69
547.7	1717.69
547.914	1675.69
548.127	1649.69
548.34	1633.69
548.554	1625.69
548.767	1606.69
548.98	1602.69
549.193	1604.69
549.407	1599.69
549.62	1669.69
549.833	1632.69
550.046	1588.69
550.259	1575.69
550.473	1553.69
550.686	1575.69
550.899	1541.69
551.112	1496.69
551.325	1441.69
551.538	1352.69
551.751	1250.69
551.964	1220.69
552.177	1353.69
552.39	1385.69
552.603	1510.69
552.816	1574.69
553.029	1609.69
553.242	1711.69
553.455	1709.69
553.667	1722.69
553.88	1672.69
554.093	1627.69
554.306	1646.69
554.519	1563.69
554.732	1554.69
554.944	1493.69
555.157	1478.69
555.37	1472.69
555.583	1406.69
555.795	1393.69
556.008	1296.69
556.221	1235.69
556.433	1278.69
556.646	1285.69
556.859	1303.69
557.071	1315.69
557.284	1329.69
557.496	1319.69
557.709	1335.69
557.921	1329.69
558.134	1348.69
558.346	1284.69
558.559	1263.69
558.771	1221.69
558.984	1240.69
559.196	1249.69
559.409	1216.69
559.621	1175.69
559.833	1163.69
560.046	1136.69
560.258	1203.69
560.47	1224.69
560.683	1185.69
560.895	1183.69
561.107	1222.69
561.32	1197.69
561.532	1209.69
561.744	1213.69
561.956	1230.69
562.168	1241.69
562.381	1221.69
562.593	1189.69
562.805	1192.69
563.017	1197.69
563.229	1165.69
563.441	1137.69
563.653	1146.69
563.865	1170.69
564.077	1142.69
564.289	1136.69
564.501	1167.69
564.713	1146.69
564.925	1155.69
565.137	1205.69
565.349	1219.69
565.561	1211.69
565.773	1235.69
565.985	1272.69
566.197	1329.69
566.408	1376.69
566.62	1442.69
566.832	1497.69
567.044	1499.69
567.255	1492.69
567.467	1464.69
567.679	1501.69
567.891	1533.69
568.102	1490.69
568.314	1413.69
568.526	1249.69
568.737	1187.69
568.949	1071.69
569.161	957.69
569.372	914.69
569.584	888.69
569.795	892.69
570.007	865.69
570.218	941.69
570.43	919.69
570.641	904.69
570.853	913.69
571.064	928.69
571.276	980.69
571.487	961.69
571.698	937.69
571.91	935.69
572.121	899.69
572.333	858.69
572.544	815.69
572.755	807.69
572.966	768.69
573.178	714.69
573.389	705.69
573.6	698.69
573.811	698.69
574.023	688.69
574.234	695.69
574.445	733.69
574.656	721.69
574.867	753.69
575.078	750.69
575.289	767.69
575.501	752.69
575.712	741.69
575.923	730.69
576.134	773.69
576.345	744.69
576.556	796.69
576.767	785.69
576.978	803.69
577.188	839.69
577.399	720.69
577.61	713.69
577.821	719.69
578.032	747.69
578.243	813.69
578.454	1188.69
578.665	868.69
578.875	689.69
579.086	659.69
579.297	699.69
579.508	648.69
579.718	655.69
579.929	681.69
580.14	649.69
580.35	658.69
580.561	677.69
580.772	687.69
580.982	673.69
581.193	682.69
581.403	705.69
581.614	682.69
581.825	664.69
582.035	692.69
582.246	705.69
582.456	699.69
582.667	701.69
582.877	690.69
583.087	669.69
583.298	695.69
583.508	677.69
583.719	665.69
583.929	672.69
584.139	649.69
584.35	638.69
584.56	657.69
584.77	671.69
584.981	649.69
585.191	669.69
585.401	673.69
585.611	654.69
585.821	645.69
586.032	660.69
586.242	613.69
586.452	629.69
586.662	588.69
586.872	606.69
587.082	623.69
587.292	613.69
587.502	676.69
587.713	682.69
587.923	687.69
588.133	635.69
588.343	618.69
588.553	623.69
588.762	661.69
588.972	628.69
589.182	605.69
589.392	616.69
589.602	604.69
589.812	589.69
590.022	663.69
590.232	645.69
590.441	628.69
590.651	625.69
590.861	627.69
591.071	607.69
591.281	625.69
591.49	619.69
591.7	625.69
591.91	643.69
592.119	646.69
592.329	677.69
592.539	702.69
592.748	747.69
592.958	758.69
593.167	729.69
593.377	755.69
593.587	829.69
593.796	761.69
594.006	763.69
594.215	741.69
594.424	765.69
594.634	746.69
594.843	765.69
595.053	769.69
595.262	720.69
595.472	701.69
595.681	664.69
595.89	651.69
596.1	645.69
596.309	661.69
596.518	682.69
596.727	712.69
596.937	682.69
597.146	693.69
597.355	679.69
597.564	642.69
597.774	626.69
597.983	582.69
598.192	559.69
598.401	555.69
598.61	543.69
598.819	603.69
599.028	609.69
599.237	616.69
599.446	605.69
599.655	595.69
599.864	609.69
600.073	576.69
600.282	603.69
600.491	609.69
600.7	603.69
600.909	626.69
601.118	681.69
601.327	730.69
601.536	778.69
601.745	794.69
601.953	802.69
602.162	795.69
602.371	775.69
602.58	798.69
602.789	815.69
602.997	805.69
603.206	806.69
603.415	787.69
603.623	800.69
603.832	802.69
604.041	766.69
604.249	702.69
604.458	640.69
604.666	649.69
604.875	637.69
605.084	679.69
605.292	709.69
605.501	809.69
605.709	857.69
605.918	867.69
606.126	918.69
606.334	849.69
606.543	866.69
606.751	855.69
606.96	873.69
607.168	833.69
607.376	851.69
607.585	868.69
607.793	861.69
608.001	858.69
608.21	886.69
608.418	891.69
608.626	887.69
608.834	890.69
609.043	920.69
609.251	899.69
609.459	900.69
609.667	950.69
609.875	970.69
610.083	965.69
610.291	953.69
610.499	969.69
610.707	1008.69
610.916	1088.69
611.124	1202.69
611.332	1321.69
611.54	1425.69
611.748	1413.69
611.955	1226.69
612.163	1102.69
612.371	1065.69
612.579	1037.69
612.787	1002.69
612.995	1013.69
613.203	1027.69
613.411	999.69
613.618	959.69
613.826	977.69
614.034	970.69
614.242	962.69
614.449	976.69
614.657	967.69
614.865	982.69
615.072	966.69
615.28	960.69
615.488	956.69
615.695	943.69
615.903	926.69
616.111	924.69
616.318	970.69
616.526	957.69
616.733	992.69
616.941	938.69
617.148	932.69
617.356	913.69
617.563	873.69
617.771	874.69
617.978	804.69
618.185	882.69
618.393	897.69
618.6	942.69
618.807	906.69
619.015	898.69
619.222	885.69
619.429	859.69
619.637	805.69
619.844	711.69
620.051	759.69
620.258	836.69
620.466	847.69
620.673	832.69
620.88	831.69
621.087	809.69
621.294	808.69
621.501	751.69
621.708	779.69
621.915	807.69
622.122	802.69
622.329	873.69
622.536	877.69
622.743	850.69
622.95	819.69
623.157	807.69
623.364	859.69
623.571	839.69
623.778	849.69
623.985	830.69
624.192	831.69
624.399	830.69
624.606	807.69
624.812	776.69
625.019	756.69
625.226	748.69
625.433	689.69
625.639	656.69
625.846	616.69
626.053	570.69
626.259	551.69
626.466	577.69
626.673	555.69
626.879	520.69
627.086	614.69
627.293	655.69
627.499	692.69
627.706	742.69
627.912	741.69
628.119	762.69
628.325	812.69
628.532	750.69
628.738	735.69
628.945	711.69
629.151	689.69
629.357	665.69
629.564	696.69
629.77	699.69
629.976	675.69
630.183	615.69
630.389	619.69
630.595	673.69
630.802	669.69
631.008	729.69
631.214	724.69
631.42	702.69
631.627	688.69
631.833	625.69
632.039	634.69
632.245	646.69
632.451	667.69
632.657	663.69
632.863	632.69
633.069	621.69
633.275	623.69
633.481	602.69
633.688	589.69
633.893	599.69
634.099	581.69
634.305	566.69
634.511	584.69
634.717	532.69
634.923	506.69
635.129	480.69
635.335	526.69
635.541	503.69
635.747	529.69
635.952	551.69
636.158	604.69
636.364	640.69
636.57	631.69
636.775	619.69
636.981	632.69
637.187	619.69
637.392	632.69
637.598	643.69
637.804	635.69
638.009	629.69
638.215	634.69
638.421	611.69
638.626	591.69
638.832	615.69
639.037	568.69
639.243	586.69
639.448	568.69
639.654	618.69
639.859	553.69
640.065	585.69
640.27	624.69
640.475	590.69
640.681	565.69
640.886	592.69
641.091	583.69
641.297	631.69
641.502	595.69
641.707	589.69
641.913	607.69
642.118	577.69
642.323	585.69
642.528	605.69
642.733	575.69
642.939	579.69
643.144	578.69
643.349	564.69
643.554	580.69
643.759	571.69
643.964	560.69
644.169	577.69
644.374	550.69
644.579	547.69
644.784	568.69
644.989	566.69
645.194	580.69
645.399	600.69
645.604	549.69
645.809	567.69
646.014	557.69
646.219	545.69
646.423	542.69
646.628	572.69
646.833	567.69
647.038	571.69
647.243	582.69
647.447	557.69
647.652	539.69
647.857	545.69
648.062	578.69
648.266	580.69
648.471	577.69
648.676	577.69
648.88	596.69
649.085	557.69
649.289	554.69
649.494	581.69
649.698	622.69
649.903	573.69
650.107	549.69
650.312	559.69
650.516	531.69
650.721	527.69
650.925	495.69
651.13	505.69
651.334	468.69
651.539	483.69
651.743	486.69
651.947	489.69
652.152	503.69
652.356	478.69
652.56	456.69
652.764	441.69
652.969	459.69
653.173	426.69
653.377	405.69
653.581	414.69
653.785	408.69
653.99	390.69
654.194	414.69
654.398	397.69
654.602	389.69
654.806	415.69
655.01	405.69
655.214	378.69
655.418	365.69
655.622	367.69
655.826	358.69
656.03	375.69
656.234	363.69
656.438	367.69
656.642	360.69
656.846	351.69
657.049	352.69
657.253	354.69
657.457	313.69
657.661	307.69
657.865	282.69
658.068	274.69
658.272	250.69
658.476	253.69
658.68	239.69
658.883	217.69
659.087	211.69
659.291	223.69
659.494	218.69
659.698	207.69
659.901	203.69
660.105	203.69
660.309	188.69
660.512	165.69
660.716	179.69
660.919	160.69
661.123	184.69
661.326	161.69
661.53	157.69
661.733	185.69
661.936	151.69
662.14	121.69
662.343	139.69
662.546	116.69
662.75	129.69
662.953	145.69
663.156	129.69
663.36	125.69
663.563	139.69
663.766	116.69
663.969	118.69
664.173	108.69
664.376	90.69
664.579	102.69
664.782	107.69
664.985	104.69
665.188	106.69
665.391	108.69
665.594	89.69
665.797	103.69
666	106.69
666.203	117.69
666.406	86.69
666.609	103.69
666.812	118.69
667.015	114.69
667.218	105.69
667.421	117.69
667.624	100.69
667.827	106.69
668.03	112.69
668.232	96.69
668.435	92.69
668.638	98.69
668.841	119.69
669.043	103.69
669.246	104.69
669.449	107.69
669.651	113.69
669.854	100.69
670.057	106.69
670.259	92.69
670.462	113.69
670.665	98.69
670.867	127.69
671.07	124.69
671.272	123.69
671.475	147.69
671.677	113.69
671.88	119.69
672.082	102.69
672.284	121.69
672.487	130.69
672.689	113.69
672.892	101.69
