Data from Ni(NO3)2@0.5M.TitratingCurve.Agarose3%dH2O.NegLispCup.LampEnergy10.LIBS07252019_HRD10591_17-57-35-564.txt Node
Date: Thu Jul 25 17:57:35 EDT 2019
User: cochatt
Spectrometer: HR+D1059
Trigger mode: 1
Integration Time (sec): 1.000000E-1
Scans to average: 1
Electric dark correction enabled: true
Nonlinearity correction enabled: false
Boxcar width: 0
XAxis mode: Wavelengths
Number of Pixels in Spectrum: 2048
>>>>>Begin Spectral Data<<<<<
223.165	-13.38
223.4	-13.38
223.635	-13.38
223.869	-20.38
224.104	-10.38
224.338	-18.38
224.573	-11.38
224.808	-8.38
225.042	-19.38
225.277	-11.38
225.511	2.62
225.746	-10.38
225.98	1.62
226.215	16.62
226.449	19.62
226.683	28.62
226.918	33.62
227.152	20.62
227.387	37.62
227.621	26.62
227.856	45.62
228.09	49.62
228.324	53.62
228.559	60.62
228.793	71.62
229.027	117.62
229.262	133.62
229.496	124.62
229.73	144.62
229.964	139.62
230.199	170.62
230.433	161.62
230.667	146.62
230.901	152.62
231.136	170.62
231.37	160.62
231.604	158.62
231.838	173.62
232.072	187.62
232.306	171.62
232.541	169.62
232.775	164.62
233.009	153.62
233.243	169.62
233.477	152.62
233.711	178.62
233.945	165.62
234.179	174.62
234.413	172.62
234.647	163.62
234.881	187.62
235.115	179.62
235.349	171.62
235.583	173.62
235.817	170.62
236.051	151.62
236.285	166.62
236.519	180.62
236.753	185.62
236.987	185.62
237.221	172.62
237.455	180.62
237.689	159.62
237.922	190.62
238.156	181.62
238.39	194.62
238.624	178.62
238.858	182.62
239.091	190.62
239.325	201.62
239.559	191.62
239.793	197.62
240.027	211.62
240.26	203.62
240.494	213.62
240.728	215.62
240.961	209.62
241.195	205.62
241.429	217.62
241.662	205.62
241.896	227.62
242.13	218.62
242.363	234.62
242.597	213.62
242.83	210.62
243.064	218.62
243.298	218.62
243.531	227.62
243.765	225.62
243.998	229.62
244.232	225.62
244.465	224.62
244.699	241.62
244.932	249.62
245.166	238.62
245.399	235.62
245.633	248.62
245.866	257.62
246.099	241.62
246.333	258.62
246.566	245.62
246.8	248.62
247.033	259.62
247.266	265.62
247.5	253.62
247.733	254.62
247.966	268.62
248.2	265.62
248.433	250.62
248.666	278.62
248.899	280.62
249.133	279.62
249.366	306.62
249.599	299.62
249.832	298.62
250.066	298.62
250.299	301.62
250.532	308.62
250.765	309.62
250.998	336.62
251.231	322.62
251.465	338.62
251.698	325.62
251.931	307.62
252.164	318.62
252.397	328.62
252.63	345.62
252.863	350.62
253.096	332.62
253.329	332.62
253.562	334.62
253.795	324.62
254.028	339.62
254.261	348.62
254.494	353.62
254.727	333.62
254.96	346.62
255.193	360.62
255.426	347.62
255.659	356.62
255.892	355.62
256.124	359.62
256.357	372.62
256.59	357.62
256.823	390.62
257.056	362.62
257.289	369.62
257.521	399.62
257.754	391.62
257.987	395.62
258.22	399.62
258.452	394.62
258.685	414.62
258.918	408.62
259.151	403.62
259.383	406.62
259.616	417.62
259.849	409.62
260.081	401.62
260.314	424.62
260.547	407.62
260.779	413.62
261.012	419.62
261.244	408.62
261.477	434.62
261.71	429.62
261.942	424.62
262.175	428.62
262.407	421.62
262.64	444.62
262.872	457.62
263.105	455.62
263.337	471.62
263.57	462.62
263.802	447.62
264.035	454.62
264.267	455.62
264.499	466.62
264.732	465.62
264.964	470.62
265.197	462.62
265.429	463.62
265.661	455.62
265.894	463.62
266.126	467.62
266.358	473.62
266.591	472.62
266.823	464.62
267.055	456.62
267.287	466.62
267.52	484.62
267.752	482.62
267.984	501.62
268.216	480.62
268.448	488.62
268.681	491.62
268.913	503.62
269.145	487.62
269.377	485.62
269.609	490.62
269.841	495.62
270.073	507.62
270.306	513.62
270.538	509.62
270.77	485.62
271.002	511.62
271.234	514.62
271.466	521.62
271.698	499.62
271.93	509.62
272.162	523.62
272.394	507.62
272.626	525.62
272.858	493.62
273.09	513.62
273.322	521.62
273.553	507.62
273.785	532.62
274.017	511.62
274.249	538.62
274.481	534.62
274.713	550.62
274.945	541.62
275.176	531.62
275.408	541.62
275.64	552.62
275.872	541.62
276.104	533.62
276.335	567.62
276.567	556.62
276.799	556.62
277.031	569.62
277.262	583.62
277.494	573.62
277.726	555.62
277.957	549.62
278.189	553.62
278.421	576.62
278.652	569.62
278.884	586.62
279.115	566.62
279.347	580.62
279.579	573.62
279.81	579.62
280.042	590.62
280.273	566.62
280.505	579.62
280.736	581.62
280.968	573.62
281.199	574.62
281.431	570.62
281.662	583.62
281.894	581.62
282.125	585.62
282.356	583.62
282.588	590.62
282.819	616.62
283.051	603.62
283.282	587.62
283.513	593.62
283.745	617.62
283.976	618.62
284.207	598.62
284.439	587.62
284.67	613.62
284.901	607.62
285.132	628.62
285.364	627.62
285.595	626.62
285.826	610.62
286.057	605.62
286.288	586.62
286.52	634.62
286.751	637.62
286.982	613.62
287.213	630.62
287.444	632.62
287.675	637.62
287.906	626.62
288.138	603.62
288.369	641.62
288.6	631.62
288.831	632.62
289.062	626.62
289.293	637.62
289.524	623.62
289.755	636.62
289.986	649.62
290.217	659.62
290.448	633.62
290.679	622.62
290.91	634.62
291.141	639.62
291.371	635.62
291.602	649.62
291.833	652.62
292.064	645.62
292.295	643.62
292.526	641.62
292.757	664.62
292.987	659.62
293.218	652.62
293.449	664.62
293.68	649.62
293.91	646.62
294.141	647.62
294.372	644.62
294.603	644.62
294.833	639.62
295.064	663.62
295.295	639.62
295.525	617.62
295.756	655.62
295.987	663.62
296.217	666.62
296.448	657.62
296.679	675.62
296.909	663.62
297.14	666.62
297.37	658.62
297.601	664.62
297.831	644.62
298.062	661.62
298.292	682.62
298.523	678.62
298.753	695.62
298.984	676.62
299.214	717.62
299.445	689.62
299.675	722.62
299.905	707.62
300.136	706.62
300.366	702.62
300.597	739.62
300.827	711.62
301.057	714.62
301.288	718.62
301.518	719.62
301.748	710.62
301.979	718.62
302.209	721.62
302.439	727.62
302.669	721.62
302.9	741.62
303.13	733.62
303.36	742.62
303.59	737.62
303.82	755.62
304.051	739.62
304.281	729.62
304.511	728.62
304.741	755.62
304.971	756.62
305.201	762.62
305.431	750.62
305.661	769.62
305.891	758.62
306.121	750.62
306.352	739.62
306.582	753.62
306.812	734.62
307.042	752.62
307.272	757.62
307.502	746.62
307.731	757.62
307.961	765.62
308.191	741.62
308.421	743.62
308.651	764.62
308.881	758.62
309.111	754.62
309.341	766.62
309.571	766.62
309.8	769.62
310.03	787.62
310.26	797.62
310.49	818.62
310.72	793.62
310.949	767.62
311.179	798.62
311.409	770.62
311.639	799.62
311.868	788.62
312.098	805.62
312.328	832.62
312.557	831.62
312.787	815.62
313.017	833.62
313.246	843.62
313.476	836.62
313.706	814.62
313.935	846.62
314.165	849.62
314.394	833.62
314.624	845.62
314.853	828.62
315.083	820.62
315.312	846.62
315.542	861.62
315.771	863.62
316.001	864.62
316.23	850.62
316.46	836.62
316.689	873.62
316.919	877.62
317.148	857.62
317.377	874.62
317.607	868.62
317.836	861.62
318.065	859.62
318.295	899.62
318.524	915.62
318.753	881.62
318.983	883.62
319.212	879.62
319.441	890.62
319.67	881.62
319.9	906.62
320.129	893.62
320.358	897.62
320.587	902.62
320.816	910.62
321.046	920.62
321.275	889.62
321.504	951.62
321.733	933.62
321.962	921.62
322.191	938.62
322.42	902.62
322.649	934.62
322.878	955.62
323.108	926.62
323.337	940.62
323.566	935.62
323.795	951.62
324.024	955.62
324.253	960.62
324.482	947.62
324.71	948.62
324.939	963.62
325.168	987.62
325.397	948.62
325.626	958.62
325.855	980.62
326.084	985.62
326.313	1029.62
326.542	975.62
326.77	999.62
326.999	989.62
327.228	988.62
327.457	1006.62
327.686	1011.62
327.914	1013.62
328.143	1001.62
328.372	1006.62
328.6	985.62
328.829	993.62
329.058	1000.62
329.287	1019.62
329.515	995.62
329.744	1041.62
329.972	1031.62
330.201	1033.62
330.43	1042.62
330.658	1071.62
330.887	1018.62
331.115	1045.62
331.344	1028.62
331.572	1020.62
331.801	1036.62
332.03	1063.62
332.258	1077.62
332.486	1038.62
332.715	1067.62
332.943	1066.62
333.172	1072.62
333.4	1081.62
333.629	1083.62
333.857	1086.62
334.085	1093.62
334.314	1103.62
334.542	1098.62
334.771	1067.62
334.999	1124.62
335.227	1100.62
335.455	1098.62
335.684	1143.62
335.912	1155.62
336.14	1130.62
336.369	1112.62
336.597	1129.62
336.825	1163.62
337.053	1141.62
337.281	1145.62
337.51	1131.62
337.738	1138.62
337.966	1129.62
338.194	1155.62
338.422	1131.62
338.65	1119.62
338.878	1092.62
339.106	1120.62
339.334	1134.62
339.562	1128.62
339.79	1142.62
340.018	1101.62
340.246	1082.62
340.474	1107.62
340.702	1065.62
340.93	1103.62
341.158	1108.62
341.386	1117.62
341.614	1142.62
341.842	1147.62
342.07	1105.62
342.298	1087.62
342.526	1106.62
342.754	1097.62
342.981	1119.62
343.209	1045.62
343.437	1116.62
343.665	1124.62
343.893	1149.62
344.12	1155.62
344.348	1131.62
344.576	1118.62
344.804	1174.62
345.031	1128.62
345.259	1077.62
345.487	1121.62
345.714	1124.62
345.942	1146.62
346.17	1125.62
346.397	1130.62
346.625	1086.62
346.853	1084.62
347.08	1054.62
347.308	1060.62
347.535	1066.62
347.763	1089.62
347.99	1085.62
348.218	1069.62
348.445	1078.62
348.673	1064.62
348.9	1082.62
349.128	1093.62
349.355	1100.62
349.583	1087.62
349.81	1093.62
350.037	1067.62
350.265	1065.62
350.492	1078.62
350.72	1029.62
350.947	1071.62
351.174	1090.62
351.402	1101.62
351.629	1096.62
351.856	1087.62
352.083	1059.62
352.311	1099.62
352.538	1097.62
352.765	1127.62
352.992	1060.62
353.22	1046.62
353.447	1015.62
353.674	1047.62
353.901	1050.62
354.128	1061.62
354.355	1066.62
354.583	1075.62
354.81	1070.62
355.037	1060.62
355.264	999.62
355.491	1038.62
355.718	1025.62
355.945	1028.62
356.172	1049.62
356.399	1021.62
356.626	1070.62
356.853	1075.62
357.08	1041.62
357.307	1050.62
357.534	1057.62
357.761	1053.62
357.988	1043.62
358.215	1028.62
358.441	1065.62
358.668	1058.62
358.895	1064.62
359.122	1046.62
359.349	1034.62
359.576	1054.62
359.802	1060.62
360.029	1047.62
360.256	1064.62
360.483	1063.62
360.709	1054.62
360.936	1073.62
361.163	1065.62
361.39	1063.62
361.616	1071.62
361.843	1078.62
362.07	1080.62
362.296	1106.62
362.523	1030.62
362.749	1054.62
362.976	1052.62
363.203	1053.62
363.429	1047.62
363.656	1087.62
363.882	1045.62
364.109	1052.62
364.335	1034.62
364.562	1052.62
364.788	1063.62
365.015	1077.62
365.241	1060.62
365.468	1058.62
365.694	1074.62
365.92	1064.62
366.147	1034.62
366.373	1076.62
366.599	1040.62
366.826	1060.62
367.052	1062.62
367.278	1084.62
367.505	1077.62
367.731	1065.62
367.957	1073.62
368.184	1050.62
368.41	1068.62
368.636	1067.62
368.862	1064.62
369.089	1084.62
369.315	1071.62
369.541	1068.62
369.767	1101.62
369.993	1062.62
370.219	1077.62
370.445	1092.62
370.672	1093.62
370.898	1095.62
371.124	1046.62
371.35	1083.62
371.576	1084.62
371.802	1119.62
372.028	1105.62
372.254	1110.62
372.48	1096.62
372.706	1099.62
372.932	1068.62
373.158	1068.62
373.384	1077.62
373.61	1082.62
373.835	1118.62
374.061	1074.62
374.287	1064.62
374.513	1091.62
374.739	1083.62
374.965	1057.62
375.191	1093.62
375.416	1126.62
375.642	1091.62
375.868	1103.62
376.094	1082.62
376.319	1078.62
376.545	1094.62
376.771	1078.62
376.997	1078.62
377.222	1089.62
377.448	1025.62
377.674	1083.62
377.899	1028.62
378.125	1067.62
378.35	1042.62
378.576	1049.62
378.802	1062.62
379.027	1036.62
379.253	1052.62
379.478	1047.62
379.704	1026.62
379.929	1071.62
380.155	1060.62
380.38	1050.62
380.606	1067.62
380.831	1058.62
381.057	1063.62
381.282	1069.62
381.507	1061.62
381.733	1067.62
381.958	1065.62
382.184	1068.62
382.409	1078.62
382.634	1075.62
382.86	1054.62
383.085	1096.62
383.31	1101.62
383.535	1069.62
383.761	1065.62
383.986	1092.62
384.211	1099.62
384.436	1101.62
384.662	1098.62
384.887	1086.62
385.112	1113.62
385.337	1113.62
385.562	1099.62
385.787	1078.62
386.013	1131.62
386.238	1119.62
386.463	1106.62
386.688	1125.62
386.913	1109.62
387.138	1146.62
387.363	1131.62
387.588	1100.62
387.813	1138.62
388.038	1145.62
388.263	1108.62
388.488	1156.62
388.713	1091.62
388.938	1161.62
389.163	1122.62
389.387	1128.62
389.612	1147.62
389.837	1124.62
390.062	1139.62
390.287	1131.62
390.512	1152.62
390.736	1134.62
390.961	1145.62
391.186	1119.62
391.411	1159.62
391.636	1131.62
391.86	1140.62
392.085	1141.62
392.31	1120.62
392.534	1133.62
392.759	1156.62
392.984	1125.62
393.208	1126.62
393.433	1162.62
393.658	1179.62
393.882	1152.62
394.107	1152.62
394.331	1148.62
394.556	1144.62
394.78	1113.62
395.005	1153.62
395.229	1145.62
395.454	1159.62
395.678	1161.62
395.903	1173.62
396.127	1160.62
396.352	1167.62
396.576	1188.62
396.801	1158.62
397.025	1166.62
397.249	1186.62
397.474	1159.62
397.698	1195.62
397.922	1201.62
398.147	1181.62
398.371	1172.62
398.595	1228.62
398.82	1212.62
399.044	1217.62
399.268	1235.62
399.492	1244.62
399.717	1286.62
399.941	1282.62
400.165	1298.62
400.389	1289.62
400.613	1247.62
400.837	1257.62
401.062	1231.62
401.286	1209.62
401.51	1241.62
401.734	1218.62
401.958	1230.62
402.182	1257.62
402.406	1239.62
402.63	1234.62
402.854	1287.62
403.078	1238.62
403.302	1222.62
403.526	1214.62
403.75	1216.62
403.974	1214.62
404.198	1225.62
404.422	1206.62
404.645	1232.62
404.869	1256.62
405.093	1272.62
405.317	1220.62
405.541	1242.62
405.765	1265.62
405.988	1281.62
406.212	1258.62
406.436	1261.62
406.66	1278.62
406.883	1291.62
407.107	1311.62
407.331	1296.62
407.555	1286.62
407.778	1349.62
408.002	1311.62
408.226	1311.62
408.449	1341.62
408.673	1294.62
408.896	1346.62
409.12	1297.62
409.344	1331.62
409.567	1292.62
409.791	1257.62
410.014	1265.62
410.238	1285.62
410.461	1270.62
410.685	1305.62
410.908	1267.62
411.132	1269.62
411.355	1268.62
411.578	1266.62
411.802	1266.62
412.025	1275.62
412.249	1252.62
412.472	1242.62
412.695	1252.62
412.919	1257.62
413.142	1279.62
413.365	1232.62
413.589	1259.62
413.812	1242.62
414.035	1260.62
414.258	1256.62
414.482	1221.62
414.705	1255.62
414.928	1247.62
415.151	1240.62
415.374	1230.62
415.597	1212.62
415.821	1207.62
416.044	1215.62
416.267	1219.62
416.49	1201.62
416.713	1208.62
416.936	1221.62
417.159	1225.62
417.382	1196.62
417.605	1185.62
417.828	1187.62
418.051	1205.62
418.274	1212.62
418.497	1176.62
418.72	1187.62
418.943	1144.62
419.166	1231.62
419.389	1301.62
419.611	1275.62
419.834	1250.62
420.057	1219.62
420.28	1204.62
420.503	1157.62
420.726	1182.62
420.948	1186.62
421.171	1164.62
421.394	1210.62
421.617	1159.62
421.839	1200.62
422.062	1211.62
422.285	1168.62
422.507	1191.62
422.73	1220.62
422.953	1182.62
423.175	1181.62
423.398	1167.62
423.621	1191.62
423.843	1177.62
424.066	1215.62
424.288	1186.62
424.511	1199.62
424.733	1171.62
424.956	1197.62
425.178	1212.62
425.401	1189.62
425.623	1207.62
425.846	1188.62
426.068	1255.62
426.291	1196.62
426.513	1158.62
426.735	1182.62
426.958	1196.62
427.18	1190.62
427.402	1187.62
427.625	1182.62
427.847	1162.62
428.069	1183.62
428.292	1187.62
428.514	1165.62
428.736	1151.62
428.958	1213.62
429.181	1218.62
429.403	1174.62
429.625	1225.62
429.847	1174.62
430.069	1199.62
430.292	1164.62
430.514	1176.62
430.736	1197.62
430.958	1163.62
431.18	1160.62
431.402	1207.62
431.624	1163.62
431.846	1143.62
432.068	1176.62
432.29	1216.62
432.512	1169.62
432.734	1181.62
432.956	1205.62
433.178	1220.62
433.4	1214.62
433.622	1223.62
433.844	1214.62
434.066	1181.62
434.287	1166.62
434.509	1189.62
434.731	1201.62
434.953	1178.62
435.175	1193.62
435.397	1245.62
435.618	1165.62
435.84	1178.62
436.062	1189.62
436.284	1213.62
436.505	1161.62
436.727	1191.62
436.949	1197.62
437.17	1195.62
437.392	1193.62
437.614	1189.62
437.835	1149.62
438.057	1153.62
438.278	1117.62
438.5	1162.62
438.721	1161.62
438.943	1153.62
439.165	1154.62
439.386	1161.62
439.608	1209.62
439.829	1193.62
440.05	1175.62
440.272	1190.62
440.493	1190.62
440.715	1226.62
440.936	1187.62
441.158	1156.62
441.379	1204.62
441.6	1219.62
441.822	1212.62
442.043	1229.62
442.264	1204.62
442.486	1197.62
442.707	1223.62
442.928	1234.62
443.149	1230.62
443.371	1213.62
443.592	1238.62
443.813	1217.62
444.034	1205.62
444.255	1201.62
444.476	1221.62
444.698	1203.62
444.919	1271.62
445.14	1343.62
445.361	1269.62
445.582	1192.62
445.803	1179.62
446.024	1188.62
446.245	1181.62
446.466	1192.62
446.687	1170.62
446.908	1203.62
447.129	1146.62
447.35	1163.62
447.571	1150.62
447.792	1107.62
448.013	1137.62
448.234	1105.62
448.455	1119.62
448.675	1112.62
448.896	1130.62
449.117	1092.62
449.338	1110.62
449.559	1095.62
449.779	1083.62
450	1100.62
450.221	1099.62
450.442	1077.62
450.662	1110.62
450.883	1091.62
451.104	1125.62
451.324	1139.62
451.545	1069.62
451.766	1095.62
451.986	1086.62
452.207	1081.62
452.428	1094.62
452.648	1109.62
452.869	1096.62
453.089	1064.62
453.31	1066.62
453.53	1061.62
453.751	1039.62
453.971	1063.62
454.192	1084.62
454.412	1076.62
454.633	1046.62
454.853	1054.62
455.073	1042.62
455.294	1061.62
455.514	1087.62
455.734	1079.62
455.955	1073.62
456.175	1055.62
456.395	1046.62
456.616	1091.62
456.836	1061.62
457.056	1073.62
457.276	1020.62
457.497	1084.62
457.717	1080.62
457.937	1077.62
458.157	1054.62
458.377	1058.62
458.598	1046.62
458.818	1068.62
459.038	1067.62
459.258	1107.62
459.478	1127.62
459.698	1148.62
459.918	1157.62
460.138	1152.62
460.358	1164.62
460.578	1165.62
460.798	1190.62
461.018	1163.62
461.238	1156.62
461.458	1146.62
461.678	1156.62
461.898	1152.62
462.118	1166.62
462.338	1176.62
462.558	1205.62
462.777	1234.62
462.997	1230.62
463.217	1240.62
463.437	1243.62
463.657	1244.62
463.876	1258.62
464.096	1228.62
464.316	1242.62
464.536	1237.62
464.755	1194.62
464.975	1216.62
465.195	1210.62
465.414	1180.62
465.634	1156.62
465.854	1146.62
466.073	1165.62
466.293	1152.62
466.512	1165.62
466.732	1110.62
466.951	1133.62
467.171	1147.62
467.391	1139.62
467.61	1120.62
467.829	1145.62
468.049	1136.62
468.268	1145.62
468.488	1114.62
468.707	1137.62
468.927	1155.62
469.146	1151.62
469.365	1116.62
469.585	1130.62
469.804	1145.62
470.023	1167.62
470.243	1098.62
470.462	1157.62
470.681	1171.62
470.901	1157.62
471.12	1163.62
471.339	1134.62
471.558	1157.62
471.777	1149.62
471.997	1150.62
472.216	1125.62
472.435	1169.62
472.654	1131.62
472.873	1133.62
473.092	1158.62
473.311	1172.62
473.53	1171.62
473.749	1165.62
473.968	1163.62
474.187	1161.62
474.406	1188.62
474.625	1195.62
474.844	1184.62
475.063	1181.62
475.282	1181.62
475.501	1182.62
475.72	1175.62
475.939	1197.62
476.158	1229.62
476.377	1223.62
476.596	1230.62
476.814	1219.62
477.033	1218.62
477.252	1208.62
477.471	1269.62
477.69	1246.62
477.908	1274.62
478.127	1263.62
478.346	1288.62
478.564	1285.62
478.783	1298.62
479.002	1345.62
479.22	1350.62
479.439	1353.62
479.658	1324.62
479.876	1343.62
480.095	1317.62
480.313	1346.62
480.532	1314.62
480.751	1349.62
480.969	1290.62
481.188	1316.62
481.406	1318.62
481.624	1342.62
481.843	1357.62
482.061	1315.62
482.28	1354.62
482.498	1367.62
482.717	1347.62
482.935	1382.62
483.153	1409.62
483.372	1419.62
483.59	1412.62
483.808	1410.62
484.027	1363.62
484.245	1366.62
484.463	1411.62
484.681	1439.62
484.9	1417.62
485.118	1398.62
485.336	1413.62
485.554	1403.62
485.772	1383.62
485.99	1384.62
486.209	1390.62
486.427	1401.62
486.645	1394.62
486.863	1402.62
487.081	1430.62
487.299	1413.62
487.517	1394.62
487.735	1491.62
487.953	1461.62
488.171	1459.62
488.389	1457.62
488.607	1455.62
488.825	1444.62
489.043	1441.62
489.261	1439.62
489.479	1457.62
489.696	1424.62
489.914	1420.62
490.132	1404.62
490.35	1419.62
490.568	1444.62
490.786	1447.62
491.003	1448.62
491.221	1440.62
491.439	1450.62
491.657	1480.62
491.874	1459.62
492.092	1479.62
492.31	1462.62
492.527	1466.62
492.745	1498.62
492.963	1446.62
493.18	1466.62
493.398	1496.62
493.615	1476.62
493.833	1457.62
494.05	1448.62
494.268	1489.62
494.485	1470.62
494.703	1470.62
494.92	1493.62
495.138	1516.62
495.355	1476.62
495.573	1476.62
495.79	1491.62
496.008	1524.62
496.225	1491.62
496.442	1499.62
496.66	1518.62
496.877	1547.62
497.094	1545.62
497.312	1532.62
497.529	1546.62
497.746	1554.62
497.963	1570.62
498.181	1602.62
498.398	1580.62
498.615	1634.62
498.832	1626.62
499.049	1678.62
499.267	1655.62
499.484	1743.62
499.701	1715.62
499.918	1737.62
500.135	1823.62
500.352	1827.62
500.569	1823.62
500.786	1825.62
501.003	1799.62
501.22	1772.62
501.437	1728.62
501.654	1723.62
501.871	1707.62
502.088	1685.62
502.305	1659.62
502.522	1624.62
502.739	1620.62
502.956	1611.62
503.172	1567.62
503.389	1531.62
503.606	1536.62
503.823	1491.62
504.04	1523.62
504.256	1488.62
504.473	1445.62
504.69	1437.62
504.907	1429.62
505.123	1420.62
505.34	1423.62
505.557	1415.62
505.773	1384.62
505.99	1392.62
506.207	1357.62
506.423	1372.62
506.64	1337.62
506.856	1355.62
507.073	1324.62
507.289	1318.62
507.506	1338.62
507.722	1333.62
507.939	1301.62
508.155	1309.62
508.372	1320.62
508.588	1261.62
508.805	1263.62
509.021	1260.62
509.238	1262.62
509.454	1256.62
509.67	1245.62
509.887	1258.62
510.103	1234.62
510.319	1206.62
510.536	1196.62
510.752	1222.62
510.968	1229.62
511.184	1182.62
511.401	1205.62
511.617	1201.62
511.833	1198.62
512.049	1239.62
512.265	1217.62
512.481	1198.62
512.698	1210.62
512.914	1222.62
513.13	1197.62
513.346	1190.62
513.562	1189.62
513.778	1225.62
513.994	1181.62
514.21	1223.62
514.426	1207.62
514.642	1212.62
514.858	1217.62
515.074	1235.62
515.29	1203.62
515.506	1218.62
515.721	1221.62
515.937	1201.62
516.153	1218.62
516.369	1247.62
516.585	1227.62
516.801	1210.62
517.016	1197.62
517.232	1246.62
517.448	1209.62
517.664	1227.62
517.879	1226.62
518.095	1235.62
518.311	1203.62
518.527	1219.62
518.742	1247.62
518.958	1205.62
519.173	1182.62
519.389	1189.62
519.605	1183.62
519.82	1205.62
520.036	1208.62
520.251	1188.62
520.467	1169.62
520.682	1153.62
520.898	1173.62
521.113	1137.62
521.329	1134.62
521.544	1133.62
521.76	1129.62
521.975	1143.62
522.19	1121.62
522.406	1121.62
522.621	1142.62
522.836	1128.62
523.052	1115.62
523.267	1103.62
523.482	1120.62
523.698	1117.62
523.913	1085.62
524.128	1109.62
524.343	1084.62
524.559	1107.62
524.774	1109.62
524.989	1111.62
525.204	1099.62
525.419	1105.62
525.634	1106.62
525.849	1088.62
526.064	1090.62
526.28	1070.62
526.495	1077.62
526.71	1089.62
526.925	1066.62
527.14	1066.62
527.355	1049.62
527.57	1081.62
527.785	1060.62
527.999	1077.62
528.214	1065.62
528.429	1068.62
528.644	1064.62
528.859	1047.62
529.074	1051.62
529.289	1062.62
529.503	1077.62
529.718	1075.62
529.933	1047.62
530.148	1066.62
530.363	1088.62
530.577	1050.62
530.792	1035.62
531.007	1038.62
531.221	1058.62
531.436	1033.62
531.651	1051.62
531.865	1014.62
532.08	1030.62
532.295	1066.62
532.509	1027.62
532.724	996.62
532.938	1020.62
533.153	1009.62
533.367	1062.62
533.582	1045.62
533.796	1034.62
534.011	1045.62
534.225	988.62
534.44	982.62
534.654	1023.62
534.868	1001.62
535.083	998.62
535.297	1025.62
535.511	985.62
535.726	964.62
535.94	1014.62
536.154	1008.62
536.369	987.62
536.583	962.62
536.797	983.62
537.011	982.62
537.225	973.62
537.44	974.62
537.654	973.62
537.868	963.62
538.082	940.62
538.296	932.62
538.51	961.62
538.724	986.62
538.938	993.62
539.153	961.62
539.367	970.62
539.581	956.62
539.795	958.62
540.009	958.62
540.222	951.62
540.436	935.62
540.65	940.62
540.864	939.62
541.078	959.62
541.292	980.62
541.506	949.62
541.72	949.62
541.934	973.62
542.147	958.62
542.361	956.62
542.575	924.62
542.789	953.62
543.002	951.62
543.216	912.62
543.43	941.62
543.644	938.62
543.857	935.62
544.071	951.62
544.285	938.62
544.498	926.62
544.712	922.62
544.925	931.62
545.139	934.62
545.352	930.62
545.566	943.62
545.779	928.62
545.993	955.62
546.206	935.62
546.42	913.62
546.633	969.62
546.847	955.62
547.06	934.62
547.274	935.62
547.487	958.62
547.7	896.62
547.914	907.62
548.127	917.62
548.34	932.62
548.554	910.62
548.767	943.62
548.98	899.62
549.193	915.62
549.407	917.62
549.62	890.62
549.833	901.62
550.046	917.62
550.259	907.62
550.473	891.62
550.686	897.62
550.899	891.62
551.112	893.62
551.325	867.62
551.538	897.62
551.751	883.62
551.964	861.62
552.177	873.62
552.39	893.62
552.603	905.62
552.816	891.62
553.029	900.62
553.242	896.62
553.455	890.62
553.667	889.62
553.88	876.62
554.093	876.62
554.306	884.62
554.519	845.62
554.732	861.62
554.944	823.62
555.157	823.62
555.37	843.62
555.583	851.62
555.795	833.62
556.008	824.62
556.221	825.62
556.433	805.62
556.646	810.62
556.859	828.62
557.071	787.62
557.284	792.62
557.496	789.62
557.709	822.62
557.921	805.62
558.134	795.62
558.346	777.62
558.559	777.62
558.771	803.62
558.984	784.62
559.196	789.62
559.409	774.62
559.621	764.62
559.833	775.62
560.046	763.62
560.258	789.62
560.47	764.62
560.683	771.62
560.895	776.62
561.107	744.62
561.32	775.62
561.532	774.62
561.744	754.62
561.956	744.62
562.168	756.62
562.381	755.62
562.593	762.62
562.805	787.62
563.017	744.62
563.229	748.62
563.441	758.62
563.653	769.62
563.865	748.62
564.077	774.62
564.289	761.62
564.501	778.62
564.713	783.62
564.925	757.62
565.137	776.62
565.349	783.62
565.561	784.62
565.773	771.62
565.985	805.62
566.197	803.62
566.408	775.62
566.62	791.62
566.832	812.62
567.044	786.62
567.255	775.62
567.467	804.62
567.679	778.62
567.891	810.62
568.102	778.62
568.314	768.62
568.526	759.62
568.737	754.62
568.949	734.62
569.161	742.62
569.372	728.62
569.584	725.62
569.795	693.62
570.007	696.62
570.218	687.62
570.43	695.62
570.641	679.62
570.853	655.62
571.064	655.62
571.276	683.62
571.487	703.62
571.698	667.62
571.91	669.62
572.121	649.62
572.333	635.62
572.544	636.62
572.755	631.62
572.966	623.62
573.178	635.62
573.389	647.62
573.6	626.62
573.811	622.62
574.023	643.62
574.234	627.62
574.445	618.62
574.656	598.62
574.867	599.62
575.078	609.62
575.289	587.62
575.501	589.62
575.712	595.62
575.923	615.62
576.134	605.62
576.345	602.62
576.556	567.62
576.767	613.62
576.978	587.62
577.188	580.62
577.399	569.62
577.61	569.62
577.821	579.62
578.032	553.62
578.243	568.62
578.454	561.62
578.665	534.62
578.875	561.62
579.086	535.62
579.297	541.62
579.508	540.62
579.718	543.62
579.929	526.62
580.14	514.62
580.35	521.62
580.561	535.62
580.772	538.62
580.982	558.62
581.193	506.62
581.403	552.62
581.614	542.62
581.825	532.62
582.035	534.62
582.246	530.62
582.456	526.62
582.667	529.62
582.877	513.62
583.087	516.62
583.298	496.62
583.508	485.62
583.719	505.62
583.929	523.62
584.139	505.62
584.35	491.62
584.56	492.62
584.77	509.62
584.981	508.62
585.191	497.62
585.401	499.62
585.611	498.62
585.821	488.62
586.032	507.62
586.242	507.62
586.452	519.62
586.662	499.62
586.872	481.62
587.082	487.62
587.292	481.62
587.502	498.62
587.713	472.62
587.923	489.62
588.133	495.62
588.343	474.62
588.553	500.62
588.762	489.62
588.972	467.62
589.182	525.62
589.392	531.62
589.602	514.62
589.812	509.62
590.022	489.62
590.232	474.62
590.441	470.62
590.651	467.62
590.861	478.62
591.071	454.62
591.281	454.62
591.49	476.62
591.7	478.62
591.91	462.62
592.119	463.62
592.329	479.62
592.539	482.62
592.748	480.62
592.958	468.62
593.167	454.62
593.377	453.62
593.587	499.62
593.796	464.62
594.006	480.62
594.215	464.62
594.424	444.62
594.634	449.62
594.843	468.62
595.053	461.62
595.262	460.62
595.472	451.62
595.681	441.62
595.89	441.62
596.1	440.62
596.309	444.62
596.518	447.62
596.727	426.62
596.937	430.62
597.146	426.62
597.355	428.62
597.564	433.62
597.774	441.62
597.983	424.62
598.192	393.62
598.401	433.62
598.61	441.62
598.819	406.62
599.028	400.62
599.237	424.62
599.446	394.62
599.655	417.62
599.864	396.62
600.073	399.62
600.282	390.62
600.491	421.62
600.7	417.62
600.909	415.62
601.118	418.62
601.327	410.62
601.536	415.62
601.745	410.62
601.953	393.62
602.162	399.62
602.371	377.62
602.58	404.62
602.789	387.62
602.997	426.62
603.206	407.62
603.415	395.62
603.623	396.62
603.832	359.62
604.041	387.62
604.249	385.62
604.458	379.62
604.666	375.62
604.875	351.62
605.084	376.62
605.292	386.62
605.501	382.62
605.709	381.62
605.918	379.62
606.126	378.62
606.334	366.62
606.543	381.62
606.751	377.62
606.96	367.62
607.168	383.62
607.376	380.62
607.585	364.62
607.793	378.62
608.001	353.62
608.21	361.62
608.418	366.62
608.626	370.62
608.834	358.62
609.043	377.62
609.251	358.62
609.459	364.62
609.667	371.62
609.875	363.62
610.083	381.62
610.291	369.62
610.499	361.62
610.707	363.62
610.916	366.62
611.124	361.62
611.332	371.62
611.54	366.62
611.748	350.62
611.955	357.62
612.163	366.62
612.371	354.62
612.579	343.62
612.787	341.62
612.995	344.62
613.203	365.62
613.411	341.62
613.618	356.62
613.826	362.62
614.034	358.62
614.242	342.62
614.449	366.62
614.657	322.62
614.865	346.62
615.072	356.62
615.28	350.62
615.488	347.62
615.695	341.62
615.903	351.62
616.111	334.62
616.318	367.62
616.526	338.62
616.733	333.62
616.941	353.62
617.148	327.62
617.356	332.62
617.563	337.62
617.771	342.62
617.978	335.62
618.185	360.62
618.393	329.62
618.6	317.62
618.807	336.62
619.015	329.62
619.222	324.62
619.429	324.62
619.637	332.62
619.844	307.62
620.051	330.62
620.258	332.62
620.466	326.62
620.673	324.62
620.88	308.62
621.087	311.62
621.294	313.62
621.501	318.62
621.708	306.62
621.915	314.62
622.122	306.62
622.329	325.62
622.536	330.62
622.743	323.62
622.95	307.62
623.157	331.62
623.364	324.62
623.571	305.62
623.778	298.62
623.985	305.62
624.192	307.62
624.399	303.62
624.606	290.62
624.812	321.62
625.019	318.62
625.226	304.62
625.433	314.62
625.639	278.62
625.846	309.62
626.053	278.62
626.259	287.62
626.466	289.62
626.673	283.62
626.879	270.62
627.086	289.62
627.293	301.62
627.499	295.62
627.706	275.62
627.912	287.62
628.119	294.62
628.325	290.62
628.532	284.62
628.738	282.62
628.945	288.62
629.151	275.62
629.357	285.62
629.564	270.62
629.77	291.62
629.976	267.62
630.183	272.62
630.389	262.62
630.595	298.62
630.802	276.62
631.008	270.62
631.214	281.62
631.42	260.62
631.627	290.62
631.833	276.62
632.039	259.62
632.245	246.62
632.451	271.62
632.657	264.62
632.863	243.62
633.069	253.62
633.275	254.62
633.481	248.62
633.688	250.62
633.893	263.62
634.099	266.62
634.305	258.62
634.511	253.62
634.717	265.62
634.923	244.62
635.129	266.62
635.335	273.62
635.541	241.62
635.747	263.62
635.952	251.62
636.158	271.62
636.364	242.62
636.57	247.62
636.775	257.62
636.981	258.62
637.187	247.62
637.392	241.62
637.598	237.62
637.804	253.62
638.009	256.62
638.215	242.62
638.421	236.62
638.626	243.62
638.832	243.62
639.037	247.62
639.243	255.62
639.448	263.62
639.654	253.62
639.859	251.62
640.065	251.62
640.27	257.62
640.475	241.62
640.681	245.62
640.886	244.62
641.091	258.62
641.297	257.62
641.502	247.62
641.707	236.62
641.913	239.62
642.118	227.62
642.323	245.62
642.528	243.62
642.733	233.62
642.939	237.62
643.144	242.62
643.349	234.62
643.554	235.62
643.759	233.62
643.964	234.62
644.169	222.62
644.374	229.62
644.579	220.62
644.784	261.62
644.989	229.62
645.194	221.62
645.399	244.62
645.604	227.62
645.809	230.62
646.014	259.62
646.219	229.62
646.423	221.62
646.628	235.62
646.833	243.62
647.038	232.62
647.243	231.62
647.447	241.62
647.652	242.62
647.857	218.62
648.062	246.62
648.266	245.62
648.471	234.62
648.676	238.62
648.88	236.62
649.085	249.62
649.289	250.62
649.494	235.62
649.698	250.62
649.903	221.62
650.107	249.62
650.312	230.62
650.516	250.62
650.721	234.62
650.925	228.62
651.13	219.62
651.334	228.62
651.539	219.62
651.743	216.62
651.947	224.62
652.152	237.62
652.356	219.62
652.56	226.62
652.764	217.62
652.969	204.62
653.173	223.62
653.377	228.62
653.581	219.62
653.785	207.62
653.99	206.62
654.194	213.62
654.398	210.62
654.602	213.62
654.806	230.62
655.01	202.62
655.214	213.62
655.418	199.62
655.622	219.62
655.826	204.62
656.03	238.62
656.234	219.62
656.438	214.62
656.642	219.62
656.846	209.62
657.049	210.62
657.253	186.62
657.457	198.62
657.661	177.62
657.865	174.62
658.068	167.62
658.272	156.62
658.476	157.62
658.68	155.62
658.883	142.62
659.087	130.62
659.291	138.62
659.494	138.62
659.698	139.62
659.901	131.62
660.105	134.62
660.309	127.62
660.512	113.62
660.716	110.62
660.919	106.62
661.123	123.62
661.326	109.62
661.53	103.62
661.733	102.62
661.936	112.62
662.14	100.62
662.343	101.62
662.546	96.62
662.75	99.62
662.953	88.62
663.156	86.62
663.36	87.62
663.563	83.62
663.766	85.62
663.969	91.62
664.173	73.62
664.376	87.62
664.579	77.62
664.782	93.62
664.985	88.62
665.188	88.62
665.391	90.62
665.594	90.62
665.797	92.62
666	80.62
666.203	81.62
666.406	83.62
666.609	83.62
666.812	92.62
667.015	91.62
667.218	92.62
667.421	85.62
667.624	87.62
667.827	85.62
668.03	60.62
668.232	78.62
668.435	86.62
668.638	80.62
668.841	92.62
669.043	86.62
669.246	71.62
669.449	72.62
669.651	78.62
669.854	81.62
670.057	84.62
670.259	89.62
670.462	88.62
670.665	88.62
670.867	88.62
671.07	82.62
671.272	76.62
671.475	103.62
671.677	78.62
671.88	86.62
672.082	83.62
672.284	79.62
672.487	89.62
672.689	90.62
672.892	81.62
