Data from Ni(NO3)2@0.25M.TitratingCurve.Agarose3%dH2O.NegLispCup.LampEnergy10.LIBS07252019_HRD10591_18-05-26-567.txt Node
Date: Thu Jul 25 18:05:26 EDT 2019
User: cochatt
Spectrometer: HR+D1059
Trigger mode: 1
Integration Time (sec): 1.000000E-1
Scans to average: 1
Electric dark correction enabled: true
Nonlinearity correction enabled: false
Boxcar width: 0
XAxis mode: Wavelengths
Number of Pixels in Spectrum: 2048
>>>>>Begin Spectral Data<<<<<
223.165	-15.94
223.4	-15.94
223.635	-15.94
223.869	-18.94
224.104	-8.94
224.338	-21.94
224.573	-3.94
224.808	-20.94
225.042	-14.94
225.277	-20.94
225.511	0.06
225.746	12.06
225.98	8.06
226.215	10.06
226.449	12.06
226.683	24.06
226.918	28.06
227.152	32.06
227.387	51.06
227.621	34.06
227.856	38.06
228.09	47.06
228.324	46.06
228.559	69.06
228.793	60.06
229.027	72.06
229.262	91.06
229.496	95.06
229.73	90.06
229.964	100.06
230.199	95.06
230.433	100.06
230.667	96.06
230.901	107.06
231.136	87.06
231.37	105.06
231.604	100.06
231.838	104.06
232.072	105.06
232.306	109.06
232.541	108.06
232.775	104.06
233.009	109.06
233.243	108.06
233.477	105.06
233.711	107.06
233.945	95.06
234.179	115.06
234.413	110.06
234.647	106.06
234.881	90.06
235.115	111.06
235.349	103.06
235.583	106.06
235.817	117.06
236.051	90.06
236.285	91.06
236.519	103.06
236.753	103.06
236.987	104.06
237.221	103.06
237.455	118.06
237.689	98.06
237.922	106.06
238.156	111.06
238.39	103.06
238.624	106.06
238.858	122.06
239.091	97.06
239.325	114.06
239.559	120.06
239.793	102.06
240.027	112.06
240.26	111.06
240.494	105.06
240.728	110.06
240.961	119.06
241.195	117.06
241.429	117.06
241.662	108.06
241.896	109.06
242.13	120.06
242.363	121.06
242.597	123.06
242.83	107.06
243.064	120.06
243.298	122.06
243.531	134.06
243.765	129.06
243.998	130.06
244.232	119.06
244.465	121.06
244.699	120.06
244.932	122.06
245.166	131.06
245.399	126.06
245.633	114.06
245.866	124.06
246.099	114.06
246.333	134.06
246.566	140.06
246.8	138.06
247.033	155.06
247.266	140.06
247.5	140.06
247.733	122.06
247.966	126.06
248.2	136.06
248.433	132.06
248.666	138.06
248.899	153.06
249.133	130.06
249.366	141.06
249.599	142.06
249.832	162.06
250.066	155.06
250.299	143.06
250.532	158.06
250.765	147.06
250.998	142.06
251.231	156.06
251.465	161.06
251.698	165.06
251.931	154.06
252.164	156.06
252.397	167.06
252.63	180.06
252.863	147.06
253.096	179.06
253.329	163.06
253.562	164.06
253.795	151.06
254.028	177.06
254.261	169.06
254.494	188.06
254.727	170.06
254.96	170.06
255.193	169.06
255.426	158.06
255.659	156.06
255.892	158.06
256.124	173.06
256.357	182.06
256.59	194.06
256.823	176.06
257.056	160.06
257.289	189.06
257.521	182.06
257.754	191.06
257.987	197.06
258.22	182.06
258.452	191.06
258.685	195.06
258.918	184.06
259.151	191.06
259.383	197.06
259.616	186.06
259.849	193.06
260.081	196.06
260.314	191.06
260.547	204.06
260.779	198.06
261.012	194.06
261.244	208.06
261.477	205.06
261.71	175.06
261.942	187.06
262.175	193.06
262.407	200.06
262.64	194.06
262.872	201.06
263.105	207.06
263.337	209.06
263.57	215.06
263.802	210.06
264.035	214.06
264.267	199.06
264.499	203.06
264.732	199.06
264.964	227.06
265.197	219.06
265.429	213.06
265.661	202.06
265.894	200.06
266.126	212.06
266.358	214.06
266.591	215.06
266.823	222.06
267.055	222.06
267.287	218.06
267.52	228.06
267.752	224.06
267.984	210.06
268.216	210.06
268.448	209.06
268.681	219.06
268.913	216.06
269.145	203.06
269.377	223.06
269.609	227.06
269.841	227.06
270.073	230.06
270.306	226.06
270.538	215.06
270.77	208.06
271.002	215.06
271.234	210.06
271.466	223.06
271.698	223.06
271.93	219.06
272.162	239.06
272.394	222.06
272.626	247.06
272.858	220.06
273.09	242.06
273.322	232.06
273.553	219.06
273.785	242.06
274.017	247.06
274.249	242.06
274.481	232.06
274.713	251.06
274.945	240.06
275.176	250.06
275.408	262.06
275.64	258.06
275.872	225.06
276.104	227.06
276.335	238.06
276.567	227.06
276.799	246.06
277.031	254.06
277.262	250.06
277.494	252.06
277.726	251.06
277.957	252.06
278.189	246.06
278.421	245.06
278.652	224.06
278.884	246.06
279.115	254.06
279.347	254.06
279.579	260.06
279.81	239.06
280.042	247.06
280.273	252.06
280.505	232.06
280.736	253.06
280.968	242.06
281.199	261.06
281.431	264.06
281.662	266.06
281.894	248.06
282.125	247.06
282.356	282.06
282.588	251.06
282.819	264.06
283.051	263.06
283.282	251.06
283.513	248.06
283.745	261.06
283.976	263.06
284.207	246.06
284.439	242.06
284.67	268.06
284.901	263.06
285.132	253.06
285.364	252.06
285.595	275.06
285.826	285.06
286.057	264.06
286.288	258.06
286.52	268.06
286.751	262.06
286.982	262.06
287.213	254.06
287.444	277.06
287.675	262.06
287.906	269.06
288.138	275.06
288.369	260.06
288.6	253.06
288.831	284.06
289.062	290.06
289.293	282.06
289.524	274.06
289.755	276.06
289.986	282.06
290.217	272.06
290.448	270.06
290.679	275.06
290.91	273.06
291.141	272.06
291.371	276.06
291.602	279.06
291.833	270.06
292.064	273.06
292.295	266.06
292.526	290.06
292.757	289.06
292.987	273.06
293.218	269.06
293.449	264.06
293.68	283.06
293.91	283.06
294.141	271.06
294.372	288.06
294.603	278.06
294.833	287.06
295.064	276.06
295.295	288.06
295.525	285.06
295.756	280.06
295.987	280.06
296.217	287.06
296.448	280.06
296.679	279.06
296.909	278.06
297.14	286.06
297.37	285.06
297.601	295.06
297.831	285.06
298.062	282.06
298.292	299.06
298.523	295.06
298.753	279.06
298.984	296.06
299.214	293.06
299.445	299.06
299.675	321.06
299.905	301.06
300.136	280.06
300.366	309.06
300.597	287.06
300.827	303.06
301.057	309.06
301.288	300.06
301.518	296.06
301.748	305.06
301.979	318.06
302.209	311.06
302.439	301.06
302.669	308.06
302.9	304.06
303.13	308.06
303.36	303.06
303.59	295.06
303.82	297.06
304.051	338.06
304.281	303.06
304.511	301.06
304.741	318.06
304.971	308.06
305.201	308.06
305.431	322.06
305.661	302.06
305.891	303.06
306.121	311.06
306.352	327.06
306.582	320.06
306.812	311.06
307.042	306.06
307.272	291.06
307.502	302.06
307.731	306.06
307.961	322.06
308.191	303.06
308.421	306.06
308.651	298.06
308.881	301.06
309.111	312.06
309.341	308.06
309.571	299.06
309.8	306.06
310.03	325.06
310.26	342.06
310.49	327.06
310.72	326.06
310.949	306.06
311.179	324.06
311.409	309.06
311.639	306.06
311.868	329.06
312.098	325.06
312.328	334.06
312.557	318.06
312.787	323.06
313.017	337.06
313.246	340.06
313.476	337.06
313.706	336.06
313.935	335.06
314.165	354.06
314.394	344.06
314.624	359.06
314.853	342.06
315.083	351.06
315.312	340.06
315.542	351.06
315.771	343.06
316.001	342.06
316.23	336.06
316.46	334.06
316.689	342.06
316.919	347.06
317.148	348.06
317.377	346.06
317.607	335.06
317.836	323.06
318.065	351.06
318.295	342.06
318.524	340.06
318.753	353.06
318.983	339.06
319.212	347.06
319.441	343.06
319.67	352.06
319.9	351.06
320.129	361.06
320.358	364.06
320.587	370.06
320.816	350.06
321.046	363.06
321.275	351.06
321.504	361.06
321.733	373.06
321.962	365.06
322.191	374.06
322.42	370.06
322.649	365.06
322.878	370.06
323.108	370.06
323.337	380.06
323.566	389.06
323.795	386.06
324.024	376.06
324.253	390.06
324.482	404.06
324.71	364.06
324.939	376.06
325.168	395.06
325.397	378.06
325.626	384.06
325.855	400.06
326.084	413.06
326.313	395.06
326.542	404.06
326.77	408.06
326.999	418.06
327.228	407.06
327.457	417.06
327.686	422.06
327.914	419.06
328.143	423.06
328.372	407.06
328.6	411.06
328.829	408.06
329.058	422.06
329.287	411.06
329.515	422.06
329.744	443.06
329.972	440.06
330.201	442.06
330.43	448.06
330.658	426.06
330.887	452.06
331.115	450.06
331.344	459.06
331.572	456.06
331.801	451.06
332.03	462.06
332.258	466.06
332.486	483.06
332.715	509.06
332.943	492.06
333.172	522.06
333.4	544.06
333.629	547.06
333.857	530.06
334.085	534.06
334.314	568.06
334.542	539.06
334.771	543.06
334.999	537.06
335.227	546.06
335.455	564.06
335.684	530.06
335.912	560.06
336.14	526.06
336.369	539.06
336.597	528.06
336.825	543.06
337.053	519.06
337.281	517.06
337.51	503.06
337.738	497.06
337.966	486.06
338.194	527.06
338.422	520.06
338.65	485.06
338.878	491.06
339.106	464.06
339.334	489.06
339.562	492.06
339.79	490.06
340.018	470.06
340.246	461.06
340.474	498.06
340.702	452.06
340.93	482.06
341.158	474.06
341.386	487.06
341.614	496.06
341.842	483.06
342.07	471.06
342.298	460.06
342.526	452.06
342.754	469.06
342.981	472.06
343.209	472.06
343.437	497.06
343.665	513.06
343.893	537.06
344.12	552.06
344.348	519.06
344.576	529.06
344.804	520.06
345.031	493.06
345.259	502.06
345.487	469.06
345.714	467.06
345.942	470.06
346.17	475.06
346.397	469.06
346.625	464.06
346.853	426.06
347.08	457.06
347.308	458.06
347.535	445.06
347.763	471.06
347.99	452.06
348.218	439.06
348.445	461.06
348.673	465.06
348.9	455.06
349.128	458.06
349.355	450.06
349.583	460.06
349.81	453.06
350.037	422.06
350.265	421.06
350.492	448.06
350.72	452.06
350.947	422.06
351.174	432.06
351.402	469.06
351.629	464.06
351.856	445.06
352.083	449.06
352.311	462.06
352.538	452.06
352.765	445.06
352.992	454.06
353.22	438.06
353.447	443.06
353.674	424.06
353.901	454.06
354.128	443.06
354.355	418.06
354.583	414.06
354.81	438.06
355.037	426.06
355.264	438.06
355.491	440.06
355.718	444.06
355.945	444.06
356.172	432.06
356.399	442.06
356.626	453.06
356.853	435.06
357.08	435.06
357.307	452.06
357.534	446.06
357.761	434.06
357.988	438.06
358.215	452.06
358.441	435.06
358.668	431.06
358.895	444.06
359.122	461.06
359.349	444.06
359.576	444.06
359.802	447.06
360.029	416.06
360.256	441.06
360.483	444.06
360.709	456.06
360.936	440.06
361.163	439.06
361.39	444.06
361.616	451.06
361.843	426.06
362.07	428.06
362.296	437.06
362.523	416.06
362.749	425.06
362.976	429.06
363.203	421.06
363.429	432.06
363.656	450.06
363.882	425.06
364.109	422.06
364.335	424.06
364.562	436.06
364.788	419.06
365.015	427.06
365.241	442.06
365.468	418.06
365.694	416.06
365.92	454.06
366.147	434.06
366.373	417.06
366.599	420.06
366.826	451.06
367.052	455.06
367.278	421.06
367.505	428.06
367.731	407.06
367.957	428.06
368.184	446.06
368.41	431.06
368.636	447.06
368.862	417.06
369.089	446.06
369.315	440.06
369.541	446.06
369.767	422.06
369.993	454.06
370.219	446.06
370.445	461.06
370.672	465.06
370.898	458.06
371.124	457.06
371.35	468.06
371.576	452.06
371.802	463.06
372.028	490.06
372.254	457.06
372.48	467.06
372.706	472.06
372.932	454.06
373.158	458.06
373.384	463.06
373.61	452.06
373.835	462.06
374.061	459.06
374.287	462.06
374.513	496.06
374.739	487.06
374.965	473.06
375.191	498.06
375.416	494.06
375.642	478.06
375.868	481.06
376.094	485.06
376.319	450.06
376.545	451.06
376.771	462.06
376.997	435.06
377.222	453.06
377.448	458.06
377.674	444.06
377.899	450.06
378.125	435.06
378.35	442.06
378.576	423.06
378.802	450.06
379.027	456.06
379.253	448.06
379.478	438.06
379.704	438.06
379.929	452.06
380.155	441.06
380.38	440.06
380.606	439.06
380.831	446.06
381.057	438.06
381.282	436.06
381.507	450.06
381.733	438.06
381.958	442.06
382.184	453.06
382.409	447.06
382.634	450.06
382.86	468.06
383.085	484.06
383.31	461.06
383.535	464.06
383.761	471.06
383.986	486.06
384.211	502.06
384.436	489.06
384.662	499.06
384.887	511.06
385.112	514.06
385.337	503.06
385.562	505.06
385.787	521.06
386.013	537.06
386.238	547.06
386.463	508.06
386.688	514.06
386.913	503.06
387.138	503.06
387.363	503.06
387.588	506.06
387.813	504.06
388.038	520.06
388.263	507.06
388.488	517.06
388.713	534.06
388.938	525.06
389.163	518.06
389.387	516.06
389.612	503.06
389.837	516.06
390.062	529.06
390.287	530.06
390.512	529.06
390.736	538.06
390.961	546.06
391.186	536.06
391.411	556.06
391.636	559.06
391.86	584.06
392.085	566.06
392.31	595.06
392.534	526.06
392.759	563.06
392.984	567.06
393.208	568.06
393.433	544.06
393.658	541.06
393.882	552.06
394.107	558.06
394.331	582.06
394.556	547.06
394.78	536.06
395.005	566.06
395.229	573.06
395.454	580.06
395.678	581.06
395.903	584.06
396.127	558.06
396.352	560.06
396.576	566.06
396.801	568.06
397.025	578.06
397.249	583.06
397.474	595.06
397.698	559.06
397.922	611.06
398.147	597.06
398.371	594.06
398.595	623.06
398.82	645.06
399.044	679.06
399.268	728.06
399.492	818.06
399.717	847.06
399.941	869.06
400.165	808.06
400.389	761.06
400.613	717.06
400.837	684.06
401.062	672.06
401.286	666.06
401.51	651.06
401.734	653.06
401.958	652.06
402.182	677.06
402.406	672.06
402.63	671.06
402.854	688.06
403.078	670.06
403.302	678.06
403.526	726.06
403.75	688.06
403.974	696.06
404.198	722.06
404.422	705.06
404.645	695.06
404.869	694.06
405.093	686.06
405.317	702.06
405.541	722.06
405.765	696.06
405.988	694.06
406.212	712.06
406.436	695.06
406.66	702.06
406.883	709.06
407.107	736.06
407.331	797.06
407.555	823.06
407.778	775.06
408.002	777.06
408.226	776.06
408.449	755.06
408.673	752.06
408.896	726.06
409.12	732.06
409.344	738.06
409.567	765.06
409.791	730.06
410.014	735.06
410.238	728.06
410.461	727.06
410.685	710.06
410.908	706.06
411.132	708.06
411.355	687.06
411.578	686.06
411.802	700.06
412.025	679.06
412.249	698.06
412.472	696.06
412.695	710.06
412.919	665.06
413.142	687.06
413.365	674.06
413.589	686.06
413.812	671.06
414.035	640.06
414.258	667.06
414.482	650.06
414.705	685.06
414.928	680.06
415.151	663.06
415.374	694.06
415.597	672.06
415.821	674.06
416.044	672.06
416.267	664.06
416.49	668.06
416.713	665.06
416.936	670.06
417.159	656.06
417.382	670.06
417.605	670.06
417.828	648.06
418.051	666.06
418.274	659.06
418.497	650.06
418.72	670.06
418.943	677.06
419.166	700.06
419.389	756.06
419.611	749.06
419.834	730.06
420.057	690.06
420.28	670.06
420.503	662.06
420.726	667.06
420.948	683.06
421.171	694.06
421.394	670.06
421.617	680.06
421.839	680.06
422.062	658.06
422.285	654.06
422.507	691.06
422.73	655.06
422.953	662.06
423.175	666.06
423.398	694.06
423.621	682.06
423.843	692.06
424.066	697.06
424.288	711.06
424.511	681.06
424.733	684.06
424.956	674.06
425.178	684.06
425.401	678.06
425.623	670.06
425.846	660.06
426.068	658.06
426.291	654.06
426.513	642.06
426.735	656.06
426.958	648.06
427.18	628.06
427.402	663.06
427.625	640.06
427.847	630.06
428.069	627.06
428.292	605.06
428.514	619.06
428.736	621.06
428.958	648.06
429.181	620.06
429.403	618.06
429.625	611.06
429.847	608.06
430.069	629.06
430.292	622.06
430.514	638.06
430.736	621.06
430.958	633.06
431.18	611.06
431.402	620.06
431.624	641.06
431.846	639.06
432.068	648.06
432.29	630.06
432.512	626.06
432.734	634.06
432.956	626.06
433.178	660.06
433.4	645.06
433.622	636.06
433.844	664.06
434.066	640.06
434.287	639.06
434.509	669.06
434.731	682.06
434.953	686.06
435.175	692.06
435.397	697.06
435.618	663.06
435.84	664.06
436.062	641.06
436.284	657.06
436.505	636.06
436.727	636.06
436.949	639.06
437.17	642.06
437.392	635.06
437.614	621.06
437.835	612.06
438.057	620.06
438.278	612.06
438.5	628.06
438.721	640.06
438.943	622.06
439.165	622.06
439.386	637.06
439.608	639.06
439.829	643.06
440.05	639.06
440.272	634.06
440.493	654.06
440.715	667.06
440.936	653.06
441.158	663.06
441.379	667.06
441.6	734.06
441.822	703.06
442.043	726.06
442.264	726.06
442.486	704.06
442.707	676.06
442.928	697.06
443.149	691.06
443.371	697.06
443.592	692.06
443.813	695.06
444.034	706.06
444.255	745.06
444.476	739.06
444.698	762.06
444.919	809.06
445.14	904.06
445.361	815.06
445.582	745.06
445.803	698.06
446.024	679.06
446.245	678.06
446.466	670.06
446.687	641.06
446.908	678.06
447.129	655.06
447.35	661.06
447.571	638.06
447.792	626.06
448.013	616.06
448.234	614.06
448.455	639.06
448.675	630.06
448.896	626.06
449.117	610.06
449.338	622.06
449.559	596.06
449.779	607.06
450	608.06
450.221	594.06
450.442	596.06
450.662	602.06
450.883	587.06
451.104	637.06
451.324	610.06
451.545	604.06
451.766	609.06
451.986	588.06
452.207	596.06
452.428	585.06
452.648	584.06
452.869	599.06
453.089	555.06
453.31	564.06
453.53	588.06
453.751	568.06
453.971	564.06
454.192	577.06
454.412	556.06
454.633	550.06
454.853	576.06
455.073	580.06
455.294	575.06
455.514	555.06
455.734	561.06
455.955	543.06
456.175	548.06
456.395	549.06
456.616	544.06
456.836	558.06
457.056	559.06
457.276	548.06
457.497	557.06
457.717	561.06
457.937	578.06
458.157	586.06
458.377	587.06
458.598	604.06
458.818	585.06
459.038	615.06
459.258	616.06
459.478	629.06
459.698	662.06
459.918	692.06
460.138	719.06
460.358	720.06
460.578	720.06
460.798	716.06
461.018	718.06
461.238	741.06
461.458	748.06
461.678	731.06
461.898	782.06
462.118	793.06
462.338	779.06
462.558	794.06
462.777	821.06
462.997	867.06
463.217	922.06
463.437	889.06
463.657	893.06
463.876	853.06
464.096	858.06
464.316	851.06
464.536	838.06
464.755	821.06
464.975	763.06
465.195	739.06
465.414	738.06
465.634	704.06
465.854	692.06
466.073	683.06
466.293	664.06
466.512	656.06
466.732	630.06
466.951	639.06
467.171	633.06
467.391	630.06
467.61	614.06
467.829	619.06
468.049	631.06
468.268	600.06
468.488	598.06
468.707	632.06
468.927	592.06
469.146	597.06
469.365	605.06
469.585	622.06
469.804	643.06
470.023	639.06
470.243	651.06
470.462	651.06
470.681	632.06
470.901	630.06
471.12	635.06
471.339	638.06
471.558	621.06
471.777	621.06
471.997	623.06
472.216	628.06
472.435	607.06
472.654	624.06
472.873	598.06
473.092	588.06
473.311	566.06
473.53	603.06
473.749	599.06
473.968	606.06
474.187	600.06
474.406	577.06
474.625	588.06
474.844	587.06
475.063	597.06
475.282	606.06
475.501	600.06
475.72	630.06
475.939	606.06
476.158	592.06
476.377	624.06
476.596	611.06
476.814	631.06
477.033	623.06
477.252	653.06
477.471	657.06
477.69	642.06
477.908	664.06
478.127	690.06
478.346	683.06
478.564	692.06
478.783	697.06
479.002	731.06
479.22	713.06
479.439	732.06
479.658	739.06
479.876	735.06
480.095	718.06
480.313	758.06
480.532	754.06
480.751	716.06
480.969	720.06
481.188	692.06
481.406	695.06
481.624	703.06
481.843	666.06
482.061	650.06
482.28	682.06
482.498	652.06
482.717	667.06
482.935	677.06
483.153	691.06
483.372	676.06
483.59	675.06
483.808	665.06
484.027	648.06
484.245	664.06
484.463	695.06
484.681	692.06
484.9	702.06
485.118	692.06
485.336	700.06
485.554	668.06
485.772	692.06
485.99	684.06
486.209	702.06
486.427	669.06
486.645	688.06
486.863	695.06
487.081	696.06
487.299	698.06
487.517	681.06
487.735	705.06
487.953	709.06
488.171	726.06
488.389	710.06
488.607	706.06
488.825	678.06
489.043	700.06
489.261	701.06
489.479	687.06
489.696	684.06
489.914	696.06
490.132	679.06
490.35	715.06
490.568	716.06
490.786	720.06
491.003	751.06
491.221	731.06
491.439	723.06
491.657	735.06
491.874	729.06
492.092	745.06
492.31	771.06
492.527	766.06
492.745	762.06
492.963	735.06
493.18	735.06
493.398	740.06
493.615	752.06
493.833	742.06
494.05	746.06
494.268	777.06
494.485	769.06
494.703	762.06
494.92	776.06
495.138	762.06
495.355	771.06
495.573	774.06
495.79	798.06
496.008	769.06
496.225	765.06
496.442	815.06
496.66	811.06
496.877	811.06
497.094	820.06
497.312	839.06
497.529	866.06
497.746	860.06
497.963	909.06
498.181	914.06
498.398	951.06
498.615	1033.06
498.832	1058.06
499.049	1128.06
499.267	1199.06
499.484	1276.06
499.701	1372.06
499.918	1466.06
500.135	1616.06
500.352	1769.06
500.569	1839.06
500.786	1818.06
501.003	1738.06
501.22	1596.06
501.437	1495.06
501.654	1325.06
501.871	1280.06
502.088	1169.06
502.305	1113.06
502.522	1076.06
502.739	1003.06
502.956	988.06
503.172	945.06
503.389	912.06
503.606	895.06
503.823	863.06
504.04	857.06
504.256	869.06
504.473	868.06
504.69	875.06
504.907	845.06
505.123	815.06
505.34	789.06
505.557	735.06
505.773	735.06
505.99	720.06
506.207	708.06
506.423	732.06
506.64	701.06
506.856	665.06
507.073	698.06
507.289	669.06
507.506	692.06
507.722	658.06
507.939	660.06
508.155	655.06
508.372	668.06
508.588	685.06
508.805	645.06
509.021	631.06
509.238	648.06
509.454	611.06
509.67	620.06
509.887	642.06
510.103	631.06
510.319	604.06
510.536	616.06
510.752	617.06
510.968	593.06
511.184	606.06
511.401	614.06
511.617	604.06
511.833	599.06
512.049	611.06
512.265	634.06
512.481	598.06
512.698	602.06
512.914	611.06
513.13	612.06
513.346	620.06
513.562	608.06
513.778	617.06
513.994	634.06
514.21	606.06
514.426	598.06
514.642	634.06
514.858	621.06
515.074	627.06
515.29	633.06
515.506	637.06
515.721	648.06
515.937	663.06
516.153	652.06
516.369	692.06
516.585	688.06
516.801	674.06
517.016	757.06
517.232	742.06
517.448	782.06
517.664	791.06
517.879	792.06
518.095	779.06
518.311	778.06
518.527	742.06
518.742	715.06
518.958	700.06
519.173	707.06
519.389	691.06
519.605	658.06
519.82	648.06
520.036	657.06
520.251	630.06
520.467	608.06
520.682	631.06
520.898	627.06
521.113	608.06
521.329	605.06
521.544	592.06
521.76	587.06
521.975	598.06
522.19	575.06
522.406	579.06
522.621	588.06
522.836	571.06
523.052	579.06
523.267	575.06
523.482	564.06
523.698	592.06
523.913	573.06
524.128	567.06
524.343	558.06
524.559	564.06
524.774	546.06
524.989	575.06
525.204	578.06
525.419	548.06
525.634	572.06
525.849	574.06
526.064	540.06
526.28	557.06
526.495	542.06
526.71	562.06
526.925	541.06
527.14	550.06
527.355	574.06
527.57	540.06
527.785	548.06
527.999	541.06
528.214	547.06
528.429	562.06
528.644	550.06
528.859	550.06
529.074	571.06
529.289	577.06
529.503	565.06
529.718	572.06
529.933	534.06
530.148	548.06
530.363	544.06
530.577	541.06
530.792	551.06
531.007	554.06
531.221	558.06
531.436	560.06
531.651	567.06
531.865	555.06
532.08	544.06
532.295	549.06
532.509	539.06
532.724	552.06
532.938	562.06
533.153	554.06
533.367	567.06
533.582	525.06
533.796	565.06
534.011	544.06
534.225	555.06
534.44	533.06
534.654	569.06
534.868	516.06
535.083	534.06
535.297	534.06
535.511	550.06
535.726	557.06
535.94	515.06
536.154	536.06
536.369	539.06
536.583	502.06
536.797	519.06
537.011	523.06
537.225	516.06
537.44	520.06
537.654	515.06
537.868	508.06
538.082	511.06
538.296	525.06
538.51	523.06
538.724	541.06
538.938	517.06
539.153	496.06
539.367	511.06
539.581	503.06
539.795	518.06
540.009	505.06
540.222	501.06
540.436	510.06
540.65	522.06
540.864	515.06
541.078	505.06
541.292	517.06
541.506	508.06
541.72	536.06
541.934	514.06
542.147	518.06
542.361	543.06
542.575	535.06
542.789	503.06
543.002	522.06
543.216	502.06
543.43	518.06
543.644	510.06
543.857	549.06
544.071	508.06
544.285	500.06
544.498	520.06
544.712	508.06
544.925	546.06
545.139	518.06
545.352	548.06
545.566	531.06
545.779	529.06
545.993	551.06
546.206	528.06
546.42	514.06
546.633	529.06
546.847	536.06
547.06	525.06
547.274	514.06
547.487	529.06
547.7	520.06
547.914	543.06
548.127	527.06
548.34	538.06
548.554	512.06
548.767	532.06
548.98	529.06
549.193	534.06
549.407	533.06
549.62	526.06
549.833	538.06
550.046	511.06
550.259	524.06
550.473	525.06
550.686	537.06
550.899	526.06
551.112	535.06
551.325	516.06
551.538	535.06
551.751	510.06
551.964	509.06
552.177	514.06
552.39	532.06
552.603	522.06
552.816	553.06
553.029	569.06
553.242	567.06
553.455	544.06
553.667	563.06
553.88	547.06
554.093	552.06
554.306	536.06
554.519	538.06
554.732	524.06
554.944	521.06
555.157	511.06
555.37	491.06
555.583	508.06
555.795	508.06
556.008	489.06
556.221	461.06
556.433	462.06
556.646	486.06
556.859	459.06
557.071	452.06
557.284	456.06
557.496	446.06
557.709	461.06
557.921	478.06
558.134	443.06
558.346	449.06
558.559	454.06
558.771	469.06
558.984	421.06
559.196	427.06
559.409	422.06
559.621	440.06
559.833	438.06
560.046	446.06
560.258	420.06
560.47	454.06
560.683	458.06
560.895	434.06
561.107	452.06
561.32	436.06
561.532	419.06
561.744	451.06
561.956	443.06
562.168	442.06
562.381	455.06
562.593	440.06
562.805	438.06
563.017	447.06
563.229	439.06
563.441	428.06
563.653	439.06
563.865	424.06
564.077	461.06
564.289	443.06
564.501	472.06
564.713	448.06
564.925	468.06
565.137	471.06
565.349	488.06
565.561	488.06
565.773	517.06
565.985	509.06
566.197	566.06
566.408	564.06
566.62	599.06
566.832	628.06
567.044	642.06
567.255	630.06
567.467	646.06
567.679	691.06
567.891	661.06
568.102	686.06
568.314	662.06
568.526	594.06
568.737	586.06
568.949	552.06
569.161	506.06
569.372	481.06
569.584	470.06
569.795	467.06
570.007	468.06
570.218	450.06
570.43	434.06
570.641	436.06
570.853	436.06
571.064	434.06
571.276	452.06
571.487	420.06
571.698	415.06
571.91	397.06
572.121	394.06
572.333	417.06
572.544	380.06
572.755	380.06
572.966	378.06
573.178	377.06
573.389	398.06
573.6	398.06
573.811	351.06
574.023	366.06
574.234	359.06
574.445	364.06
574.656	366.06
574.867	349.06
575.078	366.06
575.289	373.06
575.501	365.06
575.712	356.06
575.923	354.06
576.134	348.06
576.345	358.06
576.556	346.06
576.767	348.06
576.978	340.06
577.188	354.06
577.399	350.06
577.61	337.06
577.821	326.06
578.032	343.06
578.243	339.06
578.454	317.06
578.665	338.06
578.875	333.06
579.086	328.06
579.297	330.06
579.508	318.06
579.718	326.06
579.929	334.06
580.14	315.06
580.35	311.06
580.561	309.06
580.772	330.06
580.982	326.06
581.193	322.06
581.403	328.06
581.614	323.06
581.825	306.06
582.035	317.06
582.246	304.06
582.456	317.06
582.667	328.06
582.877	304.06
583.087	322.06
583.298	304.06
583.508	290.06
583.719	304.06
583.929	294.06
584.139	306.06
584.35	295.06
584.56	314.06
584.77	300.06
584.981	308.06
585.191	312.06
585.401	284.06
585.611	307.06
585.821	309.06
586.032	315.06
586.242	297.06
586.452	311.06
586.662	303.06
586.872	293.06
587.082	310.06
587.292	307.06
587.502	301.06
587.713	293.06
587.923	296.06
588.133	299.06
588.343	294.06
588.553	291.06
588.762	303.06
588.972	306.06
589.182	291.06
589.392	306.06
589.602	296.06
589.812	308.06
590.022	285.06
590.232	296.06
590.441	295.06
590.651	286.06
590.861	297.06
591.071	308.06
591.281	314.06
591.49	286.06
591.7	296.06
591.91	323.06
592.119	300.06
592.329	329.06
592.539	319.06
592.748	345.06
592.958	334.06
593.167	327.06
593.377	350.06
593.587	325.06
593.796	347.06
594.006	340.06
594.215	333.06
594.424	333.06
594.634	358.06
594.843	326.06
595.053	331.06
595.262	322.06
595.472	304.06
595.681	297.06
595.89	306.06
596.1	303.06
596.309	295.06
596.518	286.06
596.727	296.06
596.937	270.06
597.146	254.06
597.355	288.06
597.564	275.06
597.774	277.06
597.983	272.06
598.192	277.06
598.401	272.06
598.61	267.06
598.819	258.06
599.028	250.06
599.237	254.06
599.446	285.06
599.655	250.06
599.864	250.06
600.073	270.06
600.282	250.06
600.491	258.06
600.7	259.06
600.909	246.06
601.118	247.06
601.327	251.06
601.536	243.06
601.745	249.06
601.953	245.06
602.162	247.06
602.371	266.06
602.58	237.06
602.789	252.06
602.997	252.06
603.206	259.06
603.415	253.06
603.623	232.06
603.832	255.06
604.041	238.06
604.249	230.06
604.458	237.06
604.666	214.06
604.875	228.06
605.084	239.06
605.292	232.06
605.501	221.06
605.709	242.06
605.918	241.06
606.126	249.06
606.334	248.06
606.543	235.06
606.751	229.06
606.96	231.06
607.168	231.06
607.376	245.06
607.585	206.06
607.793	238.06
608.001	230.06
608.21	213.06
608.418	233.06
608.626	244.06
608.834	232.06
609.043	227.06
609.251	232.06
609.459	217.06
609.667	218.06
609.875	229.06
610.083	235.06
610.291	237.06
610.499	231.06
610.707	224.06
610.916	237.06
611.124	203.06
611.332	240.06
611.54	226.06
611.748	221.06
611.955	228.06
612.163	212.06
612.371	238.06
612.579	215.06
612.787	212.06
612.995	216.06
613.203	224.06
613.411	225.06
613.618	228.06
613.826	228.06
614.034	222.06
614.242	221.06
614.449	224.06
614.657	231.06
614.865	227.06
615.072	220.06
615.28	234.06
615.488	231.06
615.695	227.06
615.903	221.06
616.111	230.06
616.318	237.06
616.526	221.06
616.733	222.06
616.941	229.06
617.148	215.06
617.356	202.06
617.563	223.06
617.771	198.06
617.978	223.06
618.185	236.06
618.393	217.06
618.6	223.06
618.807	212.06
619.015	218.06
619.222	216.06
619.429	203.06
619.637	204.06
619.844	211.06
620.051	213.06
620.258	201.06
620.466	222.06
620.673	193.06
620.88	199.06
621.087	217.06
621.294	211.06
621.501	205.06
621.708	212.06
621.915	206.06
622.122	219.06
622.329	224.06
622.536	194.06
622.743	204.06
622.95	211.06
623.157	205.06
623.364	218.06
623.571	207.06
623.778	208.06
623.985	225.06
624.192	206.06
624.399	210.06
624.606	214.06
624.812	204.06
625.019	199.06
625.226	204.06
625.433	206.06
625.639	194.06
625.846	190.06
626.053	200.06
626.259	189.06
626.466	202.06
626.673	214.06
626.879	184.06
627.086	199.06
627.293	185.06
627.499	173.06
627.706	192.06
627.912	181.06
628.119	183.06
628.325	188.06
628.532	191.06
628.738	189.06
628.945	180.06
629.151	196.06
629.357	173.06
629.564	190.06
629.77	180.06
629.976	194.06
630.183	182.06
630.389	189.06
630.595	191.06
630.802	182.06
631.008	174.06
631.214	175.06
631.42	168.06
631.627	188.06
631.833	180.06
632.039	195.06
632.245	194.06
632.451	180.06
632.657	182.06
632.863	189.06
633.069	185.06
633.275	166.06
633.481	164.06
633.688	166.06
633.893	189.06
634.099	181.06
634.305	181.06
634.511	169.06
634.717	180.06
634.923	186.06
635.129	174.06
635.335	181.06
635.541	182.06
635.747	167.06
635.952	178.06
636.158	168.06
636.364	164.06
636.57	173.06
636.775	173.06
636.981	176.06
637.187	167.06
637.392	178.06
637.598	173.06
637.804	172.06
638.009	156.06
638.215	165.06
638.421	160.06
638.626	167.06
638.832	169.06
639.037	161.06
639.243	173.06
639.448	171.06
639.654	173.06
639.859	178.06
640.065	154.06
640.27	167.06
640.475	162.06
640.681	152.06
640.886	164.06
641.091	161.06
641.297	159.06
641.502	168.06
641.707	180.06
641.913	158.06
642.118	141.06
642.323	147.06
642.528	175.06
642.733	176.06
642.939	157.06
643.144	170.06
643.349	170.06
643.554	155.06
643.759	157.06
643.964	151.06
644.169	162.06
644.374	174.06
644.579	140.06
644.784	162.06
644.989	164.06
645.194	166.06
645.399	147.06
645.604	158.06
645.809	158.06
646.014	161.06
646.219	161.06
646.423	154.06
646.628	148.06
646.833	157.06
647.038	152.06
647.243	160.06
647.447	154.06
647.652	156.06
647.857	153.06
648.062	170.06
648.266	157.06
648.471	157.06
648.676	170.06
648.88	162.06
649.085	142.06
649.289	156.06
649.494	150.06
649.698	146.06
649.903	158.06
650.107	137.06
650.312	149.06
650.516	156.06
650.721	142.06
650.925	140.06
651.13	159.06
651.334	142.06
651.539	145.06
651.743	143.06
651.947	133.06
652.152	138.06
652.356	130.06
652.56	153.06
652.764	139.06
652.969	141.06
653.173	131.06
653.377	136.06
653.581	137.06
653.785	137.06
653.99	118.06
654.194	126.06
654.398	135.06
654.602	126.06
654.806	128.06
655.01	124.06
655.214	131.06
655.418	142.06
655.622	115.06
655.826	135.06
656.03	121.06
656.234	130.06
656.438	119.06
656.642	118.06
656.846	111.06
657.049	126.06
657.253	120.06
657.457	112.06
657.661	105.06
657.865	98.06
658.068	110.06
658.272	102.06
658.476	113.06
658.68	110.06
658.883	110.06
659.087	90.06
659.291	100.06
659.494	96.06
659.698	85.06
659.901	107.06
660.105	95.06
660.309	97.06
660.512	98.06
660.716	88.06
660.919	104.06
661.123	109.06
661.326	91.06
661.53	101.06
661.733	88.06
661.936	84.06
662.14	71.06
662.343	84.06
662.546	89.06
662.75	87.06
662.953	93.06
663.156	85.06
663.36	90.06
663.563	87.06
663.766	74.06
663.969	82.06
664.173	83.06
664.376	85.06
664.579	102.06
664.782	77.06
664.985	89.06
665.188	85.06
665.391	67.06
665.594	83.06
665.797	91.06
666	95.06
666.203	81.06
666.406	70.06
666.609	87.06
666.812	82.06
667.015	84.06
667.218	83.06
667.421	97.06
667.624	85.06
667.827	85.06
668.03	80.06
668.232	103.06
668.435	90.06
668.638	88.06
668.841	95.06
669.043	92.06
669.246	74.06
669.449	79.06
669.651	87.06
669.854	78.06
670.057	75.06
670.259	94.06
670.462	86.06
670.665	86.06
670.867	83.06
671.07	84.06
671.272	83.06
671.475	82.06
671.677	90.06
671.88	87.06
672.082	71.06
672.284	71.06
672.487	80.06
672.689	79.06
672.892	87.06
