Data from Ni(NO3)2@0.125M.TitratingCurve.Agarose3%dH2O.NegLispCup.LampEnergy10.LIBS07252019_HRD10591_18-09-12-567.txt Node
Date: Thu Jul 25 18:09:12 EDT 2019
User: cochatt
Spectrometer: HR+D1059
Trigger mode: 1
Integration Time (sec): 1.000000E-1
Scans to average: 1
Electric dark correction enabled: true
Nonlinearity correction enabled: false
Boxcar width: 0
XAxis mode: Wavelengths
Number of Pixels in Spectrum: 2048
>>>>>Begin Spectral Data<<<<<
223.165	-11.88
223.4	-11.88
223.635	-11.88
223.869	-11.88
224.104	-11.88
224.338	-24.88
224.573	-12.88
224.808	-11.88
225.042	-13.88
225.277	-15.88
225.511	-0.88
225.746	12.12
225.98	11.12
226.215	12.12
226.449	12.12
226.683	14.12
226.918	27.12
227.152	27.12
227.387	33.12
227.621	32.12
227.856	37.12
228.09	41.12
228.324	30.12
228.559	59.12
228.793	74.12
229.027	87.12
229.262	101.12
229.496	93.12
229.73	104.12
229.964	111.12
230.199	103.12
230.433	117.12
230.667	120.12
230.901	106.12
231.136	123.12
231.37	133.12
231.604	125.12
231.838	127.12
232.072	121.12
232.306	130.12
232.541	125.12
232.775	123.12
233.009	136.12
233.243	137.12
233.477	128.12
233.711	128.12
233.945	128.12
234.179	138.12
234.413	121.12
234.647	140.12
234.881	127.12
235.115	134.12
235.349	121.12
235.583	135.12
235.817	144.12
236.051	125.12
236.285	146.12
236.519	129.12
236.753	124.12
236.987	127.12
237.221	129.12
237.455	160.12
237.689	136.12
237.922	129.12
238.156	136.12
238.39	138.12
238.624	141.12
238.858	138.12
239.091	139.12
239.325	145.12
239.559	150.12
239.793	144.12
240.027	147.12
240.26	147.12
240.494	146.12
240.728	162.12
240.961	174.12
241.195	151.12
241.429	161.12
241.662	154.12
241.896	147.12
242.13	143.12
242.363	153.12
242.597	151.12
242.83	166.12
243.064	182.12
243.298	173.12
243.531	168.12
243.765	166.12
243.998	159.12
244.232	176.12
244.465	180.12
244.699	178.12
244.932	178.12
245.166	182.12
245.399	183.12
245.633	176.12
245.866	191.12
246.099	170.12
246.333	172.12
246.566	187.12
246.8	206.12
247.033	192.12
247.266	195.12
247.5	189.12
247.733	172.12
247.966	183.12
248.2	187.12
248.433	215.12
248.666	197.12
248.899	191.12
249.133	196.12
249.366	209.12
249.599	210.12
249.832	188.12
250.066	194.12
250.299	201.12
250.532	202.12
250.765	193.12
250.998	226.12
251.231	214.12
251.465	215.12
251.698	207.12
251.931	231.12
252.164	226.12
252.397	235.12
252.63	240.12
252.863	224.12
253.096	245.12
253.329	240.12
253.562	225.12
253.795	233.12
254.028	234.12
254.261	223.12
254.494	241.12
254.727	257.12
254.96	246.12
255.193	245.12
255.426	241.12
255.659	232.12
255.892	253.12
256.124	256.12
256.357	243.12
256.59	264.12
256.823	231.12
257.056	262.12
257.289	231.12
257.521	259.12
257.754	255.12
257.987	263.12
258.22	245.12
258.452	283.12
258.685	275.12
258.918	272.12
259.151	246.12
259.383	235.12
259.616	257.12
259.849	266.12
260.081	265.12
260.314	271.12
260.547	285.12
260.779	265.12
261.012	279.12
261.244	275.12
261.477	272.12
261.71	279.12
261.942	265.12
262.175	273.12
262.407	276.12
262.64	267.12
262.872	275.12
263.105	280.12
263.337	314.12
263.57	280.12
263.802	288.12
264.035	293.12
264.267	287.12
264.499	269.12
264.732	289.12
264.964	277.12
265.197	308.12
265.429	304.12
265.661	313.12
265.894	297.12
266.126	292.12
266.358	289.12
266.591	331.12
266.823	307.12
267.055	314.12
267.287	309.12
267.52	290.12
267.752	304.12
267.984	312.12
268.216	301.12
268.448	331.12
268.681	305.12
268.913	316.12
269.145	325.12
269.377	307.12
269.609	320.12
269.841	320.12
270.073	324.12
270.306	323.12
270.538	334.12
270.77	333.12
271.002	323.12
271.234	328.12
271.466	303.12
271.698	319.12
271.93	320.12
272.162	324.12
272.394	322.12
272.626	325.12
272.858	336.12
273.09	333.12
273.322	334.12
273.553	326.12
273.785	329.12
274.017	329.12
274.249	325.12
274.481	329.12
274.713	328.12
274.945	332.12
275.176	329.12
275.408	325.12
275.64	340.12
275.872	348.12
276.104	330.12
276.335	347.12
276.567	351.12
276.799	339.12
277.031	361.12
277.262	360.12
277.494	342.12
277.726	370.12
277.957	356.12
278.189	361.12
278.421	337.12
278.652	380.12
278.884	377.12
279.115	347.12
279.347	375.12
279.579	357.12
279.81	343.12
280.042	373.12
280.273	371.12
280.505	390.12
280.736	371.12
280.968	347.12
281.199	374.12
281.431	369.12
281.662	381.12
281.894	378.12
282.125	386.12
282.356	385.12
282.588	383.12
282.819	403.12
283.051	380.12
283.282	387.12
283.513	389.12
283.745	374.12
283.976	394.12
284.207	373.12
284.439	386.12
284.67	405.12
284.901	394.12
285.132	392.12
285.364	408.12
285.595	404.12
285.826	405.12
286.057	408.12
286.288	400.12
286.52	428.12
286.751	395.12
286.982	405.12
287.213	426.12
287.444	415.12
287.675	412.12
287.906	423.12
288.138	426.12
288.369	428.12
288.6	421.12
288.831	434.12
289.062	413.12
289.293	420.12
289.524	428.12
289.755	417.12
289.986	421.12
290.217	397.12
290.448	435.12
290.679	426.12
290.91	423.12
291.141	411.12
291.371	426.12
291.602	433.12
291.833	433.12
292.064	443.12
292.295	437.12
292.526	445.12
292.757	457.12
292.987	416.12
293.218	428.12
293.449	432.12
293.68	433.12
293.91	441.12
294.141	426.12
294.372	449.12
294.603	425.12
294.833	434.12
295.064	433.12
295.295	437.12
295.525	432.12
295.756	449.12
295.987	452.12
296.217	457.12
296.448	435.12
296.679	428.12
296.909	433.12
297.14	443.12
297.37	439.12
297.601	470.12
297.831	445.12
298.062	469.12
298.292	475.12
298.523	493.12
298.753	480.12
298.984	467.12
299.214	460.12
299.445	470.12
299.675	472.12
299.905	458.12
300.136	452.12
300.366	467.12
300.597	473.12
300.827	506.12
301.057	516.12
301.288	511.12
301.518	479.12
301.748	513.12
301.979	519.12
302.209	487.12
302.439	482.12
302.669	489.12
302.9	473.12
303.13	474.12
303.36	475.12
303.59	461.12
303.82	468.12
304.051	492.12
304.281	484.12
304.511	476.12
304.741	481.12
304.971	487.12
305.201	488.12
305.431	466.12
305.661	459.12
305.891	482.12
306.121	463.12
306.352	469.12
306.582	480.12
306.812	476.12
307.042	476.12
307.272	463.12
307.502	468.12
307.731	484.12
307.961	479.12
308.191	475.12
308.421	454.12
308.651	473.12
308.881	467.12
309.111	479.12
309.341	453.12
309.571	475.12
309.8	481.12
310.03	477.12
310.26	476.12
310.49	479.12
310.72	483.12
310.949	471.12
311.179	481.12
311.409	455.12
311.639	480.12
311.868	488.12
312.098	493.12
312.328	490.12
312.557	495.12
312.787	487.12
313.017	517.12
313.246	509.12
313.476	513.12
313.706	515.12
313.935	525.12
314.165	513.12
314.394	522.12
314.624	521.12
314.853	504.12
315.083	500.12
315.312	499.12
315.542	499.12
315.771	493.12
316.001	525.12
316.23	514.12
316.46	481.12
316.689	487.12
316.919	482.12
317.148	505.12
317.377	508.12
317.607	500.12
317.836	500.12
318.065	488.12
318.295	498.12
318.524	524.12
318.753	485.12
318.983	489.12
319.212	487.12
319.441	496.12
319.67	503.12
319.9	486.12
320.129	507.12
320.358	506.12
320.587	505.12
320.816	481.12
321.046	497.12
321.275	515.12
321.504	487.12
321.733	529.12
321.962	509.12
322.191	529.12
322.42	516.12
322.649	539.12
322.878	521.12
323.108	535.12
323.337	525.12
323.566	525.12
323.795	521.12
324.024	541.12
324.253	537.12
324.482	522.12
324.71	526.12
324.939	550.12
325.168	560.12
325.397	509.12
325.626	544.12
325.855	544.12
326.084	562.12
326.313	556.12
326.542	568.12
326.77	593.12
326.999	552.12
327.228	536.12
327.457	535.12
327.686	547.12
327.914	557.12
328.143	571.12
328.372	550.12
328.6	547.12
328.829	561.12
329.058	586.12
329.287	549.12
329.515	561.12
329.744	559.12
329.972	578.12
330.201	562.12
330.43	577.12
330.658	571.12
330.887	584.12
331.115	582.12
331.344	576.12
331.572	604.12
331.801	589.12
332.03	627.12
332.258	643.12
332.486	676.12
332.715	703.12
332.943	714.12
333.172	708.12
333.4	771.12
333.629	778.12
333.857	802.12
334.085	782.12
334.314	759.12
334.542	728.12
334.771	729.12
334.999	704.12
335.227	711.12
335.455	732.12
335.684	710.12
335.912	713.12
336.14	696.12
336.369	690.12
336.597	703.12
336.825	698.12
337.053	708.12
337.281	676.12
337.51	677.12
337.738	651.12
337.966	647.12
338.194	619.12
338.422	641.12
338.65	621.12
338.878	619.12
339.106	605.12
339.334	627.12
339.562	623.12
339.79	612.12
340.018	599.12
340.246	587.12
340.474	610.12
340.702	599.12
340.93	614.12
341.158	619.12
341.386	604.12
341.614	611.12
341.842	613.12
342.07	585.12
342.298	584.12
342.526	599.12
342.754	603.12
342.981	587.12
343.209	589.12
343.437	629.12
343.665	684.12
343.893	737.12
344.12	769.12
344.348	706.12
344.576	669.12
344.804	659.12
345.031	627.12
345.259	634.12
345.487	591.12
345.714	593.12
345.942	603.12
346.17	619.12
346.397	588.12
346.625	618.12
346.853	595.12
347.08	547.12
347.308	592.12
347.535	587.12
347.763	605.12
347.99	605.12
348.218	613.12
348.445	600.12
348.673	577.12
348.9	600.12
349.128	587.12
349.355	578.12
349.583	592.12
349.81	579.12
350.037	563.12
350.265	575.12
350.492	562.12
350.72	563.12
350.947	549.12
351.174	571.12
351.402	563.12
351.629	556.12
351.856	554.12
352.083	541.12
352.311	554.12
352.538	577.12
352.765	573.12
352.992	576.12
353.22	547.12
353.447	538.12
353.674	540.12
353.901	562.12
354.128	554.12
354.355	575.12
354.583	580.12
354.81	571.12
355.037	574.12
355.264	547.12
355.491	573.12
355.718	553.12
355.945	570.12
356.172	581.12
356.399	565.12
356.626	570.12
356.853	567.12
357.08	555.12
357.307	559.12
357.534	551.12
357.761	567.12
357.988	563.12
358.215	562.12
358.441	580.12
358.668	561.12
358.895	563.12
359.122	550.12
359.349	563.12
359.576	569.12
359.802	562.12
360.029	559.12
360.256	559.12
360.483	590.12
360.709	567.12
360.936	543.12
361.163	552.12
361.39	543.12
361.616	575.12
361.843	577.12
362.07	564.12
362.296	573.12
362.523	559.12
362.749	556.12
362.976	575.12
363.203	558.12
363.429	571.12
363.656	546.12
363.882	572.12
364.109	559.12
364.335	560.12
364.562	556.12
364.788	556.12
365.015	552.12
365.241	531.12
365.468	564.12
365.694	553.12
365.92	533.12
366.147	542.12
366.373	555.12
366.599	561.12
366.826	559.12
367.052	568.12
367.278	546.12
367.505	548.12
367.731	575.12
367.957	567.12
368.184	572.12
368.41	568.12
368.636	572.12
368.862	544.12
369.089	565.12
369.315	570.12
369.541	548.12
369.767	568.12
369.993	575.12
370.219	576.12
370.445	590.12
370.672	581.12
370.898	591.12
371.124	601.12
371.35	593.12
371.576	606.12
371.802	595.12
372.028	580.12
372.254	608.12
372.48	601.12
372.706	618.12
372.932	623.12
373.158	630.12
373.384	608.12
373.61	608.12
373.835	622.12
374.061	609.12
374.287	619.12
374.513	608.12
374.739	636.12
374.965	641.12
375.191	693.12
375.416	665.12
375.642	633.12
375.868	651.12
376.094	629.12
376.319	634.12
376.545	616.12
376.771	603.12
376.997	628.12
377.222	625.12
377.448	611.12
377.674	600.12
377.899	590.12
378.125	612.12
378.35	590.12
378.576	590.12
378.802	626.12
379.027	584.12
379.253	618.12
379.478	607.12
379.704	564.12
379.929	619.12
380.155	580.12
380.38	598.12
380.606	618.12
380.831	614.12
381.057	594.12
381.282	596.12
381.507	603.12
381.733	595.12
381.958	601.12
382.184	618.12
382.409	620.12
382.634	617.12
382.86	609.12
383.085	652.12
383.31	639.12
383.535	659.12
383.761	647.12
383.986	683.12
384.211	684.12
384.436	678.12
384.662	700.12
384.887	731.12
385.112	721.12
385.337	732.12
385.562	698.12
385.787	724.12
386.013	718.12
386.238	717.12
386.463	741.12
386.688	732.12
386.913	705.12
387.138	736.12
387.363	710.12
387.588	706.12
387.813	692.12
388.038	695.12
388.263	699.12
388.488	722.12
388.713	681.12
388.938	695.12
389.163	695.12
389.387	712.12
389.612	716.12
389.837	672.12
390.062	699.12
390.287	707.12
390.512	692.12
390.736	698.12
390.961	728.12
391.186	710.12
391.411	752.12
391.636	773.12
391.86	795.12
392.085	804.12
392.31	799.12
392.534	781.12
392.759	771.12
392.984	769.12
393.208	734.12
393.433	795.12
393.658	761.12
393.882	760.12
394.107	771.12
394.331	787.12
394.556	774.12
394.78	772.12
395.005	762.12
395.229	767.12
395.454	799.12
395.678	809.12
395.903	829.12
396.127	790.12
396.352	776.12
396.576	745.12
396.801	746.12
397.025	770.12
397.249	774.12
397.474	792.12
397.698	810.12
397.922	791.12
398.147	801.12
398.371	820.12
398.595	823.12
398.82	865.12
399.044	916.12
399.268	996.12
399.492	1184.12
399.717	1384.12
399.941	1393.12
400.165	1164.12
400.389	1061.12
400.613	971.12
400.837	933.12
401.062	873.12
401.286	887.12
401.51	854.12
401.734	895.12
401.958	888.12
402.182	924.12
402.406	927.12
402.63	941.12
402.854	967.12
403.078	960.12
403.302	1018.12
403.526	1043.12
403.75	1084.12
403.974	1074.12
404.198	1076.12
404.422	1091.12
404.645	1043.12
404.869	1013.12
405.093	1031.12
405.317	1003.12
405.541	1013.12
405.765	988.12
405.988	1002.12
406.212	977.12
406.436	961.12
406.66	992.12
406.883	1008.12
407.107	1080.12
407.331	1140.12
407.555	1191.12
407.778	1185.12
408.002	1108.12
408.226	1115.12
408.449	1090.12
408.673	1053.12
408.896	1028.12
409.12	1029.12
409.344	1048.12
409.567	1041.12
409.791	1081.12
410.014	1022.12
410.238	1023.12
410.461	1027.12
410.685	1032.12
410.908	988.12
411.132	971.12
411.355	945.12
411.578	939.12
411.802	954.12
412.025	943.12
412.249	949.12
412.472	947.12
412.695	916.12
412.919	918.12
413.142	868.12
413.365	897.12
413.589	919.12
413.812	897.12
414.035	865.12
414.258	896.12
414.482	903.12
414.705	902.12
414.928	939.12
415.151	911.12
415.374	933.12
415.597	896.12
415.821	903.12
416.044	911.12
416.267	903.12
416.49	916.12
416.713	917.12
416.936	907.12
417.159	895.12
417.382	905.12
417.605	880.12
417.828	898.12
418.051	934.12
418.274	925.12
418.497	907.12
418.72	927.12
418.943	947.12
419.166	1011.12
419.389	1054.12
419.611	1024.12
419.834	977.12
420.057	945.12
420.28	921.12
420.503	893.12
420.726	882.12
420.948	911.12
421.171	875.12
421.394	919.12
421.617	888.12
421.839	931.12
422.062	887.12
422.285	917.12
422.507	969.12
422.73	968.12
422.953	957.12
423.175	977.12
423.398	995.12
423.621	964.12
423.843	976.12
424.066	984.12
424.288	951.12
424.511	979.12
424.733	941.12
424.956	962.12
425.178	922.12
425.401	911.12
425.623	904.12
425.846	888.12
426.068	901.12
426.291	866.12
426.513	889.12
426.735	847.12
426.958	845.12
427.18	844.12
427.402	843.12
427.625	840.12
427.847	811.12
428.069	834.12
428.292	819.12
428.514	809.12
428.736	807.12
428.958	816.12
429.181	798.12
429.403	827.12
429.625	793.12
429.847	804.12
430.069	802.12
430.292	818.12
430.514	783.12
430.736	812.12
430.958	814.12
431.18	802.12
431.402	778.12
431.624	805.12
431.846	804.12
432.068	841.12
432.29	828.12
432.512	809.12
432.734	846.12
432.956	803.12
433.178	840.12
433.4	839.12
433.622	842.12
433.844	809.12
434.066	845.12
434.287	828.12
434.509	867.12
434.731	911.12
434.953	945.12
435.175	936.12
435.397	949.12
435.618	888.12
435.84	860.12
436.062	856.12
436.284	842.12
436.505	818.12
436.727	825.12
436.949	812.12
437.17	829.12
437.392	820.12
437.614	808.12
437.835	769.12
438.057	807.12
438.278	794.12
438.5	794.12
438.721	787.12
438.943	824.12
439.165	798.12
439.386	794.12
439.608	836.12
439.829	838.12
440.05	848.12
440.272	855.12
440.493	845.12
440.715	847.12
440.936	857.12
441.158	892.12
441.379	895.12
441.6	941.12
441.822	955.12
442.043	961.12
442.264	916.12
442.486	912.12
442.707	960.12
442.928	943.12
443.149	924.12
443.371	905.12
443.592	916.12
443.813	923.12
444.034	951.12
444.255	937.12
444.476	1012.12
444.698	1091.12
444.919	1136.12
445.14	1245.12
445.361	1063.12
445.582	963.12
445.803	913.12
446.024	875.12
446.245	872.12
446.466	871.12
446.687	853.12
446.908	838.12
447.129	819.12
447.35	823.12
447.571	830.12
447.792	777.12
448.013	786.12
448.234	796.12
448.455	789.12
448.675	808.12
448.896	780.12
449.117	770.12
449.338	782.12
449.559	771.12
449.779	754.12
450	770.12
450.221	770.12
450.442	773.12
450.662	791.12
450.883	801.12
451.104	819.12
451.324	823.12
451.545	799.12
451.766	799.12
451.986	806.12
452.207	764.12
452.428	782.12
452.648	772.12
452.869	792.12
453.089	791.12
453.31	758.12
453.53	765.12
453.751	743.12
453.971	745.12
454.192	756.12
454.412	719.12
454.633	735.12
454.853	717.12
455.073	746.12
455.294	708.12
455.514	706.12
455.734	711.12
455.955	703.12
456.175	715.12
456.395	722.12
456.616	703.12
456.836	726.12
457.056	712.12
457.276	711.12
457.497	705.12
457.717	716.12
457.937	702.12
458.157	734.12
458.377	736.12
458.598	745.12
458.818	732.12
459.038	779.12
459.258	840.12
459.478	839.12
459.698	847.12
459.918	891.12
460.138	896.12
460.358	969.12
460.578	1001.12
460.798	997.12
461.018	1007.12
461.238	972.12
461.458	982.12
461.678	967.12
461.898	971.12
462.118	1010.12
462.338	1045.12
462.558	1079.12
462.777	1144.12
462.997	1228.12
463.217	1365.12
463.437	1403.12
463.657	1236.12
463.876	1178.12
464.096	1161.12
464.316	1165.12
464.536	1171.12
464.755	1140.12
464.975	1100.12
465.195	1009.12
465.414	991.12
465.634	898.12
465.854	879.12
466.073	844.12
466.293	863.12
466.512	842.12
466.732	836.12
466.951	830.12
467.171	831.12
467.391	826.12
467.61	808.12
467.829	850.12
468.049	799.12
468.268	769.12
468.488	739.12
468.707	773.12
468.927	769.12
469.146	778.12
469.365	801.12
469.585	787.12
469.804	837.12
470.023	827.12
470.243	827.12
470.462	839.12
470.681	856.12
470.901	827.12
471.12	835.12
471.339	822.12
471.558	831.12
471.777	782.12
471.997	786.12
472.216	769.12
472.435	746.12
472.654	746.12
472.873	756.12
473.092	746.12
473.311	728.12
473.53	747.12
473.749	767.12
473.968	728.12
474.187	743.12
474.406	740.12
474.625	747.12
474.844	746.12
475.063	762.12
475.282	764.12
475.501	752.12
475.72	751.12
475.939	791.12
476.158	768.12
476.377	785.12
476.596	760.12
476.814	808.12
477.033	768.12
477.252	806.12
477.471	845.12
477.69	838.12
477.908	869.12
478.127	902.12
478.346	903.12
478.564	939.12
478.783	901.12
479.002	931.12
479.22	960.12
479.439	933.12
479.658	920.12
479.876	911.12
480.095	946.12
480.313	1000.12
480.532	1045.12
480.751	1009.12
480.969	967.12
481.188	929.12
481.406	896.12
481.624	851.12
481.843	855.12
482.061	835.12
482.28	867.12
482.498	816.12
482.717	861.12
482.935	839.12
483.153	855.12
483.372	854.12
483.59	860.12
483.808	857.12
484.027	863.12
484.245	882.12
484.463	879.12
484.681	895.12
484.9	891.12
485.118	897.12
485.336	901.12
485.554	906.12
485.772	920.12
485.99	931.12
486.209	917.12
486.427	908.12
486.645	944.12
486.863	911.12
487.081	911.12
487.299	936.12
487.517	911.12
487.735	909.12
487.953	920.12
488.171	919.12
488.389	898.12
488.607	926.12
488.825	888.12
489.043	891.12
489.261	890.12
489.479	883.12
489.696	889.12
489.914	910.12
490.132	891.12
490.35	920.12
490.568	909.12
490.786	896.12
491.003	922.12
491.221	935.12
491.439	918.12
491.657	933.12
491.874	905.12
492.092	923.12
492.31	927.12
492.527	949.12
492.745	944.12
492.963	916.12
493.18	949.12
493.398	924.12
493.615	944.12
493.833	935.12
494.05	937.12
494.268	954.12
494.485	955.12
494.703	975.12
494.92	963.12
495.138	956.12
495.355	967.12
495.573	959.12
495.79	952.12
496.008	980.12
496.225	972.12
496.442	972.12
496.66	1010.12
496.877	967.12
497.094	1045.12
497.312	1034.12
497.529	1059.12
497.746	1060.12
497.963	1104.12
498.181	1110.12
498.398	1141.12
498.615	1270.12
498.832	1345.12
499.049	1437.12
499.267	1607.12
499.484	1711.12
499.701	1906.12
499.918	2166.12
500.135	2468.12
500.352	2924.12
500.569	3051.12
500.786	3050.12
501.003	2784.12
501.22	2478.12
501.437	2116.12
501.654	1834.12
501.871	1674.12
502.088	1537.12
502.305	1431.12
502.522	1351.12
502.739	1287.12
502.956	1221.12
503.172	1162.12
503.389	1128.12
503.606	1089.12
503.823	1090.12
504.04	1114.12
504.256	1084.12
504.473	1109.12
504.69	1210.12
504.907	1175.12
505.123	1041.12
505.34	1004.12
505.557	953.12
505.773	939.12
505.99	915.12
506.207	895.12
506.423	898.12
506.64	883.12
506.856	867.12
507.073	865.12
507.289	842.12
507.506	860.12
507.722	851.12
507.939	833.12
508.155	836.12
508.372	796.12
508.588	802.12
508.805	829.12
509.021	809.12
509.238	790.12
509.454	798.12
509.67	803.12
509.887	778.12
510.103	779.12
510.319	795.12
510.536	780.12
510.752	804.12
510.968	788.12
511.184	729.12
511.401	780.12
511.617	804.12
511.833	776.12
512.049	769.12
512.265	774.12
512.481	769.12
512.698	781.12
512.914	787.12
513.13	809.12
513.346	785.12
513.562	787.12
513.778	776.12
513.994	783.12
514.21	787.12
514.426	791.12
514.642	771.12
514.858	786.12
515.074	821.12
515.29	793.12
515.506	818.12
515.721	831.12
515.937	810.12
516.153	833.12
516.369	861.12
516.585	888.12
516.801	905.12
517.016	936.12
517.232	988.12
517.448	1060.12
517.664	1125.12
517.879	1133.12
518.095	1127.12
518.311	1088.12
518.527	1016.12
518.742	986.12
518.958	923.12
519.173	904.12
519.389	898.12
519.605	854.12
519.82	836.12
520.036	843.12
520.251	803.12
520.467	811.12
520.682	780.12
520.898	781.12
521.113	763.12
521.329	741.12
521.544	767.12
521.76	745.12
521.975	748.12
522.19	753.12
522.406	732.12
522.621	722.12
522.836	735.12
523.052	731.12
523.267	735.12
523.482	758.12
523.698	747.12
523.913	730.12
524.128	725.12
524.343	753.12
524.559	735.12
524.774	740.12
524.989	741.12
525.204	721.12
525.419	701.12
525.634	704.12
525.849	711.12
526.064	721.12
526.28	713.12
526.495	691.12
526.71	704.12
526.925	712.12
527.14	723.12
527.355	727.12
527.57	694.12
527.785	700.12
527.999	695.12
528.214	701.12
528.429	720.12
528.644	756.12
528.859	716.12
529.074	720.12
529.289	713.12
529.503	729.12
529.718	741.12
529.933	702.12
530.148	697.12
530.363	711.12
530.577	710.12
530.792	714.12
531.007	710.12
531.221	704.12
531.436	712.12
531.651	714.12
531.865	712.12
532.08	699.12
532.295	707.12
532.509	735.12
532.724	734.12
532.938	723.12
533.153	723.12
533.367	738.12
533.582	738.12
533.796	687.12
534.011	700.12
534.225	692.12
534.44	685.12
534.654	697.12
534.868	711.12
535.083	705.12
535.297	681.12
535.511	678.12
535.726	684.12
535.94	691.12
536.154	665.12
536.369	691.12
536.583	667.12
536.797	680.12
537.011	645.12
537.225	681.12
537.44	654.12
537.654	669.12
537.868	641.12
538.082	641.12
538.296	657.12
538.51	645.12
538.724	660.12
538.938	655.12
539.153	653.12
539.367	665.12
539.581	667.12
539.795	657.12
540.009	623.12
540.222	636.12
540.436	668.12
540.65	653.12
540.864	646.12
541.078	637.12
541.292	627.12
541.506	666.12
541.72	665.12
541.934	644.12
542.147	645.12
542.361	644.12
542.575	643.12
542.789	649.12
543.002	611.12
543.216	637.12
543.43	629.12
543.644	618.12
543.857	634.12
544.071	637.12
544.285	651.12
544.498	644.12
544.712	653.12
544.925	659.12
545.139	655.12
545.352	682.12
545.566	650.12
545.779	648.12
545.993	663.12
546.206	660.12
546.42	641.12
546.633	652.12
546.847	636.12
547.06	634.12
547.274	667.12
547.487	648.12
547.7	658.12
547.914	665.12
548.127	668.12
548.34	668.12
548.554	637.12
548.767	671.12
548.98	655.12
549.193	671.12
549.407	679.12
549.62	674.12
549.833	693.12
550.046	683.12
550.259	653.12
550.473	662.12
550.686	655.12
550.899	633.12
551.112	619.12
551.325	644.12
551.538	657.12
551.751	644.12
551.964	628.12
552.177	666.12
552.39	668.12
552.603	683.12
552.816	703.12
553.029	701.12
553.242	716.12
553.455	725.12
553.667	735.12
553.88	732.12
554.093	690.12
554.306	650.12
554.519	650.12
554.732	666.12
554.944	638.12
555.157	615.12
555.37	615.12
555.583	634.12
555.795	614.12
556.008	602.12
556.221	583.12
556.433	585.12
556.646	579.12
556.859	589.12
557.071	559.12
557.284	593.12
557.496	572.12
557.709	557.12
557.921	575.12
558.134	538.12
558.346	569.12
558.559	556.12
558.771	548.12
558.984	515.12
559.196	550.12
559.409	544.12
559.621	557.12
559.833	536.12
560.046	529.12
560.258	535.12
560.47	553.12
560.683	551.12
560.895	542.12
561.107	528.12
561.32	561.12
561.532	560.12
561.744	543.12
561.956	529.12
562.168	540.12
562.381	545.12
562.593	553.12
562.805	546.12
563.017	537.12
563.229	555.12
563.441	536.12
563.653	553.12
563.865	555.12
564.077	559.12
564.289	561.12
564.501	564.12
564.713	568.12
564.925	584.12
565.137	587.12
565.349	579.12
565.561	627.12
565.773	645.12
565.985	653.12
566.197	675.12
566.408	733.12
566.62	794.12
566.832	874.12
567.044	917.12
567.255	897.12
567.467	887.12
567.679	953.12
567.891	1027.12
568.102	1068.12
568.314	1023.12
568.526	919.12
568.737	788.12
568.949	742.12
569.161	692.12
569.372	638.12
569.584	613.12
569.795	595.12
570.007	575.12
570.218	568.12
570.43	559.12
570.641	550.12
570.853	550.12
571.064	568.12
571.276	568.12
571.487	570.12
571.698	521.12
571.91	520.12
572.121	492.12
572.333	466.12
572.544	478.12
572.755	475.12
572.966	459.12
573.178	464.12
573.389	467.12
573.6	455.12
573.811	442.12
574.023	453.12
574.234	468.12
574.445	466.12
574.656	448.12
574.867	433.12
575.078	457.12
575.289	427.12
575.501	448.12
575.712	420.12
575.923	432.12
576.134	428.12
576.345	415.12
576.556	442.12
576.767	436.12
576.978	432.12
577.188	435.12
577.399	437.12
577.61	427.12
577.821	408.12
578.032	395.12
578.243	397.12
578.454	402.12
578.665	403.12
578.875	406.12
579.086	376.12
579.297	405.12
579.508	395.12
579.718	385.12
579.929	400.12
580.14	386.12
580.35	385.12
580.561	388.12
580.772	383.12
580.982	387.12
581.193	385.12
581.403	400.12
581.614	385.12
581.825	396.12
582.035	384.12
582.246	390.12
582.456	365.12
582.667	385.12
582.877	389.12
583.087	375.12
583.298	399.12
583.508	376.12
583.719	395.12
583.929	386.12
584.139	375.12
584.35	383.12
584.56	370.12
584.77	369.12
584.981	367.12
585.191	359.12
585.401	365.12
585.611	364.12
585.821	372.12
586.032	369.12
586.242	355.12
586.452	359.12
586.662	349.12
586.872	371.12
587.082	368.12
587.292	364.12
587.502	358.12
587.713	355.12
587.923	370.12
588.133	372.12
588.343	356.12
588.553	373.12
588.762	359.12
588.972	358.12
589.182	361.12
589.392	355.12
589.602	364.12
589.812	361.12
590.022	377.12
590.232	365.12
590.441	353.12
590.651	353.12
590.861	365.12
591.071	364.12
591.281	380.12
591.49	375.12
591.7	377.12
591.91	390.12
592.119	372.12
592.329	403.12
592.539	397.12
592.748	420.12
592.958	428.12
593.167	456.12
593.377	461.12
593.587	471.12
593.796	478.12
594.006	489.12
594.215	489.12
594.424	495.12
594.634	464.12
594.843	444.12
595.053	433.12
595.262	390.12
595.472	416.12
595.681	367.12
595.89	399.12
596.1	359.12
596.309	364.12
596.518	363.12
596.727	345.12
596.937	336.12
597.146	337.12
597.355	350.12
597.564	313.12
597.774	333.12
597.983	327.12
598.192	320.12
598.401	303.12
598.61	336.12
598.819	321.12
599.028	332.12
599.237	313.12
599.446	322.12
599.655	315.12
599.864	306.12
600.073	301.12
600.282	311.12
600.491	309.12
600.7	321.12
600.909	307.12
601.118	309.12
601.327	293.12
601.536	308.12
601.745	296.12
601.953	316.12
602.162	311.12
602.371	315.12
602.58	297.12
602.789	298.12
602.997	286.12
603.206	278.12
603.415	293.12
603.623	315.12
603.832	322.12
604.041	294.12
604.249	306.12
604.458	307.12
604.666	290.12
604.875	277.12
605.084	292.12
605.292	282.12
605.501	281.12
605.709	291.12
605.918	275.12
606.126	308.12
606.334	291.12
606.543	296.12
606.751	297.12
606.96	289.12
607.168	275.12
607.376	266.12
607.585	273.12
607.793	288.12
608.001	285.12
608.21	283.12
608.418	291.12
608.626	273.12
608.834	284.12
609.043	288.12
609.251	287.12
609.459	269.12
609.667	291.12
609.875	298.12
610.083	299.12
610.291	273.12
610.499	267.12
610.707	269.12
610.916	287.12
611.124	281.12
611.332	276.12
611.54	287.12
611.748	279.12
611.955	282.12
612.163	280.12
612.371	290.12
612.579	274.12
612.787	260.12
612.995	270.12
613.203	273.12
613.411	277.12
613.618	265.12
613.826	274.12
614.034	265.12
614.242	273.12
614.449	274.12
614.657	263.12
614.865	265.12
615.072	263.12
615.28	259.12
615.488	281.12
615.695	282.12
615.903	277.12
616.111	282.12
616.318	262.12
616.526	261.12
616.733	270.12
616.941	279.12
617.148	257.12
617.356	290.12
617.563	264.12
617.771	282.12
617.978	277.12
618.185	281.12
618.393	276.12
618.6	269.12
618.807	276.12
619.015	267.12
619.222	278.12
619.429	255.12
619.637	273.12
619.844	260.12
620.051	261.12
620.258	246.12
620.466	257.12
620.673	240.12
620.88	269.12
621.087	248.12
621.294	265.12
621.501	245.12
621.708	236.12
621.915	243.12
622.122	260.12
622.329	254.12
622.536	243.12
622.743	249.12
622.95	257.12
623.157	238.12
623.364	248.12
623.571	255.12
623.778	245.12
623.985	239.12
624.192	243.12
624.399	236.12
624.606	259.12
624.812	236.12
625.019	241.12
625.226	232.12
625.433	236.12
625.639	218.12
625.846	225.12
626.053	230.12
626.259	223.12
626.466	233.12
626.673	236.12
626.879	223.12
627.086	234.12
627.293	228.12
627.499	236.12
627.706	250.12
627.912	223.12
628.119	218.12
628.325	219.12
628.532	207.12
628.738	229.12
628.945	223.12
629.151	216.12
629.357	216.12
629.564	221.12
629.77	219.12
629.976	229.12
630.183	205.12
630.389	208.12
630.595	201.12
630.802	220.12
631.008	220.12
631.214	214.12
631.42	205.12
631.627	205.12
631.833	211.12
632.039	200.12
632.245	199.12
632.451	204.12
632.657	193.12
632.863	200.12
633.069	196.12
633.275	192.12
633.481	211.12
633.688	197.12
633.893	217.12
634.099	197.12
634.305	191.12
634.511	194.12
634.717	185.12
634.923	189.12
635.129	197.12
635.335	212.12
635.541	205.12
635.747	197.12
635.952	186.12
636.158	201.12
636.364	201.12
636.57	186.12
636.775	211.12
636.981	195.12
637.187	204.12
637.392	208.12
637.598	185.12
637.804	206.12
638.009	194.12
638.215	191.12
638.421	191.12
638.626	201.12
638.832	213.12
639.037	185.12
639.243	202.12
639.448	188.12
639.654	171.12
639.859	191.12
640.065	186.12
640.27	174.12
640.475	183.12
640.681	174.12
640.886	184.12
641.091	185.12
641.297	188.12
641.502	192.12
641.707	186.12
641.913	170.12
642.118	165.12
642.323	192.12
642.528	191.12
642.733	186.12
642.939	194.12
643.144	178.12
643.349	184.12
643.554	195.12
643.759	162.12
643.964	195.12
644.169	180.12
644.374	187.12
644.579	173.12
644.784	182.12
644.989	166.12
645.194	178.12
645.399	185.12
645.604	189.12
645.809	190.12
646.014	171.12
646.219	173.12
646.423	184.12
646.628	175.12
646.833	182.12
647.038	188.12
647.243	172.12
647.447	180.12
647.652	180.12
647.857	179.12
648.062	185.12
648.266	193.12
648.471	198.12
648.676	188.12
648.88	185.12
649.085	188.12
649.289	169.12
649.494	180.12
649.698	177.12
649.903	166.12
650.107	156.12
650.312	181.12
650.516	169.12
650.721	166.12
650.925	167.12
651.13	155.12
651.334	158.12
651.539	143.12
651.743	146.12
651.947	149.12
652.152	167.12
652.356	146.12
652.56	151.12
652.764	160.12
652.969	140.12
653.173	167.12
653.377	143.12
653.581	154.12
653.785	136.12
653.99	146.12
654.194	141.12
654.398	140.12
654.602	140.12
654.806	146.12
655.01	126.12
655.214	147.12
655.418	128.12
655.622	145.12
655.826	127.12
656.03	131.12
656.234	128.12
656.438	124.12
656.642	115.12
656.846	122.12
657.049	126.12
657.253	123.12
657.457	121.12
657.661	129.12
657.865	112.12
658.068	107.12
658.272	114.12
658.476	114.12
658.68	99.12
658.883	91.12
659.087	92.12
659.291	112.12
659.494	104.12
659.698	105.12
659.901	90.12
660.105	99.12
660.309	87.12
660.512	101.12
660.716	88.12
660.919	98.12
661.123	97.12
661.326	92.12
661.53	91.12
661.733	80.12
661.936	83.12
662.14	88.12
662.343	87.12
662.546	84.12
662.75	80.12
662.953	75.12
663.156	81.12
663.36	87.12
663.563	95.12
663.766	79.12
663.969	90.12
664.173	89.12
664.376	80.12
664.579	85.12
664.782	83.12
664.985	85.12
665.188	78.12
665.391	95.12
665.594	89.12
665.797	77.12
666	86.12
666.203	84.12
666.406	84.12
666.609	93.12
666.812	85.12
667.015	75.12
667.218	83.12
667.421	77.12
667.624	82.12
667.827	75.12
668.03	73.12
668.232	84.12
668.435	83.12
668.638	85.12
668.841	84.12
669.043	74.12
669.246	69.12
669.449	76.12
669.651	89.12
669.854	81.12
670.057	68.12
670.259	91.12
670.462	69.12
670.665	78.12
670.867	77.12
671.07	85.12
671.272	75.12
671.475	84.12
671.677	76.12
671.88	79.12
672.082	82.12
672.284	71.12
672.487	85.12
672.689	84.12
672.892	73.12
