Data from Ni(NO3)2Standard.Agarose3%.GreenCap.LampEnergy5.5.E.O_HRD10591_14-42-13-188.txt Node
Date: Mon Jul 22 14:42:13 EDT 2019
User: cochatt
Spectrometer: HR+D1059
Trigger mode: 1
Integration Time (sec): 1.000000E-1
Scans to average: 1
Electric dark correction enabled: true
Nonlinearity correction enabled: false
Boxcar width: 0
XAxis mode: Wavelengths
Number of Pixels in Spectrum: 2048
>>>>>Begin Spectral Data<<<<<
223.165	-10.12
223.4	-10.12
223.635	-10.12
223.869	-28.12
224.104	-19.12
224.338	-29.12
224.573	-13.12
224.808	-6.12
225.042	-0.12
225.277	1.88
225.511	-1.12
225.746	-12.12
225.98	3.88
226.215	7.88
226.449	23.88
226.683	26.88
226.918	18.88
227.152	35.88
227.387	39.88
227.621	40.88
227.856	44.88
228.09	41.88
228.324	34.88
228.559	53.88
228.793	61.88
229.027	62.88
229.262	55.88
229.496	69.88
229.73	48.88
229.964	96.88
230.199	75.88
230.433	73.88
230.667	80.88
230.901	77.88
231.136	92.88
231.37	77.88
231.604	76.88
231.838	74.88
232.072	73.88
232.306	86.88
232.541	91.88
232.775	83.88
233.009	76.88
233.243	78.88
233.477	85.88
233.711	98.88
233.945	73.88
234.179	79.88
234.413	84.88
234.647	77.88
234.881	85.88
235.115	85.88
235.349	66.88
235.583	73.88
235.817	76.88
236.051	64.88
236.285	60.88
236.519	78.88
236.753	73.88
236.987	86.88
237.221	77.88
237.455	63.88
237.689	81.88
237.922	84.88
238.156	70.88
238.39	59.88
238.624	71.88
238.858	82.88
239.091	88.88
239.325	90.88
239.559	76.88
239.793	71.88
240.027	74.88
240.26	80.88
240.494	68.88
240.728	70.88
240.961	68.88
241.195	75.88
241.429	81.88
241.662	80.88
241.896	87.88
242.13	69.88
242.363	69.88
242.597	73.88
242.83	80.88
243.064	65.88
243.298	76.88
243.531	71.88
243.765	75.88
243.998	77.88
244.232	80.88
244.465	97.88
244.699	76.88
244.932	74.88
245.166	65.88
245.399	75.88
245.633	71.88
245.866	83.88
246.099	76.88
246.333	70.88
246.566	70.88
246.8	77.88
247.033	87.88
247.266	90.88
247.5	81.88
247.733	83.88
247.966	96.88
248.2	89.88
248.433	67.88
248.666	76.88
248.899	75.88
249.133	81.88
249.366	76.88
249.599	78.88
249.832	78.88
250.066	89.88
250.299	67.88
250.532	88.88
250.765	79.88
250.998	81.88
251.231	84.88
251.465	92.88
251.698	79.88
251.931	79.88
252.164	79.88
252.397	75.88
252.63	64.88
252.863	71.88
253.096	83.88
253.329	105.88
253.562	86.88
253.795	82.88
254.028	75.88
254.261	82.88
254.494	79.88
254.727	76.88
254.96	76.88
255.193	79.88
255.426	73.88
255.659	79.88
255.892	96.88
256.124	92.88
256.357	80.88
256.59	88.88
256.823	87.88
257.056	93.88
257.289	74.88
257.521	83.88
257.754	78.88
257.987	81.88
258.22	81.88
258.452	79.88
258.685	82.88
258.918	78.88
259.151	84.88
259.383	88.88
259.616	85.88
259.849	82.88
260.081	92.88
260.314	67.88
260.547	89.88
260.779	76.88
261.012	78.88
261.244	73.88
261.477	76.88
261.71	80.88
261.942	93.88
262.175	85.88
262.407	77.88
262.64	82.88
262.872	83.88
263.105	80.88
263.337	81.88
263.57	77.88
263.802	78.88
264.035	93.88
264.267	80.88
264.499	83.88
264.732	97.88
264.964	83.88
265.197	61.88
265.429	85.88
265.661	75.88
265.894	81.88
266.126	81.88
266.358	72.88
266.591	87.88
266.823	87.88
267.055	84.88
267.287	72.88
267.52	85.88
267.752	83.88
267.984	89.88
268.216	90.88
268.448	95.88
268.681	96.88
268.913	91.88
269.145	86.88
269.377	81.88
269.609	78.88
269.841	95.88
270.073	92.88
270.306	91.88
270.538	88.88
270.77	85.88
271.002	73.88
271.234	76.88
271.466	83.88
271.698	83.88
271.93	92.88
272.162	82.88
272.394	99.88
272.626	73.88
272.858	95.88
273.09	74.88
273.322	91.88
273.553	73.88
273.785	92.88
274.017	95.88
274.249	87.88
274.481	100.88
274.713	87.88
274.945	81.88
275.176	80.88
275.408	85.88
275.64	80.88
275.872	97.88
276.104	91.88
276.335	85.88
276.567	86.88
276.799	82.88
277.031	93.88
277.262	87.88
277.494	94.88
277.726	82.88
277.957	78.88
278.189	82.88
278.421	90.88
278.652	83.88
278.884	95.88
279.115	73.88
279.347	86.88
279.579	82.88
279.81	92.88
280.042	80.88
280.273	81.88
280.505	86.88
280.736	79.88
280.968	85.88
281.199	73.88
281.431	72.88
281.662	83.88
281.894	86.88
282.125	83.88
282.356	86.88
282.588	81.88
282.819	80.88
283.051	87.88
283.282	84.88
283.513	76.88
283.745	90.88
283.976	77.88
284.207	84.88
284.439	93.88
284.67	77.88
284.901	87.88
285.132	78.88
285.364	87.88
285.595	88.88
285.826	84.88
286.057	91.88
286.288	95.88
286.52	87.88
286.751	77.88
286.982	85.88
287.213	83.88
287.444	85.88
287.675	88.88
287.906	75.88
288.138	86.88
288.369	83.88
288.6	81.88
288.831	89.88
289.062	83.88
289.293	80.88
289.524	84.88
289.755	85.88
289.986	89.88
290.217	82.88
290.448	71.88
290.679	79.88
290.91	85.88
291.141	76.88
291.371	82.88
291.602	98.88
291.833	89.88
292.064	91.88
292.295	95.88
292.526	91.88
292.757	90.88
292.987	97.88
293.218	76.88
293.449	79.88
293.68	87.88
293.91	79.88
294.141	85.88
294.372	89.88
294.603	83.88
294.833	99.88
295.064	91.88
295.295	96.88
295.525	92.88
295.756	91.88
295.987	77.88
296.217	100.88
296.448	84.88
296.679	84.88
296.909	99.88
297.14	90.88
297.37	74.88
297.601	77.88
297.831	82.88
298.062	93.88
298.292	88.88
298.523	87.88
298.753	83.88
298.984	99.88
299.214	87.88
299.445	96.88
299.675	75.88
299.905	84.88
300.136	81.88
300.366	82.88
300.597	75.88
300.827	91.88
301.057	82.88
301.288	99.88
301.518	75.88
301.748	86.88
301.979	89.88
302.209	85.88
302.439	95.88
302.669	84.88
302.9	90.88
303.13	92.88
303.36	105.88
303.59	83.88
303.82	93.88
304.051	86.88
304.281	72.88
304.511	88.88
304.741	79.88
304.971	77.88
305.201	100.88
305.431	78.88
305.661	67.88
305.891	84.88
306.121	76.88
306.352	82.88
306.582	82.88
306.812	74.88
307.042	89.88
307.272	85.88
307.502	88.88
307.731	103.88
307.961	83.88
308.191	84.88
308.421	80.88
308.651	102.88
308.881	84.88
309.111	86.88
309.341	81.88
309.571	90.88
309.8	85.88
310.03	80.88
310.26	82.88
310.49	88.88
310.72	91.88
310.949	82.88
311.179	85.88
311.409	89.88
311.639	75.88
311.868	89.88
312.098	99.88
312.328	85.88
312.557	80.88
312.787	83.88
313.017	85.88
313.246	91.88
313.476	98.88
313.706	86.88
313.935	77.88
314.165	85.88
314.394	80.88
314.624	78.88
314.853	90.88
315.083	82.88
315.312	83.88
315.542	84.88
315.771	82.88
316.001	81.88
316.23	93.88
316.46	94.88
316.689	84.88
316.919	97.88
317.148	90.88
317.377	83.88
317.607	84.88
317.836	87.88
318.065	95.88
318.295	76.88
318.524	104.88
318.753	96.88
318.983	73.88
319.212	91.88
319.441	90.88
319.67	77.88
319.9	93.88
320.129	90.88
320.358	76.88
320.587	89.88
320.816	84.88
321.046	85.88
321.275	92.88
321.504	93.88
321.733	85.88
321.962	96.88
322.191	82.88
322.42	83.88
322.649	80.88
322.878	87.88
323.108	90.88
323.337	100.88
323.566	80.88
323.795	81.88
324.024	87.88
324.253	77.88
324.482	88.88
324.71	91.88
324.939	80.88
325.168	83.88
325.397	93.88
325.626	88.88
325.855	92.88
326.084	91.88
326.313	98.88
326.542	78.88
326.77	96.88
326.999	82.88
327.228	72.88
327.457	75.88
327.686	91.88
327.914	87.88
328.143	97.88
328.372	91.88
328.6	86.88
328.829	68.88
329.058	87.88
329.287	85.88
329.515	88.88
329.744	96.88
329.972	88.88
330.201	82.88
330.43	74.88
330.658	73.88
330.887	72.88
331.115	82.88
331.344	88.88
331.572	87.88
331.801	88.88
332.03	88.88
332.258	89.88
332.486	89.88
332.715	88.88
332.943	96.88
333.172	90.88
333.4	79.88
333.629	88.88
333.857	85.88
334.085	77.88
334.314	91.88
334.542	101.88
334.771	87.88
334.999	100.88
335.227	84.88
335.455	85.88
335.684	88.88
335.912	83.88
336.14	76.88
336.369	97.88
336.597	91.88
336.825	81.88
337.053	89.88
337.281	91.88
337.51	87.88
337.738	90.88
337.966	93.88
338.194	94.88
338.422	83.88
338.65	103.88
338.878	84.88
339.106	90.88
339.334	83.88
339.562	86.88
339.79	85.88
340.018	88.88
340.246	81.88
340.474	102.88
340.702	83.88
340.93	83.88
341.158	73.88
341.386	78.88
341.614	83.88
341.842	88.88
342.07	87.88
342.298	103.88
342.526	92.88
342.754	76.88
342.981	58.88
343.209	78.88
343.437	74.88
343.665	83.88
343.893	90.88
344.12	93.88
344.348	88.88
344.576	77.88
344.804	113.88
345.031	94.88
345.259	94.88
345.487	76.88
345.714	94.88
345.942	82.88
346.17	86.88
346.397	75.88
346.625	79.88
346.853	84.88
347.08	80.88
347.308	87.88
347.535	85.88
347.763	92.88
347.99	94.88
348.218	98.88
348.445	83.88
348.673	73.88
348.9	91.88
349.128	74.88
349.355	83.88
349.583	79.88
349.81	91.88
350.037	96.88
350.265	78.88
350.492	77.88
350.72	90.88
350.947	85.88
351.174	83.88
351.402	76.88
351.629	77.88
351.856	89.88
352.083	86.88
352.311	86.88
352.538	83.88
352.765	93.88
352.992	87.88
353.22	82.88
353.447	92.88
353.674	88.88
353.901	81.88
354.128	94.88
354.355	92.88
354.583	66.88
354.81	86.88
355.037	93.88
355.264	99.88
355.491	67.88
355.718	71.88
355.945	85.88
356.172	78.88
356.399	77.88
356.626	95.88
356.853	84.88
357.08	86.88
357.307	82.88
357.534	85.88
357.761	91.88
357.988	81.88
358.215	77.88
358.441	77.88
358.668	77.88
358.895	87.88
359.122	91.88
359.349	87.88
359.576	94.88
359.802	90.88
360.029	89.88
360.256	93.88
360.483	96.88
360.709	82.88
360.936	96.88
361.163	76.88
361.39	80.88
361.616	73.88
361.843	97.88
362.07	78.88
362.296	87.88
362.523	84.88
362.749	89.88
362.976	77.88
363.203	78.88
363.429	72.88
363.656	88.88
363.882	76.88
364.109	83.88
364.335	78.88
364.562	84.88
364.788	76.88
365.015	95.88
365.241	100.88
365.468	86.88
365.694	76.88
365.92	87.88
366.147	80.88
366.373	77.88
366.599	99.88
366.826	84.88
367.052	88.88
367.278	84.88
367.505	79.88
367.731	74.88
367.957	74.88
368.184	79.88
368.41	84.88
368.636	100.88
368.862	86.88
369.089	77.88
369.315	83.88
369.541	97.88
369.767	92.88
369.993	90.88
370.219	88.88
370.445	78.88
370.672	89.88
370.898	87.88
371.124	85.88
371.35	83.88
371.576	77.88
371.802	86.88
372.028	97.88
372.254	79.88
372.48	87.88
372.706	101.88
372.932	92.88
373.158	77.88
373.384	90.88
373.61	93.88
373.835	75.88
374.061	88.88
374.287	79.88
374.513	88.88
374.739	86.88
374.965	70.88
375.191	88.88
375.416	92.88
375.642	88.88
375.868	92.88
376.094	75.88
376.319	91.88
376.545	84.88
376.771	74.88
376.997	83.88
377.222	90.88
377.448	77.88
377.674	87.88
377.899	70.88
378.125	92.88
378.35	88.88
378.576	88.88
378.802	96.88
379.027	82.88
379.253	78.88
379.478	74.88
379.704	71.88
379.929	75.88
380.155	79.88
380.38	82.88
380.606	86.88
380.831	67.88
381.057	83.88
381.282	82.88
381.507	76.88
381.733	67.88
381.958	75.88
382.184	75.88
382.409	86.88
382.634	77.88
382.86	85.88
383.085	85.88
383.31	76.88
383.535	88.88
383.761	89.88
383.986	87.88
384.211	82.88
384.436	84.88
384.662	96.88
384.887	85.88
385.112	75.88
385.337	90.88
385.562	88.88
385.787	75.88
386.013	91.88
386.238	83.88
386.463	83.88
386.688	80.88
386.913	67.88
387.138	81.88
387.363	71.88
387.588	81.88
387.813	82.88
388.038	82.88
388.263	89.88
388.488	82.88
388.713	83.88
388.938	73.88
389.163	71.88
389.387	76.88
389.612	77.88
389.837	76.88
390.062	74.88
390.287	88.88
390.512	83.88
390.736	74.88
390.961	76.88
391.186	84.88
391.411	77.88
391.636	77.88
391.86	87.88
392.085	77.88
392.31	74.88
392.534	91.88
392.759	75.88
392.984	91.88
393.208	69.88
393.433	79.88
393.658	86.88
393.882	80.88
394.107	92.88
394.331	88.88
394.556	68.88
394.78	93.88
395.005	76.88
395.229	84.88
395.454	74.88
395.678	76.88
395.903	88.88
396.127	81.88
396.352	78.88
396.576	97.88
396.801	92.88
397.025	81.88
397.249	91.88
397.474	95.88
397.698	81.88
397.922	90.88
398.147	85.88
398.371	91.88
398.595	95.88
398.82	86.88
399.044	70.88
399.268	68.88
399.492	92.88
399.717	92.88
399.941	70.88
400.165	81.88
400.389	84.88
400.613	86.88
400.837	74.88
401.062	77.88
401.286	95.88
401.51	87.88
401.734	91.88
401.958	80.88
402.182	73.88
402.406	90.88
402.63	86.88
402.854	90.88
403.078	94.88
403.302	89.88
403.526	82.88
403.75	85.88
403.974	90.88
404.198	97.88
404.422	89.88
404.645	76.88
404.869	84.88
405.093	88.88
405.317	85.88
405.541	86.88
405.765	76.88
405.988	86.88
406.212	89.88
406.436	105.88
406.66	94.88
406.883	74.88
407.107	68.88
407.331	92.88
407.555	83.88
407.778	92.88
408.002	83.88
408.226	84.88
408.449	88.88
408.673	84.88
408.896	90.88
409.12	101.88
409.344	88.88
409.567	110.88
409.791	88.88
410.014	84.88
410.238	87.88
410.461	78.88
410.685	85.88
410.908	100.88
411.132	59.88
411.355	106.88
411.578	92.88
411.802	84.88
412.025	80.88
412.249	84.88
412.472	81.88
412.695	93.88
412.919	90.88
413.142	81.88
413.365	75.88
413.589	87.88
413.812	60.88
414.035	93.88
414.258	88.88
414.482	85.88
414.705	81.88
414.928	80.88
415.151	84.88
415.374	75.88
415.597	80.88
415.821	89.88
416.044	73.88
416.267	94.88
416.49	85.88
416.713	80.88
416.936	88.88
417.159	92.88
417.382	93.88
417.605	86.88
417.828	84.88
418.051	93.88
418.274	90.88
418.497	95.88
418.72	80.88
418.943	95.88
419.166	75.88
419.389	82.88
419.611	81.88
419.834	84.88
420.057	75.88
420.28	90.88
420.503	95.88
420.726	85.88
420.948	80.88
421.171	77.88
421.394	94.88
421.617	79.88
421.839	69.88
422.062	79.88
422.285	81.88
422.507	84.88
422.73	81.88
422.953	91.88
423.175	86.88
423.398	84.88
423.621	89.88
423.843	90.88
424.066	88.88
424.288	91.88
424.511	89.88
424.733	73.88
424.956	86.88
425.178	84.88
425.401	83.88
425.623	91.88
425.846	85.88
426.068	90.88
426.291	75.88
426.513	88.88
426.735	85.88
426.958	90.88
427.18	88.88
427.402	80.88
427.625	92.88
427.847	77.88
428.069	80.88
428.292	79.88
428.514	92.88
428.736	88.88
428.958	92.88
429.181	90.88
429.403	73.88
429.625	83.88
429.847	88.88
430.069	85.88
430.292	81.88
430.514	84.88
430.736	78.88
430.958	83.88
431.18	84.88
431.402	91.88
431.624	67.88
431.846	88.88
432.068	88.88
432.29	87.88
432.512	94.88
432.734	89.88
432.956	71.88
433.178	86.88
433.4	84.88
433.622	96.88
433.844	84.88
434.066	92.88
434.287	93.88
434.509	87.88
434.731	83.88
434.953	83.88
435.175	72.88
435.397	92.88
435.618	76.88
435.84	83.88
436.062	83.88
436.284	88.88
436.505	83.88
436.727	92.88
436.949	80.88
437.17	79.88
437.392	83.88
437.614	94.88
437.835	94.88
438.057	83.88
438.278	88.88
438.5	64.88
438.721	90.88
438.943	77.88
439.165	72.88
439.386	84.88
439.608	82.88
439.829	99.88
440.05	81.88
440.272	67.88
440.493	81.88
440.715	71.88
440.936	76.88
441.158	79.88
441.379	85.88
441.6	69.88
441.822	91.88
442.043	75.88
442.264	94.88
442.486	88.88
442.707	77.88
442.928	87.88
443.149	82.88
443.371	87.88
443.592	68.88
443.813	77.88
444.034	72.88
444.255	75.88
444.476	106.88
444.698	73.88
444.919	68.88
445.14	203.88
445.361	145.88
445.582	99.88
445.803	87.88
446.024	74.88
446.245	92.88
446.466	82.88
446.687	85.88
446.908	80.88
447.129	83.88
447.35	79.88
447.571	90.88
447.792	83.88
448.013	69.88
448.234	66.88
448.455	70.88
448.675	70.88
448.896	88.88
449.117	83.88
449.338	83.88
449.559	87.88
449.779	76.88
450	100.88
450.221	81.88
450.442	100.88
450.662	97.88
450.883	84.88
451.104	74.88
451.324	69.88
451.545	90.88
451.766	83.88
451.986	74.88
452.207	90.88
452.428	85.88
452.648	89.88
452.869	82.88
453.089	78.88
453.31	89.88
453.53	84.88
453.751	76.88
453.971	76.88
454.192	90.88
454.412	72.88
454.633	91.88
454.853	80.88
455.073	97.88
455.294	81.88
455.514	93.88
455.734	93.88
455.955	77.88
456.175	85.88
456.395	67.88
456.616	82.88
456.836	72.88
457.056	84.88
457.276	79.88
457.497	82.88
457.717	80.88
457.937	95.88
458.157	77.88
458.377	81.88
458.598	85.88
458.818	76.88
459.038	81.88
459.258	73.88
459.478	86.88
459.698	86.88
459.918	86.88
460.138	82.88
460.358	73.88
460.578	83.88
460.798	76.88
461.018	86.88
461.238	106.88
461.458	104.88
461.678	87.88
461.898	89.88
462.118	86.88
462.338	93.88
462.558	90.88
462.777	73.88
462.997	88.88
463.217	87.88
463.437	81.88
463.657	98.88
463.876	77.88
464.096	98.88
464.316	85.88
464.536	89.88
464.755	93.88
464.975	96.88
465.195	94.88
465.414	69.88
465.634	70.88
465.854	77.88
466.073	89.88
466.293	85.88
466.512	77.88
466.732	81.88
466.951	93.88
467.171	77.88
467.391	75.88
467.61	82.88
467.829	65.88
468.049	87.88
468.268	84.88
468.488	85.88
468.707	89.88
468.927	77.88
469.146	76.88
469.365	80.88
469.585	85.88
469.804	72.88
470.023	81.88
470.243	73.88
470.462	92.88
470.681	79.88
470.901	88.88
471.12	72.88
471.339	76.88
471.558	85.88
471.777	93.88
471.997	86.88
472.216	103.88
472.435	97.88
472.654	83.88
472.873	84.88
473.092	87.88
473.311	85.88
473.53	82.88
473.749	85.88
473.968	74.88
474.187	83.88
474.406	74.88
474.625	83.88
474.844	77.88
475.063	97.88
475.282	94.88
475.501	92.88
475.72	79.88
475.939	75.88
476.158	83.88
476.377	75.88
476.596	70.88
476.814	91.88
477.033	99.88
477.252	91.88
477.471	92.88
477.69	100.88
477.908	79.88
478.127	88.88
478.346	85.88
478.564	94.88
478.783	95.88
479.002	83.88
479.22	83.88
479.439	81.88
479.658	82.88
479.876	87.88
480.095	73.88
480.313	88.88
480.532	86.88
480.751	82.88
480.969	102.88
481.188	89.88
481.406	93.88
481.624	96.88
481.843	83.88
482.061	96.88
482.28	84.88
482.498	88.88
482.717	84.88
482.935	101.88
483.153	62.88
483.372	81.88
483.59	78.88
483.808	85.88
484.027	83.88
484.245	86.88
484.463	84.88
484.681	89.88
484.9	87.88
485.118	94.88
485.336	89.88
485.554	94.88
485.772	90.88
485.99	84.88
486.209	80.88
486.427	92.88
486.645	82.88
486.863	113.88
487.081	88.88
487.299	90.88
487.517	82.88
487.735	89.88
487.953	75.88
488.171	77.88
488.389	94.88
488.607	97.88
488.825	88.88
489.043	81.88
489.261	91.88
489.479	73.88
489.696	84.88
489.914	85.88
490.132	96.88
490.35	87.88
490.568	99.88
490.786	91.88
491.003	99.88
491.221	72.88
491.439	88.88
491.657	83.88
491.874	91.88
492.092	93.88
492.31	90.88
492.527	100.88
492.745	94.88
492.963	91.88
493.18	91.88
493.398	93.88
493.615	91.88
493.833	93.88
494.05	91.88
494.268	89.88
494.485	84.88
494.703	100.88
494.92	94.88
495.138	94.88
495.355	102.88
495.573	69.88
495.79	89.88
496.008	91.88
496.225	80.88
496.442	85.88
496.66	87.88
496.877	89.88
497.094	86.88
497.312	88.88
497.529	89.88
497.746	99.88
497.963	94.88
498.181	93.88
498.398	101.88
498.615	85.88
498.832	95.88
499.049	103.88
499.267	104.88
499.484	89.88
499.701	112.88
499.918	98.88
500.135	88.88
500.352	114.88
500.569	110.88
500.786	113.88
501.003	108.88
501.22	109.88
501.437	103.88
501.654	96.88
501.871	101.88
502.088	108.88
502.305	87.88
502.522	93.88
502.739	106.88
502.956	86.88
503.172	83.88
503.389	82.88
503.606	87.88
503.823	104.88
504.04	100.88
504.256	92.88
504.473	97.88
504.69	90.88
504.907	95.88
505.123	86.88
505.34	95.88
505.557	89.88
505.773	96.88
505.99	91.88
506.207	111.88
506.423	96.88
506.64	79.88
506.856	76.88
507.073	87.88
507.289	83.88
507.506	82.88
507.722	91.88
507.939	86.88
508.155	91.88
508.372	86.88
508.588	89.88
508.805	95.88
509.021	89.88
509.238	88.88
509.454	93.88
509.67	66.88
509.887	93.88
510.103	85.88
510.319	89.88
510.536	102.88
510.752	96.88
510.968	84.88
511.184	76.88
511.401	106.88
511.617	88.88
511.833	90.88
512.049	89.88
512.265	74.88
512.481	95.88
512.698	84.88
512.914	84.88
513.13	90.88
513.346	87.88
513.562	83.88
513.778	92.88
513.994	76.88
514.21	71.88
514.426	88.88
514.642	87.88
514.858	90.88
515.074	103.88
515.29	82.88
515.506	70.88
515.721	88.88
515.937	91.88
516.153	97.88
516.369	113.88
516.585	76.88
516.801	95.88
517.016	81.88
517.232	84.88
517.448	82.88
517.664	90.88
517.879	92.88
518.095	94.88
518.311	87.88
518.527	84.88
518.742	90.88
518.958	93.88
519.173	94.88
519.389	75.88
519.605	81.88
519.82	98.88
520.036	76.88
520.251	88.88
520.467	91.88
520.682	83.88
520.898	95.88
521.113	84.88
521.329	83.88
521.544	96.88
521.76	84.88
521.975	97.88
522.19	83.88
522.406	98.88
522.621	83.88
522.836	90.88
523.052	91.88
523.267	87.88
523.482	93.88
523.698	95.88
523.913	96.88
524.128	89.88
524.343	89.88
524.559	91.88
524.774	91.88
524.989	79.88
525.204	95.88
525.419	98.88
525.634	85.88
525.849	92.88
526.064	95.88
526.28	86.88
526.495	92.88
526.71	94.88
526.925	78.88
527.14	78.88
527.355	86.88
527.57	91.88
527.785	92.88
527.999	80.88
528.214	97.88
528.429	83.88
528.644	81.88
528.859	88.88
529.074	101.88
529.289	86.88
529.503	97.88
529.718	76.88
529.933	85.88
530.148	78.88
530.363	77.88
530.577	88.88
530.792	71.88
531.007	84.88
531.221	85.88
531.436	78.88
531.651	92.88
531.865	96.88
532.08	98.88
532.295	85.88
532.509	92.88
532.724	89.88
532.938	74.88
533.153	86.88
533.367	97.88
533.582	87.88
533.796	100.88
534.011	83.88
534.225	78.88
534.44	91.88
534.654	84.88
534.868	97.88
535.083	72.88
535.297	77.88
535.511	79.88
535.726	97.88
535.94	96.88
536.154	90.88
536.369	79.88
536.583	82.88
536.797	79.88
537.011	85.88
537.225	103.88
537.44	89.88
537.654	90.88
537.868	93.88
538.082	87.88
538.296	85.88
538.51	100.88
538.724	78.88
538.938	73.88
539.153	89.88
539.367	74.88
539.581	99.88
539.795	98.88
540.009	76.88
540.222	96.88
540.436	91.88
540.65	83.88
540.864	75.88
541.078	89.88
541.292	86.88
541.506	101.88
541.72	81.88
541.934	82.88
542.147	97.88
542.361	96.88
542.575	84.88
542.789	84.88
543.002	83.88
543.216	114.88
543.43	96.88
543.644	100.88
543.857	88.88
544.071	91.88
544.285	89.88
544.498	80.88
544.712	80.88
544.925	97.88
545.139	83.88
545.352	96.88
545.566	72.88
545.779	87.88
545.993	94.88
546.206	89.88
546.42	82.88
546.633	88.88
546.847	92.88
547.06	82.88
547.274	92.88
547.487	89.88
547.7	90.88
547.914	75.88
548.127	98.88
548.34	95.88
548.554	88.88
548.767	77.88
548.98	94.88
549.193	89.88
549.407	90.88
549.62	98.88
549.833	82.88
550.046	93.88
550.259	93.88
550.473	82.88
550.686	83.88
550.899	97.88
551.112	87.88
551.325	94.88
551.538	99.88
551.751	84.88
551.964	83.88
552.177	73.88
552.39	67.88
552.603	87.88
552.816	92.88
553.029	93.88
553.242	83.88
553.455	86.88
553.667	71.88
553.88	88.88
554.093	103.88
554.306	80.88
554.519	73.88
554.732	91.88
554.944	84.88
555.157	89.88
555.37	85.88
555.583	82.88
555.795	90.88
556.008	96.88
556.221	101.88
556.433	95.88
556.646	96.88
556.859	84.88
557.071	76.88
557.284	96.88
557.496	96.88
557.709	89.88
557.921	87.88
558.134	95.88
558.346	91.88
558.559	89.88
558.771	90.88
558.984	100.88
559.196	87.88
559.409	83.88
559.621	87.88
559.833	85.88
560.046	82.88
560.258	107.88
560.47	100.88
560.683	93.88
560.895	90.88
561.107	83.88
561.32	85.88
561.532	86.88
561.744	92.88
561.956	87.88
562.168	88.88
562.381	76.88
562.593	84.88
562.805	98.88
563.017	74.88
563.229	89.88
563.441	92.88
563.653	76.88
563.865	83.88
564.077	95.88
564.289	98.88
564.501	94.88
564.713	90.88
564.925	104.88
565.137	88.88
565.349	83.88
565.561	96.88
565.773	88.88
565.985	93.88
566.197	104.88
566.408	87.88
566.62	107.88
566.832	74.88
567.044	105.88
567.255	88.88
567.467	81.88
567.679	76.88
567.891	88.88
568.102	84.88
568.314	93.88
568.526	82.88
568.737	90.88
568.949	84.88
569.161	75.88
569.372	101.88
569.584	104.88
569.795	100.88
570.007	85.88
570.218	83.88
570.43	100.88
570.641	93.88
570.853	84.88
571.064	95.88
571.276	74.88
571.487	85.88
571.698	83.88
571.91	93.88
572.121	75.88
572.333	85.88
572.544	97.88
572.755	78.88
572.966	95.88
573.178	97.88
573.389	87.88
573.6	97.88
573.811	90.88
574.023	78.88
574.234	91.88
574.445	90.88
574.656	82.88
574.867	76.88
575.078	90.88
575.289	78.88
575.501	89.88
575.712	95.88
575.923	78.88
576.134	87.88
576.345	90.88
576.556	87.88
576.767	82.88
576.978	85.88
577.188	71.88
577.399	81.88
577.61	91.88
577.821	89.88
578.032	97.88
578.243	90.88
578.454	91.88
578.665	73.88
578.875	76.88
579.086	81.88
579.297	78.88
579.508	97.88
579.718	91.88
579.929	79.88
580.14	78.88
580.35	81.88
580.561	98.88
580.772	97.88
580.982	86.88
581.193	71.88
581.403	84.88
581.614	96.88
581.825	89.88
582.035	81.88
582.246	76.88
582.456	80.88
582.667	71.88
582.877	74.88
583.087	77.88
583.298	88.88
583.508	87.88
583.719	91.88
583.929	87.88
584.139	97.88
584.35	82.88
584.56	79.88
584.77	87.88
584.981	82.88
585.191	88.88
585.401	91.88
585.611	86.88
585.821	88.88
586.032	85.88
586.242	89.88
586.452	82.88
586.662	86.88
586.872	94.88
587.082	87.88
587.292	74.88
587.502	84.88
587.713	75.88
587.923	92.88
588.133	91.88
588.343	87.88
588.553	87.88
588.762	81.88
588.972	87.88
589.182	86.88
589.392	93.88
589.602	77.88
589.812	85.88
590.022	83.88
590.232	76.88
590.441	87.88
590.651	85.88
590.861	97.88
591.071	69.88
591.281	96.88
591.49	93.88
591.7	87.88
591.91	74.88
592.119	74.88
592.329	85.88
592.539	91.88
592.748	87.88
592.958	79.88
593.167	78.88
593.377	83.88
593.587	95.88
593.796	75.88
594.006	75.88
594.215	72.88
594.424	82.88
594.634	85.88
594.843	97.88
595.053	77.88
595.262	90.88
595.472	98.88
595.681	77.88
595.89	75.88
596.1	91.88
596.309	90.88
596.518	89.88
596.727	85.88
596.937	71.88
597.146	86.88
597.355	87.88
597.564	81.88
597.774	87.88
597.983	77.88
598.192	78.88
598.401	94.88
598.61	90.88
598.819	90.88
599.028	90.88
599.237	74.88
599.446	79.88
599.655	87.88
599.864	81.88
600.073	90.88
600.282	96.88
600.491	88.88
600.7	83.88
600.909	85.88
601.118	83.88
601.327	76.88
601.536	97.88
601.745	73.88
601.953	86.88
602.162	80.88
602.371	76.88
602.58	75.88
602.789	87.88
602.997	99.88
603.206	80.88
603.415	83.88
603.623	88.88
603.832	86.88
604.041	83.88
604.249	95.88
604.458	87.88
604.666	84.88
604.875	93.88
605.084	100.88
605.292	75.88
605.501	90.88
605.709	72.88
605.918	76.88
606.126	91.88
606.334	87.88
606.543	79.88
606.751	99.88
606.96	93.88
607.168	70.88
607.376	88.88
607.585	88.88
607.793	84.88
608.001	92.88
608.21	80.88
608.418	73.88
608.626	78.88
608.834	87.88
609.043	83.88
609.251	97.88
609.459	75.88
609.667	80.88
609.875	73.88
610.083	89.88
610.291	81.88
610.499	97.88
610.707	85.88
610.916	78.88
611.124	89.88
611.332	91.88
611.54	87.88
611.748	102.88
611.955	76.88
612.163	88.88
612.371	103.88
612.579	102.88
612.787	89.88
612.995	78.88
613.203	83.88
613.411	88.88
613.618	88.88
613.826	94.88
614.034	76.88
614.242	76.88
614.449	81.88
614.657	79.88
614.865	82.88
615.072	72.88
615.28	79.88
615.488	77.88
615.695	95.88
615.903	85.88
616.111	83.88
616.318	88.88
616.526	73.88
616.733	95.88
616.941	75.88
617.148	87.88
617.356	91.88
617.563	71.88
617.771	59.88
617.978	89.88
618.185	83.88
618.393	82.88
618.6	81.88
618.807	82.88
619.015	88.88
619.222	74.88
619.429	84.88
619.637	84.88
619.844	84.88
620.051	77.88
620.258	68.88
620.466	89.88
620.673	80.88
620.88	66.88
621.087	90.88
621.294	93.88
621.501	66.88
621.708	75.88
621.915	86.88
622.122	79.88
622.329	88.88
622.536	88.88
622.743	78.88
622.95	85.88
623.157	81.88
623.364	68.88
623.571	93.88
623.778	74.88
623.985	99.88
624.192	87.88
624.399	85.88
624.606	74.88
624.812	80.88
625.019	77.88
625.226	84.88
625.433	83.88
625.639	64.88
625.846	85.88
626.053	73.88
626.259	84.88
626.466	87.88
626.673	78.88
626.879	83.88
627.086	77.88
627.293	72.88
627.499	85.88
627.706	72.88
627.912	93.88
628.119	87.88
628.325	79.88
628.532	85.88
628.738	77.88
628.945	74.88
629.151	65.88
629.357	96.88
629.564	70.88
629.77	80.88
629.976	72.88
630.183	90.88
630.389	83.88
630.595	99.88
630.802	79.88
631.008	72.88
631.214	64.88
631.42	82.88
631.627	83.88
631.833	88.88
632.039	71.88
632.245	74.88
632.451	80.88
632.657	72.88
632.863	88.88
633.069	82.88
633.275	104.88
633.481	92.88
633.688	93.88
633.893	87.88
634.099	90.88
634.305	84.88
634.511	68.88
634.717	83.88
634.923	78.88
635.129	80.88
635.335	70.88
635.541	80.88
635.747	86.88
635.952	77.88
636.158	73.88
636.364	78.88
636.57	83.88
636.775	80.88
636.981	77.88
637.187	71.88
637.392	81.88
637.598	72.88
637.804	81.88
638.009	81.88
638.215	82.88
638.421	83.88
638.626	79.88
638.832	89.88
639.037	84.88
639.243	82.88
639.448	75.88
639.654	83.88
639.859	77.88
640.065	91.88
640.27	83.88
640.475	88.88
640.681	77.88
640.886	91.88
641.091	79.88
641.297	76.88
641.502	78.88
641.707	92.88
641.913	93.88
642.118	77.88
642.323	85.88
642.528	77.88
642.733	94.88
642.939	68.88
643.144	80.88
643.349	79.88
643.554	75.88
643.759	96.88
643.964	67.88
644.169	91.88
644.374	73.88
644.579	78.88
644.784	81.88
644.989	85.88
645.194	83.88
645.399	80.88
645.604	67.88
645.809	81.88
646.014	81.88
646.219	82.88
646.423	72.88
646.628	83.88
646.833	80.88
647.038	76.88
647.243	89.88
647.447	81.88
647.652	80.88
647.857	93.88
648.062	98.88
648.266	87.88
648.471	69.88
648.676	77.88
648.88	72.88
649.085	92.88
649.289	79.88
649.494	83.88
649.698	87.88
649.903	84.88
650.107	84.88
650.312	84.88
650.516	85.88
650.721	76.88
650.925	77.88
651.13	82.88
651.334	60.88
651.539	89.88
651.743	76.88
651.947	86.88
652.152	77.88
652.356	89.88
652.56	79.88
652.764	84.88
652.969	88.88
653.173	94.88
653.377	78.88
653.581	71.88
653.785	86.88
653.99	81.88
654.194	75.88
654.398	77.88
654.602	97.88
654.806	90.88
655.01	71.88
655.214	73.88
655.418	77.88
655.622	81.88
655.826	71.88
656.03	95.88
656.234	85.88
656.438	74.88
656.642	75.88
656.846	82.88
657.049	90.88
657.253	93.88
657.457	82.88
657.661	79.88
657.865	71.88
658.068	81.88
658.272	75.88
658.476	94.88
658.68	75.88
658.883	73.88
659.087	72.88
659.291	87.88
659.494	84.88
659.698	74.88
659.901	91.88
660.105	80.88
660.309	84.88
660.512	85.88
660.716	78.88
660.919	80.88
661.123	76.88
661.326	79.88
661.53	79.88
661.733	69.88
661.936	80.88
662.14	85.88
662.343	91.88
662.546	82.88
662.75	76.88
662.953	85.88
663.156	77.88
663.36	84.88
663.563	68.88
663.766	74.88
663.969	69.88
664.173	81.88
664.376	68.88
664.579	84.88
664.782	83.88
664.985	67.88
665.188	72.88
665.391	74.88
665.594	87.88
665.797	84.88
666	78.88
666.203	70.88
666.406	90.88
666.609	92.88
666.812	60.88
667.015	71.88
667.218	72.88
667.421	69.88
667.624	95.88
667.827	78.88
668.03	78.88
668.232	85.88
668.435	91.88
668.638	71.88
668.841	79.88
669.043	75.88
669.246	85.88
669.449	89.88
669.651	97.88
669.854	89.88
670.057	73.88
670.259	82.88
670.462	75.88
670.665	81.88
670.867	84.88
671.07	81.88
671.272	76.88
671.475	87.88
671.677	80.88
671.88	75.88
672.082	76.88
672.284	84.88
672.487	86.88
672.689	83.88
672.892	81.88
