Data from Ni(NO3)2@0.125M.TitratingCurve.Agarose3%dH2O.NegLispCup.LampEnergy10.LIBS07252019_HRD10591_18-08-35-569.txt Node
Date: Thu Jul 25 18:08:35 EDT 2019
User: cochatt
Spectrometer: HR+D1059
Trigger mode: 1
Integration Time (sec): 1.000000E-1
Scans to average: 1
Electric dark correction enabled: true
Nonlinearity correction enabled: false
Boxcar width: 0
XAxis mode: Wavelengths
Number of Pixels in Spectrum: 2048
>>>>>Begin Spectral Data<<<<<
223.165	-21.12
223.4	-21.12
223.635	-21.12
223.869	-8.12
224.104	-29.12
224.338	-13.12
224.573	-11.12
224.808	-10.12
225.042	-4.12
225.277	-6.12
225.511	-14.12
225.746	3.88
225.98	6.88
226.215	14.88
226.449	16.88
226.683	9.88
226.918	29.88
227.152	34.88
227.387	32.88
227.621	38.88
227.856	44.88
228.09	46.88
228.324	50.88
228.559	51.88
228.793	60.88
229.027	99.88
229.262	109.88
229.496	103.88
229.73	120.88
229.964	116.88
230.199	136.88
230.433	112.88
230.667	126.88
230.901	144.88
231.136	130.88
231.37	137.88
231.604	129.88
231.838	135.88
232.072	138.88
232.306	157.88
232.541	135.88
232.775	138.88
233.009	144.88
233.243	125.88
233.477	130.88
233.711	130.88
233.945	129.88
234.179	136.88
234.413	146.88
234.647	141.88
234.881	134.88
235.115	152.88
235.349	134.88
235.583	145.88
235.817	145.88
236.051	150.88
236.285	148.88
236.519	149.88
236.753	165.88
236.987	163.88
237.221	153.88
237.455	142.88
237.689	158.88
237.922	148.88
238.156	136.88
238.39	153.88
238.624	151.88
238.858	147.88
239.091	164.88
239.325	161.88
239.559	148.88
239.793	165.88
240.027	168.88
240.26	170.88
240.494	172.88
240.728	169.88
240.961	162.88
241.195	188.88
241.429	176.88
241.662	153.88
241.896	168.88
242.13	192.88
242.363	165.88
242.597	182.88
242.83	156.88
243.064	169.88
243.298	183.88
243.531	174.88
243.765	186.88
243.998	197.88
244.232	176.88
244.465	191.88
244.699	185.88
244.932	188.88
245.166	210.88
245.399	202.88
245.633	201.88
245.866	176.88
246.099	201.88
246.333	208.88
246.566	208.88
246.8	189.88
247.033	216.88
247.266	196.88
247.5	210.88
247.733	218.88
247.966	209.88
248.2	221.88
248.433	229.88
248.666	224.88
248.899	230.88
249.133	244.88
249.366	219.88
249.599	221.88
249.832	242.88
250.066	210.88
250.299	233.88
250.532	217.88
250.765	219.88
250.998	238.88
251.231	254.88
251.465	245.88
251.698	256.88
251.931	252.88
252.164	254.88
252.397	255.88
252.63	258.88
252.863	259.88
253.096	265.88
253.329	267.88
253.562	256.88
253.795	262.88
254.028	253.88
254.261	245.88
254.494	267.88
254.727	270.88
254.96	269.88
255.193	264.88
255.426	276.88
255.659	272.88
255.892	290.88
256.124	296.88
256.357	280.88
256.59	280.88
256.823	273.88
257.056	292.88
257.289	290.88
257.521	281.88
257.754	299.88
257.987	301.88
258.22	291.88
258.452	311.88
258.685	299.88
258.918	306.88
259.151	300.88
259.383	296.88
259.616	301.88
259.849	305.88
260.081	312.88
260.314	313.88
260.547	310.88
260.779	314.88
261.012	313.88
261.244	333.88
261.477	315.88
261.71	314.88
261.942	307.88
262.175	321.88
262.407	317.88
262.64	309.88
262.872	314.88
263.105	319.88
263.337	336.88
263.57	316.88
263.802	338.88
264.035	327.88
264.267	325.88
264.499	329.88
264.732	334.88
264.964	333.88
265.197	354.88
265.429	329.88
265.661	326.88
265.894	353.88
266.126	347.88
266.358	338.88
266.591	353.88
266.823	348.88
267.055	352.88
267.287	346.88
267.52	356.88
267.752	365.88
267.984	352.88
268.216	342.88
268.448	336.88
268.681	338.88
268.913	353.88
269.145	364.88
269.377	369.88
269.609	360.88
269.841	349.88
270.073	360.88
270.306	346.88
270.538	346.88
270.77	363.88
271.002	356.88
271.234	378.88
271.466	392.88
271.698	371.88
271.93	372.88
272.162	357.88
272.394	361.88
272.626	334.88
272.858	361.88
273.09	363.88
273.322	357.88
273.553	384.88
273.785	380.88
274.017	391.88
274.249	374.88
274.481	373.88
274.713	385.88
274.945	402.88
275.176	412.88
275.408	422.88
275.64	397.88
275.872	381.88
276.104	404.88
276.335	399.88
276.567	405.88
276.799	405.88
277.031	386.88
277.262	388.88
277.494	389.88
277.726	412.88
277.957	414.88
278.189	410.88
278.421	414.88
278.652	403.88
278.884	406.88
279.115	400.88
279.347	425.88
279.579	419.88
279.81	409.88
280.042	404.88
280.273	402.88
280.505	422.88
280.736	411.88
280.968	394.88
281.199	413.88
281.431	404.88
281.662	445.88
281.894	454.88
282.125	429.88
282.356	421.88
282.588	441.88
282.819	421.88
283.051	425.88
283.282	423.88
283.513	437.88
283.745	426.88
283.976	431.88
284.207	444.88
284.439	441.88
284.67	449.88
284.901	449.88
285.132	439.88
285.364	451.88
285.595	471.88
285.826	448.88
286.057	452.88
286.288	440.88
286.52	461.88
286.751	444.88
286.982	450.88
287.213	443.88
287.444	453.88
287.675	432.88
287.906	452.88
288.138	451.88
288.369	468.88
288.6	454.88
288.831	449.88
289.062	450.88
289.293	452.88
289.524	468.88
289.755	461.88
289.986	454.88
290.217	442.88
290.448	463.88
290.679	488.88
290.91	473.88
291.141	477.88
291.371	483.88
291.602	475.88
291.833	464.88
292.064	461.88
292.295	465.88
292.526	474.88
292.757	459.88
292.987	460.88
293.218	459.88
293.449	482.88
293.68	477.88
293.91	487.88
294.141	472.88
294.372	457.88
294.603	477.88
294.833	465.88
295.064	477.88
295.295	472.88
295.525	494.88
295.756	472.88
295.987	491.88
296.217	499.88
296.448	482.88
296.679	493.88
296.909	499.88
297.14	493.88
297.37	508.88
297.601	515.88
297.831	500.88
298.062	508.88
298.292	504.88
298.523	525.88
298.753	538.88
298.984	517.88
299.214	498.88
299.445	519.88
299.675	510.88
299.905	525.88
300.136	508.88
300.366	541.88
300.597	534.88
300.827	563.88
301.057	528.88
301.288	534.88
301.518	556.88
301.748	540.88
301.979	538.88
302.209	538.88
302.439	499.88
302.669	526.88
302.9	528.88
303.13	533.88
303.36	532.88
303.59	545.88
303.82	534.88
304.051	551.88
304.281	543.88
304.511	539.88
304.741	529.88
304.971	535.88
305.201	552.88
305.431	538.88
305.661	564.88
305.891	540.88
306.121	540.88
306.352	512.88
306.582	541.88
306.812	512.88
307.042	536.88
307.272	516.88
307.502	526.88
307.731	518.88
307.961	528.88
308.191	537.88
308.421	515.88
308.651	503.88
308.881	533.88
309.111	516.88
309.341	520.88
309.571	518.88
309.8	516.88
310.03	548.88
310.26	556.88
310.49	567.88
310.72	532.88
310.949	546.88
311.179	524.88
311.409	534.88
311.639	529.88
311.868	535.88
312.098	546.88
312.328	548.88
312.557	536.88
312.787	533.88
313.017	542.88
313.246	566.88
313.476	592.88
313.706	589.88
313.935	580.88
314.165	576.88
314.394	580.88
314.624	575.88
314.853	565.88
315.083	570.88
315.312	565.88
315.542	570.88
315.771	572.88
316.001	566.88
316.23	562.88
316.46	555.88
316.689	564.88
316.919	566.88
317.148	554.88
317.377	540.88
317.607	571.88
317.836	560.88
318.065	568.88
318.295	573.88
318.524	579.88
318.753	570.88
318.983	559.88
319.212	558.88
319.441	558.88
319.67	600.88
319.9	572.88
320.129	584.88
320.358	569.88
320.587	586.88
320.816	604.88
321.046	562.88
321.275	570.88
321.504	575.88
321.733	574.88
321.962	576.88
322.191	585.88
322.42	598.88
322.649	594.88
322.878	577.88
323.108	578.88
323.337	614.88
323.566	595.88
323.795	610.88
324.024	598.88
324.253	597.88
324.482	592.88
324.71	615.88
324.939	611.88
325.168	613.88
325.397	598.88
325.626	612.88
325.855	638.88
326.084	650.88
326.313	670.88
326.542	647.88
326.77	682.88
326.999	650.88
327.228	650.88
327.457	662.88
327.686	626.88
327.914	653.88
328.143	651.88
328.372	636.88
328.6	659.88
328.829	677.88
329.058	652.88
329.287	661.88
329.515	663.88
329.744	652.88
329.972	647.88
330.201	679.88
330.43	676.88
330.658	674.88
330.887	700.88
331.115	694.88
331.344	683.88
331.572	666.88
331.801	737.88
332.03	722.88
332.258	743.88
332.486	764.88
332.715	798.88
332.943	795.88
333.172	835.88
333.4	830.88
333.629	858.88
333.857	880.88
334.085	892.88
334.314	870.88
334.542	868.88
334.771	865.88
334.999	862.88
335.227	836.88
335.455	842.88
335.684	836.88
335.912	835.88
336.14	815.88
336.369	808.88
336.597	839.88
336.825	824.88
337.053	814.88
337.281	842.88
337.51	798.88
337.738	781.88
337.966	746.88
338.194	794.88
338.422	786.88
338.65	744.88
338.878	732.88
339.106	770.88
339.334	760.88
339.562	758.88
339.79	708.88
340.018	719.88
340.246	737.88
340.474	715.88
340.702	721.88
340.93	724.88
341.158	733.88
341.386	753.88
341.614	784.88
341.842	752.88
342.07	723.88
342.298	713.88
342.526	717.88
342.754	719.88
342.981	708.88
343.209	741.88
343.437	766.88
343.665	822.88
343.893	838.88
344.12	880.88
344.348	846.88
344.576	841.88
344.804	807.88
345.031	755.88
345.259	742.88
345.487	754.88
345.714	740.88
345.942	732.88
346.17	765.88
346.397	736.88
346.625	735.88
346.853	712.88
347.08	697.88
347.308	688.88
347.535	717.88
347.763	721.88
347.99	719.88
348.218	708.88
348.445	713.88
348.673	706.88
348.9	701.88
349.128	722.88
349.355	715.88
349.583	722.88
349.81	690.88
350.037	675.88
350.265	690.88
350.492	654.88
350.72	689.88
350.947	687.88
351.174	680.88
351.402	716.88
351.629	708.88
351.856	703.88
352.083	686.88
352.311	697.88
352.538	732.88
352.765	734.88
352.992	701.88
353.22	666.88
353.447	659.88
353.674	664.88
353.901	648.88
354.128	657.88
354.355	645.88
354.583	647.88
354.81	665.88
355.037	681.88
355.264	666.88
355.491	664.88
355.718	650.88
355.945	666.88
356.172	706.88
356.399	680.88
356.626	650.88
356.853	692.88
357.08	692.88
357.307	672.88
357.534	654.88
357.761	667.88
357.988	673.88
358.215	678.88
358.441	658.88
358.668	658.88
358.895	669.88
359.122	668.88
359.349	677.88
359.576	650.88
359.802	658.88
360.029	676.88
360.256	659.88
360.483	672.88
360.709	676.88
360.936	674.88
361.163	687.88
361.39	653.88
361.616	658.88
361.843	674.88
362.07	708.88
362.296	691.88
362.523	684.88
362.749	667.88
362.976	654.88
363.203	649.88
363.429	662.88
363.656	661.88
363.882	639.88
364.109	648.88
364.335	657.88
364.562	664.88
364.788	648.88
365.015	641.88
365.241	634.88
365.468	641.88
365.694	644.88
365.92	652.88
366.147	632.88
366.373	641.88
366.599	664.88
366.826	662.88
367.052	654.88
367.278	673.88
367.505	656.88
367.731	652.88
367.957	654.88
368.184	655.88
368.41	660.88
368.636	661.88
368.862	654.88
369.089	658.88
369.315	685.88
369.541	660.88
369.767	699.88
369.993	656.88
370.219	687.88
370.445	666.88
370.672	689.88
370.898	675.88
371.124	668.88
371.35	708.88
371.576	714.88
371.802	702.88
372.028	702.88
372.254	695.88
372.48	721.88
372.706	711.88
372.932	711.88
373.158	739.88
373.384	700.88
373.61	685.88
373.835	702.88
374.061	704.88
374.287	669.88
374.513	718.88
374.739	733.88
374.965	759.88
375.191	745.88
375.416	754.88
375.642	707.88
375.868	725.88
376.094	716.88
376.319	721.88
376.545	726.88
376.771	725.88
376.997	688.88
377.222	716.88
377.448	685.88
377.674	685.88
377.899	681.88
378.125	700.88
378.35	685.88
378.576	690.88
378.802	677.88
379.027	684.88
379.253	668.88
379.478	672.88
379.704	692.88
379.929	705.88
380.155	701.88
380.38	689.88
380.606	679.88
380.831	669.88
381.057	690.88
381.282	673.88
381.507	690.88
381.733	709.88
381.958	710.88
382.184	717.88
382.409	697.88
382.634	695.88
382.86	705.88
383.085	744.88
383.31	749.88
383.535	747.88
383.761	759.88
383.986	749.88
384.211	756.88
384.436	766.88
384.662	786.88
384.887	801.88
385.112	791.88
385.337	812.88
385.562	821.88
385.787	796.88
386.013	823.88
386.238	820.88
386.463	844.88
386.688	818.88
386.913	808.88
387.138	802.88
387.363	821.88
387.588	796.88
387.813	810.88
388.038	820.88
388.263	802.88
388.488	809.88
388.713	800.88
388.938	800.88
389.163	802.88
389.387	792.88
389.612	780.88
389.837	784.88
390.062	777.88
390.287	764.88
390.512	792.88
390.736	805.88
390.961	792.88
391.186	802.88
391.411	839.88
391.636	872.88
391.86	887.88
392.085	901.88
392.31	890.88
392.534	892.88
392.759	849.88
392.984	832.88
393.208	854.88
393.433	849.88
393.658	849.88
393.882	830.88
394.107	833.88
394.331	869.88
394.556	850.88
394.78	882.88
395.005	862.88
395.229	866.88
395.454	872.88
395.678	911.88
395.903	895.88
396.127	883.88
396.352	866.88
396.576	857.88
396.801	841.88
397.025	858.88
397.249	863.88
397.474	873.88
397.698	894.88
397.922	924.88
398.147	890.88
398.371	926.88
398.595	934.88
398.82	989.88
399.044	1042.88
399.268	1131.88
399.492	1282.88
399.717	1399.88
399.941	1420.88
400.165	1301.88
400.389	1204.88
400.613	1152.88
400.837	1072.88
401.062	1020.88
401.286	1013.88
401.51	1004.88
401.734	996.88
401.958	1029.88
402.182	1012.88
402.406	1055.88
402.63	1069.88
402.854	1069.88
403.078	1065.88
403.302	1097.88
403.526	1110.88
403.75	1121.88
403.974	1145.88
404.198	1125.88
404.422	1122.88
404.645	1114.88
404.869	1122.88
405.093	1128.88
405.317	1107.88
405.541	1097.88
405.765	1106.88
405.988	1094.88
406.212	1089.88
406.436	1108.88
406.66	1106.88
406.883	1152.88
407.107	1210.88
407.331	1246.88
407.555	1255.88
407.778	1264.88
408.002	1266.88
408.226	1261.88
408.449	1195.88
408.673	1145.88
408.896	1129.88
409.12	1139.88
409.344	1147.88
409.567	1108.88
409.791	1137.88
410.014	1122.88
410.238	1117.88
410.461	1101.88
410.685	1090.88
410.908	1110.88
411.132	1071.88
411.355	1044.88
411.578	1041.88
411.802	1065.88
412.025	1032.88
412.249	1077.88
412.472	1067.88
412.695	1052.88
412.919	1011.88
413.142	998.88
413.365	1040.88
413.589	1027.88
413.812	1014.88
414.035	1008.88
414.258	997.88
414.482	1054.88
414.705	1019.88
414.928	1037.88
415.151	1040.88
415.374	1042.88
415.597	988.88
415.821	987.88
416.044	1010.88
416.267	1011.88
416.49	997.88
416.713	1011.88
416.936	1001.88
417.159	1002.88
417.382	978.88
417.605	996.88
417.828	1016.88
418.051	1015.88
418.274	1032.88
418.497	1010.88
418.72	1025.88
418.943	1041.88
419.166	1109.88
419.389	1205.88
419.611	1167.88
419.834	1101.88
420.057	1048.88
420.28	1031.88
420.503	1018.88
420.726	1033.88
420.948	1019.88
421.171	1023.88
421.394	1009.88
421.617	1035.88
421.839	1028.88
422.062	1022.88
422.285	991.88
422.507	1058.88
422.73	1034.88
422.953	1031.88
423.175	1061.88
423.398	1057.88
423.621	1050.88
423.843	1064.88
424.066	1111.88
424.288	1077.88
424.511	1082.88
424.733	1035.88
424.956	1034.88
425.178	1053.88
425.401	1035.88
425.623	1035.88
425.846	1005.88
426.068	995.88
426.291	992.88
426.513	996.88
426.735	983.88
426.958	982.88
427.18	962.88
427.402	953.88
427.625	972.88
427.847	926.88
428.069	920.88
428.292	969.88
428.514	947.88
428.736	939.88
428.958	948.88
429.181	920.88
429.403	904.88
429.625	944.88
429.847	911.88
430.069	948.88
430.292	956.88
430.514	908.88
430.736	917.88
430.958	893.88
431.18	924.88
431.402	941.88
431.624	916.88
431.846	951.88
432.068	956.88
432.29	986.88
432.512	965.88
432.734	982.88
432.956	916.88
433.178	932.88
433.4	948.88
433.622	980.88
433.844	956.88
434.066	971.88
434.287	985.88
434.509	1024.88
434.731	1008.88
434.953	1032.88
435.175	1094.88
435.397	1072.88
435.618	1014.88
435.84	969.88
436.062	963.88
436.284	955.88
436.505	978.88
436.727	969.88
436.949	965.88
437.17	940.88
437.392	949.88
437.614	922.88
437.835	884.88
438.057	898.88
438.278	914.88
438.5	916.88
438.721	924.88
438.943	942.88
439.165	939.88
439.386	945.88
439.608	967.88
439.829	966.88
440.05	978.88
440.272	958.88
440.493	979.88
440.715	964.88
440.936	987.88
441.158	1002.88
441.379	1034.88
441.6	1060.88
441.822	1088.88
442.043	1094.88
442.264	1061.88
442.486	1033.88
442.707	1046.88
442.928	1032.88
443.149	1057.88
443.371	1054.88
443.592	1094.88
443.813	1079.88
444.034	1080.88
444.255	1111.88
444.476	1191.88
444.698	1212.88
444.919	1268.88
445.14	1385.88
445.361	1268.88
445.582	1152.88
445.803	1070.88
446.024	1038.88
446.245	1033.88
446.466	1020.88
446.687	980.88
446.908	994.88
447.129	951.88
447.35	902.88
447.571	933.88
447.792	921.88
448.013	903.88
448.234	908.88
448.455	914.88
448.675	914.88
448.896	907.88
449.117	876.88
449.338	876.88
449.559	872.88
449.779	869.88
450	894.88
450.221	904.88
450.442	906.88
450.662	909.88
450.883	898.88
451.104	945.88
451.324	914.88
451.545	894.88
451.766	889.88
451.986	912.88
452.207	894.88
452.428	898.88
452.648	886.88
452.869	844.88
453.089	820.88
453.31	886.88
453.53	857.88
453.751	854.88
453.971	869.88
454.192	881.88
454.412	876.88
454.633	845.88
454.853	852.88
455.073	847.88
455.294	837.88
455.514	839.88
455.734	853.88
455.955	844.88
456.175	860.88
456.395	820.88
456.616	827.88
456.836	831.88
457.056	841.88
457.276	825.88
457.497	825.88
457.717	830.88
457.937	839.88
458.157	865.88
458.377	848.88
458.598	871.88
458.818	898.88
459.038	903.88
459.258	916.88
459.478	1003.88
459.698	1028.88
459.918	1024.88
460.138	1066.88
460.358	1140.88
460.578	1116.88
460.798	1146.88
461.018	1188.88
461.238	1143.88
461.458	1140.88
461.678	1134.88
461.898	1174.88
462.118	1173.88
462.338	1235.88
462.558	1230.88
462.777	1280.88
462.997	1400.88
463.217	1462.88
463.437	1515.88
463.657	1410.88
463.876	1382.88
464.096	1348.88
464.316	1301.88
464.536	1334.88
464.755	1323.88
464.975	1214.88
465.195	1172.88
465.414	1076.88
465.634	1067.88
465.854	1026.88
466.073	978.88
466.293	980.88
466.512	948.88
466.732	945.88
466.951	935.88
467.171	934.88
467.391	937.88
467.61	937.88
467.829	933.88
468.049	939.88
468.268	912.88
468.488	902.88
468.707	921.88
468.927	885.88
469.146	910.88
469.365	902.88
469.585	894.88
469.804	950.88
470.023	963.88
470.243	965.88
470.462	972.88
470.681	966.88
470.901	987.88
471.12	963.88
471.339	926.88
471.558	908.88
471.777	918.88
471.997	930.88
472.216	917.88
472.435	899.88
472.654	891.88
472.873	872.88
473.092	882.88
473.311	872.88
473.53	883.88
473.749	896.88
473.968	896.88
474.187	875.88
474.406	896.88
474.625	887.88
474.844	894.88
475.063	907.88
475.282	883.88
475.501	903.88
475.72	906.88
475.939	899.88
476.158	909.88
476.377	932.88
476.596	951.88
476.814	941.88
477.033	940.88
477.252	954.88
477.471	995.88
477.69	1036.88
477.908	1012.88
478.127	1055.88
478.346	1030.88
478.564	1075.88
478.783	1092.88
479.002	1102.88
479.22	1127.88
479.439	1117.88
479.658	1119.88
479.876	1096.88
480.095	1118.88
480.313	1168.88
480.532	1179.88
480.751	1139.88
480.969	1118.88
481.188	1069.88
481.406	1064.88
481.624	1058.88
481.843	1000.88
482.061	1029.88
482.28	1008.88
482.498	990.88
482.717	998.88
482.935	998.88
483.153	1006.88
483.372	1062.88
483.59	1055.88
483.808	1015.88
484.027	995.88
484.245	1034.88
484.463	1036.88
484.681	1040.88
484.9	1054.88
485.118	1065.88
485.336	1047.88
485.554	1076.88
485.772	1078.88
485.99	1084.88
486.209	1114.88
486.427	1048.88
486.645	1091.88
486.863	1091.88
487.081	1050.88
487.299	1064.88
487.517	1024.88
487.735	1123.88
487.953	1107.88
488.171	1098.88
488.389	1076.88
488.607	1066.88
488.825	1016.88
489.043	1063.88
489.261	1047.88
489.479	1059.88
489.696	1064.88
489.914	1076.88
490.132	1061.88
490.35	1076.88
490.568	1060.88
490.786	1102.88
491.003	1092.88
491.221	1075.88
491.439	1087.88
491.657	1129.88
491.874	1112.88
492.092	1113.88
492.31	1117.88
492.527	1125.88
492.745	1097.88
492.963	1147.88
493.18	1108.88
493.398	1093.88
493.615	1117.88
493.833	1133.88
494.05	1105.88
494.268	1138.88
494.485	1125.88
494.703	1143.88
494.92	1150.88
495.138	1153.88
495.355	1163.88
495.573	1142.88
495.79	1131.88
496.008	1167.88
496.225	1166.88
496.442	1160.88
496.66	1178.88
496.877	1227.88
497.094	1214.88
497.312	1276.88
497.529	1295.88
497.746	1316.88
497.963	1316.88
498.181	1407.88
498.398	1447.88
498.615	1510.88
498.832	1580.88
499.049	1699.88
499.267	1899.88
499.484	2005.88
499.701	2203.88
499.918	2412.88
500.135	2736.88
500.352	2980.88
500.569	3155.88
500.786	3132.88
501.003	3001.88
501.22	2700.88
501.437	2471.88
501.654	2163.88
501.871	1995.88
502.088	1846.88
502.305	1704.88
502.522	1628.88
502.739	1570.88
502.956	1468.88
503.172	1428.88
503.389	1363.88
503.606	1299.88
503.823	1330.88
504.04	1302.88
504.256	1341.88
504.473	1355.88
504.69	1347.88
504.907	1334.88
505.123	1270.88
505.34	1180.88
505.557	1157.88
505.773	1141.88
505.99	1089.88
506.207	1060.88
506.423	1044.88
506.64	1078.88
506.856	1072.88
507.073	1028.88
507.289	1026.88
507.506	1005.88
507.722	991.88
507.939	986.88
508.155	1023.88
508.372	992.88
508.588	962.88
508.805	962.88
509.021	961.88
509.238	965.88
509.454	966.88
509.67	938.88
509.887	944.88
510.103	934.88
510.319	944.88
510.536	952.88
510.752	919.88
510.968	922.88
511.184	957.88
511.401	934.88
511.617	926.88
511.833	912.88
512.049	921.88
512.265	926.88
512.481	952.88
512.698	896.88
512.914	915.88
513.13	914.88
513.346	905.88
513.562	926.88
513.778	916.88
513.994	930.88
514.21	922.88
514.426	951.88
514.642	918.88
514.858	932.88
515.074	937.88
515.29	971.88
515.506	958.88
515.721	977.88
515.937	981.88
516.153	993.88
516.369	1015.88
516.585	1050.88
516.801	1068.88
517.016	1106.88
517.232	1160.88
517.448	1232.88
517.664	1242.88
517.879	1251.88
518.095	1234.88
518.311	1249.88
518.527	1181.88
518.742	1131.88
518.958	1093.88
519.173	1100.88
519.389	1035.88
519.605	1000.88
519.82	997.88
520.036	966.88
520.251	945.88
520.467	927.88
520.682	924.88
520.898	927.88
521.113	903.88
521.329	882.88
521.544	905.88
521.76	906.88
521.975	889.88
522.19	877.88
522.406	893.88
522.621	869.88
522.836	872.88
523.052	883.88
523.267	877.88
523.482	878.88
523.698	866.88
523.913	854.88
524.128	877.88
524.343	877.88
524.559	856.88
524.774	828.88
524.989	860.88
525.204	880.88
525.419	850.88
525.634	832.88
525.849	861.88
526.064	847.88
526.28	857.88
526.495	829.88
526.71	826.88
526.925	824.88
527.14	814.88
527.355	823.88
527.57	849.88
527.785	851.88
527.999	849.88
528.214	836.88
528.429	854.88
528.644	855.88
528.859	830.88
529.074	857.88
529.289	874.88
529.503	874.88
529.718	830.88
529.933	839.88
530.148	836.88
530.363	834.88
530.577	832.88
530.792	859.88
531.007	832.88
531.221	830.88
531.436	830.88
531.651	839.88
531.865	852.88
532.08	828.88
532.295	840.88
532.509	813.88
532.724	821.88
532.938	822.88
533.153	808.88
533.367	852.88
533.582	841.88
533.796	855.88
534.011	831.88
534.225	835.88
534.44	827.88
534.654	807.88
534.868	827.88
535.083	821.88
535.297	824.88
535.511	830.88
535.726	815.88
535.94	791.88
536.154	770.88
536.369	788.88
536.583	765.88
536.797	769.88
537.011	767.88
537.225	782.88
537.44	780.88
537.654	779.88
537.868	803.88
538.082	758.88
538.296	755.88
538.51	768.88
538.724	761.88
538.938	761.88
539.153	758.88
539.367	758.88
539.581	745.88
539.795	766.88
540.009	748.88
540.222	750.88
540.436	749.88
540.65	757.88
540.864	732.88
541.078	739.88
541.292	742.88
541.506	762.88
541.72	761.88
541.934	789.88
542.147	789.88
542.361	760.88
542.575	752.88
542.789	746.88
543.002	735.88
543.216	753.88
543.43	741.88
543.644	727.88
543.857	765.88
544.071	782.88
544.285	760.88
544.498	770.88
544.712	763.88
544.925	766.88
545.139	764.88
545.352	746.88
545.566	780.88
545.779	747.88
545.993	750.88
546.206	776.88
546.42	784.88
546.633	778.88
546.847	760.88
547.06	776.88
547.274	785.88
547.487	752.88
547.7	778.88
547.914	791.88
548.127	777.88
548.34	776.88
548.554	807.88
548.767	803.88
548.98	810.88
549.193	781.88
549.407	800.88
549.62	803.88
549.833	783.88
550.046	749.88
550.259	785.88
550.473	763.88
550.686	786.88
550.899	734.88
551.112	744.88
551.325	758.88
551.538	768.88
551.751	756.88
551.964	769.88
552.177	786.88
552.39	802.88
552.603	790.88
552.816	805.88
553.029	824.88
553.242	852.88
553.455	851.88
553.667	847.88
553.88	831.88
554.093	811.88
554.306	800.88
554.519	789.88
554.732	750.88
554.944	759.88
555.157	762.88
555.37	740.88
555.583	698.88
555.795	701.88
556.008	711.88
556.221	684.88
556.433	699.88
556.646	685.88
556.859	678.88
557.071	689.88
557.284	676.88
557.496	658.88
557.709	679.88
557.921	664.88
558.134	668.88
558.346	659.88
558.559	647.88
558.771	666.88
558.984	658.88
559.196	639.88
559.409	638.88
559.621	618.88
559.833	646.88
560.046	644.88
560.258	603.88
560.47	648.88
560.683	645.88
560.895	633.88
561.107	648.88
561.32	644.88
561.532	639.88
561.744	656.88
561.956	650.88
562.168	658.88
562.381	658.88
562.593	658.88
562.805	649.88
563.017	656.88
563.229	642.88
563.441	647.88
563.653	630.88
563.865	647.88
564.077	670.88
564.289	664.88
564.501	660.88
564.713	652.88
564.925	690.88
565.137	696.88
565.349	687.88
565.561	738.88
565.773	769.88
565.985	800.88
566.197	827.88
566.408	892.88
566.62	934.88
566.832	998.88
567.044	1014.88
567.255	1015.88
567.467	1072.88
567.679	1094.88
567.891	1138.88
568.102	1141.88
568.314	1066.88
568.526	1018.88
568.737	937.88
568.949	852.88
569.161	789.88
569.372	751.88
569.584	724.88
569.795	708.88
570.007	669.88
570.218	666.88
570.43	651.88
570.641	617.88
570.853	653.88
571.064	656.88
571.276	668.88
571.487	645.88
571.698	629.88
571.91	619.88
572.121	613.88
572.333	566.88
572.544	556.88
572.755	550.88
572.966	544.88
573.178	543.88
573.389	562.88
573.6	528.88
573.811	529.88
574.023	540.88
574.234	521.88
574.445	526.88
574.656	530.88
574.867	537.88
575.078	542.88
575.289	513.88
575.501	516.88
575.712	492.88
575.923	501.88
576.134	520.88
576.345	508.88
576.556	520.88
576.767	511.88
576.978	516.88
577.188	489.88
577.399	490.88
577.61	501.88
577.821	493.88
578.032	491.88
578.243	475.88
578.454	478.88
578.665	480.88
578.875	460.88
579.086	450.88
579.297	454.88
579.508	475.88
579.718	462.88
579.929	464.88
580.14	444.88
580.35	450.88
580.561	465.88
580.772	474.88
580.982	460.88
581.193	420.88
581.403	443.88
581.614	462.88
581.825	464.88
582.035	442.88
582.246	461.88
582.456	437.88
582.667	442.88
582.877	463.88
583.087	432.88
583.298	429.88
583.508	441.88
583.719	440.88
583.929	439.88
584.139	444.88
584.35	438.88
584.56	447.88
584.77	454.88
584.981	432.88
585.191	425.88
585.401	447.88
585.611	422.88
585.821	435.88
586.032	438.88
586.242	420.88
586.452	414.88
586.662	412.88
586.872	418.88
587.082	416.88
587.292	443.88
587.502	436.88
587.713	431.88
587.923	433.88
588.133	420.88
588.343	404.88
588.553	433.88
588.762	423.88
588.972	420.88
589.182	423.88
589.392	424.88
589.602	433.88
589.812	436.88
590.022	423.88
590.232	436.88
590.441	444.88
590.651	426.88
590.861	427.88
591.071	418.88
591.281	449.88
591.49	444.88
591.7	442.88
591.91	454.88
592.119	456.88
592.329	483.88
592.539	472.88
592.748	473.88
592.958	494.88
593.167	510.88
593.377	513.88
593.587	526.88
593.796	509.88
594.006	525.88
594.215	527.88
594.424	524.88
594.634	521.88
594.843	504.88
595.053	493.88
595.262	477.88
595.472	441.88
595.681	460.88
595.89	439.88
596.1	421.88
596.309	428.88
596.518	424.88
596.727	418.88
596.937	398.88
597.146	399.88
597.355	388.88
597.564	381.88
597.774	374.88
597.983	377.88
598.192	382.88
598.401	378.88
598.61	365.88
598.819	360.88
599.028	375.88
599.237	376.88
599.446	366.88
599.655	366.88
599.864	361.88
600.073	358.88
600.282	351.88
600.491	340.88
600.7	365.88
600.909	359.88
601.118	355.88
601.327	355.88
601.536	353.88
601.745	356.88
601.953	346.88
602.162	343.88
602.371	353.88
602.58	340.88
602.789	351.88
602.997	329.88
603.206	350.88
603.415	345.88
603.623	343.88
603.832	355.88
604.041	324.88
604.249	347.88
604.458	317.88
604.666	340.88
604.875	327.88
605.084	336.88
605.292	320.88
605.501	329.88
605.709	340.88
605.918	324.88
606.126	329.88
606.334	324.88
606.543	338.88
606.751	314.88
606.96	312.88
607.168	343.88
607.376	317.88
607.585	320.88
607.793	311.88
608.001	322.88
608.21	324.88
608.418	337.88
608.626	331.88
608.834	321.88
609.043	312.88
609.251	329.88
609.459	326.88
609.667	311.88
609.875	325.88
610.083	318.88
610.291	315.88
610.499	331.88
610.707	329.88
610.916	330.88
611.124	308.88
611.332	295.88
611.54	310.88
611.748	321.88
611.955	319.88
612.163	306.88
612.371	298.88
612.579	313.88
612.787	313.88
612.995	322.88
613.203	317.88
613.411	325.88
613.618	308.88
613.826	315.88
614.034	317.88
614.242	333.88
614.449	326.88
614.657	312.88
614.865	306.88
615.072	309.88
615.28	298.88
615.488	308.88
615.695	306.88
615.903	316.88
616.111	290.88
616.318	317.88
616.526	318.88
616.733	305.88
616.941	285.88
617.148	316.88
617.356	309.88
617.563	299.88
617.771	306.88
617.978	308.88
618.185	305.88
618.393	277.88
618.6	301.88
618.807	312.88
619.015	312.88
619.222	297.88
619.429	291.88
619.637	324.88
619.844	265.88
620.051	301.88
620.258	288.88
620.466	279.88
620.673	290.88
620.88	283.88
621.087	279.88
621.294	284.88
621.501	269.88
621.708	276.88
621.915	274.88
622.122	290.88
622.329	272.88
622.536	262.88
622.743	300.88
622.95	277.88
623.157	283.88
623.364	270.88
623.571	276.88
623.778	269.88
623.985	276.88
624.192	272.88
624.399	280.88
624.606	284.88
624.812	258.88
625.019	259.88
625.226	268.88
625.433	278.88
625.639	277.88
625.846	261.88
626.053	271.88
626.259	245.88
626.466	265.88
626.673	268.88
626.879	240.88
627.086	258.88
627.293	286.88
627.499	249.88
627.706	252.88
627.912	252.88
628.119	244.88
628.325	268.88
628.532	248.88
628.738	264.88
628.945	259.88
629.151	238.88
629.357	232.88
629.564	235.88
629.77	233.88
629.976	252.88
630.183	227.88
630.389	238.88
630.595	240.88
630.802	234.88
631.008	257.88
631.214	234.88
631.42	240.88
631.627	253.88
631.833	228.88
632.039	240.88
632.245	242.88
632.451	236.88
632.657	234.88
632.863	233.88
633.069	225.88
633.275	236.88
633.481	226.88
633.688	235.88
633.893	224.88
634.099	230.88
634.305	232.88
634.511	237.88
634.717	231.88
634.923	209.88
635.129	221.88
635.335	235.88
635.541	225.88
635.747	221.88
635.952	220.88
636.158	218.88
636.364	208.88
636.57	213.88
636.775	212.88
636.981	237.88
637.187	221.88
637.392	250.88
637.598	220.88
637.804	218.88
638.009	214.88
638.215	210.88
638.421	208.88
638.626	214.88
638.832	214.88
639.037	215.88
639.243	216.88
639.448	217.88
639.654	250.88
639.859	197.88
640.065	198.88
640.27	211.88
640.475	197.88
640.681	208.88
640.886	202.88
641.091	201.88
641.297	211.88
641.502	200.88
641.707	189.88
641.913	213.88
642.118	221.88
642.323	189.88
642.528	209.88
642.733	209.88
642.939	205.88
643.144	209.88
643.349	208.88
643.554	197.88
643.759	206.88
643.964	204.88
644.169	214.88
644.374	194.88
644.579	192.88
644.784	179.88
644.989	213.88
645.194	203.88
645.399	202.88
645.604	197.88
645.809	197.88
646.014	216.88
646.219	209.88
646.423	198.88
646.628	211.88
646.833	206.88
647.038	216.88
647.243	203.88
647.447	220.88
647.652	200.88
647.857	200.88
648.062	210.88
648.266	206.88
648.471	210.88
648.676	204.88
648.88	211.88
649.085	196.88
649.289	190.88
649.494	205.88
649.698	195.88
649.903	192.88
650.107	186.88
650.312	187.88
650.516	194.88
650.721	188.88
650.925	189.88
651.13	190.88
651.334	198.88
651.539	164.88
651.743	180.88
651.947	178.88
652.152	193.88
652.356	166.88
652.56	176.88
652.764	175.88
652.969	167.88
653.173	170.88
653.377	151.88
653.581	162.88
653.785	136.88
653.99	171.88
654.194	152.88
654.398	149.88
654.602	161.88
654.806	157.88
655.01	139.88
655.214	158.88
655.418	156.88
655.622	153.88
655.826	133.88
656.03	145.88
656.234	140.88
656.438	144.88
656.642	146.88
656.846	137.88
657.049	146.88
657.253	140.88
657.457	132.88
657.661	132.88
657.865	131.88
658.068	129.88
658.272	127.88
658.476	102.88
658.68	119.88
658.883	109.88
659.087	100.88
659.291	118.88
659.494	102.88
659.698	105.88
659.901	107.88
660.105	100.88
660.309	115.88
660.512	87.88
660.716	98.88
660.919	103.88
661.123	108.88
661.326	102.88
661.53	92.88
661.733	106.88
661.936	101.88
662.14	86.88
662.343	80.88
662.546	85.88
662.75	70.88
662.953	88.88
663.156	73.88
663.36	95.88
663.563	93.88
663.766	84.88
663.969	76.88
664.173	81.88
664.376	90.88
664.579	74.88
664.782	78.88
664.985	65.88
665.188	69.88
665.391	87.88
665.594	80.88
665.797	90.88
666	88.88
666.203	84.88
666.406	84.88
666.609	90.88
666.812	90.88
667.015	94.88
667.218	78.88
667.421	78.88
667.624	90.88
667.827	76.88
668.03	77.88
668.232	72.88
668.435	96.88
668.638	91.88
668.841	86.88
669.043	85.88
669.246	93.88
669.449	77.88
669.651	77.88
669.854	87.88
670.057	73.88
670.259	79.88
670.462	92.88
670.665	78.88
670.867	79.88
671.07	84.88
671.272	80.88
671.475	101.88
671.677	72.88
671.88	88.88
672.082	76.88
672.284	78.88
672.487	86.88
672.689	77.88
672.892	87.88
