Data from Ni(NO3)2Standard.Agarose3%.GreenCap.LampEnergy5.5.E.O_HRD10591_14-40-10-189.txt Node
Date: Mon Jul 22 14:40:10 EDT 2019
User: cochatt
Spectrometer: HR+D1059
Trigger mode: 1
Integration Time (sec): 1.000000E-1
Scans to average: 1
Electric dark correction enabled: true
Nonlinearity correction enabled: false
Boxcar width: 0
XAxis mode: Wavelengths
Number of Pixels in Spectrum: 2048
>>>>>Begin Spectral Data<<<<<
223.165	-25.31
223.4	-25.31
223.635	-25.31
223.869	-13.31
224.104	-23.31
224.338	-15.31
224.573	-18.31
224.808	-11.31
225.042	-11.31
225.277	-9.31
225.511	10.69
225.746	6.69
225.98	20.69
226.215	-0.31
226.449	8.69
226.683	16.69
226.918	26.69
227.152	37.69
227.387	32.69
227.621	37.69
227.856	37.69
228.09	40.69
228.324	44.69
228.559	47.69
228.793	65.69
229.027	69.69
229.262	57.69
229.496	74.69
229.73	73.69
229.964	81.69
230.199	80.69
230.433	58.69
230.667	75.69
230.901	73.69
231.136	76.69
231.37	85.69
231.604	82.69
231.838	76.69
232.072	70.69
232.306	61.69
232.541	68.69
232.775	79.69
233.009	86.69
233.243	82.69
233.477	73.69
233.711	82.69
233.945	77.69
234.179	86.69
234.413	87.69
234.647	87.69
234.881	89.69
235.115	77.69
235.349	83.69
235.583	73.69
235.817	72.69
236.051	80.69
236.285	69.69
236.519	74.69
236.753	79.69
236.987	80.69
237.221	71.69
237.455	72.69
237.689	70.69
237.922	77.69
238.156	67.69
238.39	62.69
238.624	71.69
238.858	67.69
239.091	83.69
239.325	87.69
239.559	74.69
239.793	78.69
240.027	80.69
240.26	81.69
240.494	63.69
240.728	82.69
240.961	69.69
241.195	76.69
241.429	77.69
241.662	72.69
241.896	67.69
242.13	90.69
242.363	90.69
242.597	70.69
242.83	75.69
243.064	73.69
243.298	69.69
243.531	75.69
243.765	71.69
243.998	88.69
244.232	66.69
244.465	78.69
244.699	73.69
244.932	73.69
245.166	65.69
245.399	73.69
245.633	78.69
245.866	79.69
246.099	66.69
246.333	81.69
246.566	67.69
246.8	80.69
247.033	81.69
247.266	66.69
247.5	67.69
247.733	83.69
247.966	74.69
248.2	84.69
248.433	78.69
248.666	85.69
248.899	87.69
249.133	68.69
249.366	73.69
249.599	78.69
249.832	64.69
250.066	74.69
250.299	80.69
250.532	71.69
250.765	70.69
250.998	76.69
251.231	62.69
251.465	76.69
251.698	77.69
251.931	68.69
252.164	75.69
252.397	88.69
252.63	86.69
252.863	71.69
253.096	86.69
253.329	80.69
253.562	78.69
253.795	73.69
254.028	74.69
254.261	90.69
254.494	64.69
254.727	70.69
254.96	78.69
255.193	55.69
255.426	83.69
255.659	68.69
255.892	78.69
256.124	91.69
256.357	85.69
256.59	71.69
256.823	85.69
257.056	83.69
257.289	80.69
257.521	84.69
257.754	81.69
257.987	65.69
258.22	76.69
258.452	100.69
258.685	78.69
258.918	79.69
259.151	77.69
259.383	94.69
259.616	81.69
259.849	81.69
260.081	80.69
260.314	80.69
260.547	79.69
260.779	82.69
261.012	80.69
261.244	81.69
261.477	80.69
261.71	79.69
261.942	75.69
262.175	86.69
262.407	79.69
262.64	74.69
262.872	77.69
263.105	78.69
263.337	83.69
263.57	76.69
263.802	64.69
264.035	69.69
264.267	82.69
264.499	80.69
264.732	96.69
264.964	80.69
265.197	87.69
265.429	93.69
265.661	81.69
265.894	81.69
266.126	75.69
266.358	68.69
266.591	85.69
266.823	84.69
267.055	76.69
267.287	76.69
267.52	88.69
267.752	79.69
267.984	80.69
268.216	78.69
268.448	78.69
268.681	87.69
268.913	95.69
269.145	88.69
269.377	83.69
269.609	83.69
269.841	85.69
270.073	84.69
270.306	84.69
270.538	81.69
270.77	90.69
271.002	80.69
271.234	85.69
271.466	73.69
271.698	83.69
271.93	75.69
272.162	67.69
272.394	94.69
272.626	81.69
272.858	85.69
273.09	76.69
273.322	87.69
273.553	82.69
273.785	81.69
274.017	70.69
274.249	86.69
274.481	83.69
274.713	81.69
274.945	81.69
275.176	64.69
275.408	70.69
275.64	85.69
275.872	79.69
276.104	77.69
276.335	85.69
276.567	75.69
276.799	84.69
277.031	80.69
277.262	73.69
277.494	90.69
277.726	74.69
277.957	77.69
278.189	72.69
278.421	83.69
278.652	83.69
278.884	89.69
279.115	85.69
279.347	73.69
279.579	84.69
279.81	86.69
280.042	96.69
280.273	83.69
280.505	74.69
280.736	85.69
280.968	88.69
281.199	71.69
281.431	76.69
281.662	86.69
281.894	91.69
282.125	74.69
282.356	97.69
282.588	93.69
282.819	77.69
283.051	67.69
283.282	76.69
283.513	88.69
283.745	91.69
283.976	74.69
284.207	90.69
284.439	87.69
284.67	86.69
284.901	80.69
285.132	79.69
285.364	70.69
285.595	75.69
285.826	77.69
286.057	80.69
286.288	67.69
286.52	84.69
286.751	86.69
286.982	88.69
287.213	99.69
287.444	89.69
287.675	87.69
287.906	91.69
288.138	78.69
288.369	73.69
288.6	79.69
288.831	83.69
289.062	87.69
289.293	80.69
289.524	102.69
289.755	95.69
289.986	73.69
290.217	73.69
290.448	80.69
290.679	83.69
290.91	81.69
291.141	88.69
291.371	82.69
291.602	84.69
291.833	79.69
292.064	83.69
292.295	88.69
292.526	77.69
292.757	81.69
292.987	91.69
293.218	91.69
293.449	80.69
293.68	79.69
293.91	99.69
294.141	91.69
294.372	80.69
294.603	77.69
294.833	78.69
295.064	83.69
295.295	88.69
295.525	94.69
295.756	87.69
295.987	83.69
296.217	89.69
296.448	88.69
296.679	82.69
296.909	75.69
297.14	87.69
297.37	76.69
297.601	81.69
297.831	79.69
298.062	75.69
298.292	80.69
298.523	84.69
298.753	81.69
298.984	84.69
299.214	96.69
299.445	77.69
299.675	96.69
299.905	80.69
300.136	88.69
300.366	81.69
300.597	82.69
300.827	84.69
301.057	97.69
301.288	75.69
301.518	78.69
301.748	80.69
301.979	80.69
302.209	74.69
302.439	74.69
302.669	79.69
302.9	81.69
303.13	79.69
303.36	75.69
303.59	78.69
303.82	82.69
304.051	83.69
304.281	70.69
304.511	77.69
304.741	85.69
304.971	67.69
305.201	75.69
305.431	76.69
305.661	68.69
305.891	83.69
306.121	95.69
306.352	70.69
306.582	79.69
306.812	82.69
307.042	72.69
307.272	97.69
307.502	92.69
307.731	77.69
307.961	83.69
308.191	91.69
308.421	75.69
308.651	92.69
308.881	94.69
309.111	78.69
309.341	78.69
309.571	97.69
309.8	87.69
310.03	83.69
310.26	79.69
310.49	79.69
310.72	76.69
310.949	80.69
311.179	77.69
311.409	76.69
311.639	89.69
311.868	79.69
312.098	88.69
312.328	99.69
312.557	86.69
312.787	89.69
313.017	80.69
313.246	83.69
313.476	73.69
313.706	92.69
313.935	88.69
314.165	93.69
314.394	91.69
314.624	90.69
314.853	84.69
315.083	95.69
315.312	99.69
315.542	83.69
315.771	75.69
316.001	81.69
316.23	81.69
316.46	91.69
316.689	74.69
316.919	92.69
317.148	94.69
317.377	80.69
317.607	88.69
317.836	92.69
318.065	76.69
318.295	104.69
318.524	81.69
318.753	94.69
318.983	95.69
319.212	74.69
319.441	92.69
319.67	82.69
319.9	89.69
320.129	83.69
320.358	88.69
320.587	84.69
320.816	84.69
321.046	79.69
321.275	91.69
321.504	95.69
321.733	82.69
321.962	83.69
322.191	96.69
322.42	83.69
322.649	89.69
322.878	88.69
323.108	74.69
323.337	77.69
323.566	78.69
323.795	91.69
324.024	80.69
324.253	88.69
324.482	84.69
324.71	90.69
324.939	89.69
325.168	88.69
325.397	85.69
325.626	88.69
325.855	76.69
326.084	91.69
326.313	83.69
326.542	82.69
326.77	91.69
326.999	93.69
327.228	86.69
327.457	81.69
327.686	84.69
327.914	75.69
328.143	69.69
328.372	84.69
328.6	85.69
328.829	87.69
329.058	86.69
329.287	83.69
329.515	89.69
329.744	95.69
329.972	78.69
330.201	83.69
330.43	69.69
330.658	89.69
330.887	80.69
331.115	97.69
331.344	94.69
331.572	95.69
331.801	88.69
332.03	79.69
332.258	94.69
332.486	93.69
332.715	91.69
332.943	67.69
333.172	78.69
333.4	88.69
333.629	87.69
333.857	88.69
334.085	87.69
334.314	76.69
334.542	85.69
334.771	91.69
334.999	81.69
335.227	85.69
335.455	86.69
335.684	110.69
335.912	92.69
336.14	93.69
336.369	81.69
336.597	82.69
336.825	77.69
337.053	79.69
337.281	81.69
337.51	90.69
337.738	78.69
337.966	83.69
338.194	89.69
338.422	92.69
338.65	100.69
338.878	105.69
339.106	69.69
339.334	87.69
339.562	94.69
339.79	90.69
340.018	85.69
340.246	96.69
340.474	80.69
340.702	84.69
340.93	78.69
341.158	76.69
341.386	85.69
341.614	99.69
341.842	86.69
342.07	90.69
342.298	94.69
342.526	85.69
342.754	93.69
342.981	86.69
343.209	76.69
343.437	87.69
343.665	86.69
343.893	86.69
344.12	85.69
344.348	81.69
344.576	94.69
344.804	78.69
345.031	98.69
345.259	72.69
345.487	77.69
345.714	75.69
345.942	95.69
346.17	84.69
346.397	84.69
346.625	74.69
346.853	99.69
347.08	91.69
347.308	82.69
347.535	84.69
347.763	87.69
347.99	104.69
348.218	80.69
348.445	87.69
348.673	87.69
348.9	98.69
349.128	87.69
349.355	80.69
349.583	88.69
349.81	81.69
350.037	78.69
350.265	88.69
350.492	95.69
350.72	76.69
350.947	75.69
351.174	73.69
351.402	97.69
351.629	82.69
351.856	69.69
352.083	91.69
352.311	97.69
352.538	86.69
352.765	100.69
352.992	76.69
353.22	89.69
353.447	94.69
353.674	80.69
353.901	73.69
354.128	97.69
354.355	83.69
354.583	88.69
354.81	82.69
355.037	83.69
355.264	89.69
355.491	71.69
355.718	78.69
355.945	86.69
356.172	75.69
356.399	86.69
356.626	93.69
356.853	91.69
357.08	72.69
357.307	81.69
357.534	83.69
357.761	79.69
357.988	84.69
358.215	98.69
358.441	88.69
358.668	91.69
358.895	83.69
359.122	70.69
359.349	71.69
359.576	75.69
359.802	78.69
360.029	77.69
360.256	85.69
360.483	90.69
360.709	85.69
360.936	85.69
361.163	90.69
361.39	77.69
361.616	81.69
361.843	79.69
362.07	83.69
362.296	72.69
362.523	94.69
362.749	80.69
362.976	69.69
363.203	91.69
363.429	77.69
363.656	66.69
363.882	95.69
364.109	87.69
364.335	90.69
364.562	82.69
364.788	81.69
365.015	91.69
365.241	90.69
365.468	71.69
365.694	72.69
365.92	87.69
366.147	90.69
366.373	81.69
366.599	82.69
366.826	76.69
367.052	87.69
367.278	74.69
367.505	87.69
367.731	89.69
367.957	66.69
368.184	77.69
368.41	80.69
368.636	85.69
368.862	81.69
369.089	82.69
369.315	76.69
369.541	83.69
369.767	92.69
369.993	104.69
370.219	88.69
370.445	82.69
370.672	68.69
370.898	68.69
371.124	66.69
371.35	85.69
371.576	87.69
371.802	85.69
372.028	82.69
372.254	83.69
372.48	79.69
372.706	76.69
372.932	87.69
373.158	86.69
373.384	103.69
373.61	87.69
373.835	76.69
374.061	91.69
374.287	87.69
374.513	75.69
374.739	100.69
374.965	75.69
375.191	87.69
375.416	92.69
375.642	92.69
375.868	83.69
376.094	79.69
376.319	84.69
376.545	85.69
376.771	91.69
376.997	95.69
377.222	74.69
377.448	86.69
377.674	80.69
377.899	98.69
378.125	82.69
378.35	87.69
378.576	91.69
378.802	76.69
379.027	65.69
379.253	97.69
379.478	76.69
379.704	82.69
379.929	71.69
380.155	74.69
380.38	75.69
380.606	80.69
380.831	84.69
381.057	92.69
381.282	82.69
381.507	96.69
381.733	67.69
381.958	88.69
382.184	78.69
382.409	72.69
382.634	80.69
382.86	86.69
383.085	88.69
383.31	100.69
383.535	90.69
383.761	84.69
383.986	96.69
384.211	80.69
384.436	96.69
384.662	90.69
384.887	89.69
385.112	78.69
385.337	87.69
385.562	87.69
385.787	96.69
386.013	90.69
386.238	82.69
386.463	93.69
386.688	96.69
386.913	94.69
387.138	80.69
387.363	99.69
387.588	84.69
387.813	94.69
388.038	79.69
388.263	96.69
388.488	79.69
388.713	79.69
388.938	74.69
389.163	93.69
389.387	75.69
389.612	79.69
389.837	90.69
390.062	87.69
390.287	76.69
390.512	79.69
390.736	82.69
390.961	74.69
391.186	87.69
391.411	97.69
391.636	91.69
391.86	101.69
392.085	88.69
392.31	98.69
392.534	71.69
392.759	109.69
392.984	83.69
393.208	85.69
393.433	80.69
393.658	77.69
393.882	89.69
394.107	92.69
394.331	81.69
394.556	82.69
394.78	93.69
395.005	97.69
395.229	86.69
395.454	92.69
395.678	82.69
395.903	78.69
396.127	79.69
396.352	81.69
396.576	93.69
396.801	79.69
397.025	81.69
397.249	78.69
397.474	84.69
397.698	81.69
397.922	79.69
398.147	79.69
398.371	78.69
398.595	82.69
398.82	79.69
399.044	87.69
399.268	82.69
399.492	91.69
399.717	75.69
399.941	102.69
400.165	96.69
400.389	98.69
400.613	78.69
400.837	93.69
401.062	77.69
401.286	85.69
401.51	86.69
401.734	86.69
401.958	101.69
402.182	83.69
402.406	79.69
402.63	87.69
402.854	73.69
403.078	72.69
403.302	86.69
403.526	79.69
403.75	81.69
403.974	89.69
404.198	97.69
404.422	92.69
404.645	91.69
404.869	84.69
405.093	83.69
405.317	89.69
405.541	98.69
405.765	83.69
405.988	86.69
406.212	86.69
406.436	72.69
406.66	96.69
406.883	80.69
407.107	76.69
407.331	87.69
407.555	87.69
407.778	84.69
408.002	92.69
408.226	90.69
408.449	87.69
408.673	90.69
408.896	98.69
409.12	84.69
409.344	81.69
409.567	92.69
409.791	90.69
410.014	81.69
410.238	88.69
410.461	58.69
410.685	83.69
410.908	84.69
411.132	95.69
411.355	88.69
411.578	89.69
411.802	72.69
412.025	84.69
412.249	85.69
412.472	84.69
412.695	77.69
412.919	84.69
413.142	74.69
413.365	82.69
413.589	86.69
413.812	87.69
414.035	87.69
414.258	84.69
414.482	78.69
414.705	100.69
414.928	92.69
415.151	87.69
415.374	81.69
415.597	94.69
415.821	87.69
416.044	86.69
416.267	90.69
416.49	88.69
416.713	88.69
416.936	76.69
417.159	83.69
417.382	86.69
417.605	100.69
417.828	104.69
418.051	85.69
418.274	85.69
418.497	82.69
418.72	77.69
418.943	83.69
419.166	87.69
419.389	76.69
419.611	82.69
419.834	86.69
420.057	93.69
420.28	91.69
420.503	82.69
420.726	85.69
420.948	90.69
421.171	85.69
421.394	82.69
421.617	85.69
421.839	96.69
422.062	73.69
422.285	89.69
422.507	80.69
422.73	93.69
422.953	81.69
423.175	76.69
423.398	94.69
423.621	86.69
423.843	107.69
424.066	90.69
424.288	76.69
424.511	85.69
424.733	86.69
424.956	82.69
425.178	78.69
425.401	93.69
425.623	70.69
425.846	90.69
426.068	68.69
426.291	83.69
426.513	88.69
426.735	84.69
426.958	88.69
427.18	86.69
427.402	82.69
427.625	96.69
427.847	86.69
428.069	87.69
428.292	88.69
428.514	88.69
428.736	84.69
428.958	81.69
429.181	77.69
429.403	80.69
429.625	82.69
429.847	73.69
430.069	83.69
430.292	82.69
430.514	84.69
430.736	90.69
430.958	89.69
431.18	76.69
431.402	94.69
431.624	88.69
431.846	82.69
432.068	81.69
432.29	99.69
432.512	90.69
432.734	94.69
432.956	86.69
433.178	82.69
433.4	97.69
433.622	96.69
433.844	87.69
434.066	88.69
434.287	82.69
434.509	80.69
434.731	91.69
434.953	86.69
435.175	79.69
435.397	88.69
435.618	90.69
435.84	96.69
436.062	80.69
436.284	90.69
436.505	83.69
436.727	92.69
436.949	86.69
437.17	85.69
437.392	84.69
437.614	101.69
437.835	84.69
438.057	84.69
438.278	89.69
438.5	74.69
438.721	75.69
438.943	96.69
439.165	85.69
439.386	100.69
439.608	91.69
439.829	90.69
440.05	77.69
440.272	80.69
440.493	83.69
440.715	80.69
440.936	89.69
441.158	81.69
441.379	82.69
441.6	84.69
441.822	82.69
442.043	82.69
442.264	99.69
442.486	95.69
442.707	85.69
442.928	86.69
443.149	82.69
443.371	99.69
443.592	88.69
443.813	73.69
444.034	80.69
444.255	87.69
444.476	89.69
444.698	82.69
444.919	91.69
445.14	204.69
445.361	149.69
445.582	90.69
445.803	82.69
446.024	101.69
446.245	88.69
446.466	85.69
446.687	93.69
446.908	82.69
447.129	92.69
447.35	76.69
447.571	87.69
447.792	81.69
448.013	89.69
448.234	96.69
448.455	76.69
448.675	68.69
448.896	79.69
449.117	88.69
449.338	85.69
449.559	80.69
449.779	100.69
450	79.69
450.221	71.69
450.442	70.69
450.662	79.69
450.883	82.69
451.104	91.69
451.324	79.69
451.545	84.69
451.766	85.69
451.986	83.69
452.207	70.69
452.428	80.69
452.648	66.69
452.869	81.69
453.089	97.69
453.31	84.69
453.53	81.69
453.751	91.69
453.971	84.69
454.192	94.69
454.412	87.69
454.633	78.69
454.853	87.69
455.073	85.69
455.294	92.69
455.514	79.69
455.734	85.69
455.955	84.69
456.175	84.69
456.395	85.69
456.616	85.69
456.836	83.69
457.056	100.69
457.276	81.69
457.497	80.69
457.717	82.69
457.937	81.69
458.157	84.69
458.377	76.69
458.598	84.69
458.818	84.69
459.038	91.69
459.258	87.69
459.478	102.69
459.698	89.69
459.918	84.69
460.138	80.69
460.358	87.69
460.578	90.69
460.798	87.69
461.018	100.69
461.238	111.69
461.458	84.69
461.678	83.69
461.898	85.69
462.118	90.69
462.338	83.69
462.558	79.69
462.777	88.69
462.997	91.69
463.217	88.69
463.437	84.69
463.657	86.69
463.876	95.69
464.096	92.69
464.316	73.69
464.536	69.69
464.755	97.69
464.975	89.69
465.195	85.69
465.414	83.69
465.634	92.69
465.854	83.69
466.073	73.69
466.293	87.69
466.512	92.69
466.732	94.69
466.951	84.69
467.171	77.69
467.391	96.69
467.61	84.69
467.829	82.69
468.049	84.69
468.268	77.69
468.488	90.69
468.707	92.69
468.927	93.69
469.146	76.69
469.365	73.69
469.585	84.69
469.804	93.69
470.023	86.69
470.243	92.69
470.462	96.69
470.681	77.69
470.901	102.69
471.12	89.69
471.339	89.69
471.558	91.69
471.777	90.69
471.997	87.69
472.216	90.69
472.435	99.69
472.654	86.69
472.873	91.69
473.092	94.69
473.311	73.69
473.53	95.69
473.749	94.69
473.968	86.69
474.187	73.69
474.406	102.69
474.625	84.69
474.844	82.69
475.063	93.69
475.282	98.69
475.501	83.69
475.72	88.69
475.939	91.69
476.158	87.69
476.377	97.69
476.596	74.69
476.814	89.69
477.033	86.69
477.252	90.69
477.471	79.69
477.69	91.69
477.908	80.69
478.127	84.69
478.346	88.69
478.564	84.69
478.783	80.69
479.002	87.69
479.22	105.69
479.439	83.69
479.658	80.69
479.876	85.69
480.095	86.69
480.313	105.69
480.532	64.69
480.751	74.69
480.969	98.69
481.188	81.69
481.406	92.69
481.624	84.69
481.843	80.69
482.061	81.69
482.28	95.69
482.498	84.69
482.717	89.69
482.935	92.69
483.153	106.69
483.372	85.69
483.59	103.69
483.808	91.69
484.027	92.69
484.245	88.69
484.463	90.69
484.681	104.69
484.9	93.69
485.118	100.69
485.336	90.69
485.554	92.69
485.772	88.69
485.99	79.69
486.209	106.69
486.427	82.69
486.645	84.69
486.863	101.69
487.081	110.69
487.299	100.69
487.517	94.69
487.735	104.69
487.953	85.69
488.171	80.69
488.389	90.69
488.607	89.69
488.825	93.69
489.043	90.69
489.261	93.69
489.479	102.69
489.696	91.69
489.914	87.69
490.132	86.69
490.35	89.69
490.568	83.69
490.786	99.69
491.003	88.69
491.221	97.69
491.439	93.69
491.657	99.69
491.874	87.69
492.092	88.69
492.31	99.69
492.527	86.69
492.745	96.69
492.963	97.69
493.18	94.69
493.398	95.69
493.615	86.69
493.833	78.69
494.05	82.69
494.268	84.69
494.485	79.69
494.703	104.69
494.92	103.69
495.138	82.69
495.355	108.69
495.573	102.69
495.79	97.69
496.008	96.69
496.225	101.69
496.442	96.69
496.66	112.69
496.877	90.69
497.094	95.69
497.312	99.69
497.529	89.69
497.746	103.69
497.963	83.69
498.181	100.69
498.398	88.69
498.615	110.69
498.832	95.69
499.049	98.69
499.267	101.69
499.484	95.69
499.701	97.69
499.918	118.69
500.135	86.69
500.352	105.69
500.569	101.69
500.786	108.69
501.003	102.69
501.22	107.69
501.437	115.69
501.654	117.69
501.871	85.69
502.088	110.69
502.305	100.69
502.522	100.69
502.739	119.69
502.956	117.69
503.172	98.69
503.389	90.69
503.606	106.69
503.823	106.69
504.04	104.69
504.256	103.69
504.473	94.69
504.69	104.69
504.907	106.69
505.123	93.69
505.34	96.69
505.557	95.69
505.773	106.69
505.99	104.69
506.207	89.69
506.423	89.69
506.64	94.69
506.856	86.69
507.073	89.69
507.289	82.69
507.506	87.69
507.722	94.69
507.939	99.69
508.155	94.69
508.372	94.69
508.588	99.69
508.805	83.69
509.021	97.69
509.238	98.69
509.454	86.69
509.67	90.69
509.887	89.69
510.103	83.69
510.319	102.69
510.536	100.69
510.752	91.69
510.968	88.69
511.184	90.69
511.401	94.69
511.617	85.69
511.833	87.69
512.049	83.69
512.265	79.69
512.481	88.69
512.698	86.69
512.914	84.69
513.13	100.69
513.346	80.69
513.562	77.69
513.778	92.69
513.994	99.69
514.21	90.69
514.426	91.69
514.642	92.69
514.858	82.69
515.074	83.69
515.29	97.69
515.506	89.69
515.721	91.69
515.937	90.69
516.153	87.69
516.369	82.69
516.585	84.69
516.801	96.69
517.016	101.69
517.232	91.69
517.448	96.69
517.664	94.69
517.879	95.69
518.095	92.69
518.311	94.69
518.527	82.69
518.742	99.69
518.958	81.69
519.173	100.69
519.389	89.69
519.605	102.69
519.82	82.69
520.036	83.69
520.251	112.69
520.467	98.69
520.682	80.69
520.898	93.69
521.113	99.69
521.329	97.69
521.544	91.69
521.76	80.69
521.975	82.69
522.19	79.69
522.406	79.69
522.621	87.69
522.836	94.69
523.052	81.69
523.267	86.69
523.482	90.69
523.698	81.69
523.913	97.69
524.128	79.69
524.343	92.69
524.559	82.69
524.774	93.69
524.989	85.69
525.204	75.69
525.419	93.69
525.634	88.69
525.849	92.69
526.064	98.69
526.28	94.69
526.495	92.69
526.71	98.69
526.925	104.69
527.14	83.69
527.355	92.69
527.57	92.69
527.785	79.69
527.999	89.69
528.214	85.69
528.429	89.69
528.644	88.69
528.859	115.69
529.074	93.69
529.289	93.69
529.503	95.69
529.718	95.69
529.933	94.69
530.148	91.69
530.363	104.69
530.577	87.69
530.792	89.69
531.007	72.69
531.221	88.69
531.436	91.69
531.651	87.69
531.865	77.69
532.08	88.69
532.295	89.69
532.509	95.69
532.724	90.69
532.938	99.69
533.153	79.69
533.367	88.69
533.582	83.69
533.796	74.69
534.011	94.69
534.225	102.69
534.44	103.69
534.654	95.69
534.868	73.69
535.083	79.69
535.297	88.69
535.511	94.69
535.726	89.69
535.94	88.69
536.154	75.69
536.369	86.69
536.583	88.69
536.797	85.69
537.011	80.69
537.225	91.69
537.44	77.69
537.654	96.69
537.868	105.69
538.082	96.69
538.296	102.69
538.51	93.69
538.724	93.69
538.938	87.69
539.153	89.69
539.367	87.69
539.581	74.69
539.795	80.69
540.009	85.69
540.222	91.69
540.436	81.69
540.65	93.69
540.864	82.69
541.078	88.69
541.292	76.69
541.506	76.69
541.72	91.69
541.934	89.69
542.147	94.69
542.361	99.69
542.575	91.69
542.789	90.69
543.002	87.69
543.216	99.69
543.43	85.69
543.644	82.69
543.857	84.69
544.071	95.69
544.285	91.69
544.498	89.69
544.712	93.69
544.925	94.69
545.139	108.69
545.352	94.69
545.566	88.69
545.779	90.69
545.993	94.69
546.206	86.69
546.42	80.69
546.633	89.69
546.847	85.69
547.06	76.69
547.274	92.69
547.487	96.69
547.7	85.69
547.914	91.69
548.127	95.69
548.34	81.69
548.554	97.69
548.767	91.69
548.98	101.69
549.193	102.69
549.407	80.69
549.62	96.69
549.833	105.69
550.046	83.69
550.259	88.69
550.473	98.69
550.686	93.69
550.899	94.69
551.112	92.69
551.325	97.69
551.538	95.69
551.751	98.69
551.964	82.69
552.177	89.69
552.39	89.69
552.603	101.69
552.816	82.69
553.029	76.69
553.242	91.69
553.455	92.69
553.667	100.69
553.88	99.69
554.093	81.69
554.306	89.69
554.519	91.69
554.732	83.69
554.944	90.69
555.157	80.69
555.37	94.69
555.583	99.69
555.795	83.69
556.008	85.69
556.221	95.69
556.433	98.69
556.646	79.69
556.859	78.69
557.071	94.69
557.284	101.69
557.496	82.69
557.709	91.69
557.921	107.69
558.134	80.69
558.346	84.69
558.559	100.69
558.771	90.69
558.984	85.69
559.196	90.69
559.409	87.69
559.621	91.69
559.833	97.69
560.046	102.69
560.258	76.69
560.47	92.69
560.683	69.69
560.895	99.69
561.107	99.69
561.32	92.69
561.532	71.69
561.744	89.69
561.956	101.69
562.168	82.69
562.381	82.69
562.593	95.69
562.805	95.69
563.017	81.69
563.229	89.69
563.441	85.69
563.653	89.69
563.865	89.69
564.077	91.69
564.289	86.69
564.501	90.69
564.713	94.69
564.925	90.69
565.137	86.69
565.349	90.69
565.561	84.69
565.773	88.69
565.985	86.69
566.197	91.69
566.408	86.69
566.62	95.69
566.832	101.69
567.044	93.69
567.255	100.69
567.467	83.69
567.679	94.69
567.891	98.69
568.102	83.69
568.314	90.69
568.526	91.69
568.737	91.69
568.949	92.69
569.161	89.69
569.372	84.69
569.584	76.69
569.795	97.69
570.007	88.69
570.218	88.69
570.43	86.69
570.641	91.69
570.853	84.69
571.064	84.69
571.276	76.69
571.487	75.69
571.698	92.69
571.91	94.69
572.121	84.69
572.333	86.69
572.544	83.69
572.755	75.69
572.966	87.69
573.178	77.69
573.389	88.69
573.6	91.69
573.811	77.69
574.023	83.69
574.234	90.69
574.445	96.69
574.656	84.69
574.867	84.69
575.078	81.69
575.289	80.69
575.501	89.69
575.712	91.69
575.923	74.69
576.134	88.69
576.345	82.69
576.556	85.69
576.767	95.69
576.978	98.69
577.188	84.69
577.399	93.69
577.61	88.69
577.821	89.69
578.032	95.69
578.243	82.69
578.454	92.69
578.665	85.69
578.875	94.69
579.086	87.69
579.297	84.69
579.508	94.69
579.718	91.69
579.929	85.69
580.14	90.69
580.35	83.69
580.561	89.69
580.772	100.69
580.982	79.69
581.193	84.69
581.403	97.69
581.614	92.69
581.825	81.69
582.035	95.69
582.246	85.69
582.456	90.69
582.667	86.69
582.877	76.69
583.087	89.69
583.298	84.69
583.508	83.69
583.719	84.69
583.929	87.69
584.139	78.69
584.35	71.69
584.56	88.69
584.77	75.69
584.981	79.69
585.191	82.69
585.401	77.69
585.611	75.69
585.821	89.69
586.032	98.69
586.242	75.69
586.452	80.69
586.662	82.69
586.872	94.69
587.082	95.69
587.292	82.69
587.502	83.69
587.713	89.69
587.923	98.69
588.133	84.69
588.343	76.69
588.553	77.69
588.762	94.69
588.972	78.69
589.182	90.69
589.392	75.69
589.602	99.69
589.812	86.69
590.022	91.69
590.232	74.69
590.441	83.69
590.651	84.69
590.861	94.69
591.071	82.69
591.281	79.69
591.49	76.69
591.7	86.69
591.91	71.69
592.119	93.69
592.329	83.69
592.539	89.69
592.748	87.69
592.958	88.69
593.167	84.69
593.377	78.69
593.587	83.69
593.796	81.69
594.006	94.69
594.215	89.69
594.424	74.69
594.634	102.69
594.843	89.69
595.053	84.69
595.262	94.69
595.472	80.69
595.681	94.69
595.89	84.69
596.1	76.69
596.309	92.69
596.518	82.69
596.727	91.69
596.937	91.69
597.146	93.69
597.355	100.69
597.564	75.69
597.774	76.69
597.983	86.69
598.192	96.69
598.401	94.69
598.61	89.69
598.819	72.69
599.028	76.69
599.237	90.69
599.446	67.69
599.655	74.69
599.864	83.69
600.073	85.69
600.282	72.69
600.491	92.69
600.7	91.69
600.909	82.69
601.118	84.69
601.327	81.69
601.536	87.69
601.745	82.69
601.953	87.69
602.162	97.69
602.371	85.69
602.58	74.69
602.789	83.69
602.997	89.69
603.206	80.69
603.415	69.69
603.623	78.69
603.832	85.69
604.041	84.69
604.249	88.69
604.458	84.69
604.666	68.69
604.875	81.69
605.084	76.69
605.292	74.69
605.501	71.69
605.709	86.69
605.918	79.69
606.126	92.69
606.334	80.69
606.543	89.69
606.751	71.69
606.96	86.69
607.168	84.69
607.376	68.69
607.585	78.69
607.793	91.69
608.001	66.69
608.21	79.69
608.418	82.69
608.626	97.69
608.834	93.69
609.043	80.69
609.251	76.69
609.459	81.69
609.667	78.69
609.875	88.69
610.083	81.69
610.291	96.69
610.499	81.69
610.707	89.69
610.916	70.69
611.124	86.69
611.332	91.69
611.54	79.69
611.748	86.69
611.955	80.69
612.163	93.69
612.371	79.69
612.579	80.69
612.787	86.69
612.995	80.69
613.203	80.69
613.411	96.69
613.618	92.69
613.826	74.69
614.034	77.69
614.242	94.69
614.449	90.69
614.657	103.69
614.865	78.69
615.072	72.69
615.28	99.69
615.488	88.69
615.695	76.69
615.903	68.69
616.111	75.69
616.318	95.69
616.526	91.69
616.733	83.69
616.941	83.69
617.148	92.69
617.356	86.69
617.563	86.69
617.771	60.69
617.978	74.69
618.185	78.69
618.393	78.69
618.6	85.69
618.807	75.69
619.015	90.69
619.222	93.69
619.429	93.69
619.637	71.69
619.844	85.69
620.051	73.69
620.258	87.69
620.466	94.69
620.673	78.69
620.88	81.69
621.087	89.69
621.294	83.69
621.501	80.69
621.708	86.69
621.915	81.69
622.122	84.69
622.329	74.69
622.536	85.69
622.743	85.69
622.95	86.69
623.157	86.69
623.364	75.69
623.571	84.69
623.778	86.69
623.985	94.69
624.192	81.69
624.399	77.69
624.606	89.69
624.812	85.69
625.019	83.69
625.226	74.69
625.433	81.69
625.639	80.69
625.846	67.69
626.053	77.69
626.259	88.69
626.466	76.69
626.673	77.69
626.879	82.69
627.086	83.69
627.293	82.69
627.499	80.69
627.706	79.69
627.912	87.69
628.119	94.69
628.325	96.69
628.532	92.69
628.738	84.69
628.945	89.69
629.151	86.69
629.357	76.69
629.564	74.69
629.77	79.69
629.976	84.69
630.183	83.69
630.389	83.69
630.595	80.69
630.802	81.69
631.008	89.69
631.214	98.69
631.42	89.69
631.627	66.69
631.833	84.69
632.039	86.69
632.245	88.69
632.451	86.69
632.657	76.69
632.863	89.69
633.069	82.69
633.275	77.69
633.481	72.69
633.688	82.69
633.893	98.69
634.099	86.69
634.305	90.69
634.511	86.69
634.717	95.69
634.923	87.69
635.129	81.69
635.335	77.69
635.541	91.69
635.747	64.69
635.952	82.69
636.158	82.69
636.364	71.69
636.57	84.69
636.775	85.69
636.981	75.69
637.187	91.69
637.392	83.69
637.598	87.69
637.804	89.69
638.009	79.69
638.215	72.69
638.421	92.69
638.626	70.69
638.832	81.69
639.037	87.69
639.243	75.69
639.448	81.69
639.654	82.69
639.859	84.69
640.065	91.69
640.27	93.69
640.475	92.69
640.681	96.69
640.886	75.69
641.091	88.69
641.297	91.69
641.502	87.69
641.707	82.69
641.913	79.69
642.118	75.69
642.323	91.69
642.528	88.69
642.733	92.69
642.939	84.69
643.144	100.69
643.349	80.69
643.554	81.69
643.759	79.69
643.964	95.69
644.169	92.69
644.374	86.69
644.579	97.69
644.784	84.69
644.989	76.69
645.194	89.69
645.399	84.69
645.604	83.69
645.809	77.69
646.014	89.69
646.219	84.69
646.423	74.69
646.628	72.69
646.833	78.69
647.038	78.69
647.243	77.69
647.447	82.69
647.652	80.69
647.857	86.69
648.062	84.69
648.266	83.69
648.471	80.69
648.676	89.69
648.88	86.69
649.085	82.69
649.289	88.69
649.494	87.69
649.698	93.69
649.903	89.69
650.107	76.69
650.312	94.69
650.516	84.69
650.721	69.69
650.925	95.69
651.13	90.69
651.334	90.69
651.539	90.69
651.743	82.69
651.947	80.69
652.152	88.69
652.356	83.69
652.56	84.69
652.764	82.69
652.969	70.69
653.173	74.69
653.377	88.69
653.581	73.69
653.785	80.69
653.99	91.69
654.194	74.69
654.398	76.69
654.602	84.69
654.806	79.69
655.01	88.69
655.214	81.69
655.418	87.69
655.622	81.69
655.826	83.69
656.03	87.69
656.234	76.69
656.438	93.69
656.642	83.69
656.846	87.69
657.049	82.69
657.253	88.69
657.457	83.69
657.661	86.69
657.865	88.69
658.068	89.69
658.272	80.69
658.476	86.69
658.68	69.69
658.883	80.69
659.087	74.69
659.291	78.69
659.494	89.69
659.698	83.69
659.901	72.69
660.105	72.69
660.309	75.69
660.512	85.69
660.716	89.69
660.919	74.69
661.123	66.69
661.326	75.69
661.53	74.69
661.733	85.69
661.936	82.69
662.14	98.69
662.343	86.69
662.546	78.69
662.75	73.69
662.953	95.69
663.156	85.69
663.36	84.69
663.563	74.69
663.766	74.69
663.969	72.69
664.173	82.69
664.376	70.69
664.579	83.69
664.782	75.69
664.985	83.69
665.188	78.69
665.391	91.69
665.594	81.69
665.797	97.69
666	81.69
666.203	75.69
666.406	80.69
666.609	73.69
666.812	85.69
667.015	89.69
667.218	77.69
667.421	83.69
667.624	79.69
667.827	88.69
668.03	79.69
668.232	94.69
668.435	81.69
668.638	75.69
668.841	88.69
669.043	82.69
669.246	85.69
669.449	75.69
669.651	83.69
669.854	86.69
670.057	87.69
670.259	76.69
670.462	74.69
670.665	85.69
670.867	71.69
671.07	71.69
671.272	81.69
671.475	85.69
671.677	82.69
671.88	66.69
672.082	89.69
672.284	82.69
672.487	67.69
672.689	80.69
672.892	86.69
