Data from Ni(NO3)2@0.0625M.TitratingCurve.Agarose3%dH2O.NegLispCup.LampEnergy10.LIBS07252019_HRD10591_18-14-30-570.txt Node
Date: Thu Jul 25 18:14:30 EDT 2019
User: cochatt
Spectrometer: HR+D1059
Trigger mode: 1
Integration Time (sec): 1.000000E-1
Scans to average: 1
Electric dark correction enabled: true
Nonlinearity correction enabled: false
Boxcar width: 0
XAxis mode: Wavelengths
Number of Pixels in Spectrum: 2048
>>>>>Begin Spectral Data<<<<<
223.165	-9.12
223.4	-9.12
223.635	-9.12
223.869	-10.12
224.104	-22.12
224.338	-22.12
224.573	-14.12
224.808	-6.12
225.042	6.88
225.277	-11.12
225.511	-2.12
225.746	0.88
225.98	-0.12
226.215	11.88
226.449	12.88
226.683	32.88
226.918	14.88
227.152	16.88
227.387	31.88
227.621	29.88
227.856	43.88
228.09	51.88
228.324	40.88
228.559	54.88
228.793	69.88
229.027	114.88
229.262	122.88
229.496	124.88
229.73	134.88
229.964	114.88
230.199	116.88
230.433	150.88
230.667	164.88
230.901	143.88
231.136	127.88
231.37	131.88
231.604	150.88
231.838	159.88
232.072	154.88
232.306	158.88
232.541	159.88
232.775	158.88
233.009	164.88
233.243	153.88
233.477	147.88
233.711	164.88
233.945	152.88
234.179	143.88
234.413	157.88
234.647	158.88
234.881	172.88
235.115	163.88
235.349	170.88
235.583	167.88
235.817	160.88
236.051	160.88
236.285	171.88
236.519	172.88
236.753	170.88
236.987	175.88
237.221	183.88
237.455	174.88
237.689	171.88
237.922	161.88
238.156	182.88
238.39	182.88
238.624	178.88
238.858	184.88
239.091	177.88
239.325	186.88
239.559	178.88
239.793	167.88
240.027	188.88
240.26	186.88
240.494	181.88
240.728	183.88
240.961	190.88
241.195	183.88
241.429	204.88
241.662	194.88
241.896	203.88
242.13	197.88
242.363	203.88
242.597	193.88
242.83	203.88
243.064	208.88
243.298	227.88
243.531	204.88
243.765	217.88
243.998	244.88
244.232	208.88
244.465	215.88
244.699	239.88
244.932	223.88
245.166	227.88
245.399	230.88
245.633	227.88
245.866	232.88
246.099	221.88
246.333	249.88
246.566	243.88
246.8	230.88
247.033	236.88
247.266	235.88
247.5	263.88
247.733	253.88
247.966	251.88
248.2	255.88
248.433	248.88
248.666	270.88
248.899	270.88
249.133	253.88
249.366	261.88
249.599	265.88
249.832	267.88
250.066	269.88
250.299	275.88
250.532	269.88
250.765	276.88
250.998	276.88
251.231	283.88
251.465	283.88
251.698	290.88
251.931	291.88
252.164	289.88
252.397	277.88
252.63	285.88
252.863	299.88
253.096	279.88
253.329	290.88
253.562	286.88
253.795	295.88
254.028	285.88
254.261	294.88
254.494	303.88
254.727	297.88
254.96	298.88
255.193	293.88
255.426	287.88
255.659	284.88
255.892	317.88
256.124	323.88
256.357	318.88
256.59	313.88
256.823	308.88
257.056	316.88
257.289	313.88
257.521	302.88
257.754	326.88
257.987	324.88
258.22	320.88
258.452	312.88
258.685	325.88
258.918	342.88
259.151	341.88
259.383	325.88
259.616	349.88
259.849	352.88
260.081	346.88
260.314	331.88
260.547	337.88
260.779	343.88
261.012	340.88
261.244	351.88
261.477	347.88
261.71	357.88
261.942	354.88
262.175	350.88
262.407	359.88
262.64	351.88
262.872	355.88
263.105	357.88
263.337	359.88
263.57	375.88
263.802	378.88
264.035	347.88
264.267	356.88
264.499	366.88
264.732	401.88
264.964	376.88
265.197	375.88
265.429	367.88
265.661	392.88
265.894	384.88
266.126	374.88
266.358	381.88
266.591	384.88
266.823	388.88
267.055	377.88
267.287	379.88
267.52	382.88
267.752	396.88
267.984	387.88
268.216	408.88
268.448	377.88
268.681	396.88
268.913	400.88
269.145	419.88
269.377	405.88
269.609	394.88
269.841	409.88
270.073	400.88
270.306	430.88
270.538	408.88
270.77	408.88
271.002	424.88
271.234	390.88
271.466	412.88
271.698	410.88
271.93	406.88
272.162	408.88
272.394	423.88
272.626	435.88
272.858	422.88
273.09	430.88
273.322	414.88
273.553	439.88
273.785	442.88
274.017	423.88
274.249	428.88
274.481	440.88
274.713	437.88
274.945	431.88
275.176	440.88
275.408	462.88
275.64	462.88
275.872	448.88
276.104	453.88
276.335	454.88
276.567	453.88
276.799	445.88
277.031	453.88
277.262	445.88
277.494	452.88
277.726	462.88
277.957	467.88
278.189	462.88
278.421	476.88
278.652	470.88
278.884	464.88
279.115	472.88
279.347	468.88
279.579	464.88
279.81	495.88
280.042	487.88
280.273	472.88
280.505	464.88
280.736	506.88
280.968	490.88
281.199	486.88
281.431	486.88
281.662	501.88
281.894	482.88
282.125	488.88
282.356	514.88
282.588	496.88
282.819	488.88
283.051	514.88
283.282	518.88
283.513	523.88
283.745	484.88
283.976	509.88
284.207	516.88
284.439	514.88
284.67	511.88
284.901	516.88
285.132	516.88
285.364	524.88
285.595	539.88
285.826	508.88
286.057	527.88
286.288	540.88
286.52	518.88
286.751	528.88
286.982	533.88
287.213	527.88
287.444	534.88
287.675	534.88
287.906	557.88
288.138	543.88
288.369	568.88
288.6	565.88
288.831	564.88
289.062	560.88
289.293	562.88
289.524	560.88
289.755	548.88
289.986	545.88
290.217	567.88
290.448	567.88
290.679	553.88
290.91	568.88
291.141	559.88
291.371	570.88
291.602	555.88
291.833	568.88
292.064	577.88
292.295	556.88
292.526	583.88
292.757	580.88
292.987	559.88
293.218	555.88
293.449	564.88
293.68	557.88
293.91	557.88
294.141	576.88
294.372	557.88
294.603	579.88
294.833	587.88
295.064	589.88
295.295	594.88
295.525	548.88
295.756	592.88
295.987	595.88
296.217	587.88
296.448	600.88
296.679	597.88
296.909	607.88
297.14	592.88
297.37	604.88
297.601	626.88
297.831	632.88
298.062	626.88
298.292	618.88
298.523	650.88
298.753	651.88
298.984	639.88
299.214	621.88
299.445	627.88
299.675	604.88
299.905	629.88
300.136	633.88
300.366	614.88
300.597	644.88
300.827	664.88
301.057	626.88
301.288	645.88
301.518	654.88
301.748	666.88
301.979	677.88
302.209	663.88
302.439	668.88
302.669	637.88
302.9	634.88
303.13	630.88
303.36	639.88
303.59	639.88
303.82	633.88
304.051	629.88
304.281	628.88
304.511	618.88
304.741	649.88
304.971	629.88
305.201	667.88
305.431	636.88
305.661	651.88
305.891	628.88
306.121	645.88
306.352	621.88
306.582	612.88
306.812	612.88
307.042	613.88
307.272	619.88
307.502	631.88
307.731	625.88
307.961	634.88
308.191	626.88
308.421	647.88
308.651	628.88
308.881	607.88
309.111	626.88
309.341	626.88
309.571	637.88
309.8	623.88
310.03	626.88
310.26	613.88
310.49	602.88
310.72	609.88
310.949	606.88
311.179	628.88
311.409	642.88
311.639	634.88
311.868	633.88
312.098	646.88
312.328	648.88
312.557	651.88
312.787	654.88
313.017	634.88
313.246	666.88
313.476	647.88
313.706	676.88
313.935	670.88
314.165	695.88
314.394	687.88
314.624	650.88
314.853	669.88
315.083	674.88
315.312	682.88
315.542	672.88
315.771	637.88
316.001	637.88
316.23	651.88
316.46	676.88
316.689	660.88
316.919	654.88
317.148	669.88
317.377	652.88
317.607	666.88
317.836	651.88
318.065	652.88
318.295	623.88
318.524	641.88
318.753	642.88
318.983	647.88
319.212	629.88
319.441	628.88
319.67	642.88
319.9	640.88
320.129	644.88
320.358	638.88
320.587	641.88
320.816	640.88
321.046	668.88
321.275	671.88
321.504	641.88
321.733	652.88
321.962	647.88
322.191	667.88
322.42	666.88
322.649	654.88
322.878	671.88
323.108	660.88
323.337	681.88
323.566	649.88
323.795	651.88
324.024	674.88
324.253	669.88
324.482	681.88
324.71	686.88
324.939	697.88
325.168	690.88
325.397	686.88
325.626	703.88
325.855	682.88
326.084	714.88
326.313	718.88
326.542	718.88
326.77	715.88
326.999	705.88
327.228	716.88
327.457	712.88
327.686	708.88
327.914	723.88
328.143	715.88
328.372	723.88
328.6	710.88
328.829	732.88
329.058	713.88
329.287	702.88
329.515	734.88
329.744	741.88
329.972	713.88
330.201	694.88
330.43	732.88
330.658	736.88
330.887	728.88
331.115	752.88
331.344	756.88
331.572	758.88
331.801	787.88
332.03	796.88
332.258	822.88
332.486	850.88
332.715	877.88
332.943	926.88
333.172	960.88
333.4	938.88
333.629	983.88
333.857	1007.88
334.085	998.88
334.314	956.88
334.542	947.88
334.771	924.88
334.999	902.88
335.227	899.88
335.455	895.88
335.684	876.88
335.912	908.88
336.14	843.88
336.369	878.88
336.597	868.88
336.825	854.88
337.053	856.88
337.281	851.88
337.51	863.88
337.738	834.88
337.966	803.88
338.194	827.88
338.422	792.88
338.65	789.88
338.878	776.88
339.106	774.88
339.334	792.88
339.562	790.88
339.79	758.88
340.018	775.88
340.246	749.88
340.474	745.88
340.702	760.88
340.93	758.88
341.158	777.88
341.386	748.88
341.614	741.88
341.842	751.88
342.07	732.88
342.298	732.88
342.526	755.88
342.754	750.88
342.981	733.88
343.209	758.88
343.437	792.88
343.665	834.88
343.893	946.88
344.12	955.88
344.348	932.88
344.576	834.88
344.804	838.88
345.031	797.88
345.259	778.88
345.487	760.88
345.714	746.88
345.942	746.88
346.17	756.88
346.397	747.88
346.625	750.88
346.853	741.88
347.08	731.88
347.308	718.88
347.535	750.88
347.763	742.88
347.99	775.88
348.218	749.88
348.445	749.88
348.673	733.88
348.9	730.88
349.128	704.88
349.355	728.88
349.583	719.88
349.81	728.88
350.037	711.88
350.265	700.88
350.492	720.88
350.72	713.88
350.947	707.88
351.174	696.88
351.402	694.88
351.629	701.88
351.856	699.88
352.083	687.88
352.311	694.88
352.538	690.88
352.765	686.88
352.992	698.88
353.22	710.88
353.447	701.88
353.674	704.88
353.901	729.88
354.128	704.88
354.355	733.88
354.583	692.88
354.81	706.88
355.037	737.88
355.264	716.88
355.491	715.88
355.718	709.88
355.945	718.88
356.172	698.88
356.399	725.88
356.626	680.88
356.853	714.88
357.08	700.88
357.307	713.88
357.534	705.88
357.761	699.88
357.988	704.88
358.215	719.88
358.441	694.88
358.668	708.88
358.895	697.88
359.122	702.88
359.349	713.88
359.576	687.88
359.802	701.88
360.029	682.88
360.256	698.88
360.483	707.88
360.709	687.88
360.936	717.88
361.163	710.88
361.39	696.88
361.616	703.88
361.843	702.88
362.07	715.88
362.296	714.88
362.523	680.88
362.749	696.88
362.976	690.88
363.203	703.88
363.429	694.88
363.656	724.88
363.882	709.88
364.109	711.88
364.335	694.88
364.562	694.88
364.788	698.88
365.015	700.88
365.241	682.88
365.468	704.88
365.694	684.88
365.92	687.88
366.147	685.88
366.373	708.88
366.599	690.88
366.826	695.88
367.052	694.88
367.278	688.88
367.505	702.88
367.731	736.88
367.957	683.88
368.184	716.88
368.41	723.88
368.636	704.88
368.862	727.88
369.089	707.88
369.315	729.88
369.541	731.88
369.767	728.88
369.993	728.88
370.219	708.88
370.445	731.88
370.672	739.88
370.898	767.88
371.124	775.88
371.35	782.88
371.576	756.88
371.802	763.88
372.028	782.88
372.254	737.88
372.48	766.88
372.706	797.88
372.932	813.88
373.158	816.88
373.384	776.88
373.61	758.88
373.835	783.88
374.061	762.88
374.287	774.88
374.513	778.88
374.739	824.88
374.965	833.88
375.191	858.88
375.416	850.88
375.642	828.88
375.868	793.88
376.094	804.88
376.319	790.88
376.545	795.88
376.771	776.88
376.997	766.88
377.222	745.88
377.448	762.88
377.674	756.88
377.899	768.88
378.125	771.88
378.35	760.88
378.576	772.88
378.802	755.88
379.027	754.88
379.253	753.88
379.478	741.88
379.704	755.88
379.929	766.88
380.155	733.88
380.38	750.88
380.606	772.88
380.831	750.88
381.057	788.88
381.282	748.88
381.507	762.88
381.733	768.88
381.958	771.88
382.184	781.88
382.409	792.88
382.634	826.88
382.86	818.88
383.085	833.88
383.31	841.88
383.535	873.88
383.761	870.88
383.986	877.88
384.211	877.88
384.436	918.88
384.662	922.88
384.887	939.88
385.112	945.88
385.337	951.88
385.562	947.88
385.787	943.88
386.013	940.88
386.238	947.88
386.463	942.88
386.688	926.88
386.913	928.88
387.138	935.88
387.363	918.88
387.588	870.88
387.813	925.88
388.038	902.88
388.263	904.88
388.488	931.88
388.713	919.88
388.938	914.88
389.163	902.88
389.387	907.88
389.612	892.88
389.837	921.88
390.062	891.88
390.287	904.88
390.512	884.88
390.736	923.88
390.961	924.88
391.186	948.88
391.411	971.88
391.636	1014.88
391.86	1062.88
392.085	1055.88
392.31	1048.88
392.534	1013.88
392.759	986.88
392.984	966.88
393.208	973.88
393.433	967.88
393.658	980.88
393.882	968.88
394.107	999.88
394.331	994.88
394.556	986.88
394.78	995.88
395.005	1006.88
395.229	1019.88
395.454	1027.88
395.678	1065.88
395.903	1063.88
396.127	983.88
396.352	986.88
396.576	973.88
396.801	940.88
397.025	976.88
397.249	1003.88
397.474	1044.88
397.698	1024.88
397.922	1028.88
398.147	1013.88
398.371	1046.88
398.595	1086.88
398.82	1082.88
399.044	1197.88
399.268	1382.88
399.492	1576.88
399.717	1866.88
399.941	1843.88
400.165	1603.88
400.389	1404.88
400.613	1280.88
400.837	1207.88
401.062	1184.88
401.286	1170.88
401.51	1149.88
401.734	1178.88
401.958	1169.88
402.182	1196.88
402.406	1205.88
402.63	1191.88
402.854	1253.88
403.078	1278.88
403.302	1286.88
403.526	1334.88
403.75	1355.88
403.974	1402.88
404.198	1402.88
404.422	1411.88
404.645	1394.88
404.869	1364.88
405.093	1365.88
405.317	1314.88
405.541	1316.88
405.765	1299.88
405.988	1283.88
406.212	1290.88
406.436	1250.88
406.66	1294.88
406.883	1296.88
407.107	1407.88
407.331	1519.88
407.555	1525.88
407.778	1524.88
408.002	1478.88
408.226	1436.88
408.449	1418.88
408.673	1382.88
408.896	1352.88
409.12	1317.88
409.344	1337.88
409.567	1315.88
409.791	1356.88
410.014	1351.88
410.238	1338.88
410.461	1359.88
410.685	1337.88
410.908	1284.88
411.132	1242.88
411.355	1211.88
411.578	1229.88
411.802	1244.88
412.025	1205.88
412.249	1227.88
412.472	1197.88
412.695	1179.88
412.919	1153.88
413.142	1168.88
413.365	1180.88
413.589	1187.88
413.812	1166.88
414.035	1138.88
414.258	1117.88
414.482	1160.88
414.705	1207.88
414.928	1202.88
415.151	1161.88
415.374	1188.88
415.597	1163.88
415.821	1139.88
416.044	1130.88
416.267	1112.88
416.49	1137.88
416.713	1133.88
416.936	1136.88
417.159	1127.88
417.382	1134.88
417.605	1162.88
417.828	1130.88
418.051	1143.88
418.274	1134.88
418.497	1144.88
418.72	1183.88
418.943	1196.88
419.166	1260.88
419.389	1395.88
419.611	1342.88
419.834	1252.88
420.057	1215.88
420.28	1176.88
420.503	1124.88
420.726	1104.88
420.948	1096.88
421.171	1140.88
421.394	1159.88
421.617	1142.88
421.839	1154.88
422.062	1152.88
422.285	1170.88
422.507	1182.88
422.73	1205.88
422.953	1207.88
423.175	1215.88
423.398	1235.88
423.621	1254.88
423.843	1251.88
424.066	1242.88
424.288	1238.88
424.511	1233.88
424.733	1218.88
424.956	1205.88
425.178	1182.88
425.401	1191.88
425.623	1139.88
425.846	1116.88
426.068	1077.88
426.291	1119.88
426.513	1104.88
426.735	1079.88
426.958	1093.88
427.18	1039.88
427.402	1035.88
427.625	1031.88
427.847	1008.88
428.069	1037.88
428.292	1058.88
428.514	992.88
428.736	996.88
428.958	1022.88
429.181	987.88
429.403	965.88
429.625	1018.88
429.847	987.88
430.069	995.88
430.292	995.88
430.514	1029.88
430.736	975.88
430.958	996.88
431.18	986.88
431.402	1007.88
431.624	989.88
431.846	987.88
432.068	1046.88
432.29	1058.88
432.512	1035.88
432.734	1013.88
432.956	1005.88
433.178	1018.88
433.4	1014.88
433.622	1017.88
433.844	1032.88
434.066	1044.88
434.287	1053.88
434.509	1058.88
434.731	1131.88
434.953	1175.88
435.175	1195.88
435.397	1169.88
435.618	1117.88
435.84	1088.88
436.062	1044.88
436.284	1000.88
436.505	1005.88
436.727	1022.88
436.949	1020.88
437.17	1047.88
437.392	1002.88
437.614	1018.88
437.835	964.88
438.057	970.88
438.278	979.88
438.5	989.88
438.721	1009.88
438.943	988.88
439.165	969.88
439.386	1004.88
439.608	1033.88
439.829	1037.88
440.05	1034.88
440.272	1014.88
440.493	997.88
440.715	1051.88
440.936	1072.88
441.158	1071.88
441.379	1091.88
441.6	1179.88
441.822	1182.88
442.043	1155.88
442.264	1145.88
442.486	1142.88
442.707	1171.88
442.928	1135.88
443.149	1152.88
443.371	1152.88
443.592	1165.88
443.813	1158.88
444.034	1190.88
444.255	1230.88
444.476	1287.88
444.698	1352.88
444.919	1425.88
445.14	1496.88
445.361	1325.88
445.582	1199.88
445.803	1127.88
446.024	1111.88
446.245	1083.88
446.466	1037.88
446.687	1015.88
446.908	1046.88
447.129	978.88
447.35	1014.88
447.571	987.88
447.792	959.88
448.013	957.88
448.234	950.88
448.455	966.88
448.675	907.88
448.896	938.88
449.117	925.88
449.338	926.88
449.559	935.88
449.779	900.88
450	904.88
450.221	935.88
450.442	943.88
450.662	966.88
450.883	957.88
451.104	983.88
451.324	997.88
451.545	985.88
451.766	975.88
451.986	970.88
452.207	943.88
452.428	934.88
452.648	972.88
452.869	925.88
453.089	940.88
453.31	943.88
453.53	923.88
453.751	916.88
453.971	943.88
454.192	922.88
454.412	890.88
454.633	904.88
454.853	907.88
455.073	904.88
455.294	913.88
455.514	885.88
455.734	885.88
455.955	865.88
456.175	831.88
456.395	852.88
456.616	900.88
456.836	896.88
457.056	890.88
457.276	858.88
457.497	867.88
457.717	867.88
457.937	884.88
458.157	908.88
458.377	920.88
458.598	920.88
458.818	951.88
459.038	981.88
459.258	1007.88
459.478	1060.88
459.698	1038.88
459.918	1100.88
460.138	1150.88
460.358	1227.88
460.578	1257.88
460.798	1245.88
461.018	1260.88
461.238	1220.88
461.458	1216.88
461.678	1231.88
461.898	1225.88
462.118	1230.88
462.338	1318.88
462.558	1336.88
462.777	1389.88
462.997	1534.88
463.217	1707.88
463.437	1737.88
463.657	1544.88
463.876	1450.88
464.096	1442.88
464.316	1438.88
464.536	1492.88
464.755	1400.88
464.975	1334.88
465.195	1286.88
465.414	1218.88
465.634	1156.88
465.854	1107.88
466.073	1068.88
466.293	1047.88
466.512	1042.88
466.732	1001.88
466.951	1003.88
467.171	982.88
467.391	1013.88
467.61	997.88
467.829	990.88
468.049	965.88
468.268	965.88
468.488	927.88
468.707	938.88
468.927	955.88
469.146	938.88
469.365	954.88
469.585	962.88
469.804	986.88
470.023	1009.88
470.243	1025.88
470.462	1052.88
470.681	1024.88
470.901	1058.88
471.12	986.88
471.339	996.88
471.558	982.88
471.777	981.88
471.997	962.88
472.216	958.88
472.435	943.88
472.654	919.88
472.873	911.88
473.092	950.88
473.311	916.88
473.53	943.88
473.749	924.88
473.968	896.88
474.187	927.88
474.406	908.88
474.625	922.88
474.844	928.88
475.063	934.88
475.282	930.88
475.501	936.88
475.72	944.88
475.939	939.88
476.158	932.88
476.377	936.88
476.596	928.88
476.814	972.88
477.033	991.88
477.252	1013.88
477.471	1022.88
477.69	1027.88
477.908	1061.88
478.127	1107.88
478.346	1123.88
478.564	1103.88
478.783	1132.88
479.002	1174.88
479.22	1176.88
479.439	1177.88
479.658	1165.88
479.876	1162.88
480.095	1189.88
480.313	1200.88
480.532	1286.88
480.751	1282.88
480.969	1204.88
481.188	1176.88
481.406	1117.88
481.624	1077.88
481.843	1067.88
482.061	1084.88
482.28	1082.88
482.498	1047.88
482.717	1020.88
482.935	1050.88
483.153	1052.88
483.372	1022.88
483.59	1068.88
483.808	1056.88
484.027	1048.88
484.245	1074.88
484.463	1068.88
484.681	1096.88
484.9	1099.88
485.118	1121.88
485.336	1097.88
485.554	1098.88
485.772	1134.88
485.99	1108.88
486.209	1150.88
486.427	1144.88
486.645	1134.88
486.863	1124.88
487.081	1119.88
487.299	1100.88
487.517	1085.88
487.735	1138.88
487.953	1127.88
488.171	1144.88
488.389	1089.88
488.607	1091.88
488.825	1088.88
489.043	1090.88
489.261	1076.88
489.479	1106.88
489.696	1122.88
489.914	1126.88
490.132	1078.88
490.35	1143.88
490.568	1107.88
490.786	1106.88
491.003	1088.88
491.221	1109.88
491.439	1119.88
491.657	1121.88
491.874	1104.88
492.092	1107.88
492.31	1130.88
492.527	1146.88
492.745	1127.88
492.963	1146.88
493.18	1132.88
493.398	1168.88
493.615	1146.88
493.833	1150.88
494.05	1162.88
494.268	1164.88
494.485	1187.88
494.703	1187.88
494.92	1161.88
495.138	1164.88
495.355	1165.88
495.573	1145.88
495.79	1174.88
496.008	1181.88
496.225	1193.88
496.442	1150.88
496.66	1185.88
496.877	1247.88
497.094	1260.88
497.312	1274.88
497.529	1270.88
497.746	1319.88
497.963	1341.88
498.181	1415.88
498.398	1492.88
498.615	1589.88
498.832	1623.88
499.049	1792.88
499.267	1943.88
499.484	2165.88
499.701	2376.88
499.918	2630.88
500.135	3140.88
500.352	3617.88
500.569	3897.88
500.786	3842.88
501.003	3517.88
501.22	3083.88
501.437	2644.88
501.654	2293.88
501.871	2095.88
502.088	1895.88
502.305	1794.88
502.522	1701.88
502.739	1620.88
502.956	1537.88
503.172	1460.88
503.389	1376.88
503.606	1376.88
503.823	1363.88
504.04	1350.88
504.256	1338.88
504.473	1383.88
504.69	1446.88
504.907	1424.88
505.123	1332.88
505.34	1207.88
505.557	1189.88
505.773	1110.88
505.99	1133.88
506.207	1079.88
506.423	1076.88
506.64	1070.88
506.856	1059.88
507.073	1066.88
507.289	1045.88
507.506	1033.88
507.722	1058.88
507.939	1026.88
508.155	1006.88
508.372	1030.88
508.588	980.88
508.805	975.88
509.021	1013.88
509.238	1001.88
509.454	976.88
509.67	984.88
509.887	976.88
510.103	958.88
510.319	967.88
510.536	966.88
510.752	916.88
510.968	991.88
511.184	965.88
511.401	954.88
511.617	957.88
511.833	962.88
512.049	931.88
512.265	962.88
512.481	950.88
512.698	916.88
512.914	948.88
513.13	935.88
513.346	940.88
513.562	968.88
513.778	967.88
513.994	951.88
514.21	958.88
514.426	934.88
514.642	969.88
514.858	987.88
515.074	980.88
515.29	1004.88
515.506	996.88
515.721	1013.88
515.937	1004.88
516.153	1025.88
516.369	1028.88
516.585	1088.88
516.801	1120.88
517.016	1149.88
517.232	1234.88
517.448	1298.88
517.664	1337.88
517.879	1349.88
518.095	1370.88
518.311	1344.88
518.527	1292.88
518.742	1220.88
518.958	1179.88
519.173	1142.88
519.389	1086.88
519.605	1059.88
519.82	1028.88
520.036	1024.88
520.251	977.88
520.467	988.88
520.682	971.88
520.898	987.88
521.113	942.88
521.329	952.88
521.544	917.88
521.76	912.88
521.975	919.88
522.19	923.88
522.406	876.88
522.621	902.88
522.836	917.88
523.052	906.88
523.267	874.88
523.482	904.88
523.698	887.88
523.913	860.88
524.128	894.88
524.343	878.88
524.559	882.88
524.774	882.88
524.989	900.88
525.204	910.88
525.419	885.88
525.634	875.88
525.849	884.88
526.064	858.88
526.28	875.88
526.495	867.88
526.71	892.88
526.925	876.88
527.14	845.88
527.355	836.88
527.57	870.88
527.785	842.88
527.999	864.88
528.214	841.88
528.429	844.88
528.644	896.88
528.859	880.88
529.074	882.88
529.289	858.88
529.503	863.88
529.718	866.88
529.933	847.88
530.148	867.88
530.363	870.88
530.577	855.88
530.792	861.88
531.007	878.88
531.221	888.88
531.436	869.88
531.651	845.88
531.865	860.88
532.08	856.88
532.295	861.88
532.509	847.88
532.724	870.88
532.938	864.88
533.153	851.88
533.367	879.88
533.582	849.88
533.796	861.88
534.011	852.88
534.225	848.88
534.44	844.88
534.654	848.88
534.868	849.88
535.083	836.88
535.297	875.88
535.511	846.88
535.726	856.88
535.94	823.88
536.154	829.88
536.369	816.88
536.583	829.88
536.797	828.88
537.011	832.88
537.225	828.88
537.44	780.88
537.654	812.88
537.868	777.88
538.082	820.88
538.296	808.88
538.51	776.88
538.724	784.88
538.938	782.88
539.153	778.88
539.367	791.88
539.581	768.88
539.795	775.88
540.009	790.88
540.222	781.88
540.436	775.88
540.65	769.88
540.864	765.88
541.078	757.88
541.292	773.88
541.506	792.88
541.72	767.88
541.934	782.88
542.147	777.88
542.361	779.88
542.575	772.88
542.789	791.88
543.002	760.88
543.216	766.88
543.43	747.88
543.644	737.88
543.857	754.88
544.071	754.88
544.285	763.88
544.498	770.88
544.712	780.88
544.925	774.88
545.139	771.88
545.352	787.88
545.566	780.88
545.779	796.88
545.993	785.88
546.206	781.88
546.42	792.88
546.633	791.88
546.847	751.88
547.06	790.88
547.274	754.88
547.487	756.88
547.7	798.88
547.914	783.88
548.127	809.88
548.34	809.88
548.554	785.88
548.767	790.88
548.98	783.88
549.193	776.88
549.407	793.88
549.62	818.88
549.833	842.88
550.046	806.88
550.259	813.88
550.473	764.88
550.686	797.88
550.899	802.88
551.112	774.88
551.325	773.88
551.538	770.88
551.751	779.88
551.964	790.88
552.177	806.88
552.39	804.88
552.603	795.88
552.816	836.88
553.029	855.88
553.242	867.88
553.455	891.88
553.667	885.88
553.88	903.88
554.093	846.88
554.306	826.88
554.519	798.88
554.732	800.88
554.944	794.88
555.157	776.88
555.37	737.88
555.583	747.88
555.795	736.88
556.008	727.88
556.221	722.88
556.433	690.88
556.646	693.88
556.859	684.88
557.071	674.88
557.284	679.88
557.496	686.88
557.709	694.88
557.921	679.88
558.134	666.88
558.346	668.88
558.559	658.88
558.771	635.88
558.984	652.88
559.196	640.88
559.409	650.88
559.621	686.88
559.833	668.88
560.046	662.88
560.258	636.88
560.47	626.88
560.683	655.88
560.895	662.88
561.107	642.88
561.32	678.88
561.532	644.88
561.744	624.88
561.956	652.88
562.168	653.88
562.381	674.88
562.593	643.88
562.805	650.88
563.017	658.88
563.229	654.88
563.441	672.88
563.653	657.88
563.865	631.88
564.077	670.88
564.289	651.88
564.501	687.88
564.713	665.88
564.925	704.88
565.137	704.88
565.349	724.88
565.561	765.88
565.773	788.88
565.985	829.88
566.197	857.88
566.408	927.88
566.62	999.88
566.832	1098.88
567.044	1126.88
567.255	1082.88
567.467	1170.88
567.679	1212.88
567.891	1314.88
568.102	1368.88
568.314	1309.88
568.526	1154.88
568.737	1041.88
568.949	959.88
569.161	858.88
569.372	808.88
569.584	745.88
569.795	721.88
570.007	681.88
570.218	677.88
570.43	665.88
570.641	677.88
570.853	677.88
571.064	687.88
571.276	698.88
571.487	659.88
571.698	644.88
571.91	623.88
572.121	598.88
572.333	582.88
572.544	555.88
572.755	566.88
572.966	580.88
573.178	562.88
573.389	592.88
573.6	552.88
573.811	540.88
574.023	542.88
574.234	567.88
574.445	551.88
574.656	522.88
574.867	548.88
575.078	555.88
575.289	560.88
575.501	526.88
575.712	526.88
575.923	543.88
576.134	540.88
576.345	512.88
576.556	525.88
576.767	523.88
576.978	524.88
577.188	520.88
577.399	517.88
577.61	496.88
577.821	516.88
578.032	502.88
578.243	482.88
578.454	516.88
578.665	511.88
578.875	495.88
579.086	476.88
579.297	462.88
579.508	462.88
579.718	491.88
579.929	480.88
580.14	458.88
580.35	468.88
580.561	456.88
580.772	466.88
580.982	474.88
581.193	455.88
581.403	470.88
581.614	444.88
581.825	464.88
582.035	448.88
582.246	466.88
582.456	467.88
582.667	443.88
582.877	447.88
583.087	434.88
583.298	461.88
583.508	438.88
583.719	446.88
583.929	442.88
584.139	438.88
584.35	449.88
584.56	462.88
584.77	459.88
584.981	428.88
585.191	448.88
585.401	444.88
585.611	438.88
585.821	447.88
586.032	445.88
586.242	435.88
586.452	432.88
586.662	430.88
586.872	462.88
587.082	427.88
587.292	432.88
587.502	442.88
587.713	435.88
587.923	430.88
588.133	429.88
588.343	425.88
588.553	452.88
588.762	442.88
588.972	431.88
589.182	426.88
589.392	416.88
589.602	431.88
589.812	430.88
590.022	435.88
590.232	446.88
590.441	430.88
590.651	438.88
590.861	451.88
591.071	455.88
591.281	477.88
591.49	458.88
591.7	472.88
591.91	477.88
592.119	454.88
592.329	479.88
592.539	477.88
592.748	527.88
592.958	531.88
593.167	545.88
593.377	581.88
593.587	591.88
593.796	552.88
594.006	563.88
594.215	606.88
594.424	564.88
594.634	578.88
594.843	547.88
595.053	528.88
595.262	515.88
595.472	484.88
595.681	476.88
595.89	457.88
596.1	431.88
596.309	441.88
596.518	401.88
596.727	411.88
596.937	407.88
597.146	408.88
597.355	392.88
597.564	399.88
597.774	410.88
597.983	392.88
598.192	393.88
598.401	368.88
598.61	374.88
598.819	399.88
599.028	360.88
599.237	380.88
599.446	382.88
599.655	372.88
599.864	360.88
600.073	372.88
600.282	367.88
600.491	368.88
600.7	353.88
600.909	350.88
601.118	356.88
601.327	365.88
601.536	358.88
601.745	346.88
601.953	345.88
602.162	366.88
602.371	356.88
602.58	354.88
602.789	366.88
602.997	345.88
603.206	340.88
603.415	349.88
603.623	353.88
603.832	347.88
604.041	343.88
604.249	339.88
604.458	356.88
604.666	343.88
604.875	340.88
605.084	335.88
605.292	350.88
605.501	333.88
605.709	334.88
605.918	349.88
606.126	343.88
606.334	343.88
606.543	351.88
606.751	348.88
606.96	347.88
607.168	342.88
607.376	330.88
607.585	331.88
607.793	348.88
608.001	338.88
608.21	328.88
608.418	358.88
608.626	341.88
608.834	333.88
609.043	328.88
609.251	336.88
609.459	338.88
609.667	324.88
609.875	332.88
610.083	328.88
610.291	330.88
610.499	332.88
610.707	319.88
610.916	343.88
611.124	316.88
611.332	338.88
611.54	319.88
611.748	319.88
611.955	325.88
612.163	319.88
612.371	324.88
612.579	328.88
612.787	311.88
612.995	322.88
613.203	325.88
613.411	310.88
613.618	313.88
613.826	314.88
614.034	312.88
614.242	327.88
614.449	303.88
614.657	305.88
614.865	303.88
615.072	325.88
615.28	325.88
615.488	322.88
615.695	319.88
615.903	332.88
616.111	302.88
616.318	308.88
616.526	326.88
616.733	320.88
616.941	320.88
617.148	308.88
617.356	331.88
617.563	333.88
617.771	335.88
617.978	324.88
618.185	327.88
618.393	315.88
618.6	310.88
618.807	343.88
619.015	332.88
619.222	318.88
619.429	299.88
619.637	312.88
619.844	314.88
620.051	311.88
620.258	296.88
620.466	299.88
620.673	294.88
620.88	287.88
621.087	307.88
621.294	291.88
621.501	297.88
621.708	282.88
621.915	298.88
622.122	296.88
622.329	299.88
622.536	287.88
622.743	301.88
622.95	299.88
623.157	276.88
623.364	271.88
623.571	289.88
623.778	282.88
623.985	287.88
624.192	285.88
624.399	270.88
624.606	286.88
624.812	271.88
625.019	263.88
625.226	259.88
625.433	275.88
625.639	268.88
625.846	278.88
626.053	268.88
626.259	257.88
626.466	273.88
626.673	281.88
626.879	257.88
627.086	269.88
627.293	278.88
627.499	262.88
627.706	270.88
627.912	246.88
628.119	260.88
628.325	258.88
628.532	258.88
628.738	269.88
628.945	264.88
629.151	263.88
629.357	246.88
629.564	234.88
629.77	250.88
629.976	252.88
630.183	240.88
630.389	222.88
630.595	254.88
630.802	258.88
631.008	227.88
631.214	234.88
631.42	247.88
631.627	250.88
631.833	242.88
632.039	245.88
632.245	229.88
632.451	235.88
632.657	228.88
632.863	238.88
633.069	238.88
633.275	239.88
633.481	228.88
633.688	249.88
633.893	237.88
634.099	224.88
634.305	239.88
634.511	216.88
634.717	242.88
634.923	230.88
635.129	226.88
635.335	243.88
635.541	224.88
635.747	242.88
635.952	226.88
636.158	228.88
636.364	242.88
636.57	226.88
636.775	219.88
636.981	238.88
637.187	217.88
637.392	237.88
637.598	216.88
637.804	218.88
638.009	231.88
638.215	216.88
638.421	216.88
638.626	235.88
638.832	227.88
639.037	210.88
639.243	225.88
639.448	215.88
639.654	244.88
639.859	211.88
640.065	209.88
640.27	229.88
640.475	230.88
640.681	224.88
640.886	226.88
641.091	214.88
641.297	212.88
641.502	209.88
641.707	203.88
641.913	197.88
642.118	202.88
642.323	198.88
642.528	216.88
642.733	227.88
642.939	222.88
643.144	200.88
643.349	197.88
643.554	199.88
643.759	205.88
643.964	195.88
644.169	205.88
644.374	202.88
644.579	199.88
644.784	210.88
644.989	199.88
645.194	211.88
645.399	232.88
645.604	189.88
645.809	188.88
646.014	199.88
646.219	214.88
646.423	232.88
646.628	205.88
646.833	214.88
647.038	204.88
647.243	220.88
647.447	194.88
647.652	235.88
647.857	226.88
648.062	224.88
648.266	224.88
648.471	227.88
648.676	214.88
648.88	227.88
649.085	222.88
649.289	211.88
649.494	223.88
649.698	203.88
649.903	197.88
650.107	205.88
650.312	199.88
650.516	198.88
650.721	198.88
650.925	192.88
651.13	202.88
651.334	190.88
651.539	180.88
651.743	191.88
651.947	199.88
652.152	188.88
652.356	172.88
652.56	179.88
652.764	168.88
652.969	171.88
653.173	154.88
653.377	169.88
653.581	157.88
653.785	159.88
653.99	155.88
654.194	159.88
654.398	152.88
654.602	156.88
654.806	156.88
655.01	149.88
655.214	161.88
655.418	142.88
655.622	142.88
655.826	138.88
656.03	152.88
656.234	150.88
656.438	148.88
656.642	146.88
656.846	152.88
657.049	147.88
657.253	148.88
657.457	138.88
657.661	128.88
657.865	124.88
658.068	121.88
658.272	128.88
658.476	115.88
658.68	106.88
658.883	123.88
659.087	102.88
659.291	94.88
659.494	100.88
659.698	98.88
659.901	95.88
660.105	98.88
660.309	97.88
660.512	93.88
660.716	88.88
660.919	92.88
661.123	97.88
661.326	96.88
661.53	96.88
661.733	88.88
661.936	84.88
662.14	87.88
662.343	90.88
662.546	90.88
662.75	85.88
662.953	100.88
663.156	88.88
663.36	90.88
663.563	93.88
663.766	93.88
663.969	91.88
664.173	91.88
664.376	89.88
664.579	92.88
664.782	99.88
664.985	77.88
665.188	76.88
665.391	80.88
665.594	84.88
665.797	86.88
666	80.88
666.203	95.88
666.406	73.88
666.609	79.88
666.812	89.88
667.015	77.88
667.218	89.88
667.421	89.88
667.624	73.88
667.827	86.88
668.03	86.88
668.232	85.88
668.435	89.88
668.638	80.88
668.841	86.88
669.043	86.88
669.246	72.88
669.449	75.88
669.651	91.88
669.854	101.88
670.057	86.88
670.259	79.88
670.462	89.88
670.665	84.88
670.867	89.88
671.07	85.88
671.272	78.88
671.475	88.88
671.677	79.88
671.88	94.88
672.082	63.88
672.284	87.88
672.487	89.88
672.689	78.88
672.892	74.88
