Data from Ni(NO3)2Standard.Agarose3%.GreenCap.LampEnergy5.5.E.O_HRD10591_14-42-39-188.txt Node
Date: Mon Jul 22 14:42:39 EDT 2019
User: cochatt
Spectrometer: HR+D1059
Trigger mode: 1
Integration Time (sec): 1.000000E-1
Scans to average: 1
Electric dark correction enabled: true
Nonlinearity correction enabled: false
Boxcar width: 0
XAxis mode: Wavelengths
Number of Pixels in Spectrum: 2048
>>>>>Begin Spectral Data<<<<<
223.165	-23.25
223.4	-23.25
223.635	-23.25
223.869	-16.25
224.104	-17.25
224.338	-30.25
224.573	-9.25
224.808	-0.25
225.042	-2.25
225.277	-4.25
225.511	-0.25
225.746	7.75
225.98	3.75
226.215	5.75
226.449	19.75
226.683	26.75
226.918	16.75
227.152	22.75
227.387	32.75
227.621	35.75
227.856	53.75
228.09	56.75
228.324	43.75
228.559	56.75
228.793	54.75
229.027	53.75
229.262	55.75
229.496	62.75
229.73	61.75
229.964	55.75
230.199	67.75
230.433	63.75
230.667	68.75
230.901	73.75
231.136	75.75
231.37	87.75
231.604	72.75
231.838	87.75
232.072	76.75
232.306	79.75
232.541	89.75
232.775	91.75
233.009	84.75
233.243	73.75
233.477	83.75
233.711	85.75
233.945	83.75
234.179	78.75
234.413	88.75
234.647	76.75
234.881	65.75
235.115	84.75
235.349	80.75
235.583	80.75
235.817	90.75
236.051	73.75
236.285	73.75
236.519	75.75
236.753	90.75
236.987	72.75
237.221	89.75
237.455	73.75
237.689	78.75
237.922	81.75
238.156	77.75
238.39	78.75
238.624	78.75
238.858	73.75
239.091	76.75
239.325	77.75
239.559	71.75
239.793	79.75
240.027	93.75
240.26	78.75
240.494	71.75
240.728	72.75
240.961	84.75
241.195	82.75
241.429	80.75
241.662	75.75
241.896	87.75
242.13	74.75
242.363	76.75
242.597	63.75
242.83	87.75
243.064	88.75
243.298	68.75
243.531	86.75
243.765	80.75
243.998	96.75
244.232	83.75
244.465	68.75
244.699	81.75
244.932	73.75
245.166	90.75
245.399	81.75
245.633	83.75
245.866	86.75
246.099	74.75
246.333	83.75
246.566	64.75
246.8	81.75
247.033	78.75
247.266	87.75
247.5	87.75
247.733	80.75
247.966	64.75
248.2	50.75
248.433	72.75
248.666	65.75
248.899	78.75
249.133	74.75
249.366	70.75
249.599	75.75
249.832	79.75
250.066	81.75
250.299	77.75
250.532	76.75
250.765	69.75
250.998	81.75
251.231	85.75
251.465	84.75
251.698	84.75
251.931	58.75
252.164	82.75
252.397	72.75
252.63	69.75
252.863	79.75
253.096	84.75
253.329	80.75
253.562	86.75
253.795	68.75
254.028	76.75
254.261	65.75
254.494	58.75
254.727	92.75
254.96	82.75
255.193	75.75
255.426	74.75
255.659	83.75
255.892	78.75
256.124	89.75
256.357	88.75
256.59	76.75
256.823	73.75
257.056	79.75
257.289	79.75
257.521	92.75
257.754	79.75
257.987	77.75
258.22	78.75
258.452	87.75
258.685	98.75
258.918	75.75
259.151	76.75
259.383	83.75
259.616	84.75
259.849	83.75
260.081	76.75
260.314	83.75
260.547	79.75
260.779	86.75
261.012	79.75
261.244	83.75
261.477	87.75
261.71	87.75
261.942	87.75
262.175	97.75
262.407	88.75
262.64	77.75
262.872	71.75
263.105	67.75
263.337	68.75
263.57	76.75
263.802	75.75
264.035	83.75
264.267	88.75
264.499	88.75
264.732	81.75
264.964	64.75
265.197	78.75
265.429	84.75
265.661	84.75
265.894	89.75
266.126	73.75
266.358	86.75
266.591	85.75
266.823	77.75
267.055	82.75
267.287	87.75
267.52	76.75
267.752	83.75
267.984	75.75
268.216	88.75
268.448	83.75
268.681	87.75
268.913	80.75
269.145	83.75
269.377	74.75
269.609	67.75
269.841	77.75
270.073	95.75
270.306	80.75
270.538	76.75
270.77	75.75
271.002	82.75
271.234	83.75
271.466	84.75
271.698	97.75
271.93	72.75
272.162	82.75
272.394	78.75
272.626	69.75
272.858	85.75
273.09	86.75
273.322	75.75
273.553	68.75
273.785	83.75
274.017	96.75
274.249	80.75
274.481	85.75
274.713	77.75
274.945	85.75
275.176	77.75
275.408	77.75
275.64	85.75
275.872	88.75
276.104	100.75
276.335	75.75
276.567	76.75
276.799	89.75
277.031	91.75
277.262	77.75
277.494	77.75
277.726	84.75
277.957	85.75
278.189	87.75
278.421	93.75
278.652	69.75
278.884	68.75
279.115	76.75
279.347	77.75
279.579	80.75
279.81	82.75
280.042	75.75
280.273	84.75
280.505	79.75
280.736	100.75
280.968	81.75
281.199	86.75
281.431	90.75
281.662	106.75
281.894	97.75
282.125	98.75
282.356	87.75
282.588	95.75
282.819	89.75
283.051	72.75
283.282	84.75
283.513	89.75
283.745	68.75
283.976	85.75
284.207	95.75
284.439	74.75
284.67	87.75
284.901	77.75
285.132	87.75
285.364	83.75
285.595	89.75
285.826	83.75
286.057	92.75
286.288	90.75
286.52	90.75
286.751	80.75
286.982	106.75
287.213	92.75
287.444	88.75
287.675	85.75
287.906	92.75
288.138	80.75
288.369	80.75
288.6	90.75
288.831	83.75
289.062	79.75
289.293	73.75
289.524	77.75
289.755	80.75
289.986	93.75
290.217	89.75
290.448	77.75
290.679	93.75
290.91	95.75
291.141	85.75
291.371	80.75
291.602	86.75
291.833	95.75
292.064	82.75
292.295	85.75
292.526	78.75
292.757	97.75
292.987	84.75
293.218	85.75
293.449	74.75
293.68	81.75
293.91	88.75
294.141	80.75
294.372	92.75
294.603	85.75
294.833	92.75
295.064	98.75
295.295	71.75
295.525	91.75
295.756	88.75
295.987	80.75
296.217	84.75
296.448	86.75
296.679	82.75
296.909	87.75
297.14	84.75
297.37	75.75
297.601	82.75
297.831	92.75
298.062	80.75
298.292	83.75
298.523	95.75
298.753	96.75
298.984	92.75
299.214	90.75
299.445	77.75
299.675	84.75
299.905	75.75
300.136	75.75
300.366	73.75
300.597	101.75
300.827	95.75
301.057	83.75
301.288	79.75
301.518	91.75
301.748	85.75
301.979	82.75
302.209	80.75
302.439	93.75
302.669	92.75
302.9	93.75
303.13	89.75
303.36	79.75
303.59	80.75
303.82	77.75
304.051	83.75
304.281	89.75
304.511	82.75
304.741	89.75
304.971	85.75
305.201	90.75
305.431	81.75
305.661	79.75
305.891	92.75
306.121	90.75
306.352	89.75
306.582	87.75
306.812	82.75
307.042	71.75
307.272	81.75
307.502	80.75
307.731	88.75
307.961	80.75
308.191	89.75
308.421	86.75
308.651	98.75
308.881	81.75
309.111	83.75
309.341	87.75
309.571	82.75
309.8	75.75
310.03	96.75
310.26	82.75
310.49	75.75
310.72	77.75
310.949	80.75
311.179	83.75
311.409	86.75
311.639	88.75
311.868	88.75
312.098	99.75
312.328	90.75
312.557	80.75
312.787	80.75
313.017	79.75
313.246	75.75
313.476	99.75
313.706	88.75
313.935	83.75
314.165	94.75
314.394	83.75
314.624	83.75
314.853	89.75
315.083	97.75
315.312	91.75
315.542	102.75
315.771	92.75
316.001	73.75
316.23	94.75
316.46	88.75
316.689	81.75
316.919	86.75
317.148	83.75
317.377	90.75
317.607	90.75
317.836	86.75
318.065	62.75
318.295	82.75
318.524	88.75
318.753	92.75
318.983	87.75
319.212	89.75
319.441	81.75
319.67	78.75
319.9	84.75
320.129	90.75
320.358	78.75
320.587	88.75
320.816	88.75
321.046	89.75
321.275	82.75
321.504	79.75
321.733	86.75
321.962	84.75
322.191	83.75
322.42	68.75
322.649	91.75
322.878	82.75
323.108	85.75
323.337	86.75
323.566	89.75
323.795	81.75
324.024	87.75
324.253	84.75
324.482	73.75
324.71	85.75
324.939	77.75
325.168	91.75
325.397	85.75
325.626	80.75
325.855	74.75
326.084	85.75
326.313	86.75
326.542	87.75
326.77	81.75
326.999	71.75
327.228	86.75
327.457	91.75
327.686	82.75
327.914	82.75
328.143	85.75
328.372	79.75
328.6	95.75
328.829	85.75
329.058	79.75
329.287	80.75
329.515	87.75
329.744	78.75
329.972	84.75
330.201	90.75
330.43	87.75
330.658	92.75
330.887	74.75
331.115	82.75
331.344	91.75
331.572	95.75
331.801	89.75
332.03	90.75
332.258	100.75
332.486	83.75
332.715	78.75
332.943	75.75
333.172	69.75
333.4	65.75
333.629	77.75
333.857	82.75
334.085	81.75
334.314	89.75
334.542	89.75
334.771	90.75
334.999	88.75
335.227	87.75
335.455	90.75
335.684	88.75
335.912	82.75
336.14	97.75
336.369	95.75
336.597	84.75
336.825	95.75
337.053	95.75
337.281	84.75
337.51	70.75
337.738	82.75
337.966	83.75
338.194	73.75
338.422	83.75
338.65	75.75
338.878	69.75
339.106	77.75
339.334	97.75
339.562	87.75
339.79	99.75
340.018	94.75
340.246	83.75
340.474	71.75
340.702	88.75
340.93	87.75
341.158	88.75
341.386	80.75
341.614	88.75
341.842	88.75
342.07	82.75
342.298	82.75
342.526	95.75
342.754	87.75
342.981	93.75
343.209	82.75
343.437	88.75
343.665	85.75
343.893	87.75
344.12	96.75
344.348	79.75
344.576	80.75
344.804	98.75
345.031	98.75
345.259	85.75
345.487	83.75
345.714	64.75
345.942	81.75
346.17	98.75
346.397	93.75
346.625	94.75
346.853	89.75
347.08	97.75
347.308	93.75
347.535	77.75
347.763	81.75
347.99	88.75
348.218	81.75
348.445	91.75
348.673	76.75
348.9	80.75
349.128	79.75
349.355	87.75
349.583	83.75
349.81	84.75
350.037	89.75
350.265	93.75
350.492	83.75
350.72	77.75
350.947	82.75
351.174	79.75
351.402	87.75
351.629	94.75
351.856	79.75
352.083	80.75
352.311	85.75
352.538	68.75
352.765	95.75
352.992	91.75
353.22	84.75
353.447	85.75
353.674	87.75
353.901	92.75
354.128	69.75
354.355	84.75
354.583	91.75
354.81	90.75
355.037	83.75
355.264	88.75
355.491	86.75
355.718	88.75
355.945	96.75
356.172	85.75
356.399	85.75
356.626	96.75
356.853	103.75
357.08	87.75
357.307	84.75
357.534	83.75
357.761	98.75
357.988	85.75
358.215	91.75
358.441	93.75
358.668	80.75
358.895	87.75
359.122	85.75
359.349	91.75
359.576	86.75
359.802	100.75
360.029	85.75
360.256	88.75
360.483	86.75
360.709	83.75
360.936	99.75
361.163	85.75
361.39	72.75
361.616	85.75
361.843	87.75
362.07	83.75
362.296	97.75
362.523	93.75
362.749	92.75
362.976	76.75
363.203	83.75
363.429	79.75
363.656	83.75
363.882	89.75
364.109	92.75
364.335	78.75
364.562	79.75
364.788	91.75
365.015	83.75
365.241	83.75
365.468	84.75
365.694	89.75
365.92	70.75
366.147	78.75
366.373	91.75
366.599	82.75
366.826	77.75
367.052	82.75
367.278	91.75
367.505	84.75
367.731	74.75
367.957	76.75
368.184	76.75
368.41	98.75
368.636	75.75
368.862	92.75
369.089	95.75
369.315	85.75
369.541	80.75
369.767	100.75
369.993	85.75
370.219	85.75
370.445	77.75
370.672	77.75
370.898	64.75
371.124	80.75
371.35	77.75
371.576	78.75
371.802	83.75
372.028	84.75
372.254	73.75
372.48	78.75
372.706	87.75
372.932	81.75
373.158	83.75
373.384	85.75
373.61	98.75
373.835	73.75
374.061	97.75
374.287	95.75
374.513	87.75
374.739	92.75
374.965	84.75
375.191	81.75
375.416	71.75
375.642	85.75
375.868	83.75
376.094	96.75
376.319	87.75
376.545	87.75
376.771	82.75
376.997	74.75
377.222	81.75
377.448	83.75
377.674	97.75
377.899	97.75
378.125	84.75
378.35	90.75
378.576	84.75
378.802	73.75
379.027	81.75
379.253	97.75
379.478	73.75
379.704	75.75
379.929	88.75
380.155	89.75
380.38	75.75
380.606	84.75
380.831	90.75
381.057	87.75
381.282	83.75
381.507	86.75
381.733	80.75
381.958	89.75
382.184	81.75
382.409	66.75
382.634	81.75
382.86	92.75
383.085	84.75
383.31	88.75
383.535	99.75
383.761	85.75
383.986	77.75
384.211	86.75
384.436	81.75
384.662	74.75
384.887	89.75
385.112	85.75
385.337	89.75
385.562	74.75
385.787	91.75
386.013	92.75
386.238	98.75
386.463	90.75
386.688	77.75
386.913	79.75
387.138	77.75
387.363	85.75
387.588	91.75
387.813	90.75
388.038	92.75
388.263	88.75
388.488	79.75
388.713	77.75
388.938	86.75
389.163	88.75
389.387	75.75
389.612	85.75
389.837	89.75
390.062	85.75
390.287	83.75
390.512	75.75
390.736	93.75
390.961	92.75
391.186	85.75
391.411	77.75
391.636	86.75
391.86	101.75
392.085	80.75
392.31	84.75
392.534	91.75
392.759	101.75
392.984	84.75
393.208	101.75
393.433	78.75
393.658	79.75
393.882	84.75
394.107	100.75
394.331	80.75
394.556	97.75
394.78	82.75
395.005	80.75
395.229	71.75
395.454	90.75
395.678	82.75
395.903	75.75
396.127	90.75
396.352	87.75
396.576	83.75
396.801	89.75
397.025	85.75
397.249	80.75
397.474	89.75
397.698	92.75
397.922	83.75
398.147	88.75
398.371	70.75
398.595	72.75
398.82	72.75
399.044	81.75
399.268	68.75
399.492	88.75
399.717	83.75
399.941	90.75
400.165	88.75
400.389	85.75
400.613	87.75
400.837	80.75
401.062	79.75
401.286	77.75
401.51	67.75
401.734	84.75
401.958	83.75
402.182	86.75
402.406	96.75
402.63	93.75
402.854	83.75
403.078	78.75
403.302	90.75
403.526	90.75
403.75	90.75
403.974	80.75
404.198	82.75
404.422	77.75
404.645	87.75
404.869	82.75
405.093	82.75
405.317	87.75
405.541	84.75
405.765	80.75
405.988	79.75
406.212	87.75
406.436	89.75
406.66	98.75
406.883	92.75
407.107	77.75
407.331	92.75
407.555	90.75
407.778	105.75
408.002	96.75
408.226	90.75
408.449	101.75
408.673	92.75
408.896	77.75
409.12	82.75
409.344	84.75
409.567	80.75
409.791	88.75
410.014	81.75
410.238	89.75
410.461	99.75
410.685	72.75
410.908	73.75
411.132	91.75
411.355	78.75
411.578	78.75
411.802	80.75
412.025	77.75
412.249	91.75
412.472	95.75
412.695	83.75
412.919	81.75
413.142	78.75
413.365	94.75
413.589	89.75
413.812	78.75
414.035	85.75
414.258	71.75
414.482	95.75
414.705	83.75
414.928	90.75
415.151	73.75
415.374	101.75
415.597	83.75
415.821	66.75
416.044	100.75
416.267	87.75
416.49	77.75
416.713	94.75
416.936	88.75
417.159	73.75
417.382	80.75
417.605	76.75
417.828	98.75
418.051	91.75
418.274	92.75
418.497	95.75
418.72	85.75
418.943	90.75
419.166	85.75
419.389	76.75
419.611	84.75
419.834	92.75
420.057	75.75
420.28	80.75
420.503	87.75
420.726	86.75
420.948	65.75
421.171	87.75
421.394	80.75
421.617	77.75
421.839	79.75
422.062	85.75
422.285	87.75
422.507	77.75
422.73	99.75
422.953	65.75
423.175	84.75
423.398	91.75
423.621	95.75
423.843	91.75
424.066	90.75
424.288	84.75
424.511	89.75
424.733	91.75
424.956	77.75
425.178	84.75
425.401	96.75
425.623	82.75
425.846	67.75
426.068	75.75
426.291	74.75
426.513	95.75
426.735	83.75
426.958	85.75
427.18	80.75
427.402	77.75
427.625	84.75
427.847	84.75
428.069	98.75
428.292	86.75
428.514	87.75
428.736	98.75
428.958	91.75
429.181	98.75
429.403	93.75
429.625	92.75
429.847	96.75
430.069	76.75
430.292	88.75
430.514	84.75
430.736	97.75
430.958	85.75
431.18	81.75
431.402	93.75
431.624	93.75
431.846	82.75
432.068	75.75
432.29	93.75
432.512	89.75
432.734	86.75
432.956	93.75
433.178	90.75
433.4	95.75
433.622	90.75
433.844	86.75
434.066	92.75
434.287	76.75
434.509	76.75
434.731	85.75
434.953	100.75
435.175	83.75
435.397	76.75
435.618	97.75
435.84	93.75
436.062	72.75
436.284	76.75
436.505	89.75
436.727	76.75
436.949	105.75
437.17	96.75
437.392	84.75
437.614	83.75
437.835	80.75
438.057	77.75
438.278	74.75
438.5	86.75
438.721	97.75
438.943	89.75
439.165	78.75
439.386	87.75
439.608	84.75
439.829	85.75
440.05	85.75
440.272	94.75
440.493	68.75
440.715	84.75
440.936	90.75
441.158	81.75
441.379	79.75
441.6	80.75
441.822	86.75
442.043	84.75
442.264	93.75
442.486	99.75
442.707	87.75
442.928	90.75
443.149	73.75
443.371	84.75
443.592	74.75
443.813	84.75
444.034	92.75
444.255	95.75
444.476	73.75
444.698	87.75
444.919	84.75
445.14	216.75
445.361	140.75
445.582	86.75
445.803	85.75
446.024	90.75
446.245	87.75
446.466	93.75
446.687	76.75
446.908	88.75
447.129	89.75
447.35	80.75
447.571	84.75
447.792	94.75
448.013	82.75
448.234	87.75
448.455	92.75
448.675	76.75
448.896	102.75
449.117	89.75
449.338	85.75
449.559	86.75
449.779	75.75
450	71.75
450.221	79.75
450.442	90.75
450.662	89.75
450.883	88.75
451.104	80.75
451.324	86.75
451.545	88.75
451.766	90.75
451.986	74.75
452.207	79.75
452.428	87.75
452.648	84.75
452.869	88.75
453.089	97.75
453.31	88.75
453.53	99.75
453.751	97.75
453.971	86.75
454.192	89.75
454.412	81.75
454.633	84.75
454.853	85.75
455.073	79.75
455.294	90.75
455.514	84.75
455.734	80.75
455.955	87.75
456.175	74.75
456.395	77.75
456.616	75.75
456.836	81.75
457.056	85.75
457.276	81.75
457.497	87.75
457.717	78.75
457.937	77.75
458.157	88.75
458.377	81.75
458.598	87.75
458.818	76.75
459.038	90.75
459.258	93.75
459.478	89.75
459.698	83.75
459.918	77.75
460.138	92.75
460.358	73.75
460.578	78.75
460.798	90.75
461.018	81.75
461.238	97.75
461.458	79.75
461.678	94.75
461.898	85.75
462.118	80.75
462.338	92.75
462.558	87.75
462.777	106.75
462.997	101.75
463.217	94.75
463.437	96.75
463.657	79.75
463.876	91.75
464.096	89.75
464.316	92.75
464.536	79.75
464.755	90.75
464.975	88.75
465.195	80.75
465.414	86.75
465.634	78.75
465.854	90.75
466.073	84.75
466.293	91.75
466.512	101.75
466.732	84.75
466.951	86.75
467.171	78.75
467.391	85.75
467.61	101.75
467.829	99.75
468.049	93.75
468.268	78.75
468.488	90.75
468.707	86.75
468.927	82.75
469.146	90.75
469.365	92.75
469.585	85.75
469.804	74.75
470.023	79.75
470.243	74.75
470.462	88.75
470.681	79.75
470.901	89.75
471.12	93.75
471.339	87.75
471.558	85.75
471.777	94.75
471.997	93.75
472.216	73.75
472.435	82.75
472.654	92.75
472.873	80.75
473.092	85.75
473.311	75.75
473.53	85.75
473.749	91.75
473.968	78.75
474.187	88.75
474.406	89.75
474.625	86.75
474.844	90.75
475.063	88.75
475.282	93.75
475.501	82.75
475.72	88.75
475.939	86.75
476.158	93.75
476.377	83.75
476.596	93.75
476.814	93.75
477.033	87.75
477.252	88.75
477.471	99.75
477.69	82.75
477.908	96.75
478.127	91.75
478.346	100.75
478.564	105.75
478.783	97.75
479.002	77.75
479.22	90.75
479.439	89.75
479.658	85.75
479.876	81.75
480.095	84.75
480.313	85.75
480.532	85.75
480.751	95.75
480.969	97.75
481.188	100.75
481.406	91.75
481.624	89.75
481.843	89.75
482.061	85.75
482.28	94.75
482.498	100.75
482.717	82.75
482.935	92.75
483.153	95.75
483.372	102.75
483.59	91.75
483.808	89.75
484.027	88.75
484.245	89.75
484.463	82.75
484.681	89.75
484.9	91.75
485.118	92.75
485.336	96.75
485.554	87.75
485.772	82.75
485.99	98.75
486.209	84.75
486.427	87.75
486.645	90.75
486.863	98.75
487.081	84.75
487.299	95.75
487.517	86.75
487.735	92.75
487.953	88.75
488.171	105.75
488.389	90.75
488.607	92.75
488.825	110.75
489.043	100.75
489.261	91.75
489.479	103.75
489.696	87.75
489.914	95.75
490.132	95.75
490.35	99.75
490.568	95.75
490.786	85.75
491.003	74.75
491.221	80.75
491.439	98.75
491.657	96.75
491.874	83.75
492.092	92.75
492.31	98.75
492.527	92.75
492.745	93.75
492.963	97.75
493.18	98.75
493.398	86.75
493.615	87.75
493.833	94.75
494.05	92.75
494.268	88.75
494.485	88.75
494.703	93.75
494.92	89.75
495.138	96.75
495.355	111.75
495.573	93.75
495.79	103.75
496.008	97.75
496.225	101.75
496.442	99.75
496.66	103.75
496.877	97.75
497.094	99.75
497.312	87.75
497.529	92.75
497.746	98.75
497.963	91.75
498.181	101.75
498.398	97.75
498.615	98.75
498.832	91.75
499.049	105.75
499.267	98.75
499.484	115.75
499.701	111.75
499.918	116.75
500.135	98.75
500.352	105.75
500.569	112.75
500.786	125.75
501.003	109.75
501.22	109.75
501.437	104.75
501.654	107.75
501.871	101.75
502.088	107.75
502.305	87.75
502.522	103.75
502.739	87.75
502.956	113.75
503.172	88.75
503.389	88.75
503.606	99.75
503.823	80.75
504.04	81.75
504.256	91.75
504.473	96.75
504.69	88.75
504.907	113.75
505.123	108.75
505.34	109.75
505.557	91.75
505.773	87.75
505.99	103.75
506.207	88.75
506.423	87.75
506.64	87.75
506.856	91.75
507.073	93.75
507.289	96.75
507.506	102.75
507.722	95.75
507.939	100.75
508.155	90.75
508.372	99.75
508.588	82.75
508.805	89.75
509.021	91.75
509.238	92.75
509.454	92.75
509.67	85.75
509.887	96.75
510.103	100.75
510.319	94.75
510.536	87.75
510.752	85.75
510.968	97.75
511.184	89.75
511.401	92.75
511.617	101.75
511.833	82.75
512.049	85.75
512.265	85.75
512.481	82.75
512.698	94.75
512.914	91.75
513.13	90.75
513.346	83.75
513.562	93.75
513.778	79.75
513.994	91.75
514.21	99.75
514.426	80.75
514.642	89.75
514.858	91.75
515.074	90.75
515.29	89.75
515.506	95.75
515.721	86.75
515.937	92.75
516.153	80.75
516.369	83.75
516.585	91.75
516.801	104.75
517.016	101.75
517.232	97.75
517.448	85.75
517.664	93.75
517.879	79.75
518.095	92.75
518.311	94.75
518.527	107.75
518.742	97.75
518.958	97.75
519.173	96.75
519.389	88.75
519.605	90.75
519.82	92.75
520.036	108.75
520.251	98.75
520.467	84.75
520.682	77.75
520.898	80.75
521.113	97.75
521.329	83.75
521.544	79.75
521.76	99.75
521.975	83.75
522.19	90.75
522.406	75.75
522.621	81.75
522.836	91.75
523.052	82.75
523.267	101.75
523.482	80.75
523.698	86.75
523.913	97.75
524.128	89.75
524.343	82.75
524.559	87.75
524.774	86.75
524.989	90.75
525.204	91.75
525.419	101.75
525.634	84.75
525.849	92.75
526.064	113.75
526.28	88.75
526.495	74.75
526.71	87.75
526.925	62.75
527.14	84.75
527.355	93.75
527.57	72.75
527.785	83.75
527.999	90.75
528.214	80.75
528.429	95.75
528.644	104.75
528.859	102.75
529.074	95.75
529.289	78.75
529.503	88.75
529.718	101.75
529.933	78.75
530.148	83.75
530.363	95.75
530.577	103.75
530.792	86.75
531.007	76.75
531.221	70.75
531.436	81.75
531.651	98.75
531.865	85.75
532.08	92.75
532.295	76.75
532.509	85.75
532.724	96.75
532.938	83.75
533.153	90.75
533.367	87.75
533.582	80.75
533.796	73.75
534.011	99.75
534.225	91.75
534.44	112.75
534.654	94.75
534.868	74.75
535.083	89.75
535.297	84.75
535.511	96.75
535.726	94.75
535.94	97.75
536.154	95.75
536.369	91.75
536.583	77.75
536.797	109.75
537.011	69.75
537.225	80.75
537.44	82.75
537.654	98.75
537.868	86.75
538.082	98.75
538.296	83.75
538.51	78.75
538.724	83.75
538.938	87.75
539.153	93.75
539.367	79.75
539.581	81.75
539.795	89.75
540.009	84.75
540.222	83.75
540.436	79.75
540.65	97.75
540.864	79.75
541.078	84.75
541.292	85.75
541.506	89.75
541.72	101.75
541.934	83.75
542.147	84.75
542.361	87.75
542.575	104.75
542.789	86.75
543.002	82.75
543.216	98.75
543.43	95.75
543.644	101.75
543.857	109.75
544.071	89.75
544.285	89.75
544.498	83.75
544.712	92.75
544.925	98.75
545.139	94.75
545.352	94.75
545.566	92.75
545.779	84.75
545.993	88.75
546.206	78.75
546.42	90.75
546.633	102.75
546.847	97.75
547.06	87.75
547.274	94.75
547.487	87.75
547.7	89.75
547.914	99.75
548.127	91.75
548.34	102.75
548.554	93.75
548.767	99.75
548.98	83.75
549.193	81.75
549.407	100.75
549.62	105.75
549.833	91.75
550.046	84.75
550.259	88.75
550.473	88.75
550.686	92.75
550.899	81.75
551.112	106.75
551.325	106.75
551.538	92.75
551.751	82.75
551.964	101.75
552.177	95.75
552.39	88.75
552.603	85.75
552.816	95.75
553.029	84.75
553.242	83.75
553.455	85.75
553.667	98.75
553.88	82.75
554.093	90.75
554.306	100.75
554.519	89.75
554.732	86.75
554.944	77.75
555.157	82.75
555.37	97.75
555.583	82.75
555.795	91.75
556.008	88.75
556.221	94.75
556.433	97.75
556.646	94.75
556.859	89.75
557.071	96.75
557.284	93.75
557.496	84.75
557.709	79.75
557.921	86.75
558.134	84.75
558.346	101.75
558.559	89.75
558.771	69.75
558.984	88.75
559.196	86.75
559.409	89.75
559.621	83.75
559.833	94.75
560.046	92.75
560.258	64.75
560.47	87.75
560.683	88.75
560.895	72.75
561.107	76.75
561.32	77.75
561.532	88.75
561.744	87.75
561.956	90.75
562.168	92.75
562.381	88.75
562.593	87.75
562.805	87.75
563.017	96.75
563.229	89.75
563.441	97.75
563.653	69.75
563.865	83.75
564.077	78.75
564.289	89.75
564.501	98.75
564.713	90.75
564.925	89.75
565.137	89.75
565.349	95.75
565.561	96.75
565.773	98.75
565.985	87.75
566.197	76.75
566.408	85.75
566.62	78.75
566.832	85.75
567.044	91.75
567.255	111.75
567.467	97.75
567.679	95.75
567.891	86.75
568.102	90.75
568.314	96.75
568.526	91.75
568.737	86.75
568.949	91.75
569.161	92.75
569.372	80.75
569.584	86.75
569.795	74.75
570.007	79.75
570.218	93.75
570.43	92.75
570.641	98.75
570.853	90.75
571.064	91.75
571.276	75.75
571.487	80.75
571.698	85.75
571.91	82.75
572.121	95.75
572.333	87.75
572.544	86.75
572.755	101.75
572.966	90.75
573.178	98.75
573.389	88.75
573.6	81.75
573.811	86.75
574.023	87.75
574.234	75.75
574.445	91.75
574.656	91.75
574.867	91.75
575.078	77.75
575.289	80.75
575.501	83.75
575.712	92.75
575.923	87.75
576.134	103.75
576.345	90.75
576.556	81.75
576.767	85.75
576.978	64.75
577.188	81.75
577.399	96.75
577.61	86.75
577.821	77.75
578.032	88.75
578.243	91.75
578.454	78.75
578.665	100.75
578.875	96.75
579.086	84.75
579.297	89.75
579.508	103.75
579.718	90.75
579.929	95.75
580.14	90.75
580.35	75.75
580.561	91.75
580.772	96.75
580.982	92.75
581.193	91.75
581.403	88.75
581.614	86.75
581.825	83.75
582.035	78.75
582.246	93.75
582.456	83.75
582.667	81.75
582.877	75.75
583.087	85.75
583.298	85.75
583.508	86.75
583.719	76.75
583.929	90.75
584.139	108.75
584.35	76.75
584.56	87.75
584.77	87.75
584.981	90.75
585.191	83.75
585.401	86.75
585.611	84.75
585.821	82.75
586.032	85.75
586.242	86.75
586.452	92.75
586.662	93.75
586.872	92.75
587.082	94.75
587.292	84.75
587.502	81.75
587.713	84.75
587.923	80.75
588.133	88.75
588.343	75.75
588.553	74.75
588.762	87.75
588.972	91.75
589.182	75.75
589.392	80.75
589.602	83.75
589.812	95.75
590.022	89.75
590.232	93.75
590.441	88.75
590.651	82.75
590.861	77.75
591.071	87.75
591.281	80.75
591.49	80.75
591.7	92.75
591.91	98.75
592.119	77.75
592.329	86.75
592.539	82.75
592.748	87.75
592.958	76.75
593.167	85.75
593.377	76.75
593.587	89.75
593.796	102.75
594.006	91.75
594.215	89.75
594.424	76.75
594.634	94.75
594.843	81.75
595.053	102.75
595.262	96.75
595.472	89.75
595.681	91.75
595.89	70.75
596.1	81.75
596.309	85.75
596.518	87.75
596.727	89.75
596.937	73.75
597.146	81.75
597.355	88.75
597.564	84.75
597.774	83.75
597.983	89.75
598.192	85.75
598.401	79.75
598.61	90.75
598.819	69.75
599.028	88.75
599.237	84.75
599.446	78.75
599.655	88.75
599.864	76.75
600.073	92.75
600.282	70.75
600.491	77.75
600.7	73.75
600.909	90.75
601.118	72.75
601.327	100.75
601.536	99.75
601.745	91.75
601.953	92.75
602.162	77.75
602.371	84.75
602.58	84.75
602.789	81.75
602.997	86.75
603.206	95.75
603.415	91.75
603.623	87.75
603.832	87.75
604.041	84.75
604.249	86.75
604.458	85.75
604.666	86.75
604.875	88.75
605.084	85.75
605.292	80.75
605.501	87.75
605.709	83.75
605.918	85.75
606.126	80.75
606.334	78.75
606.543	90.75
606.751	87.75
606.96	91.75
607.168	89.75
607.376	91.75
607.585	89.75
607.793	84.75
608.001	93.75
608.21	84.75
608.418	79.75
608.626	82.75
608.834	72.75
609.043	87.75
609.251	73.75
609.459	93.75
609.667	91.75
609.875	72.75
610.083	77.75
610.291	75.75
610.499	87.75
610.707	96.75
610.916	76.75
611.124	83.75
611.332	78.75
611.54	77.75
611.748	81.75
611.955	89.75
612.163	98.75
612.371	85.75
612.579	75.75
612.787	100.75
612.995	78.75
613.203	101.75
613.411	86.75
613.618	104.75
613.826	78.75
614.034	85.75
614.242	101.75
614.449	82.75
614.657	79.75
614.865	96.75
615.072	74.75
615.28	82.75
615.488	95.75
615.695	93.75
615.903	111.75
616.111	76.75
616.318	91.75
616.526	86.75
616.733	83.75
616.941	75.75
617.148	72.75
617.356	84.75
617.563	83.75
617.771	77.75
617.978	79.75
618.185	85.75
618.393	81.75
618.6	92.75
618.807	98.75
619.015	84.75
619.222	83.75
619.429	80.75
619.637	87.75
619.844	65.75
620.051	85.75
620.258	86.75
620.466	89.75
620.673	71.75
620.88	68.75
621.087	77.75
621.294	76.75
621.501	71.75
621.708	83.75
621.915	77.75
622.122	77.75
622.329	68.75
622.536	92.75
622.743	93.75
622.95	78.75
623.157	106.75
623.364	86.75
623.571	83.75
623.778	91.75
623.985	91.75
624.192	79.75
624.399	85.75
624.606	76.75
624.812	83.75
625.019	78.75
625.226	85.75
625.433	81.75
625.639	80.75
625.846	91.75
626.053	87.75
626.259	76.75
626.466	77.75
626.673	87.75
626.879	77.75
627.086	78.75
627.293	91.75
627.499	96.75
627.706	92.75
627.912	84.75
628.119	110.75
628.325	87.75
628.532	94.75
628.738	69.75
628.945	91.75
629.151	75.75
629.357	92.75
629.564	83.75
629.77	94.75
629.976	87.75
630.183	87.75
630.389	85.75
630.595	86.75
630.802	75.75
631.008	88.75
631.214	84.75
631.42	95.75
631.627	91.75
631.833	91.75
632.039	75.75
632.245	77.75
632.451	72.75
632.657	77.75
632.863	63.75
633.069	81.75
633.275	78.75
633.481	73.75
633.688	80.75
633.893	87.75
634.099	92.75
634.305	90.75
634.511	86.75
634.717	85.75
634.923	89.75
635.129	102.75
635.335	81.75
635.541	96.75
635.747	76.75
635.952	83.75
636.158	87.75
636.364	74.75
636.57	77.75
636.775	77.75
636.981	77.75
637.187	79.75
637.392	86.75
637.598	92.75
637.804	76.75
638.009	81.75
638.215	83.75
638.421	90.75
638.626	92.75
638.832	87.75
639.037	85.75
639.243	72.75
639.448	72.75
639.654	75.75
639.859	86.75
640.065	78.75
640.27	82.75
640.475	66.75
640.681	83.75
640.886	76.75
641.091	83.75
641.297	77.75
641.502	85.75
641.707	94.75
641.913	84.75
642.118	91.75
642.323	83.75
642.528	93.75
642.733	86.75
642.939	89.75
643.144	90.75
643.349	90.75
643.554	90.75
643.759	76.75
643.964	72.75
644.169	90.75
644.374	75.75
644.579	83.75
644.784	82.75
644.989	87.75
645.194	89.75
645.399	91.75
645.604	82.75
645.809	66.75
646.014	86.75
646.219	88.75
646.423	79.75
646.628	74.75
646.833	95.75
647.038	85.75
647.243	76.75
647.447	87.75
647.652	106.75
647.857	76.75
648.062	92.75
648.266	90.75
648.471	88.75
648.676	85.75
648.88	90.75
649.085	77.75
649.289	78.75
649.494	81.75
649.698	89.75
649.903	98.75
650.107	77.75
650.312	87.75
650.516	85.75
650.721	64.75
650.925	87.75
651.13	71.75
651.334	80.75
651.539	87.75
651.743	75.75
651.947	90.75
652.152	81.75
652.356	92.75
652.56	73.75
652.764	77.75
652.969	79.75
653.173	79.75
653.377	92.75
653.581	85.75
653.785	79.75
653.99	77.75
654.194	83.75
654.398	88.75
654.602	90.75
654.806	79.75
655.01	73.75
655.214	96.75
655.418	90.75
655.622	76.75
655.826	99.75
656.03	99.75
656.234	80.75
656.438	72.75
656.642	80.75
656.846	83.75
657.049	88.75
657.253	85.75
657.457	76.75
657.661	81.75
657.865	91.75
658.068	73.75
658.272	84.75
658.476	87.75
658.68	87.75
658.883	84.75
659.087	85.75
659.291	80.75
659.494	81.75
659.698	94.75
659.901	83.75
660.105	75.75
660.309	90.75
660.512	90.75
660.716	97.75
660.919	81.75
661.123	77.75
661.326	72.75
661.53	78.75
661.733	84.75
661.936	88.75
662.14	86.75
662.343	89.75
662.546	73.75
662.75	73.75
662.953	80.75
663.156	84.75
663.36	78.75
663.563	82.75
663.766	75.75
663.969	76.75
664.173	83.75
664.376	78.75
664.579	79.75
664.782	79.75
664.985	92.75
665.188	91.75
665.391	92.75
665.594	97.75
665.797	82.75
666	82.75
666.203	88.75
666.406	84.75
666.609	74.75
666.812	92.75
667.015	89.75
667.218	85.75
667.421	85.75
667.624	103.75
667.827	81.75
668.03	71.75
668.232	66.75
668.435	79.75
668.638	88.75
668.841	88.75
669.043	75.75
669.246	96.75
669.449	86.75
669.651	69.75
669.854	79.75
670.057	88.75
670.259	81.75
670.462	67.75
670.665	77.75
670.867	76.75
671.07	72.75
671.272	78.75
671.475	88.75
671.677	68.75
671.88	79.75
672.082	66.75
672.284	84.75
672.487	84.75
672.689	79.75
672.892	71.75
