Data from Ni(NO3)2@0.5M.TitratingCurve.Agarose3%dH2O.NegLispCup.LampEnergy10.LIBS07252019_HRD10591_18-00-15-565.txt Node
Date: Thu Jul 25 18:00:15 EDT 2019
User: cochatt
Spectrometer: HR+D1059
Trigger mode: 1
Integration Time (sec): 1.000000E-1
Scans to average: 1
Electric dark correction enabled: true
Nonlinearity correction enabled: false
Boxcar width: 0
XAxis mode: Wavelengths
Number of Pixels in Spectrum: 2048
>>>>>Begin Spectral Data<<<<<
223.165	-20.25
223.4	-20.25
223.635	-20.25
223.869	-36.25
224.104	-25.25
224.338	-14.25
224.573	-19.25
224.808	-18.25
225.042	-7.25
225.277	-8.25
225.511	7.75
225.746	15.75
225.98	16.75
226.215	11.75
226.449	13.75
226.683	21.75
226.918	24.75
227.152	36.75
227.387	26.75
227.621	51.75
227.856	52.75
228.09	43.75
228.324	59.75
228.559	54.75
228.793	62.75
229.027	108.75
229.262	79.75
229.496	79.75
229.73	96.75
229.964	95.75
230.199	107.75
230.433	112.75
230.667	115.75
230.901	107.75
231.136	120.75
231.37	107.75
231.604	113.75
231.838	127.75
232.072	119.75
232.306	117.75
232.541	116.75
232.775	121.75
233.009	129.75
233.243	124.75
233.477	122.75
233.711	106.75
233.945	121.75
234.179	118.75
234.413	120.75
234.647	125.75
234.881	135.75
235.115	108.75
235.349	109.75
235.583	100.75
235.817	118.75
236.051	125.75
236.285	133.75
236.519	127.75
236.753	118.75
236.987	121.75
237.221	121.75
237.455	112.75
237.689	122.75
237.922	123.75
238.156	113.75
238.39	129.75
238.624	123.75
238.858	132.75
239.091	120.75
239.325	129.75
239.559	137.75
239.793	144.75
240.027	134.75
240.26	131.75
240.494	124.75
240.728	118.75
240.961	140.75
241.195	135.75
241.429	131.75
241.662	115.75
241.896	145.75
242.13	140.75
242.363	151.75
242.597	148.75
242.83	139.75
243.064	130.75
243.298	150.75
243.531	141.75
243.765	151.75
243.998	136.75
244.232	140.75
244.465	137.75
244.699	149.75
244.932	155.75
245.166	143.75
245.399	151.75
245.633	157.75
245.866	155.75
246.099	141.75
246.333	158.75
246.566	155.75
246.8	153.75
247.033	139.75
247.266	146.75
247.5	155.75
247.733	165.75
247.966	153.75
248.2	151.75
248.433	163.75
248.666	158.75
248.899	161.75
249.133	160.75
249.366	172.75
249.599	175.75
249.832	171.75
250.066	153.75
250.299	172.75
250.532	167.75
250.765	163.75
250.998	160.75
251.231	171.75
251.465	180.75
251.698	176.75
251.931	186.75
252.164	169.75
252.397	172.75
252.63	173.75
252.863	169.75
253.096	171.75
253.329	183.75
253.562	191.75
253.795	200.75
254.028	170.75
254.261	180.75
254.494	194.75
254.727	197.75
254.96	188.75
255.193	188.75
255.426	194.75
255.659	169.75
255.892	191.75
256.124	176.75
256.357	192.75
256.59	194.75
256.823	210.75
257.056	188.75
257.289	204.75
257.521	188.75
257.754	202.75
257.987	209.75
258.22	214.75
258.452	203.75
258.685	199.75
258.918	206.75
259.151	192.75
259.383	195.75
259.616	207.75
259.849	211.75
260.081	200.75
260.314	192.75
260.547	191.75
260.779	213.75
261.012	204.75
261.244	207.75
261.477	207.75
261.71	208.75
261.942	230.75
262.175	207.75
262.407	218.75
262.64	216.75
262.872	220.75
263.105	212.75
263.337	203.75
263.57	218.75
263.802	219.75
264.035	207.75
264.267	220.75
264.499	219.75
264.732	226.75
264.964	222.75
265.197	231.75
265.429	240.75
265.661	225.75
265.894	228.75
266.126	230.75
266.358	240.75
266.591	238.75
266.823	212.75
267.055	233.75
267.287	237.75
267.52	216.75
267.752	224.75
267.984	236.75
268.216	231.75
268.448	234.75
268.681	233.75
268.913	222.75
269.145	251.75
269.377	251.75
269.609	252.75
269.841	224.75
270.073	240.75
270.306	227.75
270.538	258.75
270.77	236.75
271.002	254.75
271.234	262.75
271.466	259.75
271.698	244.75
271.93	252.75
272.162	261.75
272.394	261.75
272.626	236.75
272.858	245.75
273.09	239.75
273.322	268.75
273.553	265.75
273.785	252.75
274.017	280.75
274.249	274.75
274.481	261.75
274.713	264.75
274.945	269.75
275.176	279.75
275.408	269.75
275.64	270.75
275.872	282.75
276.104	276.75
276.335	268.75
276.567	302.75
276.799	263.75
277.031	293.75
277.262	281.75
277.494	275.75
277.726	269.75
277.957	288.75
278.189	275.75
278.421	270.75
278.652	298.75
278.884	266.75
279.115	267.75
279.347	288.75
279.579	278.75
279.81	286.75
280.042	286.75
280.273	277.75
280.505	283.75
280.736	305.75
280.968	273.75
281.199	285.75
281.431	297.75
281.662	287.75
281.894	302.75
282.125	309.75
282.356	299.75
282.588	285.75
282.819	299.75
283.051	301.75
283.282	289.75
283.513	315.75
283.745	300.75
283.976	300.75
284.207	301.75
284.439	318.75
284.67	309.75
284.901	288.75
285.132	311.75
285.364	285.75
285.595	313.75
285.826	299.75
286.057	321.75
286.288	320.75
286.52	295.75
286.751	301.75
286.982	301.75
287.213	315.75
287.444	336.75
287.675	317.75
287.906	322.75
288.138	327.75
288.369	308.75
288.6	324.75
288.831	333.75
289.062	304.75
289.293	307.75
289.524	315.75
289.755	326.75
289.986	332.75
290.217	317.75
290.448	335.75
290.679	327.75
290.91	327.75
291.141	335.75
291.371	327.75
291.602	313.75
291.833	318.75
292.064	321.75
292.295	324.75
292.526	322.75
292.757	297.75
292.987	330.75
293.218	336.75
293.449	321.75
293.68	309.75
293.91	311.75
294.141	329.75
294.372	328.75
294.603	322.75
294.833	327.75
295.064	321.75
295.295	303.75
295.525	327.75
295.756	329.75
295.987	328.75
296.217	333.75
296.448	321.75
296.679	318.75
296.909	330.75
297.14	340.75
297.37	343.75
297.601	315.75
297.831	335.75
298.062	356.75
298.292	348.75
298.523	362.75
298.753	362.75
298.984	347.75
299.214	346.75
299.445	360.75
299.675	333.75
299.905	347.75
300.136	339.75
300.366	361.75
300.597	375.75
300.827	389.75
301.057	387.75
301.288	373.75
301.518	371.75
301.748	383.75
301.979	386.75
302.209	369.75
302.439	374.75
302.669	371.75
302.9	375.75
303.13	380.75
303.36	359.75
303.59	364.75
303.82	386.75
304.051	378.75
304.281	379.75
304.511	370.75
304.741	361.75
304.971	391.75
305.201	380.75
305.431	390.75
305.661	395.75
305.891	363.75
306.121	358.75
306.352	365.75
306.582	366.75
306.812	381.75
307.042	355.75
307.272	376.75
307.502	383.75
307.731	360.75
307.961	347.75
308.191	379.75
308.421	364.75
308.651	378.75
308.881	373.75
309.111	381.75
309.341	384.75
309.571	351.75
309.8	366.75
310.03	386.75
310.26	391.75
310.49	390.75
310.72	383.75
310.949	373.75
311.179	358.75
311.409	389.75
311.639	378.75
311.868	397.75
312.098	383.75
312.328	384.75
312.557	382.75
312.787	397.75
313.017	393.75
313.246	392.75
313.476	400.75
313.706	395.75
313.935	399.75
314.165	397.75
314.394	390.75
314.624	397.75
314.853	406.75
315.083	394.75
315.312	391.75
315.542	393.75
315.771	397.75
316.001	395.75
316.23	394.75
316.46	369.75
316.689	395.75
316.919	397.75
317.148	416.75
317.377	401.75
317.607	394.75
317.836	385.75
318.065	391.75
318.295	410.75
318.524	382.75
318.753	399.75
318.983	395.75
319.212	398.75
319.441	393.75
319.67	397.75
319.9	408.75
320.129	416.75
320.358	400.75
320.587	396.75
320.816	397.75
321.046	378.75
321.275	401.75
321.504	413.75
321.733	406.75
321.962	404.75
322.191	425.75
322.42	406.75
322.649	412.75
322.878	398.75
323.108	417.75
323.337	424.75
323.566	411.75
323.795	423.75
324.024	422.75
324.253	419.75
324.482	409.75
324.71	413.75
324.939	423.75
325.168	422.75
325.397	440.75
325.626	424.75
325.855	443.75
326.084	429.75
326.313	453.75
326.542	437.75
326.77	447.75
326.999	431.75
327.228	420.75
327.457	422.75
327.686	423.75
327.914	446.75
328.143	439.75
328.372	445.75
328.6	448.75
328.829	456.75
329.058	449.75
329.287	440.75
329.515	448.75
329.744	459.75
329.972	430.75
330.201	452.75
330.43	471.75
330.658	455.75
330.887	478.75
331.115	446.75
331.344	477.75
331.572	480.75
331.801	476.75
332.03	491.75
332.258	488.75
332.486	470.75
332.715	491.75
332.943	535.75
333.172	533.75
333.4	531.75
333.629	542.75
333.857	557.75
334.085	561.75
334.314	569.75
334.542	559.75
334.771	554.75
334.999	536.75
335.227	553.75
335.455	547.75
335.684	551.75
335.912	549.75
336.14	534.75
336.369	528.75
336.597	547.75
336.825	535.75
337.053	541.75
337.281	560.75
337.51	509.75
337.738	517.75
337.966	520.75
338.194	519.75
338.422	518.75
338.65	483.75
338.878	497.75
339.106	523.75
339.334	490.75
339.562	501.75
339.79	479.75
340.018	494.75
340.246	466.75
340.474	479.75
340.702	475.75
340.93	478.75
341.158	480.75
341.386	484.75
341.614	518.75
341.842	508.75
342.07	482.75
342.298	471.75
342.526	461.75
342.754	484.75
342.981	483.75
343.209	484.75
343.437	517.75
343.665	521.75
343.893	533.75
344.12	559.75
344.348	521.75
344.576	517.75
344.804	526.75
345.031	494.75
345.259	504.75
345.487	488.75
345.714	476.75
345.942	509.75
346.17	495.75
346.397	473.75
346.625	477.75
346.853	460.75
347.08	460.75
347.308	462.75
347.535	459.75
347.763	456.75
347.99	448.75
348.218	447.75
348.445	456.75
348.673	458.75
348.9	459.75
349.128	471.75
349.355	480.75
349.583	483.75
349.81	459.75
350.037	444.75
350.265	440.75
350.492	436.75
350.72	461.75
350.947	449.75
351.174	459.75
351.402	472.75
351.629	455.75
351.856	470.75
352.083	426.75
352.311	453.75
352.538	456.75
352.765	486.75
352.992	448.75
353.22	429.75
353.447	438.75
353.674	430.75
353.901	448.75
354.128	443.75
354.355	449.75
354.583	443.75
354.81	439.75
355.037	439.75
355.264	452.75
355.491	447.75
355.718	427.75
355.945	440.75
356.172	449.75
356.399	454.75
356.626	460.75
356.853	467.75
357.08	445.75
357.307	451.75
357.534	451.75
357.761	446.75
357.988	467.75
358.215	439.75
358.441	437.75
358.668	422.75
358.895	431.75
359.122	464.75
359.349	463.75
359.576	429.75
359.802	452.75
360.029	464.75
360.256	463.75
360.483	433.75
360.709	445.75
360.936	446.75
361.163	449.75
361.39	455.75
361.616	455.75
361.843	481.75
362.07	490.75
362.296	465.75
362.523	464.75
362.749	444.75
362.976	453.75
363.203	453.75
363.429	455.75
363.656	455.75
363.882	450.75
364.109	470.75
364.335	435.75
364.562	454.75
364.788	465.75
365.015	465.75
365.241	440.75
365.468	442.75
365.694	460.75
365.92	446.75
366.147	437.75
366.373	465.75
366.599	428.75
366.826	463.75
367.052	470.75
367.278	480.75
367.505	457.75
367.731	463.75
367.957	440.75
368.184	463.75
368.41	455.75
368.636	453.75
368.862	439.75
369.089	454.75
369.315	474.75
369.541	453.75
369.767	458.75
369.993	445.75
370.219	460.75
370.445	453.75
370.672	485.75
370.898	455.75
371.124	500.75
371.35	503.75
371.576	492.75
371.802	491.75
372.028	503.75
372.254	475.75
372.48	491.75
372.706	500.75
372.932	482.75
373.158	502.75
373.384	484.75
373.61	479.75
373.835	481.75
374.061	483.75
374.287	485.75
374.513	495.75
374.739	503.75
374.965	528.75
375.191	532.75
375.416	520.75
375.642	512.75
375.868	517.75
376.094	522.75
376.319	489.75
376.545	514.75
376.771	494.75
376.997	489.75
377.222	484.75
377.448	465.75
377.674	480.75
377.899	500.75
378.125	487.75
378.35	480.75
378.576	499.75
378.802	487.75
379.027	494.75
379.253	484.75
379.478	481.75
379.704	484.75
379.929	487.75
380.155	477.75
380.38	475.75
380.606	490.75
380.831	447.75
381.057	528.75
381.282	500.75
381.507	492.75
381.733	497.75
381.958	494.75
382.184	496.75
382.409	495.75
382.634	501.75
382.86	487.75
383.085	523.75
383.31	515.75
383.535	507.75
383.761	515.75
383.986	528.75
384.211	531.75
384.436	528.75
384.662	555.75
384.887	557.75
385.112	553.75
385.337	555.75
385.562	563.75
385.787	565.75
386.013	558.75
386.238	584.75
386.463	584.75
386.688	588.75
386.913	552.75
387.138	561.75
387.363	545.75
387.588	560.75
387.813	560.75
388.038	589.75
388.263	560.75
388.488	597.75
388.713	582.75
388.938	565.75
389.163	578.75
389.387	543.75
389.612	575.75
389.837	544.75
390.062	568.75
390.287	577.75
390.512	580.75
390.736	575.75
390.961	564.75
391.186	581.75
391.411	608.75
391.636	602.75
391.86	622.75
392.085	630.75
392.31	625.75
392.534	629.75
392.759	608.75
392.984	604.75
393.208	609.75
393.433	624.75
393.658	600.75
393.882	602.75
394.107	622.75
394.331	608.75
394.556	579.75
394.78	617.75
395.005	628.75
395.229	611.75
395.454	627.75
395.678	614.75
395.903	651.75
396.127	616.75
396.352	643.75
396.576	643.75
396.801	628.75
397.025	639.75
397.249	630.75
397.474	650.75
397.698	639.75
397.922	655.75
398.147	670.75
398.371	663.75
398.595	697.75
398.82	743.75
399.044	768.75
399.268	789.75
399.492	853.75
399.717	923.75
399.941	933.75
400.165	887.75
400.389	841.75
400.613	790.75
400.837	768.75
401.062	727.75
401.286	729.75
401.51	725.75
401.734	702.75
401.958	726.75
402.182	725.75
402.406	708.75
402.63	721.75
402.854	733.75
403.078	707.75
403.302	729.75
403.526	760.75
403.75	748.75
403.974	720.75
404.198	763.75
404.422	740.75
404.645	768.75
404.869	747.75
405.093	740.75
405.317	762.75
405.541	761.75
405.765	772.75
405.988	750.75
406.212	747.75
406.436	740.75
406.66	772.75
406.883	780.75
407.107	805.75
407.331	846.75
407.555	873.75
407.778	855.75
408.002	853.75
408.226	820.75
408.449	813.75
408.673	784.75
408.896	776.75
409.12	756.75
409.344	800.75
409.567	775.75
409.791	775.75
410.014	794.75
410.238	749.75
410.461	763.75
410.685	769.75
410.908	740.75
411.132	726.75
411.355	745.75
411.578	729.75
411.802	740.75
412.025	727.75
412.249	724.75
412.472	727.75
412.695	725.75
412.919	729.75
413.142	704.75
413.365	735.75
413.589	699.75
413.812	705.75
414.035	702.75
414.258	705.75
414.482	733.75
414.705	705.75
414.928	724.75
415.151	716.75
415.374	703.75
415.597	693.75
415.821	694.75
416.044	688.75
416.267	715.75
416.49	668.75
416.713	687.75
416.936	696.75
417.159	688.75
417.382	697.75
417.605	670.75
417.828	680.75
418.051	712.75
418.274	704.75
418.497	691.75
418.72	704.75
418.943	695.75
419.166	728.75
419.389	761.75
419.611	747.75
419.834	734.75
420.057	735.75
420.28	716.75
420.503	691.75
420.726	684.75
420.948	691.75
421.171	681.75
421.394	680.75
421.617	688.75
421.839	691.75
422.062	704.75
422.285	703.75
422.507	705.75
422.73	688.75
422.953	683.75
423.175	714.75
423.398	705.75
423.621	697.75
423.843	703.75
424.066	687.75
424.288	687.75
424.511	704.75
424.733	706.75
424.956	681.75
425.178	682.75
425.401	698.75
425.623	713.75
425.846	679.75
426.068	678.75
426.291	651.75
426.513	662.75
426.735	675.75
426.958	667.75
427.18	658.75
427.402	649.75
427.625	651.75
427.847	641.75
428.069	663.75
428.292	651.75
428.514	649.75
428.736	636.75
428.958	648.75
429.181	647.75
429.403	649.75
429.625	619.75
429.847	621.75
430.069	633.75
430.292	643.75
430.514	654.75
430.736	647.75
430.958	620.75
431.18	638.75
431.402	661.75
431.624	621.75
431.846	632.75
432.068	637.75
432.29	657.75
432.512	628.75
432.734	658.75
432.956	633.75
433.178	675.75
433.4	647.75
433.622	664.75
433.844	645.75
434.066	642.75
434.287	623.75
434.509	645.75
434.731	695.75
434.953	715.75
435.175	721.75
435.397	696.75
435.618	681.75
435.84	651.75
436.062	638.75
436.284	644.75
436.505	620.75
436.727	645.75
436.949	639.75
437.17	635.75
437.392	642.75
437.614	643.75
437.835	621.75
438.057	632.75
438.278	623.75
438.5	599.75
438.721	616.75
438.943	627.75
439.165	627.75
439.386	631.75
439.608	648.75
439.829	629.75
440.05	667.75
440.272	629.75
440.493	636.75
440.715	646.75
440.936	664.75
441.158	681.75
441.379	647.75
441.6	699.75
441.822	697.75
442.043	721.75
442.264	704.75
442.486	685.75
442.707	695.75
442.928	702.75
443.149	687.75
443.371	693.75
443.592	709.75
443.813	732.75
444.034	703.75
444.255	721.75
444.476	752.75
444.698	747.75
444.919	780.75
445.14	852.75
445.361	801.75
445.582	721.75
445.803	743.75
446.024	692.75
446.245	691.75
446.466	655.75
446.687	663.75
446.908	636.75
447.129	643.75
447.35	638.75
447.571	645.75
447.792	610.75
448.013	617.75
448.234	604.75
448.455	610.75
448.675	589.75
448.896	595.75
449.117	593.75
449.338	593.75
449.559	575.75
449.779	589.75
450	585.75
450.221	593.75
450.442	601.75
450.662	568.75
450.883	591.75
451.104	614.75
451.324	591.75
451.545	605.75
451.766	587.75
451.986	583.75
452.207	589.75
452.428	582.75
452.648	573.75
452.869	549.75
453.089	560.75
453.31	577.75
453.53	565.75
453.751	562.75
453.971	572.75
454.192	567.75
454.412	561.75
454.633	561.75
454.853	561.75
455.073	549.75
455.294	556.75
455.514	563.75
455.734	540.75
455.955	564.75
456.175	561.75
456.395	552.75
456.616	552.75
456.836	549.75
457.056	564.75
457.276	549.75
457.497	556.75
457.717	560.75
457.937	589.75
458.157	582.75
458.377	581.75
458.598	569.75
458.818	578.75
459.038	596.75
459.258	609.75
459.478	638.75
459.698	679.75
459.918	679.75
460.138	685.75
460.358	707.75
460.578	698.75
460.798	739.75
461.018	749.75
461.238	709.75
461.458	743.75
461.678	720.75
461.898	743.75
462.118	732.75
462.338	771.75
462.558	780.75
462.777	824.75
462.997	866.75
463.217	903.75
463.437	916.75
463.657	875.75
463.876	826.75
464.096	856.75
464.316	814.75
464.536	825.75
464.755	798.75
464.975	758.75
465.195	743.75
465.414	714.75
465.634	671.75
465.854	665.75
466.073	643.75
466.293	652.75
466.512	618.75
466.732	613.75
466.951	620.75
467.171	611.75
467.391	633.75
467.61	622.75
467.829	603.75
468.049	604.75
468.268	592.75
468.488	606.75
468.707	609.75
468.927	588.75
469.146	581.75
469.365	625.75
469.585	601.75
469.804	620.75
470.023	621.75
470.243	631.75
470.462	621.75
470.681	631.75
470.901	619.75
471.12	603.75
471.339	622.75
471.558	613.75
471.777	607.75
471.997	590.75
472.216	604.75
472.435	603.75
472.654	587.75
472.873	597.75
473.092	559.75
473.311	587.75
473.53	587.75
473.749	608.75
473.968	589.75
474.187	593.75
474.406	558.75
474.625	591.75
474.844	595.75
475.063	594.75
475.282	579.75
475.501	600.75
475.72	615.75
475.939	601.75
476.158	621.75
476.377	615.75
476.596	618.75
476.814	616.75
477.033	632.75
477.252	610.75
477.471	608.75
477.69	650.75
477.908	667.75
478.127	688.75
478.346	670.75
478.564	689.75
478.783	694.75
479.002	699.75
479.22	718.75
479.439	708.75
479.658	712.75
479.876	711.75
480.095	705.75
480.313	737.75
480.532	736.75
480.751	737.75
480.969	698.75
481.188	713.75
481.406	689.75
481.624	691.75
481.843	671.75
482.061	678.75
482.28	635.75
482.498	650.75
482.717	661.75
482.935	670.75
483.153	655.75
483.372	682.75
483.59	683.75
483.808	679.75
484.027	673.75
484.245	673.75
484.463	674.75
484.681	683.75
484.9	672.75
485.118	681.75
485.336	700.75
485.554	701.75
485.772	674.75
485.99	688.75
486.209	704.75
486.427	662.75
486.645	686.75
486.863	690.75
487.081	703.75
487.299	716.75
487.517	691.75
487.735	696.75
487.953	700.75
488.171	712.75
488.389	675.75
488.607	688.75
488.825	685.75
489.043	687.75
489.261	673.75
489.479	704.75
489.696	702.75
489.914	696.75
490.132	688.75
490.35	716.75
490.568	717.75
490.786	703.75
491.003	716.75
491.221	731.75
491.439	714.75
491.657	693.75
491.874	707.75
492.092	734.75
492.31	720.75
492.527	726.75
492.745	722.75
492.963	719.75
493.18	720.75
493.398	751.75
493.615	721.75
493.833	731.75
494.05	735.75
494.268	732.75
494.485	740.75
494.703	733.75
494.92	752.75
495.138	733.75
495.355	764.75
495.573	761.75
495.79	756.75
496.008	750.75
496.225	732.75
496.442	772.75
496.66	770.75
496.877	802.75
497.094	788.75
497.312	784.75
497.529	842.75
497.746	849.75
497.963	854.75
498.181	899.75
498.398	923.75
498.615	1016.75
498.832	1027.75
499.049	1075.75
499.267	1161.75
499.484	1201.75
499.701	1297.75
499.918	1468.75
500.135	1543.75
500.352	1671.75
500.569	1713.75
500.786	1660.75
501.003	1594.75
501.22	1533.75
501.437	1401.75
501.654	1291.75
501.871	1199.75
502.088	1106.75
502.305	1048.75
502.522	1034.75
502.739	996.75
502.956	931.75
503.172	919.75
503.389	875.75
503.606	879.75
503.823	848.75
504.04	852.75
504.256	827.75
504.473	835.75
504.69	819.75
504.907	816.75
505.123	811.75
505.34	739.75
505.557	726.75
505.773	733.75
505.99	703.75
506.207	672.75
506.423	672.75
506.64	659.75
506.856	675.75
507.073	656.75
507.289	686.75
507.506	681.75
507.722	648.75
507.939	651.75
508.155	629.75
508.372	625.75
508.588	629.75
508.805	631.75
509.021	609.75
509.238	596.75
509.454	591.75
509.67	594.75
509.887	615.75
510.103	612.75
510.319	608.75
510.536	582.75
510.752	599.75
510.968	597.75
511.184	622.75
511.401	609.75
511.617	613.75
511.833	581.75
512.049	583.75
512.265	593.75
512.481	604.75
512.698	580.75
512.914	599.75
513.13	589.75
513.346	594.75
513.562	584.75
513.778	607.75
513.994	587.75
514.21	603.75
514.426	614.75
514.642	587.75
514.858	611.75
515.074	591.75
515.29	608.75
515.506	610.75
515.721	639.75
515.937	621.75
516.153	651.75
516.369	654.75
516.585	654.75
516.801	688.75
517.016	703.75
517.232	718.75
517.448	748.75
517.664	734.75
517.879	749.75
518.095	734.75
518.311	735.75
518.527	711.75
518.742	712.75
518.958	664.75
519.173	677.75
519.389	646.75
519.605	653.75
519.82	649.75
520.036	629.75
520.251	615.75
520.467	603.75
520.682	620.75
520.898	567.75
521.113	583.75
521.329	588.75
521.544	569.75
521.76	567.75
521.975	611.75
522.19	581.75
522.406	539.75
522.621	591.75
522.836	563.75
523.052	554.75
523.267	559.75
523.482	541.75
523.698	556.75
523.913	557.75
524.128	559.75
524.343	551.75
524.559	542.75
524.774	539.75
524.989	555.75
525.204	559.75
525.419	541.75
525.634	530.75
525.849	566.75
526.064	571.75
526.28	513.75
526.495	520.75
526.71	540.75
526.925	526.75
527.14	521.75
527.355	539.75
527.57	522.75
527.785	517.75
527.999	536.75
528.214	533.75
528.429	547.75
528.644	529.75
528.859	549.75
529.074	537.75
529.289	545.75
529.503	528.75
529.718	530.75
529.933	525.75
530.148	512.75
530.363	544.75
530.577	511.75
530.792	507.75
531.007	519.75
531.221	520.75
531.436	527.75
531.651	515.75
531.865	517.75
532.08	526.75
532.295	528.75
532.509	512.75
532.724	517.75
532.938	538.75
533.153	513.75
533.367	512.75
533.582	518.75
533.796	526.75
534.011	501.75
534.225	525.75
534.44	499.75
534.654	501.75
534.868	500.75
535.083	519.75
535.297	505.75
535.511	517.75
535.726	509.75
535.94	487.75
536.154	486.75
536.369	509.75
536.583	504.75
536.797	517.75
537.011	501.75
537.225	486.75
537.44	500.75
537.654	521.75
537.868	474.75
538.082	487.75
538.296	473.75
538.51	488.75
538.724	480.75
538.938	480.75
539.153	465.75
539.367	484.75
539.581	469.75
539.795	486.75
540.009	457.75
540.222	488.75
540.436	481.75
540.65	503.75
540.864	503.75
541.078	496.75
541.292	487.75
541.506	472.75
541.72	492.75
541.934	489.75
542.147	489.75
542.361	480.75
542.575	473.75
542.789	483.75
543.002	474.75
543.216	492.75
543.43	480.75
543.644	461.75
543.857	464.75
544.071	487.75
544.285	491.75
544.498	483.75
544.712	486.75
544.925	492.75
545.139	504.75
545.352	503.75
545.566	500.75
545.779	488.75
545.993	470.75
546.206	494.75
546.42	486.75
546.633	495.75
546.847	497.75
547.06	484.75
547.274	484.75
547.487	499.75
547.7	498.75
547.914	505.75
548.127	501.75
548.34	498.75
548.554	493.75
548.767	491.75
548.98	514.75
549.193	492.75
549.407	489.75
549.62	513.75
549.833	502.75
550.046	509.75
550.259	503.75
550.473	502.75
550.686	474.75
550.899	481.75
551.112	499.75
551.325	483.75
551.538	472.75
551.751	479.75
551.964	495.75
552.177	481.75
552.39	501.75
552.603	519.75
552.816	520.75
553.029	528.75
553.242	533.75
553.455	513.75
553.667	519.75
553.88	515.75
554.093	505.75
554.306	487.75
554.519	499.75
554.732	477.75
554.944	474.75
555.157	485.75
555.37	475.75
555.583	467.75
555.795	488.75
556.008	462.75
556.221	447.75
556.433	460.75
556.646	438.75
556.859	430.75
557.071	441.75
557.284	437.75
557.496	441.75
557.709	432.75
557.921	422.75
558.134	438.75
558.346	407.75
558.559	435.75
558.771	447.75
558.984	407.75
559.196	423.75
559.409	424.75
559.621	413.75
559.833	420.75
560.046	413.75
560.258	419.75
560.47	404.75
560.683	403.75
560.895	410.75
561.107	412.75
561.32	423.75
561.532	424.75
561.744	428.75
561.956	433.75
562.168	411.75
562.381	410.75
562.593	407.75
562.805	426.75
563.017	413.75
563.229	422.75
563.441	424.75
563.653	437.75
563.865	425.75
564.077	425.75
564.289	439.75
564.501	429.75
564.713	442.75
564.925	449.75
565.137	456.75
565.349	480.75
565.561	464.75
565.773	499.75
565.985	506.75
566.197	523.75
566.408	553.75
566.62	584.75
566.832	607.75
567.044	597.75
567.255	617.75
567.467	611.75
567.679	639.75
567.891	659.75
568.102	633.75
568.314	636.75
568.526	584.75
568.737	555.75
568.949	528.75
569.161	485.75
569.372	472.75
569.584	461.75
569.795	454.75
570.007	439.75
570.218	433.75
570.43	417.75
570.641	427.75
570.853	416.75
571.064	414.75
571.276	414.75
571.487	418.75
571.698	393.75
571.91	353.75
572.121	387.75
572.333	380.75
572.544	361.75
572.755	367.75
572.966	384.75
573.178	377.75
573.389	366.75
573.6	351.75
573.811	361.75
574.023	353.75
574.234	343.75
574.445	329.75
574.656	336.75
574.867	354.75
575.078	335.75
575.289	326.75
575.501	343.75
575.712	334.75
575.923	323.75
576.134	335.75
576.345	323.75
576.556	325.75
576.767	341.75
576.978	334.75
577.188	329.75
577.399	337.75
577.61	329.75
577.821	329.75
578.032	320.75
578.243	314.75
578.454	298.75
578.665	330.75
578.875	313.75
579.086	313.75
579.297	330.75
579.508	321.75
579.718	298.75
579.929	301.75
580.14	311.75
580.35	303.75
580.561	295.75
580.772	282.75
580.982	295.75
581.193	289.75
581.403	303.75
581.614	273.75
581.825	299.75
582.035	299.75
582.246	277.75
582.456	297.75
582.667	316.75
582.877	303.75
583.087	297.75
583.298	287.75
583.508	272.75
583.719	291.75
583.929	282.75
584.139	289.75
584.35	277.75
584.56	280.75
584.77	286.75
584.981	302.75
585.191	293.75
585.401	299.75
585.611	266.75
585.821	283.75
586.032	293.75
586.242	293.75
586.452	294.75
586.662	292.75
586.872	289.75
587.082	295.75
587.292	271.75
587.502	294.75
587.713	293.75
587.923	301.75
588.133	277.75
588.343	292.75
588.553	268.75
588.762	282.75
588.972	302.75
589.182	295.75
589.392	269.75
589.602	280.75
589.812	287.75
590.022	289.75
590.232	294.75
590.441	299.75
590.651	284.75
590.861	292.75
591.071	273.75
591.281	273.75
591.49	284.75
591.7	289.75
591.91	299.75
592.119	287.75
592.329	320.75
592.539	315.75
592.748	335.75
592.958	311.75
593.167	316.75
593.377	319.75
593.587	348.75
593.796	323.75
594.006	336.75
594.215	332.75
594.424	349.75
594.634	330.75
594.843	317.75
595.053	313.75
595.262	309.75
595.472	317.75
595.681	292.75
595.89	292.75
596.1	283.75
596.309	292.75
596.518	277.75
596.727	263.75
596.937	257.75
597.146	273.75
597.355	270.75
597.564	253.75
597.774	257.75
597.983	244.75
598.192	236.75
598.401	241.75
598.61	259.75
598.819	259.75
599.028	262.75
599.237	235.75
599.446	238.75
599.655	255.75
599.864	257.75
600.073	252.75
600.282	251.75
600.491	231.75
600.7	238.75
600.909	245.75
601.118	229.75
601.327	262.75
601.536	231.75
601.745	236.75
601.953	236.75
602.162	247.75
602.371	239.75
602.58	251.75
602.789	231.75
602.997	252.75
603.206	249.75
603.415	226.75
603.623	231.75
603.832	229.75
604.041	231.75
604.249	220.75
604.458	231.75
604.666	211.75
604.875	229.75
605.084	239.75
605.292	214.75
605.501	223.75
605.709	232.75
605.918	226.75
606.126	225.75
606.334	225.75
606.543	233.75
606.751	235.75
606.96	226.75
607.168	238.75
607.376	218.75
607.585	217.75
607.793	228.75
608.001	219.75
608.21	221.75
608.418	216.75
608.626	219.75
608.834	227.75
609.043	224.75
609.251	219.75
609.459	217.75
609.667	224.75
609.875	210.75
610.083	211.75
610.291	222.75
610.499	222.75
610.707	224.75
610.916	227.75
611.124	221.75
611.332	212.75
611.54	220.75
611.748	210.75
611.955	224.75
612.163	222.75
612.371	223.75
612.579	220.75
612.787	215.75
612.995	208.75
613.203	226.75
613.411	222.75
613.618	222.75
613.826	217.75
614.034	220.75
614.242	209.75
614.449	221.75
614.657	214.75
614.865	198.75
615.072	228.75
615.28	217.75
615.488	211.75
615.695	210.75
615.903	225.75
616.111	215.75
616.318	225.75
616.526	213.75
616.733	234.75
616.941	218.75
617.148	213.75
617.356	212.75
617.563	216.75
617.771	217.75
617.978	219.75
618.185	198.75
618.393	203.75
618.6	203.75
618.807	212.75
619.015	199.75
619.222	221.75
619.429	210.75
619.637	189.75
619.844	199.75
620.051	197.75
620.258	203.75
620.466	196.75
620.673	199.75
620.88	204.75
621.087	205.75
621.294	201.75
621.501	203.75
621.708	213.75
621.915	196.75
622.122	197.75
622.329	204.75
622.536	188.75
622.743	187.75
622.95	204.75
623.157	209.75
623.364	187.75
623.571	200.75
623.778	195.75
623.985	196.75
624.192	204.75
624.399	192.75
624.606	176.75
624.812	183.75
625.019	173.75
625.226	199.75
625.433	198.75
625.639	222.75
625.846	184.75
626.053	193.75
626.259	181.75
626.466	179.75
626.673	171.75
626.879	187.75
627.086	189.75
627.293	202.75
627.499	174.75
627.706	196.75
627.912	181.75
628.119	191.75
628.325	204.75
628.532	181.75
628.738	172.75
628.945	174.75
629.151	190.75
629.357	189.75
629.564	187.75
629.77	183.75
629.976	190.75
630.183	159.75
630.389	171.75
630.595	167.75
630.802	190.75
631.008	188.75
631.214	179.75
631.42	176.75
631.627	171.75
631.833	169.75
632.039	167.75
632.245	174.75
632.451	164.75
632.657	171.75
632.863	179.75
633.069	181.75
633.275	171.75
633.481	177.75
633.688	168.75
633.893	184.75
634.099	164.75
634.305	165.75
634.511	187.75
634.717	167.75
634.923	161.75
635.129	177.75
635.335	152.75
635.541	155.75
635.747	166.75
635.952	168.75
636.158	176.75
636.364	166.75
636.57	180.75
636.775	172.75
636.981	173.75
637.187	183.75
637.392	165.75
637.598	167.75
637.804	173.75
638.009	168.75
638.215	167.75
638.421	161.75
638.626	164.75
638.832	168.75
639.037	162.75
639.243	151.75
639.448	172.75
639.654	161.75
639.859	160.75
640.065	156.75
640.27	166.75
640.475	176.75
640.681	168.75
640.886	154.75
641.091	156.75
641.297	149.75
641.502	141.75
641.707	163.75
641.913	158.75
642.118	167.75
642.323	172.75
642.528	163.75
642.733	161.75
642.939	153.75
643.144	155.75
643.349	147.75
643.554	157.75
643.759	156.75
643.964	168.75
644.169	155.75
644.374	159.75
644.579	158.75
644.784	177.75
644.989	138.75
645.194	164.75
645.399	157.75
645.604	159.75
645.809	160.75
646.014	166.75
646.219	163.75
646.423	162.75
646.628	150.75
646.833	144.75
647.038	159.75
647.243	171.75
647.447	156.75
647.652	155.75
647.857	151.75
648.062	156.75
648.266	159.75
648.471	163.75
648.676	162.75
648.88	173.75
649.085	165.75
649.289	156.75
649.494	141.75
649.698	165.75
649.903	144.75
650.107	172.75
650.312	158.75
650.516	141.75
650.721	162.75
650.925	145.75
651.13	147.75
651.334	163.75
651.539	146.75
651.743	169.75
651.947	147.75
652.152	156.75
652.356	161.75
652.56	145.75
652.764	132.75
652.969	149.75
653.173	145.75
653.377	149.75
653.581	133.75
653.785	152.75
653.99	145.75
654.194	145.75
654.398	163.75
654.602	153.75
654.806	120.75
655.01	139.75
655.214	127.75
655.418	148.75
655.622	143.75
655.826	135.75
656.03	147.75
656.234	149.75
656.438	147.75
656.642	156.75
656.846	121.75
657.049	119.75
657.253	124.75
657.457	133.75
657.661	131.75
657.865	132.75
658.068	129.75
658.272	106.75
658.476	101.75
658.68	113.75
658.883	91.75
659.087	99.75
659.291	99.75
659.494	108.75
659.698	103.75
659.901	105.75
660.105	108.75
660.309	94.75
660.512	94.75
660.716	92.75
660.919	102.75
661.123	101.75
661.326	102.75
661.53	94.75
661.733	91.75
661.936	93.75
662.14	104.75
662.343	94.75
662.546	91.75
662.75	88.75
662.953	79.75
663.156	73.75
663.36	95.75
663.563	83.75
663.766	81.75
663.969	83.75
664.173	82.75
664.376	78.75
664.579	81.75
664.782	90.75
664.985	88.75
665.188	86.75
665.391	70.75
665.594	80.75
665.797	84.75
666	74.75
666.203	87.75
666.406	79.75
666.609	104.75
666.812	82.75
667.015	65.75
667.218	94.75
667.421	80.75
667.624	90.75
667.827	81.75
668.03	88.75
668.232	80.75
668.435	89.75
668.638	89.75
668.841	89.75
669.043	92.75
669.246	82.75
669.449	74.75
669.651	69.75
669.854	79.75
670.057	85.75
670.259	71.75
670.462	78.75
670.665	80.75
670.867	84.75
671.07	61.75
671.272	83.75
671.475	89.75
671.677	93.75
671.88	92.75
672.082	89.75
672.284	73.75
672.487	64.75
672.689	82.75
672.892	87.75
