Data from Ni(NO3)2@0.25M.TitratingCurve.Agarose3%dH2O.NegLispCup.LampEnergy10.LIBS07252019_HRD10591_18-05-22-566.txt Node
Date: Thu Jul 25 18:05:22 EDT 2019
User: cochatt
Spectrometer: HR+D1059
Trigger mode: 1
Integration Time (sec): 1.000000E-1
Scans to average: 1
Electric dark correction enabled: true
Nonlinearity correction enabled: false
Boxcar width: 0
XAxis mode: Wavelengths
Number of Pixels in Spectrum: 2048
>>>>>Begin Spectral Data<<<<<
223.165	-14.62
223.4	-14.62
223.635	-14.62
223.869	-25.62
224.104	1.38
224.338	-12.62
224.573	-7.62
224.808	-10.62
225.042	-3.62
225.277	-15.62
225.511	-6.62
225.746	5.38
225.98	5.38
226.215	8.38
226.449	12.38
226.683	16.38
226.918	20.38
227.152	27.38
227.387	32.38
227.621	31.38
227.856	46.38
228.09	35.38
228.324	42.38
228.559	65.38
228.793	59.38
229.027	73.38
229.262	89.38
229.496	98.38
229.73	81.38
229.964	100.38
230.199	79.38
230.433	81.38
230.667	95.38
230.901	91.38
231.136	97.38
231.37	89.38
231.604	82.38
231.838	89.38
232.072	90.38
232.306	102.38
232.541	88.38
232.775	106.38
233.009	102.38
233.243	94.38
233.477	92.38
233.711	106.38
233.945	96.38
234.179	93.38
234.413	107.38
234.647	114.38
234.881	106.38
235.115	97.38
235.349	97.38
235.583	103.38
235.817	100.38
236.051	100.38
236.285	113.38
236.519	106.38
236.753	95.38
236.987	109.38
237.221	89.38
237.455	106.38
237.689	95.38
237.922	102.38
238.156	100.38
238.39	111.38
238.624	115.38
238.858	117.38
239.091	104.38
239.325	108.38
239.559	108.38
239.793	113.38
240.027	111.38
240.26	104.38
240.494	119.38
240.728	112.38
240.961	114.38
241.195	114.38
241.429	120.38
241.662	116.38
241.896	106.38
242.13	115.38
242.363	104.38
242.597	113.38
242.83	116.38
243.064	120.38
243.298	122.38
243.531	119.38
243.765	113.38
243.998	139.38
244.232	126.38
244.465	123.38
244.699	119.38
244.932	115.38
245.166	122.38
245.399	120.38
245.633	127.38
245.866	125.38
246.099	120.38
246.333	121.38
246.566	124.38
246.8	121.38
247.033	138.38
247.266	112.38
247.5	123.38
247.733	141.38
247.966	141.38
248.2	127.38
248.433	137.38
248.666	130.38
248.899	151.38
249.133	149.38
249.366	131.38
249.599	136.38
249.832	135.38
250.066	139.38
250.299	148.38
250.532	143.38
250.765	147.38
250.998	155.38
251.231	147.38
251.465	152.38
251.698	159.38
251.931	138.38
252.164	159.38
252.397	151.38
252.63	177.38
252.863	164.38
253.096	172.38
253.329	167.38
253.562	145.38
253.795	150.38
254.028	172.38
254.261	173.38
254.494	157.38
254.727	163.38
254.96	155.38
255.193	177.38
255.426	172.38
255.659	153.38
255.892	184.38
256.124	170.38
256.357	183.38
256.59	170.38
256.823	171.38
257.056	182.38
257.289	170.38
257.521	187.38
257.754	177.38
257.987	174.38
258.22	183.38
258.452	179.38
258.685	186.38
258.918	202.38
259.151	187.38
259.383	185.38
259.616	184.38
259.849	190.38
260.081	197.38
260.314	177.38
260.547	184.38
260.779	188.38
261.012	196.38
261.244	200.38
261.477	182.38
261.71	183.38
261.942	177.38
262.175	188.38
262.407	192.38
262.64	203.38
262.872	219.38
263.105	184.38
263.337	207.38
263.57	199.38
263.802	199.38
264.035	210.38
264.267	204.38
264.499	218.38
264.732	216.38
264.964	207.38
265.197	196.38
265.429	211.38
265.661	204.38
265.894	210.38
266.126	210.38
266.358	220.38
266.591	207.38
266.823	218.38
267.055	212.38
267.287	215.38
267.52	212.38
267.752	224.38
267.984	216.38
268.216	225.38
268.448	232.38
268.681	212.38
268.913	219.38
269.145	225.38
269.377	230.38
269.609	217.38
269.841	241.38
270.073	220.38
270.306	205.38
270.538	215.38
270.77	224.38
271.002	225.38
271.234	226.38
271.466	232.38
271.698	219.38
271.93	214.38
272.162	249.38
272.394	251.38
272.626	230.38
272.858	245.38
273.09	240.38
273.322	232.38
273.553	224.38
273.785	235.38
274.017	236.38
274.249	252.38
274.481	244.38
274.713	229.38
274.945	257.38
275.176	225.38
275.408	225.38
275.64	227.38
275.872	244.38
276.104	246.38
276.335	237.38
276.567	251.38
276.799	223.38
277.031	246.38
277.262	225.38
277.494	242.38
277.726	242.38
277.957	243.38
278.189	245.38
278.421	236.38
278.652	245.38
278.884	219.38
279.115	231.38
279.347	235.38
279.579	264.38
279.81	242.38
280.042	248.38
280.273	233.38
280.505	267.38
280.736	248.38
280.968	257.38
281.199	259.38
281.431	244.38
281.662	249.38
281.894	254.38
282.125	245.38
282.356	245.38
282.588	257.38
282.819	288.38
283.051	274.38
283.282	259.38
283.513	279.38
283.745	287.38
283.976	260.38
284.207	275.38
284.439	241.38
284.67	277.38
284.901	267.38
285.132	276.38
285.364	283.38
285.595	259.38
285.826	265.38
286.057	277.38
286.288	268.38
286.52	271.38
286.751	261.38
286.982	263.38
287.213	286.38
287.444	284.38
287.675	275.38
287.906	278.38
288.138	288.38
288.369	251.38
288.6	267.38
288.831	253.38
289.062	282.38
289.293	266.38
289.524	262.38
289.755	266.38
289.986	272.38
290.217	273.38
290.448	295.38
290.679	284.38
290.91	280.38
291.141	281.38
291.371	256.38
291.602	279.38
291.833	277.38
292.064	261.38
292.295	288.38
292.526	269.38
292.757	285.38
292.987	288.38
293.218	287.38
293.449	278.38
293.68	277.38
293.91	299.38
294.141	278.38
294.372	268.38
294.603	267.38
294.833	257.38
295.064	290.38
295.295	285.38
295.525	301.38
295.756	291.38
295.987	279.38
296.217	288.38
296.448	281.38
296.679	275.38
296.909	284.38
297.14	291.38
297.37	274.38
297.601	283.38
297.831	286.38
298.062	287.38
298.292	293.38
298.523	305.38
298.753	292.38
298.984	325.38
299.214	320.38
299.445	306.38
299.675	291.38
299.905	294.38
300.136	319.38
300.366	298.38
300.597	309.38
300.827	295.38
301.057	311.38
301.288	296.38
301.518	309.38
301.748	298.38
301.979	307.38
302.209	318.38
302.439	297.38
302.669	313.38
302.9	303.38
303.13	305.38
303.36	312.38
303.59	324.38
303.82	315.38
304.051	295.38
304.281	317.38
304.511	305.38
304.741	322.38
304.971	303.38
305.201	289.38
305.431	307.38
305.661	321.38
305.891	319.38
306.121	308.38
306.352	307.38
306.582	305.38
306.812	316.38
307.042	306.38
307.272	298.38
307.502	301.38
307.731	307.38
307.961	313.38
308.191	297.38
308.421	325.38
308.651	294.38
308.881	303.38
309.111	319.38
309.341	304.38
309.571	328.38
309.8	327.38
310.03	316.38
310.26	295.38
310.49	327.38
310.72	329.38
310.949	329.38
311.179	330.38
311.409	325.38
311.639	320.38
311.868	325.38
312.098	331.38
312.328	324.38
312.557	336.38
312.787	326.38
313.017	337.38
313.246	354.38
313.476	332.38
313.706	339.38
313.935	341.38
314.165	342.38
314.394	350.38
314.624	349.38
314.853	352.38
315.083	336.38
315.312	345.38
315.542	329.38
315.771	356.38
316.001	359.38
316.23	355.38
316.46	346.38
316.689	336.38
316.919	355.38
317.148	351.38
317.377	340.38
317.607	353.38
317.836	349.38
318.065	332.38
318.295	343.38
318.524	343.38
318.753	372.38
318.983	365.38
319.212	350.38
319.441	355.38
319.67	360.38
319.9	367.38
320.129	350.38
320.358	355.38
320.587	370.38
320.816	346.38
321.046	357.38
321.275	367.38
321.504	375.38
321.733	362.38
321.962	379.38
322.191	371.38
322.42	364.38
322.649	381.38
322.878	373.38
323.108	370.38
323.337	370.38
323.566	388.38
323.795	389.38
324.024	390.38
324.253	403.38
324.482	396.38
324.71	382.38
324.939	371.38
325.168	408.38
325.397	386.38
325.626	394.38
325.855	419.38
326.084	415.38
326.313	427.38
326.542	414.38
326.77	422.38
326.999	418.38
327.228	411.38
327.457	415.38
327.686	418.38
327.914	416.38
328.143	438.38
328.372	419.38
328.6	403.38
328.829	429.38
329.058	417.38
329.287	417.38
329.515	428.38
329.744	431.38
329.972	434.38
330.201	434.38
330.43	438.38
330.658	417.38
330.887	444.38
331.115	438.38
331.344	447.38
331.572	463.38
331.801	454.38
332.03	473.38
332.258	479.38
332.486	489.38
332.715	485.38
332.943	513.38
333.172	552.38
333.4	544.38
333.629	562.38
333.857	563.38
334.085	556.38
334.314	569.38
334.542	554.38
334.771	549.38
334.999	543.38
335.227	547.38
335.455	524.38
335.684	523.38
335.912	525.38
336.14	534.38
336.369	531.38
336.597	538.38
336.825	515.38
337.053	516.38
337.281	541.38
337.51	520.38
337.738	500.38
337.966	475.38
338.194	496.38
338.422	469.38
338.65	462.38
338.878	485.38
339.106	509.38
339.334	501.38
339.562	497.38
339.79	472.38
340.018	464.38
340.246	465.38
340.474	459.38
340.702	467.38
340.93	468.38
341.158	472.38
341.386	469.38
341.614	473.38
341.842	467.38
342.07	475.38
342.298	477.38
342.526	457.38
342.754	466.38
342.981	465.38
343.209	467.38
343.437	498.38
343.665	523.38
343.893	539.38
344.12	563.38
344.348	537.38
344.576	515.38
344.804	492.38
345.031	495.38
345.259	481.38
345.487	491.38
345.714	461.38
345.942	483.38
346.17	486.38
346.397	477.38
346.625	449.38
346.853	472.38
347.08	453.38
347.308	455.38
347.535	458.38
347.763	475.38
347.99	463.38
348.218	479.38
348.445	457.38
348.673	454.38
348.9	460.38
349.128	440.38
349.355	465.38
349.583	451.38
349.81	466.38
350.037	428.38
350.265	470.38
350.492	435.38
350.72	456.38
350.947	442.38
351.174	438.38
351.402	466.38
351.629	431.38
351.856	444.38
352.083	453.38
352.311	435.38
352.538	459.38
352.765	459.38
352.992	455.38
353.22	417.38
353.447	435.38
353.674	421.38
353.901	435.38
354.128	441.38
354.355	427.38
354.583	444.38
354.81	459.38
355.037	444.38
355.264	459.38
355.491	435.38
355.718	448.38
355.945	437.38
356.172	465.38
356.399	441.38
356.626	433.38
356.853	437.38
357.08	432.38
357.307	442.38
357.534	449.38
357.761	459.38
357.988	439.38
358.215	446.38
358.441	434.38
358.668	444.38
358.895	443.38
359.122	432.38
359.349	447.38
359.576	417.38
359.802	439.38
360.029	437.38
360.256	450.38
360.483	428.38
360.709	416.38
360.936	435.38
361.163	436.38
361.39	438.38
361.616	447.38
361.843	440.38
362.07	459.38
362.296	459.38
362.523	447.38
362.749	436.38
362.976	425.38
363.203	444.38
363.429	417.38
363.656	418.38
363.882	432.38
364.109	415.38
364.335	426.38
364.562	420.38
364.788	422.38
365.015	455.38
365.241	431.38
365.468	442.38
365.694	428.38
365.92	413.38
366.147	422.38
366.373	448.38
366.599	422.38
366.826	454.38
367.052	436.38
367.278	440.38
367.505	427.38
367.731	427.38
367.957	416.38
368.184	448.38
368.41	436.38
368.636	435.38
368.862	435.38
369.089	439.38
369.315	443.38
369.541	442.38
369.767	438.38
369.993	431.38
370.219	445.38
370.445	453.38
370.672	464.38
370.898	464.38
371.124	476.38
371.35	457.38
371.576	473.38
371.802	449.38
372.028	448.38
372.254	468.38
372.48	462.38
372.706	452.38
372.932	454.38
373.158	470.38
373.384	482.38
373.61	473.38
373.835	449.38
374.061	475.38
374.287	460.38
374.513	477.38
374.739	482.38
374.965	513.38
375.191	489.38
375.416	509.38
375.642	493.38
375.868	471.38
376.094	459.38
376.319	474.38
376.545	464.38
376.771	463.38
376.997	457.38
377.222	464.38
377.448	443.38
377.674	450.38
377.899	454.38
378.125	442.38
378.35	442.38
378.576	457.38
378.802	442.38
379.027	423.38
379.253	472.38
379.478	457.38
379.704	412.38
379.929	433.38
380.155	431.38
380.38	446.38
380.606	463.38
380.831	453.38
381.057	475.38
381.282	462.38
381.507	460.38
381.733	448.38
381.958	451.38
382.184	465.38
382.409	467.38
382.634	471.38
382.86	470.38
383.085	483.38
383.31	474.38
383.535	472.38
383.761	461.38
383.986	497.38
384.211	514.38
384.436	516.38
384.662	491.38
384.887	529.38
385.112	493.38
385.337	513.38
385.562	530.38
385.787	539.38
386.013	521.38
386.238	534.38
386.463	520.38
386.688	524.38
386.913	512.38
387.138	492.38
387.363	517.38
387.588	504.38
387.813	517.38
388.038	513.38
388.263	522.38
388.488	518.38
388.713	527.38
388.938	529.38
389.163	506.38
389.387	495.38
389.612	491.38
389.837	492.38
390.062	511.38
390.287	523.38
390.512	523.38
390.736	523.38
390.961	529.38
391.186	516.38
391.411	557.38
391.636	554.38
391.86	581.38
392.085	598.38
392.31	583.38
392.534	593.38
392.759	557.38
392.984	567.38
393.208	536.38
393.433	519.38
393.658	549.38
393.882	549.38
394.107	564.38
394.331	559.38
394.556	552.38
394.78	568.38
395.005	543.38
395.229	532.38
395.454	576.38
395.678	587.38
395.903	571.38
396.127	563.38
396.352	583.38
396.576	558.38
396.801	561.38
397.025	564.38
397.249	582.38
397.474	594.38
397.698	583.38
397.922	562.38
398.147	588.38
398.371	607.38
398.595	615.38
398.82	648.38
399.044	671.38
399.268	744.38
399.492	823.38
399.717	910.38
399.941	889.38
400.165	815.38
400.389	786.38
400.613	695.38
400.837	656.38
401.062	671.38
401.286	673.38
401.51	651.38
401.734	649.38
401.958	675.38
402.182	654.38
402.406	688.38
402.63	671.38
402.854	673.38
403.078	667.38
403.302	707.38
403.526	696.38
403.75	718.38
403.974	746.38
404.198	729.38
404.422	738.38
404.645	726.38
404.869	707.38
405.093	716.38
405.317	701.38
405.541	703.38
405.765	729.38
405.988	709.38
406.212	718.38
406.436	726.38
406.66	733.38
406.883	765.38
407.107	785.38
407.331	796.38
407.555	819.38
407.778	837.38
408.002	789.38
408.226	776.38
408.449	761.38
408.673	768.38
408.896	731.38
409.12	735.38
409.344	757.38
409.567	777.38
409.791	753.38
410.014	738.38
410.238	732.38
410.461	722.38
410.685	693.38
410.908	710.38
411.132	713.38
411.355	675.38
411.578	690.38
411.802	679.38
412.025	693.38
412.249	718.38
412.472	721.38
412.695	716.38
412.919	659.38
413.142	673.38
413.365	668.38
413.589	681.38
413.812	667.38
414.035	673.38
414.258	680.38
414.482	677.38
414.705	685.38
414.928	699.38
415.151	699.38
415.374	694.38
415.597	685.38
415.821	669.38
416.044	661.38
416.267	656.38
416.49	668.38
416.713	661.38
416.936	670.38
417.159	661.38
417.382	668.38
417.605	670.38
417.828	670.38
418.051	696.38
418.274	685.38
418.497	665.38
418.72	687.38
418.943	692.38
419.166	705.38
419.389	757.38
419.611	751.38
419.834	739.38
420.057	724.38
420.28	650.38
420.503	669.38
420.726	681.38
420.948	654.38
421.171	672.38
421.394	672.38
421.617	673.38
421.839	665.38
422.062	692.38
422.285	701.38
422.507	700.38
422.73	692.38
422.953	677.38
423.175	701.38
423.398	711.38
423.621	713.38
423.843	705.38
424.066	723.38
424.288	712.38
424.511	714.38
424.733	711.38
424.956	699.38
425.178	697.38
425.401	688.38
425.623	703.38
425.846	664.38
426.068	670.38
426.291	674.38
426.513	659.38
426.735	660.38
426.958	684.38
427.18	657.38
427.402	649.38
427.625	632.38
427.847	647.38
428.069	626.38
428.292	642.38
428.514	635.38
428.736	617.38
428.958	636.38
429.181	638.38
429.403	625.38
429.625	610.38
429.847	637.38
430.069	593.38
430.292	604.38
430.514	590.38
430.736	623.38
430.958	620.38
431.18	625.38
431.402	646.38
431.624	618.38
431.846	651.38
432.068	612.38
432.29	634.38
432.512	621.38
432.734	641.38
432.956	632.38
433.178	641.38
433.4	632.38
433.622	654.38
433.844	649.38
434.066	657.38
434.287	647.38
434.509	651.38
434.731	712.38
434.953	689.38
435.175	701.38
435.397	708.38
435.618	664.38
435.84	652.38
436.062	620.38
436.284	644.38
436.505	635.38
436.727	635.38
436.949	643.38
437.17	637.38
437.392	624.38
437.614	630.38
437.835	617.38
438.057	597.38
438.278	605.38
438.5	623.38
438.721	621.38
438.943	607.38
439.165	618.38
439.386	637.38
439.608	647.38
439.829	637.38
440.05	625.38
440.272	657.38
440.493	654.38
440.715	651.38
440.936	678.38
441.158	687.38
441.379	679.38
441.6	713.38
441.822	697.38
442.043	707.38
442.264	699.38
442.486	681.38
442.707	690.38
442.928	668.38
443.149	693.38
443.371	714.38
443.592	717.38
443.813	729.38
444.034	700.38
444.255	716.38
444.476	780.38
444.698	790.38
444.919	820.38
445.14	901.38
445.361	807.38
445.582	733.38
445.803	682.38
446.024	691.38
446.245	681.38
446.466	667.38
446.687	680.38
446.908	668.38
447.129	653.38
447.35	634.38
447.571	624.38
447.792	617.38
448.013	635.38
448.234	610.38
448.455	629.38
448.675	601.38
448.896	585.38
449.117	575.38
449.338	592.38
449.559	587.38
449.779	600.38
450	586.38
450.221	603.38
450.442	591.38
450.662	600.38
450.883	609.38
451.104	609.38
451.324	596.38
451.545	564.38
451.766	580.38
451.986	589.38
452.207	581.38
452.428	583.38
452.648	595.38
452.869	575.38
453.089	579.38
453.31	564.38
453.53	571.38
453.751	573.38
453.971	584.38
454.192	555.38
454.412	571.38
454.633	563.38
454.853	540.38
455.073	542.38
455.294	545.38
455.514	553.38
455.734	557.38
455.955	564.38
456.175	547.38
456.395	545.38
456.616	557.38
456.836	545.38
457.056	537.38
457.276	554.38
457.497	560.38
457.717	545.38
457.937	565.38
458.157	548.38
458.377	571.38
458.598	587.38
458.818	620.38
459.038	592.38
459.258	628.38
459.478	647.38
459.698	663.38
459.918	676.38
460.138	695.38
460.358	732.38
460.578	712.38
460.798	754.38
461.018	748.38
461.238	732.38
461.458	736.38
461.678	734.38
461.898	747.38
462.118	756.38
462.338	789.38
462.558	803.38
462.777	837.38
462.997	888.38
463.217	938.38
463.437	966.38
463.657	865.38
463.876	870.38
464.096	845.38
464.316	817.38
464.536	831.38
464.755	795.38
464.975	809.38
465.195	756.38
465.414	693.38
465.634	674.38
465.854	669.38
466.073	658.38
466.293	640.38
466.512	615.38
466.732	619.38
466.951	636.38
467.171	616.38
467.391	613.38
467.61	624.38
467.829	594.38
468.049	594.38
468.268	605.38
468.488	588.38
468.707	588.38
468.927	604.38
469.146	589.38
469.365	611.38
469.585	597.38
469.804	633.38
470.023	639.38
470.243	624.38
470.462	633.38
470.681	649.38
470.901	641.38
471.12	635.38
471.339	657.38
471.558	623.38
471.777	631.38
471.997	595.38
472.216	596.38
472.435	588.38
472.654	599.38
472.873	577.38
473.092	579.38
473.311	584.38
473.53	604.38
473.749	586.38
473.968	588.38
474.187	565.38
474.406	575.38
474.625	577.38
474.844	586.38
475.063	592.38
475.282	585.38
475.501	586.38
475.72	602.38
475.939	598.38
476.158	604.38
476.377	588.38
476.596	595.38
476.814	613.38
477.033	634.38
477.252	625.38
477.471	650.38
477.69	633.38
477.908	665.38
478.127	671.38
478.346	656.38
478.564	687.38
478.783	699.38
479.002	725.38
479.22	724.38
479.439	736.38
479.658	723.38
479.876	676.38
480.095	699.38
480.313	755.38
480.532	744.38
480.751	746.38
480.969	712.38
481.188	705.38
481.406	673.38
481.624	673.38
481.843	665.38
482.061	690.38
482.28	673.38
482.498	667.38
482.717	661.38
482.935	665.38
483.153	654.38
483.372	678.38
483.59	680.38
483.808	671.38
484.027	685.38
484.245	659.38
484.463	674.38
484.681	700.38
484.9	677.38
485.118	651.38
485.336	666.38
485.554	651.38
485.772	674.38
485.99	682.38
486.209	660.38
486.427	704.38
486.645	693.38
486.863	695.38
487.081	683.38
487.299	681.38
487.517	691.38
487.735	705.38
487.953	696.38
488.171	716.38
488.389	693.38
488.607	695.38
488.825	670.38
489.043	698.38
489.261	668.38
489.479	685.38
489.696	684.38
489.914	682.38
490.132	701.38
490.35	685.38
490.568	698.38
490.786	735.38
491.003	688.38
491.221	725.38
491.439	703.38
491.657	730.38
491.874	699.38
492.092	741.38
492.31	744.38
492.527	743.38
492.745	737.38
492.963	728.38
493.18	735.38
493.398	758.38
493.615	726.38
493.833	732.38
494.05	744.38
494.268	737.38
494.485	725.38
494.703	744.38
494.92	761.38
495.138	784.38
495.355	758.38
495.573	760.38
495.79	766.38
496.008	751.38
496.225	775.38
496.442	776.38
496.66	803.38
496.877	829.38
497.094	808.38
497.312	827.38
497.529	823.38
497.746	829.38
497.963	884.38
498.181	885.38
498.398	919.38
498.615	981.38
498.832	1061.38
499.049	1094.38
499.267	1183.38
499.484	1287.38
499.701	1427.38
499.918	1496.38
500.135	1741.38
500.352	1885.38
500.569	1962.38
500.786	1923.38
501.003	1821.38
501.22	1651.38
501.437	1541.38
501.654	1373.38
501.871	1243.38
502.088	1175.38
502.305	1090.38
502.522	1044.38
502.739	1041.38
502.956	975.38
503.172	925.38
503.389	895.38
503.606	875.38
503.823	845.38
504.04	860.38
504.256	857.38
504.473	870.38
504.69	845.38
504.907	839.38
505.123	790.38
505.34	775.38
505.557	714.38
505.773	737.38
505.99	727.38
506.207	704.38
506.423	699.38
506.64	676.38
506.856	679.38
507.073	683.38
507.289	658.38
507.506	659.38
507.722	641.38
507.939	662.38
508.155	642.38
508.372	635.38
508.588	643.38
508.805	655.38
509.021	649.38
509.238	623.38
509.454	647.38
509.67	626.38
509.887	639.38
510.103	618.38
510.319	600.38
510.536	609.38
510.752	603.38
510.968	600.38
511.184	596.38
511.401	600.38
511.617	601.38
511.833	601.38
512.049	603.38
512.265	615.38
512.481	584.38
512.698	588.38
512.914	594.38
513.13	604.38
513.346	605.38
513.562	616.38
513.778	601.38
513.994	610.38
514.21	591.38
514.426	583.38
514.642	580.38
514.858	600.38
515.074	598.38
515.29	636.38
515.506	635.38
515.721	629.38
515.937	641.38
516.153	651.38
516.369	667.38
516.585	672.38
516.801	705.38
517.016	711.38
517.232	779.38
517.448	779.38
517.664	784.38
517.879	796.38
518.095	803.38
518.311	778.38
518.527	759.38
518.742	764.38
518.958	722.38
519.173	676.38
519.389	660.38
519.605	641.38
519.82	636.38
520.036	643.38
520.251	619.38
520.467	629.38
520.682	609.38
520.898	610.38
521.113	607.38
521.329	600.38
521.544	608.38
521.76	584.38
521.975	583.38
522.19	574.38
522.406	566.38
522.621	585.38
522.836	565.38
523.052	579.38
523.267	561.38
523.482	567.38
523.698	590.38
523.913	561.38
524.128	554.38
524.343	579.38
524.559	561.38
524.774	539.38
524.989	555.38
525.204	574.38
525.419	541.38
525.634	553.38
525.849	569.38
526.064	565.38
526.28	574.38
526.495	560.38
526.71	541.38
526.925	539.38
527.14	542.38
527.355	532.38
527.57	531.38
527.785	569.38
527.999	546.38
528.214	556.38
528.429	563.38
528.644	565.38
528.859	541.38
529.074	587.38
529.289	571.38
529.503	537.38
529.718	562.38
529.933	553.38
530.148	527.38
530.363	544.38
530.577	554.38
530.792	546.38
531.007	560.38
531.221	559.38
531.436	539.38
531.651	541.38
531.865	511.38
532.08	541.38
532.295	530.38
532.509	541.38
532.724	548.38
532.938	536.38
533.153	543.38
533.367	540.38
533.582	539.38
533.796	562.38
534.011	545.38
534.225	550.38
534.44	521.38
534.654	537.38
534.868	525.38
535.083	517.38
535.297	531.38
535.511	531.38
535.726	501.38
535.94	517.38
536.154	513.38
536.369	510.38
536.583	513.38
536.797	518.38
537.011	515.38
537.225	508.38
537.44	504.38
537.654	513.38
537.868	500.38
538.082	497.38
538.296	520.38
538.51	501.38
538.724	517.38
538.938	520.38
539.153	484.38
539.367	500.38
539.581	517.38
539.795	487.38
540.009	511.38
540.222	486.38
540.436	497.38
540.65	500.38
540.864	493.38
541.078	498.38
541.292	529.38
541.506	513.38
541.72	512.38
541.934	524.38
542.147	523.38
542.361	529.38
542.575	511.38
542.789	507.38
543.002	480.38
543.216	511.38
543.43	498.38
543.644	503.38
543.857	512.38
544.071	502.38
544.285	513.38
544.498	499.38
544.712	521.38
544.925	519.38
545.139	517.38
545.352	532.38
545.566	518.38
545.779	512.38
545.993	521.38
546.206	516.38
546.42	511.38
546.633	524.38
546.847	523.38
547.06	522.38
547.274	536.38
547.487	506.38
547.7	518.38
547.914	532.38
548.127	529.38
548.34	547.38
548.554	523.38
548.767	522.38
548.98	532.38
549.193	505.38
549.407	514.38
549.62	545.38
549.833	535.38
550.046	534.38
550.259	530.38
550.473	519.38
550.686	537.38
550.899	514.38
551.112	492.38
551.325	500.38
551.538	513.38
551.751	499.38
551.964	492.38
552.177	517.38
552.39	501.38
552.603	520.38
552.816	553.38
553.029	537.38
553.242	565.38
553.455	543.38
553.667	570.38
553.88	556.38
554.093	536.38
554.306	520.38
554.519	524.38
554.732	523.38
554.944	507.38
555.157	507.38
555.37	500.38
555.583	483.38
555.795	481.38
556.008	471.38
556.221	457.38
556.433	461.38
556.646	446.38
556.859	453.38
557.071	439.38
557.284	465.38
557.496	448.38
557.709	441.38
557.921	453.38
558.134	444.38
558.346	447.38
558.559	450.38
558.771	438.38
558.984	447.38
559.196	441.38
559.409	433.38
559.621	430.38
559.833	423.38
560.046	441.38
560.258	441.38
560.47	428.38
560.683	412.38
560.895	416.38
561.107	443.38
561.32	424.38
561.532	421.38
561.744	439.38
561.956	433.38
562.168	436.38
562.381	441.38
562.593	437.38
562.805	422.38
563.017	433.38
563.229	423.38
563.441	440.38
563.653	437.38
563.865	433.38
564.077	419.38
564.289	429.38
564.501	458.38
564.713	443.38
564.925	452.38
565.137	451.38
565.349	460.38
565.561	487.38
565.773	497.38
565.985	505.38
566.197	531.38
566.408	555.38
566.62	578.38
566.832	607.38
567.044	645.38
567.255	639.38
567.467	645.38
567.679	710.38
567.891	718.38
568.102	719.38
568.314	689.38
568.526	599.38
568.737	578.38
568.949	531.38
569.161	501.38
569.372	491.38
569.584	473.38
569.795	443.38
570.007	452.38
570.218	420.38
570.43	427.38
570.641	443.38
570.853	428.38
571.064	433.38
571.276	439.38
571.487	415.38
571.698	396.38
571.91	396.38
572.121	390.38
572.333	371.38
572.544	367.38
572.755	384.38
572.966	365.38
573.178	365.38
573.389	387.38
573.6	345.38
573.811	344.38
574.023	361.38
574.234	370.38
574.445	341.38
574.656	376.38
574.867	347.38
575.078	346.38
575.289	345.38
575.501	342.38
575.712	338.38
575.923	335.38
576.134	333.38
576.345	352.38
576.556	340.38
576.767	345.38
576.978	329.38
577.188	325.38
577.399	341.38
577.61	325.38
577.821	323.38
578.032	326.38
578.243	316.38
578.454	337.38
578.665	307.38
578.875	315.38
579.086	323.38
579.297	314.38
579.508	309.38
579.718	313.38
579.929	330.38
580.14	324.38
580.35	304.38
580.561	303.38
580.772	322.38
580.982	319.38
581.193	316.38
581.403	304.38
581.614	323.38
581.825	302.38
582.035	285.38
582.246	305.38
582.456	300.38
582.667	277.38
582.877	313.38
583.087	298.38
583.298	281.38
583.508	303.38
583.719	280.38
583.929	305.38
584.139	300.38
584.35	289.38
584.56	284.38
584.77	293.38
584.981	289.38
585.191	303.38
585.401	305.38
585.611	293.38
585.821	296.38
586.032	274.38
586.242	295.38
586.452	287.38
586.662	265.38
586.872	291.38
587.082	280.38
587.292	292.38
587.502	282.38
587.713	296.38
587.923	309.38
588.133	288.38
588.343	280.38
588.553	288.38
588.762	303.38
588.972	290.38
589.182	275.38
589.392	281.38
589.602	287.38
589.812	294.38
590.022	281.38
590.232	285.38
590.441	289.38
590.651	297.38
590.861	287.38
591.071	278.38
591.281	288.38
591.49	315.38
591.7	294.38
591.91	296.38
592.119	315.38
592.329	303.38
592.539	329.38
592.748	308.38
592.958	339.38
593.167	341.38
593.377	340.38
593.587	341.38
593.796	346.38
594.006	340.38
594.215	349.38
594.424	344.38
594.634	348.38
594.843	335.38
595.053	325.38
595.262	315.38
595.472	312.38
595.681	301.38
595.89	273.38
596.1	288.38
596.309	265.38
596.518	283.38
596.727	285.38
596.937	269.38
597.146	277.38
597.355	267.38
597.564	268.38
597.774	270.38
597.983	267.38
598.192	273.38
598.401	260.38
598.61	228.38
598.819	264.38
599.028	243.38
599.237	255.38
599.446	238.38
599.655	246.38
599.864	243.38
600.073	260.38
600.282	248.38
600.491	247.38
600.7	265.38
600.909	232.38
601.118	229.38
601.327	247.38
601.536	241.38
601.745	223.38
601.953	225.38
602.162	247.38
602.371	250.38
602.58	237.38
602.789	254.38
602.997	230.38
603.206	251.38
603.415	244.38
603.623	244.38
603.832	248.38
604.041	252.38
604.249	241.38
604.458	240.38
604.666	228.38
604.875	208.38
605.084	217.38
605.292	241.38
605.501	246.38
605.709	239.38
605.918	233.38
606.126	224.38
606.334	235.38
606.543	232.38
606.751	226.38
606.96	224.38
607.168	220.38
607.376	224.38
607.585	219.38
607.793	217.38
608.001	231.38
608.21	223.38
608.418	227.38
608.626	238.38
608.834	238.38
609.043	240.38
609.251	223.38
609.459	219.38
609.667	224.38
609.875	228.38
610.083	223.38
610.291	235.38
610.499	229.38
610.707	204.38
610.916	217.38
611.124	208.38
611.332	219.38
611.54	230.38
611.748	210.38
611.955	230.38
612.163	232.38
612.371	225.38
612.579	211.38
612.787	229.38
612.995	231.38
613.203	233.38
613.411	216.38
613.618	205.38
613.826	221.38
614.034	201.38
614.242	218.38
614.449	200.38
614.657	212.38
614.865	209.38
615.072	211.38
615.28	218.38
615.488	224.38
615.695	223.38
615.903	201.38
616.111	219.38
616.318	227.38
616.526	215.38
616.733	224.38
616.941	217.38
617.148	221.38
617.356	208.38
617.563	225.38
617.771	232.38
617.978	210.38
618.185	219.38
618.393	217.38
618.6	222.38
618.807	200.38
619.015	223.38
619.222	214.38
619.429	207.38
619.637	203.38
619.844	209.38
620.051	186.38
620.258	203.38
620.466	202.38
620.673	208.38
620.88	205.38
621.087	201.38
621.294	175.38
621.501	199.38
621.708	198.38
621.915	189.38
622.122	190.38
622.329	202.38
622.536	202.38
622.743	210.38
622.95	204.38
623.157	203.38
623.364	210.38
623.571	196.38
623.778	195.38
623.985	204.38
624.192	203.38
624.399	192.38
624.606	203.38
624.812	207.38
625.019	201.38
625.226	175.38
625.433	193.38
625.639	201.38
625.846	181.38
626.053	190.38
626.259	197.38
626.466	194.38
626.673	179.38
626.879	194.38
627.086	193.38
627.293	189.38
627.499	189.38
627.706	195.38
627.912	194.38
628.119	178.38
628.325	186.38
628.532	185.38
628.738	189.38
628.945	187.38
629.151	185.38
629.357	199.38
629.564	189.38
629.77	188.38
629.976	189.38
630.183	185.38
630.389	161.38
630.595	163.38
630.802	173.38
631.008	164.38
631.214	185.38
631.42	170.38
631.627	167.38
631.833	181.38
632.039	193.38
632.245	185.38
632.451	175.38
632.657	180.38
632.863	169.38
633.069	173.38
633.275	172.38
633.481	173.38
633.688	188.38
633.893	173.38
634.099	174.38
634.305	155.38
634.511	157.38
634.717	164.38
634.923	171.38
635.129	167.38
635.335	156.38
635.541	169.38
635.747	155.38
635.952	150.38
636.158	153.38
636.364	159.38
636.57	167.38
636.775	171.38
636.981	161.38
637.187	179.38
637.392	160.38
637.598	171.38
637.804	149.38
638.009	161.38
638.215	168.38
638.421	166.38
638.626	160.38
638.832	173.38
639.037	172.38
639.243	138.38
639.448	169.38
639.654	171.38
639.859	153.38
640.065	156.38
640.27	159.38
640.475	167.38
640.681	155.38
640.886	164.38
641.091	158.38
641.297	159.38
641.502	153.38
641.707	152.38
641.913	166.38
642.118	153.38
642.323	141.38
642.528	158.38
642.733	141.38
642.939	135.38
643.144	153.38
643.349	159.38
643.554	151.38
643.759	157.38
643.964	154.38
644.169	159.38
644.374	169.38
644.579	152.38
644.784	152.38
644.989	154.38
645.194	139.38
645.399	163.38
645.604	151.38
645.809	164.38
646.014	153.38
646.219	149.38
646.423	148.38
646.628	147.38
646.833	164.38
647.038	152.38
647.243	167.38
647.447	145.38
647.652	167.38
647.857	163.38
648.062	150.38
648.266	163.38
648.471	147.38
648.676	159.38
648.88	162.38
649.085	141.38
649.289	147.38
649.494	169.38
649.698	165.38
649.903	146.38
650.107	162.38
650.312	129.38
650.516	151.38
650.721	139.38
650.925	139.38
651.13	153.38
651.334	137.38
651.539	151.38
651.743	137.38
651.947	139.38
652.152	131.38
652.356	132.38
652.56	148.38
652.764	112.38
652.969	125.38
653.173	148.38
653.377	123.38
653.581	130.38
653.785	157.38
653.99	140.38
654.194	136.38
654.398	125.38
654.602	126.38
654.806	130.38
655.01	123.38
655.214	121.38
655.418	138.38
655.622	115.38
655.826	124.38
656.03	120.38
656.234	132.38
656.438	121.38
656.642	111.38
656.846	112.38
657.049	127.38
657.253	127.38
657.457	120.38
657.661	106.38
657.865	116.38
658.068	99.38
658.272	103.38
658.476	110.38
658.68	112.38
658.883	101.38
659.087	113.38
659.291	107.38
659.494	113.38
659.698	83.38
659.901	85.38
660.105	92.38
660.309	81.38
660.512	88.38
660.716	92.38
660.919	99.38
661.123	101.38
661.326	89.38
661.53	89.38
661.733	83.38
661.936	82.38
662.14	91.38
662.343	76.38
662.546	75.38
662.75	77.38
662.953	86.38
663.156	83.38
663.36	87.38
663.563	79.38
663.766	78.38
663.969	89.38
664.173	88.38
664.376	77.38
664.579	83.38
664.782	76.38
664.985	89.38
665.188	86.38
665.391	74.38
665.594	73.38
665.797	74.38
666	89.38
666.203	78.38
666.406	84.38
666.609	82.38
666.812	84.38
667.015	74.38
667.218	89.38
667.421	81.38
667.624	75.38
667.827	67.38
668.03	67.38
668.232	76.38
668.435	78.38
668.638	72.38
668.841	90.38
669.043	69.38
669.246	92.38
669.449	91.38
669.651	78.38
669.854	83.38
670.057	95.38
670.259	88.38
670.462	71.38
670.665	62.38
670.867	74.38
671.07	82.38
671.272	84.38
671.475	73.38
671.677	66.38
671.88	86.38
672.082	61.38
672.284	74.38
672.487	80.38
672.689	77.38
672.892	80.38
