Data from Ni(NO3)2@0.5M.TitratingCurve.Agarose3%dH2O.NegLispCup.LampEnergy10.LIBS07252019_HRD10591_18-00-02-565.txt Node
Date: Thu Jul 25 18:00:02 EDT 2019
User: cochatt
Spectrometer: HR+D1059
Trigger mode: 1
Integration Time (sec): 1.000000E-1
Scans to average: 1
Electric dark correction enabled: true
Nonlinearity correction enabled: false
Boxcar width: 0
XAxis mode: Wavelengths
Number of Pixels in Spectrum: 2048
>>>>>Begin Spectral Data<<<<<
223.165	-15.88
223.4	-15.88
223.635	-15.88
223.869	-33.88
224.104	-24.88
224.338	-16.88
224.573	-27.88
224.808	-2.88
225.042	-0.88
225.277	-4.88
225.511	5.12
225.746	-0.88
225.98	22.12
226.215	1.12
226.449	18.12
226.683	39.12
226.918	17.12
227.152	26.12
227.387	27.12
227.621	36.12
227.856	48.12
228.09	48.12
228.324	47.12
228.559	59.12
228.793	71.12
229.027	109.12
229.262	129.12
229.496	128.12
229.73	129.12
229.964	167.12
230.199	205.12
230.433	210.12
230.667	189.12
230.901	174.12
231.136	167.12
231.37	168.12
231.604	184.12
231.838	187.12
232.072	209.12
232.306	200.12
232.541	179.12
232.775	171.12
233.009	164.12
233.243	190.12
233.477	183.12
233.711	160.12
233.945	176.12
234.179	172.12
234.413	187.12
234.647	198.12
234.881	199.12
235.115	200.12
235.349	190.12
235.583	181.12
235.817	182.12
236.051	187.12
236.285	198.12
236.519	167.12
236.753	197.12
236.987	176.12
237.221	187.12
237.455	178.12
237.689	195.12
237.922	196.12
238.156	182.12
238.39	206.12
238.624	200.12
238.858	211.12
239.091	224.12
239.325	231.12
239.559	211.12
239.793	223.12
240.027	222.12
240.26	197.12
240.494	211.12
240.728	227.12
240.961	212.12
241.195	203.12
241.429	206.12
241.662	232.12
241.896	252.12
242.13	234.12
242.363	232.12
242.597	216.12
242.83	229.12
243.064	239.12
243.298	248.12
243.531	245.12
243.765	208.12
243.998	253.12
244.232	252.12
244.465	258.12
244.699	251.12
244.932	263.12
245.166	241.12
245.399	268.12
245.633	263.12
245.866	269.12
246.099	248.12
246.333	243.12
246.566	269.12
246.8	262.12
247.033	275.12
247.266	274.12
247.5	273.12
247.733	272.12
247.966	277.12
248.2	294.12
248.433	274.12
248.666	284.12
248.899	278.12
249.133	273.12
249.366	271.12
249.599	293.12
249.832	281.12
250.066	293.12
250.299	296.12
250.532	302.12
250.765	295.12
250.998	308.12
251.231	318.12
251.465	331.12
251.698	335.12
251.931	333.12
252.164	318.12
252.397	331.12
252.63	317.12
252.863	330.12
253.096	316.12
253.329	335.12
253.562	316.12
253.795	315.12
254.028	341.12
254.261	324.12
254.494	341.12
254.727	327.12
254.96	350.12
255.193	344.12
255.426	339.12
255.659	355.12
255.892	339.12
256.124	349.12
256.357	354.12
256.59	347.12
256.823	351.12
257.056	351.12
257.289	372.12
257.521	365.12
257.754	375.12
257.987	376.12
258.22	356.12
258.452	379.12
258.685	373.12
258.918	378.12
259.151	382.12
259.383	383.12
259.616	364.12
259.849	379.12
260.081	395.12
260.314	380.12
260.547	402.12
260.779	387.12
261.012	384.12
261.244	407.12
261.477	399.12
261.71	396.12
261.942	391.12
262.175	415.12
262.407	413.12
262.64	435.12
262.872	415.12
263.105	423.12
263.337	400.12
263.57	427.12
263.802	441.12
264.035	409.12
264.267	422.12
264.499	427.12
264.732	430.12
264.964	425.12
265.197	444.12
265.429	446.12
265.661	441.12
265.894	453.12
266.126	442.12
266.358	432.12
266.591	452.12
266.823	430.12
267.055	434.12
267.287	437.12
267.52	447.12
267.752	449.12
267.984	446.12
268.216	457.12
268.448	480.12
268.681	476.12
268.913	436.12
269.145	450.12
269.377	471.12
269.609	463.12
269.841	473.12
270.073	491.12
270.306	475.12
270.538	460.12
270.77	469.12
271.002	493.12
271.234	465.12
271.466	490.12
271.698	485.12
271.93	483.12
272.162	480.12
272.394	489.12
272.626	494.12
272.858	499.12
273.09	501.12
273.322	505.12
273.553	491.12
273.785	491.12
274.017	508.12
274.249	538.12
274.481	509.12
274.713	515.12
274.945	505.12
275.176	495.12
275.408	496.12
275.64	515.12
275.872	515.12
276.104	545.12
276.335	511.12
276.567	523.12
276.799	533.12
277.031	527.12
277.262	517.12
277.494	553.12
277.726	549.12
277.957	530.12
278.189	552.12
278.421	530.12
278.652	534.12
278.884	549.12
279.115	570.12
279.347	537.12
279.579	567.12
279.81	554.12
280.042	565.12
280.273	552.12
280.505	585.12
280.736	567.12
280.968	570.12
281.199	563.12
281.431	556.12
281.662	582.12
281.894	562.12
282.125	580.12
282.356	578.12
282.588	587.12
282.819	604.12
283.051	594.12
283.282	588.12
283.513	591.12
283.745	597.12
283.976	597.12
284.207	608.12
284.439	619.12
284.67	592.12
284.901	591.12
285.132	613.12
285.364	599.12
285.595	607.12
285.826	608.12
286.057	604.12
286.288	599.12
286.52	635.12
286.751	612.12
286.982	627.12
287.213	605.12
287.444	626.12
287.675	621.12
287.906	622.12
288.138	638.12
288.369	623.12
288.6	629.12
288.831	635.12
289.062	665.12
289.293	667.12
289.524	636.12
289.755	629.12
289.986	632.12
290.217	655.12
290.448	636.12
290.679	654.12
290.91	616.12
291.141	644.12
291.371	643.12
291.602	639.12
291.833	639.12
292.064	637.12
292.295	648.12
292.526	641.12
292.757	652.12
292.987	650.12
293.218	623.12
293.449	644.12
293.68	640.12
293.91	650.12
294.141	640.12
294.372	672.12
294.603	660.12
294.833	676.12
295.064	665.12
295.295	667.12
295.525	635.12
295.756	655.12
295.987	663.12
296.217	657.12
296.448	676.12
296.679	684.12
296.909	641.12
297.14	670.12
297.37	665.12
297.601	684.12
297.831	682.12
298.062	713.12
298.292	704.12
298.523	714.12
298.753	686.12
298.984	688.12
299.214	710.12
299.445	688.12
299.675	683.12
299.905	708.12
300.136	717.12
300.366	750.12
300.597	741.12
300.827	727.12
301.057	717.12
301.288	743.12
301.518	732.12
301.748	717.12
301.979	717.12
302.209	736.12
302.439	735.12
302.669	724.12
302.9	768.12
303.13	734.12
303.36	753.12
303.59	729.12
303.82	756.12
304.051	755.12
304.281	758.12
304.511	752.12
304.741	752.12
304.971	733.12
305.201	760.12
305.431	760.12
305.661	796.12
305.891	754.12
306.121	751.12
306.352	769.12
306.582	744.12
306.812	738.12
307.042	736.12
307.272	739.12
307.502	741.12
307.731	762.12
307.961	759.12
308.191	724.12
308.421	730.12
308.651	740.12
308.881	757.12
309.111	731.12
309.341	749.12
309.571	750.12
309.8	771.12
310.03	766.12
310.26	788.12
310.49	808.12
310.72	772.12
310.949	724.12
311.179	783.12
311.409	771.12
311.639	765.12
311.868	779.12
312.098	767.12
312.328	793.12
312.557	752.12
312.787	783.12
313.017	773.12
313.246	792.12
313.476	784.12
313.706	817.12
313.935	779.12
314.165	821.12
314.394	821.12
314.624	826.12
314.853	819.12
315.083	799.12
315.312	815.12
315.542	825.12
315.771	802.12
316.001	811.12
316.23	815.12
316.46	781.12
316.689	802.12
316.919	814.12
317.148	822.12
317.377	832.12
317.607	816.12
317.836	806.12
318.065	811.12
318.295	828.12
318.524	820.12
318.753	831.12
318.983	845.12
319.212	827.12
319.441	791.12
319.67	813.12
319.9	838.12
320.129	816.12
320.358	804.12
320.587	829.12
320.816	844.12
321.046	862.12
321.275	830.12
321.504	813.12
321.733	857.12
321.962	846.12
322.191	838.12
322.42	824.12
322.649	853.12
322.878	853.12
323.108	836.12
323.337	859.12
323.566	871.12
323.795	894.12
324.024	854.12
324.253	877.12
324.482	863.12
324.71	853.12
324.939	857.12
325.168	859.12
325.397	886.12
325.626	899.12
325.855	853.12
326.084	924.12
326.313	934.12
326.542	910.12
326.77	907.12
326.999	917.12
327.228	903.12
327.457	881.12
327.686	916.12
327.914	911.12
328.143	912.12
328.372	890.12
328.6	904.12
328.829	907.12
329.058	908.12
329.287	925.12
329.515	899.12
329.744	917.12
329.972	940.12
330.201	937.12
330.43	968.12
330.658	930.12
330.887	936.12
331.115	959.12
331.344	977.12
331.572	944.12
331.801	991.12
332.03	984.12
332.258	991.12
332.486	995.12
332.715	1032.12
332.943	1011.12
333.172	1024.12
333.4	1049.12
333.629	1085.12
333.857	1084.12
334.085	1107.12
334.314	1108.12
334.542	1098.12
334.771	1121.12
334.999	1103.12
335.227	1093.12
335.455	1100.12
335.684	1091.12
335.912	1093.12
336.14	1080.12
336.369	1092.12
336.597	1088.12
336.825	1086.12
337.053	1077.12
337.281	1111.12
337.51	1075.12
337.738	1054.12
337.966	1045.12
338.194	1072.12
338.422	1040.12
338.65	1023.12
338.878	1024.12
339.106	1000.12
339.334	1037.12
339.562	1019.12
339.79	997.12
340.018	1001.12
340.246	982.12
340.474	1015.12
340.702	968.12
340.93	1004.12
341.158	1003.12
341.386	1003.12
341.614	1038.12
341.842	1021.12
342.07	1003.12
342.298	1006.12
342.526	993.12
342.754	969.12
342.981	964.12
343.209	991.12
343.437	1027.12
343.665	1076.12
343.893	1095.12
344.12	1087.12
344.348	1079.12
344.576	1085.12
344.804	1079.12
345.031	1030.12
345.259	1031.12
345.487	1019.12
345.714	1020.12
345.942	1025.12
346.17	1062.12
346.397	1030.12
346.625	975.12
346.853	958.12
347.08	950.12
347.308	976.12
347.535	956.12
347.763	976.12
347.99	944.12
348.218	958.12
348.445	938.12
348.673	939.12
348.9	934.12
349.128	953.12
349.355	963.12
349.583	985.12
349.81	924.12
350.037	949.12
350.265	952.12
350.492	959.12
350.72	925.12
350.947	961.12
351.174	964.12
351.402	987.12
351.629	980.12
351.856	939.12
352.083	958.12
352.311	959.12
352.538	981.12
352.765	999.12
352.992	928.12
353.22	900.12
353.447	897.12
353.674	910.12
353.901	909.12
354.128	907.12
354.355	896.12
354.583	904.12
354.81	922.12
355.037	954.12
355.264	931.12
355.491	910.12
355.718	933.12
355.945	935.12
356.172	921.12
356.399	939.12
356.626	957.12
356.853	976.12
357.08	923.12
357.307	910.12
357.534	905.12
357.761	913.12
357.988	913.12
358.215	913.12
358.441	903.12
358.668	911.12
358.895	899.12
359.122	900.12
359.349	935.12
359.576	943.12
359.802	940.12
360.029	928.12
360.256	939.12
360.483	933.12
360.709	927.12
360.936	933.12
361.163	957.12
361.39	917.12
361.616	954.12
361.843	933.12
362.07	990.12
362.296	968.12
362.523	932.12
362.749	927.12
362.976	927.12
363.203	947.12
363.429	925.12
363.656	919.12
363.882	943.12
364.109	938.12
364.335	931.12
364.562	939.12
364.788	922.12
365.015	920.12
365.241	927.12
365.468	895.12
365.694	932.12
365.92	935.12
366.147	947.12
366.373	972.12
366.599	913.12
366.826	933.12
367.052	936.12
367.278	953.12
367.505	970.12
367.731	922.12
367.957	939.12
368.184	960.12
368.41	953.12
368.636	980.12
368.862	928.12
369.089	940.12
369.315	956.12
369.541	951.12
369.767	969.12
369.993	986.12
370.219	964.12
370.445	968.12
370.672	975.12
370.898	980.12
371.124	980.12
371.35	1007.12
371.576	976.12
371.802	997.12
372.028	1002.12
372.254	974.12
372.48	978.12
372.706	995.12
372.932	989.12
373.158	987.12
373.384	1017.12
373.61	1001.12
373.835	1006.12
374.061	1015.12
374.287	1011.12
374.513	1020.12
374.739	1039.12
374.965	1045.12
375.191	1047.12
375.416	1060.12
375.642	1037.12
375.868	1020.12
376.094	1038.12
376.319	1012.12
376.545	999.12
376.771	1001.12
376.997	982.12
377.222	990.12
377.448	1011.12
377.674	991.12
377.899	1017.12
378.125	979.12
378.35	1004.12
378.576	989.12
378.802	983.12
379.027	995.12
379.253	973.12
379.478	959.12
379.704	964.12
379.929	981.12
380.155	978.12
380.38	982.12
380.606	994.12
380.831	1006.12
381.057	1000.12
381.282	995.12
381.507	1005.12
381.733	1006.12
381.958	1005.12
382.184	1015.12
382.409	1015.12
382.634	1002.12
382.86	1019.12
383.085	1031.12
383.31	1032.12
383.535	1059.12
383.761	1061.12
383.986	1069.12
384.211	1061.12
384.436	1094.12
384.662	1047.12
384.887	1106.12
385.112	1110.12
385.337	1133.12
385.562	1121.12
385.787	1150.12
386.013	1147.12
386.238	1129.12
386.463	1126.12
386.688	1135.12
386.913	1117.12
387.138	1118.12
387.363	1154.12
387.588	1155.12
387.813	1136.12
388.038	1131.12
388.263	1142.12
388.488	1136.12
388.713	1169.12
388.938	1150.12
389.163	1135.12
389.387	1152.12
389.612	1163.12
389.837	1167.12
390.062	1140.12
390.287	1140.12
390.512	1163.12
390.736	1163.12
390.961	1173.12
391.186	1159.12
391.411	1210.12
391.636	1231.12
391.86	1210.12
392.085	1222.12
392.31	1239.12
392.534	1232.12
392.759	1201.12
392.984	1205.12
393.208	1224.12
393.433	1208.12
393.658	1219.12
393.882	1216.12
394.107	1185.12
394.331	1228.12
394.556	1187.12
394.78	1163.12
395.005	1232.12
395.229	1213.12
395.454	1235.12
395.678	1217.12
395.903	1257.12
396.127	1247.12
396.352	1237.12
396.576	1235.12
396.801	1241.12
397.025	1265.12
397.249	1301.12
397.474	1303.12
397.698	1302.12
397.922	1302.12
398.147	1284.12
398.371	1344.12
398.595	1375.12
398.82	1411.12
399.044	1433.12
399.268	1504.12
399.492	1634.12
399.717	1698.12
399.941	1688.12
400.165	1673.12
400.389	1584.12
400.613	1515.12
400.837	1442.12
401.062	1429.12
401.286	1412.12
401.51	1429.12
401.734	1408.12
401.958	1388.12
402.182	1373.12
402.406	1391.12
402.63	1417.12
402.854	1403.12
403.078	1365.12
403.302	1407.12
403.526	1411.12
403.75	1452.12
403.974	1443.12
404.198	1436.12
404.422	1428.12
404.645	1411.12
404.869	1457.12
405.093	1449.12
405.317	1468.12
405.541	1453.12
405.765	1437.12
405.988	1475.12
406.212	1477.12
406.436	1462.12
406.66	1505.12
406.883	1474.12
407.107	1587.12
407.331	1587.12
407.555	1625.12
407.778	1643.12
408.002	1596.12
408.226	1609.12
408.449	1607.12
408.673	1571.12
408.896	1553.12
409.12	1533.12
409.344	1507.12
409.567	1494.12
409.791	1515.12
410.014	1499.12
410.238	1470.12
410.461	1444.12
410.685	1449.12
410.908	1444.12
411.132	1454.12
411.355	1408.12
411.578	1421.12
411.802	1403.12
412.025	1445.12
412.249	1446.12
412.472	1437.12
412.695	1425.12
412.919	1419.12
413.142	1417.12
413.365	1417.12
413.589	1387.12
413.812	1370.12
414.035	1387.12
414.258	1394.12
414.482	1397.12
414.705	1370.12
414.928	1402.12
415.151	1383.12
415.374	1387.12
415.597	1370.12
415.821	1364.12
416.044	1320.12
416.267	1349.12
416.49	1315.12
416.713	1310.12
416.936	1342.12
417.159	1334.12
417.382	1320.12
417.605	1349.12
417.828	1339.12
418.051	1319.12
418.274	1373.12
418.497	1326.12
418.72	1367.12
418.943	1351.12
419.166	1419.12
419.389	1489.12
419.611	1486.12
419.834	1422.12
420.057	1368.12
420.28	1329.12
420.503	1342.12
420.726	1286.12
420.948	1321.12
421.171	1337.12
421.394	1332.12
421.617	1308.12
421.839	1347.12
422.062	1339.12
422.285	1322.12
422.507	1323.12
422.73	1335.12
422.953	1370.12
423.175	1343.12
423.398	1324.12
423.621	1328.12
423.843	1327.12
424.066	1356.12
424.288	1326.12
424.511	1315.12
424.733	1327.12
424.956	1305.12
425.178	1304.12
425.401	1325.12
425.623	1336.12
425.846	1300.12
426.068	1331.12
426.291	1315.12
426.513	1298.12
426.735	1316.12
426.958	1302.12
427.18	1261.12
427.402	1285.12
427.625	1277.12
427.847	1246.12
428.069	1265.12
428.292	1293.12
428.514	1236.12
428.736	1271.12
428.958	1271.12
429.181	1200.12
429.403	1196.12
429.625	1239.12
429.847	1228.12
430.069	1221.12
430.292	1209.12
430.514	1209.12
430.736	1235.12
430.958	1247.12
431.18	1224.12
431.402	1257.12
431.624	1224.12
431.846	1246.12
432.068	1253.12
432.29	1262.12
432.512	1248.12
432.734	1260.12
432.956	1262.12
433.178	1296.12
433.4	1321.12
433.622	1304.12
433.844	1296.12
434.066	1301.12
434.287	1289.12
434.509	1297.12
434.731	1335.12
434.953	1315.12
435.175	1368.12
435.397	1363.12
435.618	1339.12
435.84	1284.12
436.062	1273.12
436.284	1269.12
436.505	1285.12
436.727	1256.12
436.949	1255.12
437.17	1224.12
437.392	1251.12
437.614	1221.12
437.835	1223.12
438.057	1228.12
438.278	1159.12
438.5	1191.12
438.721	1195.12
438.943	1216.12
439.165	1207.12
439.386	1231.12
439.608	1230.12
439.829	1226.12
440.05	1223.12
440.272	1232.12
440.493	1243.12
440.715	1276.12
440.936	1244.12
441.158	1301.12
441.379	1277.12
441.6	1335.12
441.822	1363.12
442.043	1363.12
442.264	1317.12
442.486	1321.12
442.707	1311.12
442.928	1270.12
443.149	1325.12
443.371	1321.12
443.592	1383.12
443.813	1404.12
444.034	1373.12
444.255	1343.12
444.476	1388.12
444.698	1432.12
444.919	1476.12
445.14	1544.12
445.361	1453.12
445.582	1370.12
445.803	1331.12
446.024	1294.12
446.245	1312.12
446.466	1268.12
446.687	1246.12
446.908	1240.12
447.129	1216.12
447.35	1182.12
447.571	1179.12
447.792	1193.12
448.013	1210.12
448.234	1159.12
448.455	1161.12
448.675	1178.12
448.896	1161.12
449.117	1141.12
449.338	1123.12
449.559	1141.12
449.779	1129.12
450	1112.12
450.221	1116.12
450.442	1102.12
450.662	1103.12
450.883	1154.12
451.104	1160.12
451.324	1130.12
451.545	1115.12
451.766	1126.12
451.986	1104.12
452.207	1122.12
452.428	1081.12
452.648	1121.12
452.869	1104.12
453.089	1112.12
453.31	1141.12
453.53	1104.12
453.751	1091.12
453.971	1096.12
454.192	1096.12
454.412	1062.12
454.633	1092.12
454.853	1070.12
455.073	1072.12
455.294	1080.12
455.514	1102.12
455.734	1104.12
455.955	1087.12
456.175	1111.12
456.395	1064.12
456.616	1072.12
456.836	1081.12
457.056	1072.12
457.276	1085.12
457.497	1080.12
457.717	1118.12
457.937	1110.12
458.157	1112.12
458.377	1109.12
458.598	1124.12
458.818	1173.12
459.038	1144.12
459.258	1198.12
459.478	1262.12
459.698	1357.12
459.918	1332.12
460.138	1329.12
460.358	1349.12
460.578	1381.12
460.798	1416.12
461.018	1427.12
461.238	1404.12
461.458	1361.12
461.678	1370.12
461.898	1372.12
462.118	1371.12
462.338	1449.12
462.558	1481.12
462.777	1528.12
462.997	1589.12
463.217	1599.12
463.437	1689.12
463.657	1661.12
463.876	1516.12
464.096	1527.12
464.316	1488.12
464.536	1482.12
464.755	1471.12
464.975	1459.12
465.195	1404.12
465.414	1350.12
465.634	1291.12
465.854	1296.12
466.073	1254.12
466.293	1222.12
466.512	1215.12
466.732	1226.12
466.951	1215.12
467.171	1225.12
467.391	1178.12
467.61	1183.12
467.829	1188.12
468.049	1185.12
468.268	1150.12
468.488	1182.12
468.707	1180.12
468.927	1200.12
469.146	1177.12
469.365	1190.12
469.585	1172.12
469.804	1191.12
470.023	1231.12
470.243	1182.12
470.462	1182.12
470.681	1208.12
470.901	1192.12
471.12	1206.12
471.339	1197.12
471.558	1177.12
471.777	1210.12
471.997	1170.12
472.216	1196.12
472.435	1175.12
472.654	1169.12
472.873	1128.12
473.092	1129.12
473.311	1180.12
473.53	1162.12
473.749	1163.12
473.968	1174.12
474.187	1147.12
474.406	1147.12
474.625	1157.12
474.844	1189.12
475.063	1215.12
475.282	1179.12
475.501	1188.12
475.72	1178.12
475.939	1210.12
476.158	1196.12
476.377	1252.12
476.596	1197.12
476.814	1222.12
477.033	1232.12
477.252	1258.12
477.471	1256.12
477.69	1299.12
477.908	1297.12
478.127	1324.12
478.346	1315.12
478.564	1365.12
478.783	1373.12
479.002	1422.12
479.22	1456.12
479.439	1417.12
479.658	1432.12
479.876	1405.12
480.095	1424.12
480.313	1449.12
480.532	1441.12
480.751	1472.12
480.969	1459.12
481.188	1387.12
481.406	1391.12
481.624	1357.12
481.843	1381.12
482.061	1356.12
482.28	1365.12
482.498	1341.12
482.717	1390.12
482.935	1398.12
483.153	1379.12
483.372	1375.12
483.59	1450.12
483.808	1411.12
484.027	1393.12
484.245	1395.12
484.463	1421.12
484.681	1429.12
484.9	1419.12
485.118	1388.12
485.336	1407.12
485.554	1432.12
485.772	1464.12
485.99	1426.12
486.209	1454.12
486.427	1388.12
486.645	1421.12
486.863	1447.12
487.081	1446.12
487.299	1389.12
487.517	1416.12
487.735	1472.12
487.953	1463.12
488.171	1459.12
488.389	1426.12
488.607	1417.12
488.825	1427.12
489.043	1405.12
489.261	1415.12
489.479	1399.12
489.696	1441.12
489.914	1418.12
490.132	1426.12
490.35	1431.12
490.568	1420.12
490.786	1413.12
491.003	1391.12
491.221	1407.12
491.439	1443.12
491.657	1459.12
491.874	1438.12
492.092	1447.12
492.31	1443.12
492.527	1413.12
492.745	1444.12
492.963	1444.12
493.18	1453.12
493.398	1442.12
493.615	1452.12
493.833	1436.12
494.05	1492.12
494.268	1499.12
494.485	1477.12
494.703	1470.12
494.92	1490.12
495.138	1491.12
495.355	1477.12
495.573	1506.12
495.79	1515.12
496.008	1528.12
496.225	1529.12
496.442	1510.12
496.66	1537.12
496.877	1561.12
497.094	1605.12
497.312	1651.12
497.529	1654.12
497.746	1656.12
497.963	1715.12
498.181	1752.12
498.398	1831.12
498.615	1862.12
498.832	1965.12
499.049	2060.12
499.267	2151.12
499.484	2248.12
499.701	2390.12
499.918	2511.12
500.135	2715.12
500.352	2830.12
500.569	2896.12
500.786	2921.12
501.003	2811.12
501.22	2658.12
501.437	2575.12
501.654	2334.12
501.871	2214.12
502.088	2089.12
502.305	2064.12
502.522	1959.12
502.739	1850.12
502.956	1844.12
503.172	1779.12
503.389	1731.12
503.606	1689.12
503.823	1658.12
504.04	1645.12
504.256	1632.12
504.473	1593.12
504.69	1611.12
504.907	1557.12
505.123	1502.12
505.34	1483.12
505.557	1461.12
505.773	1443.12
505.99	1395.12
506.207	1342.12
506.423	1331.12
506.64	1313.12
506.856	1353.12
507.073	1332.12
507.289	1294.12
507.506	1293.12
507.722	1268.12
507.939	1283.12
508.155	1261.12
508.372	1245.12
508.588	1272.12
508.805	1263.12
509.021	1232.12
509.238	1219.12
509.454	1233.12
509.67	1185.12
509.887	1215.12
510.103	1162.12
510.319	1191.12
510.536	1185.12
510.752	1174.12
510.968	1215.12
511.184	1151.12
511.401	1139.12
511.617	1162.12
511.833	1165.12
512.049	1161.12
512.265	1165.12
512.481	1184.12
512.698	1129.12
512.914	1151.12
513.13	1193.12
513.346	1166.12
513.562	1160.12
513.778	1173.12
513.994	1176.12
514.21	1192.12
514.426	1194.12
514.642	1141.12
514.858	1168.12
515.074	1203.12
515.29	1221.12
515.506	1219.12
515.721	1220.12
515.937	1224.12
516.153	1253.12
516.369	1233.12
516.585	1295.12
516.801	1269.12
517.016	1343.12
517.232	1336.12
517.448	1368.12
517.664	1374.12
517.879	1414.12
518.095	1355.12
518.311	1347.12
518.527	1341.12
518.742	1299.12
518.958	1271.12
519.173	1239.12
519.389	1269.12
519.605	1221.12
519.82	1204.12
520.036	1189.12
520.251	1187.12
520.467	1156.12
520.682	1126.12
520.898	1165.12
521.113	1146.12
521.329	1112.12
521.544	1097.12
521.76	1120.12
521.975	1112.12
522.19	1065.12
522.406	1106.12
522.621	1092.12
522.836	1089.12
523.052	1056.12
523.267	1090.12
523.482	1054.12
523.698	1072.12
523.913	1034.12
524.128	1027.12
524.343	1031.12
524.559	1063.12
524.774	1035.12
524.989	1031.12
525.204	1045.12
525.419	1072.12
525.634	1039.12
525.849	1047.12
526.064	1025.12
526.28	1032.12
526.495	1017.12
526.71	1017.12
526.925	1014.12
527.14	1011.12
527.355	1047.12
527.57	1030.12
527.785	1003.12
527.999	1020.12
528.214	1032.12
528.429	999.12
528.644	1015.12
528.859	1012.12
529.074	1032.12
529.289	1028.12
529.503	1007.12
529.718	992.12
529.933	963.12
530.148	984.12
530.363	1012.12
530.577	1027.12
530.792	1019.12
531.007	1017.12
531.221	1039.12
531.436	997.12
531.651	996.12
531.865	976.12
532.08	1004.12
532.295	1002.12
532.509	970.12
532.724	983.12
532.938	987.12
533.153	974.12
533.367	999.12
533.582	989.12
533.796	985.12
534.011	955.12
534.225	981.12
534.44	970.12
534.654	963.12
534.868	963.12
535.083	967.12
535.297	974.12
535.511	944.12
535.726	945.12
535.94	945.12
536.154	940.12
536.369	938.12
536.583	926.12
536.797	936.12
537.011	929.12
537.225	947.12
537.44	958.12
537.654	940.12
537.868	920.12
538.082	906.12
538.296	921.12
538.51	919.12
538.724	919.12
538.938	919.12
539.153	914.12
539.367	919.12
539.581	927.12
539.795	868.12
540.009	901.12
540.222	909.12
540.436	880.12
540.65	895.12
540.864	891.12
541.078	875.12
541.292	901.12
541.506	935.12
541.72	926.12
541.934	896.12
542.147	929.12
542.361	922.12
542.575	878.12
542.789	909.12
543.002	891.12
543.216	900.12
543.43	895.12
543.644	908.12
543.857	889.12
544.071	869.12
544.285	896.12
544.498	890.12
544.712	893.12
544.925	891.12
545.139	885.12
545.352	899.12
545.566	870.12
545.779	916.12
545.993	885.12
546.206	918.12
546.42	900.12
546.633	909.12
546.847	888.12
547.06	881.12
547.274	901.12
547.487	933.12
547.7	928.12
547.914	914.12
548.127	901.12
548.34	912.12
548.554	914.12
548.767	919.12
548.98	909.12
549.193	901.12
549.407	910.12
549.62	942.12
549.833	907.12
550.046	916.12
550.259	926.12
550.473	900.12
550.686	895.12
550.899	878.12
551.112	897.12
551.325	896.12
551.538	872.12
551.751	887.12
551.964	880.12
552.177	888.12
552.39	888.12
552.603	911.12
552.816	927.12
553.029	928.12
553.242	919.12
553.455	905.12
553.667	918.12
553.88	923.12
554.093	885.12
554.306	876.12
554.519	871.12
554.732	892.12
554.944	853.12
555.157	845.12
555.37	842.12
555.583	845.12
555.795	835.12
556.008	827.12
556.221	792.12
556.433	811.12
556.646	793.12
556.859	797.12
557.071	781.12
557.284	785.12
557.496	780.12
557.709	776.12
557.921	777.12
558.134	790.12
558.346	793.12
558.559	773.12
558.771	764.12
558.984	749.12
559.196	750.12
559.409	757.12
559.621	775.12
559.833	756.12
560.046	746.12
560.258	741.12
560.47	757.12
560.683	761.12
560.895	758.12
561.107	745.12
561.32	763.12
561.532	747.12
561.744	751.12
561.956	756.12
562.168	748.12
562.381	755.12
562.593	747.12
562.805	728.12
563.017	789.12
563.229	773.12
563.441	759.12
563.653	759.12
563.865	769.12
564.077	772.12
564.289	774.12
564.501	790.12
564.713	793.12
564.925	805.12
565.137	795.12
565.349	816.12
565.561	844.12
565.773	858.12
565.985	866.12
566.197	921.12
566.408	931.12
566.62	950.12
566.832	992.12
567.044	1059.12
567.255	1031.12
567.467	1036.12
567.679	1061.12
567.891	1089.12
568.102	1032.12
568.314	1024.12
568.526	998.12
568.737	953.12
568.949	909.12
569.161	856.12
569.372	841.12
569.584	811.12
569.795	789.12
570.007	761.12
570.218	782.12
570.43	780.12
570.641	737.12
570.853	746.12
571.064	731.12
571.276	706.12
571.487	697.12
571.698	697.12
571.91	668.12
572.121	649.12
572.333	675.12
572.544	656.12
572.755	640.12
572.966	670.12
573.178	635.12
573.389	631.12
573.6	613.12
573.811	599.12
574.023	618.12
574.234	626.12
574.445	603.12
574.656	597.12
574.867	595.12
575.078	605.12
575.289	590.12
575.501	587.12
575.712	573.12
575.923	584.12
576.134	584.12
576.345	587.12
576.556	590.12
576.767	612.12
576.978	556.12
577.188	578.12
577.399	580.12
577.61	548.12
577.821	571.12
578.032	540.12
578.243	561.12
578.454	565.12
578.665	556.12
578.875	560.12
579.086	561.12
579.297	543.12
579.508	557.12
579.718	536.12
579.929	524.12
580.14	524.12
580.35	546.12
580.561	555.12
580.772	537.12
580.982	527.12
581.193	516.12
581.403	518.12
581.614	523.12
581.825	510.12
582.035	499.12
582.246	499.12
582.456	521.12
582.667	520.12
582.877	529.12
583.087	504.12
583.298	535.12
583.508	496.12
583.719	519.12
583.929	506.12
584.139	496.12
584.35	495.12
584.56	519.12
584.77	523.12
584.981	516.12
585.191	494.12
585.401	514.12
585.611	494.12
585.821	500.12
586.032	505.12
586.242	492.12
586.452	487.12
586.662	477.12
586.872	468.12
587.082	508.12
587.292	481.12
587.502	477.12
587.713	477.12
587.923	471.12
588.133	490.12
588.343	503.12
588.553	461.12
588.762	477.12
588.972	515.12
589.182	527.12
589.392	509.12
589.602	494.12
589.812	501.12
590.022	461.12
590.232	468.12
590.441	472.12
590.651	509.12
590.861	493.12
591.071	491.12
591.281	468.12
591.49	485.12
591.7	479.12
591.91	501.12
592.119	530.12
592.329	505.12
592.539	511.12
592.748	530.12
592.958	531.12
593.167	534.12
593.377	539.12
593.587	527.12
593.796	538.12
594.006	550.12
594.215	524.12
594.424	536.12
594.634	523.12
594.843	521.12
595.053	514.12
595.262	498.12
595.472	497.12
595.681	495.12
595.89	491.12
596.1	486.12
596.309	469.12
596.518	464.12
596.727	474.12
596.937	447.12
597.146	457.12
597.355	455.12
597.564	440.12
597.774	446.12
597.983	430.12
598.192	431.12
598.401	428.12
598.61	425.12
598.819	406.12
599.028	429.12
599.237	416.12
599.446	422.12
599.655	410.12
599.864	417.12
600.073	406.12
600.282	411.12
600.491	416.12
600.7	399.12
600.909	419.12
601.118	409.12
601.327	397.12
601.536	399.12
601.745	391.12
601.953	399.12
602.162	395.12
602.371	382.12
602.58	398.12
602.789	411.12
602.997	397.12
603.206	388.12
603.415	387.12
603.623	381.12
603.832	389.12
604.041	390.12
604.249	362.12
604.458	371.12
604.666	377.12
604.875	379.12
605.084	385.12
605.292	389.12
605.501	393.12
605.709	380.12
605.918	394.12
606.126	382.12
606.334	383.12
606.543	384.12
606.751	377.12
606.96	387.12
607.168	391.12
607.376	374.12
607.585	380.12
607.793	373.12
608.001	376.12
608.21	374.12
608.418	379.12
608.626	363.12
608.834	380.12
609.043	365.12
609.251	371.12
609.459	360.12
609.667	353.12
609.875	361.12
610.083	341.12
610.291	364.12
610.499	361.12
610.707	361.12
610.916	340.12
611.124	377.12
611.332	356.12
611.54	355.12
611.748	352.12
611.955	365.12
612.163	359.12
612.371	348.12
612.579	361.12
612.787	360.12
612.995	332.12
613.203	356.12
613.411	362.12
613.618	347.12
613.826	328.12
614.034	351.12
614.242	337.12
614.449	353.12
614.657	356.12
614.865	342.12
615.072	337.12
615.28	356.12
615.488	353.12
615.695	336.12
615.903	350.12
616.111	333.12
616.318	343.12
616.526	340.12
616.733	351.12
616.941	333.12
617.148	333.12
617.356	336.12
617.563	334.12
617.771	340.12
617.978	344.12
618.185	360.12
618.393	347.12
618.6	340.12
618.807	332.12
619.015	341.12
619.222	329.12
619.429	346.12
619.637	345.12
619.844	321.12
620.051	341.12
620.258	324.12
620.466	321.12
620.673	331.12
620.88	324.12
621.087	319.12
621.294	319.12
621.501	328.12
621.708	314.12
621.915	327.12
622.122	317.12
622.329	320.12
622.536	330.12
622.743	311.12
622.95	332.12
623.157	315.12
623.364	318.12
623.571	312.12
623.778	333.12
623.985	321.12
624.192	342.12
624.399	310.12
624.606	312.12
624.812	289.12
625.019	287.12
625.226	304.12
625.433	301.12
625.639	289.12
625.846	301.12
626.053	324.12
626.259	297.12
626.466	292.12
626.673	281.12
626.879	296.12
627.086	293.12
627.293	292.12
627.499	301.12
627.706	297.12
627.912	306.12
628.119	293.12
628.325	298.12
628.532	286.12
628.738	301.12
628.945	294.12
629.151	302.12
629.357	287.12
629.564	288.12
629.77	285.12
629.976	286.12
630.183	289.12
630.389	274.12
630.595	272.12
630.802	257.12
631.008	262.12
631.214	268.12
631.42	284.12
631.627	275.12
631.833	281.12
632.039	280.12
632.245	273.12
632.451	268.12
632.657	286.12
632.863	269.12
633.069	292.12
633.275	270.12
633.481	278.12
633.688	264.12
633.893	284.12
634.099	267.12
634.305	263.12
634.511	250.12
634.717	263.12
634.923	256.12
635.129	251.12
635.335	246.12
635.541	292.12
635.747	261.12
635.952	249.12
636.158	268.12
636.364	263.12
636.57	260.12
636.775	259.12
636.981	245.12
637.187	271.12
637.392	256.12
637.598	240.12
637.804	268.12
638.009	262.12
638.215	265.12
638.421	263.12
638.626	246.12
638.832	262.12
639.037	259.12
639.243	251.12
639.448	237.12
639.654	257.12
639.859	239.12
640.065	252.12
640.27	260.12
640.475	271.12
640.681	257.12
640.886	252.12
641.091	244.12
641.297	264.12
641.502	263.12
641.707	252.12
641.913	246.12
642.118	243.12
642.323	241.12
642.528	251.12
642.733	265.12
642.939	256.12
643.144	234.12
643.349	252.12
643.554	248.12
643.759	240.12
643.964	245.12
644.169	244.12
644.374	228.12
644.579	256.12
644.784	246.12
644.989	239.12
645.194	235.12
645.399	266.12
645.604	254.12
645.809	259.12
646.014	244.12
646.219	257.12
646.423	254.12
646.628	276.12
646.833	247.12
647.038	251.12
647.243	280.12
647.447	249.12
647.652	244.12
647.857	260.12
648.062	254.12
648.266	263.12
648.471	269.12
648.676	265.12
648.88	262.12
649.085	255.12
649.289	276.12
649.494	259.12
649.698	259.12
649.903	261.12
650.107	238.12
650.312	252.12
650.516	259.12
650.721	253.12
650.925	241.12
651.13	252.12
651.334	256.12
651.539	257.12
651.743	239.12
651.947	244.12
652.152	247.12
652.356	234.12
652.56	256.12
652.764	252.12
652.969	245.12
653.173	244.12
653.377	246.12
653.581	245.12
653.785	243.12
653.99	239.12
654.194	247.12
654.398	241.12
654.602	224.12
654.806	247.12
655.01	244.12
655.214	245.12
655.418	249.12
655.622	242.12
655.826	238.12
656.03	256.12
656.234	262.12
656.438	261.12
656.642	257.12
656.846	271.12
657.049	238.12
657.253	224.12
657.457	229.12
657.661	219.12
657.865	191.12
658.068	197.12
658.272	169.12
658.476	164.12
658.68	164.12
658.883	156.12
659.087	157.12
659.291	144.12
659.494	143.12
659.698	139.12
659.901	138.12
660.105	131.12
660.309	122.12
660.512	112.12
660.716	139.12
660.919	121.12
661.123	107.12
661.326	104.12
661.53	108.12
661.733	103.12
661.936	92.12
662.14	100.12
662.343	98.12
662.546	104.12
662.75	88.12
662.953	95.12
663.156	81.12
663.36	82.12
663.563	85.12
663.766	83.12
663.969	96.12
664.173	78.12
664.376	80.12
664.579	90.12
664.782	81.12
664.985	88.12
665.188	87.12
665.391	83.12
665.594	72.12
665.797	86.12
666	101.12
666.203	103.12
666.406	80.12
666.609	77.12
666.812	85.12
667.015	101.12
667.218	87.12
667.421	82.12
667.624	80.12
667.827	88.12
668.03	82.12
668.232	80.12
668.435	94.12
668.638	94.12
668.841	91.12
669.043	82.12
669.246	76.12
669.449	103.12
669.651	104.12
669.854	95.12
670.057	86.12
670.259	82.12
670.462	94.12
670.665	72.12
670.867	96.12
671.07	88.12
671.272	93.12
671.475	87.12
671.677	87.12
671.88	95.12
672.082	80.12
672.284	87.12
672.487	94.12
672.689	84.12
672.892	87.12
