Data from Ni(NO3)2@0.25M.TitratingCurve.Agarose3%dH2O.NegLispCup.LampEnergy10.LIBS07252019_HRD10591_18-05-38-566.txt Node
Date: Thu Jul 25 18:05:38 EDT 2019
User: cochatt
Spectrometer: HR+D1059
Trigger mode: 1
Integration Time (sec): 1.000000E-1
Scans to average: 1
Electric dark correction enabled: true
Nonlinearity correction enabled: false
Boxcar width: 0
XAxis mode: Wavelengths
Number of Pixels in Spectrum: 2048
>>>>>Begin Spectral Data<<<<<
223.165	-27.12
223.4	-27.12
223.635	-27.12
223.869	-17.12
224.104	-5.12
224.338	-10.12
224.573	-18.12
224.808	-34.12
225.042	-1.12
225.277	-7.12
225.511	-11.12
225.746	5.88
225.98	15.88
226.215	19.88
226.449	17.88
226.683	14.88
226.918	29.88
227.152	26.88
227.387	52.88
227.621	31.88
227.856	43.88
228.09	46.88
228.324	45.88
228.559	55.88
228.793	93.88
229.027	91.88
229.262	108.88
229.496	109.88
229.73	108.88
229.964	111.88
230.199	140.88
230.433	124.88
230.667	120.88
230.901	143.88
231.136	128.88
231.37	130.88
231.604	132.88
231.838	126.88
232.072	141.88
232.306	148.88
232.541	132.88
232.775	141.88
233.009	153.88
233.243	128.88
233.477	141.88
233.711	119.88
233.945	146.88
234.179	141.88
234.413	140.88
234.647	137.88
234.881	149.88
235.115	132.88
235.349	146.88
235.583	149.88
235.817	149.88
236.051	135.88
236.285	145.88
236.519	146.88
236.753	148.88
236.987	140.88
237.221	142.88
237.455	153.88
237.689	145.88
237.922	153.88
238.156	134.88
238.39	149.88
238.624	144.88
238.858	149.88
239.091	159.88
239.325	160.88
239.559	165.88
239.793	148.88
240.027	162.88
240.26	157.88
240.494	171.88
240.728	157.88
240.961	172.88
241.195	180.88
241.429	155.88
241.662	165.88
241.896	164.88
242.13	195.88
242.363	178.88
242.597	187.88
242.83	180.88
243.064	191.88
243.298	178.88
243.531	181.88
243.765	187.88
243.998	202.88
244.232	187.88
244.465	197.88
244.699	188.88
244.932	215.88
245.166	221.88
245.399	202.88
245.633	215.88
245.866	200.88
246.099	205.88
246.333	205.88
246.566	193.88
246.8	204.88
247.033	203.88
247.266	214.88
247.5	214.88
247.733	217.88
247.966	216.88
248.2	217.88
248.433	225.88
248.666	219.88
248.899	217.88
249.133	228.88
249.366	242.88
249.599	240.88
249.832	213.88
250.066	241.88
250.299	227.88
250.532	220.88
250.765	245.88
250.998	239.88
251.231	245.88
251.465	248.88
251.698	244.88
251.931	272.88
252.164	250.88
252.397	243.88
252.63	250.88
252.863	246.88
253.096	256.88
253.329	258.88
253.562	235.88
253.795	243.88
254.028	270.88
254.261	251.88
254.494	270.88
254.727	287.88
254.96	277.88
255.193	265.88
255.426	273.88
255.659	267.88
255.892	283.88
256.124	282.88
256.357	296.88
256.59	294.88
256.823	274.88
257.056	274.88
257.289	286.88
257.521	300.88
257.754	290.88
257.987	288.88
258.22	289.88
258.452	291.88
258.685	293.88
258.918	291.88
259.151	272.88
259.383	299.88
259.616	314.88
259.849	293.88
260.081	334.88
260.314	295.88
260.547	309.88
260.779	314.88
261.012	296.88
261.244	337.88
261.477	307.88
261.71	307.88
261.942	301.88
262.175	328.88
262.407	301.88
262.64	322.88
262.872	301.88
263.105	324.88
263.337	304.88
263.57	336.88
263.802	337.88
264.035	331.88
264.267	334.88
264.499	338.88
264.732	339.88
264.964	329.88
265.197	338.88
265.429	328.88
265.661	329.88
265.894	342.88
266.126	349.88
266.358	325.88
266.591	354.88
266.823	367.88
267.055	342.88
267.287	360.88
267.52	341.88
267.752	352.88
267.984	368.88
268.216	363.88
268.448	345.88
268.681	356.88
268.913	359.88
269.145	342.88
269.377	365.88
269.609	358.88
269.841	358.88
270.073	359.88
270.306	364.88
270.538	349.88
270.77	362.88
271.002	377.88
271.234	366.88
271.466	359.88
271.698	346.88
271.93	364.88
272.162	390.88
272.394	390.88
272.626	365.88
272.858	370.88
273.09	388.88
273.322	380.88
273.553	361.88
273.785	396.88
274.017	392.88
274.249	392.88
274.481	378.88
274.713	387.88
274.945	397.88
275.176	395.88
275.408	395.88
275.64	396.88
275.872	392.88
276.104	385.88
276.335	401.88
276.567	406.88
276.799	389.88
277.031	392.88
277.262	399.88
277.494	418.88
277.726	421.88
277.957	409.88
278.189	412.88
278.421	405.88
278.652	406.88
278.884	417.88
279.115	423.88
279.347	406.88
279.579	421.88
279.81	402.88
280.042	435.88
280.273	442.88
280.505	421.88
280.736	417.88
280.968	420.88
281.199	457.88
281.431	431.88
281.662	441.88
281.894	453.88
282.125	442.88
282.356	466.88
282.588	448.88
282.819	453.88
283.051	446.88
283.282	465.88
283.513	462.88
283.745	456.88
283.976	434.88
284.207	460.88
284.439	462.88
284.67	457.88
284.901	466.88
285.132	457.88
285.364	457.88
285.595	449.88
285.826	473.88
286.057	470.88
286.288	463.88
286.52	466.88
286.751	480.88
286.982	483.88
287.213	478.88
287.444	484.88
287.675	481.88
287.906	488.88
288.138	492.88
288.369	483.88
288.6	490.88
288.831	473.88
289.062	465.88
289.293	509.88
289.524	493.88
289.755	485.88
289.986	498.88
290.217	504.88
290.448	520.88
290.679	486.88
290.91	485.88
291.141	482.88
291.371	519.88
291.602	508.88
291.833	492.88
292.064	479.88
292.295	499.88
292.526	492.88
292.757	488.88
292.987	491.88
293.218	480.88
293.449	500.88
293.68	468.88
293.91	503.88
294.141	492.88
294.372	488.88
294.603	482.88
294.833	497.88
295.064	514.88
295.295	506.88
295.525	495.88
295.756	501.88
295.987	501.88
296.217	499.88
296.448	500.88
296.679	501.88
296.909	506.88
297.14	503.88
297.37	538.88
297.601	548.88
297.831	548.88
298.062	533.88
298.292	548.88
298.523	567.88
298.753	550.88
298.984	530.88
299.214	537.88
299.445	534.88
299.675	548.88
299.905	532.88
300.136	526.88
300.366	544.88
300.597	562.88
300.827	564.88
301.057	576.88
301.288	562.88
301.518	558.88
301.748	560.88
301.979	572.88
302.209	584.88
302.439	556.88
302.669	552.88
302.9	566.88
303.13	564.88
303.36	558.88
303.59	565.88
303.82	561.88
304.051	551.88
304.281	571.88
304.511	539.88
304.741	564.88
304.971	562.88
305.201	556.88
305.431	568.88
305.661	578.88
305.891	547.88
306.121	555.88
306.352	578.88
306.582	527.88
306.812	551.88
307.042	578.88
307.272	566.88
307.502	561.88
307.731	564.88
307.961	573.88
308.191	552.88
308.421	581.88
308.651	560.88
308.881	568.88
309.111	546.88
309.341	567.88
309.571	571.88
309.8	565.88
310.03	569.88
310.26	573.88
310.49	570.88
310.72	553.88
310.949	567.88
311.179	570.88
311.409	579.88
311.639	577.88
311.868	580.88
312.098	587.88
312.328	562.88
312.557	604.88
312.787	594.88
313.017	596.88
313.246	597.88
313.476	600.88
313.706	610.88
313.935	600.88
314.165	621.88
314.394	616.88
314.624	624.88
314.853	581.88
315.083	605.88
315.312	590.88
315.542	622.88
315.771	599.88
316.001	595.88
316.23	585.88
316.46	589.88
316.689	596.88
316.919	610.88
317.148	613.88
317.377	609.88
317.607	613.88
317.836	622.88
318.065	586.88
318.295	597.88
318.524	609.88
318.753	602.88
318.983	607.88
319.212	578.88
319.441	619.88
319.67	616.88
319.9	608.88
320.129	606.88
320.358	616.88
320.587	613.88
320.816	618.88
321.046	626.88
321.275	640.88
321.504	630.88
321.733	638.88
321.962	606.88
322.191	603.88
322.42	614.88
322.649	621.88
322.878	628.88
323.108	612.88
323.337	620.88
323.566	660.88
323.795	646.88
324.024	648.88
324.253	647.88
324.482	645.88
324.71	627.88
324.939	642.88
325.168	666.88
325.397	638.88
325.626	663.88
325.855	660.88
326.084	673.88
326.313	682.88
326.542	669.88
326.77	686.88
326.999	669.88
327.228	706.88
327.457	708.88
327.686	670.88
327.914	668.88
328.143	676.88
328.372	692.88
328.6	709.88
328.829	681.88
329.058	677.88
329.287	678.88
329.515	681.88
329.744	688.88
329.972	718.88
330.201	708.88
330.43	718.88
330.658	735.88
330.887	720.88
331.115	725.88
331.344	728.88
331.572	740.88
331.801	757.88
332.03	758.88
332.258	802.88
332.486	796.88
332.715	830.88
332.943	867.88
333.172	863.88
333.4	926.88
333.629	929.88
333.857	908.88
334.085	940.88
334.314	916.88
334.542	938.88
334.771	920.88
334.999	907.88
335.227	861.88
335.455	900.88
335.684	882.88
335.912	873.88
336.14	854.88
336.369	838.88
336.597	844.88
336.825	853.88
337.053	857.88
337.281	806.88
337.51	810.88
337.738	823.88
337.966	800.88
338.194	810.88
338.422	770.88
338.65	773.88
338.878	783.88
339.106	792.88
339.334	781.88
339.562	768.88
339.79	760.88
340.018	749.88
340.246	742.88
340.474	743.88
340.702	756.88
340.93	746.88
341.158	746.88
341.386	764.88
341.614	744.88
341.842	733.88
342.07	734.88
342.298	716.88
342.526	757.88
342.754	730.88
342.981	726.88
343.209	776.88
343.437	772.88
343.665	837.88
343.893	883.88
344.12	918.88
344.348	865.88
344.576	861.88
344.804	817.88
345.031	805.88
345.259	798.88
345.487	753.88
345.714	755.88
345.942	722.88
346.17	723.88
346.397	756.88
346.625	739.88
346.853	723.88
347.08	736.88
347.308	706.88
347.535	713.88
347.763	695.88
347.99	722.88
348.218	722.88
348.445	727.88
348.673	708.88
348.9	717.88
349.128	724.88
349.355	693.88
349.583	710.88
349.81	710.88
350.037	686.88
350.265	701.88
350.492	691.88
350.72	680.88
350.947	696.88
351.174	697.88
351.402	696.88
351.629	705.88
351.856	697.88
352.083	684.88
352.311	700.88
352.538	714.88
352.765	720.88
352.992	682.88
353.22	679.88
353.447	677.88
353.674	682.88
353.901	678.88
354.128	688.88
354.355	681.88
354.583	695.88
354.81	663.88
355.037	690.88
355.264	680.88
355.491	690.88
355.718	699.88
355.945	685.88
356.172	709.88
356.399	712.88
356.626	701.88
356.853	685.88
357.08	712.88
357.307	706.88
357.534	706.88
357.761	679.88
357.988	693.88
358.215	698.88
358.441	705.88
358.668	673.88
358.895	694.88
359.122	712.88
359.349	689.88
359.576	715.88
359.802	668.88
360.029	682.88
360.256	694.88
360.483	684.88
360.709	669.88
360.936	690.88
361.163	696.88
361.39	701.88
361.616	696.88
361.843	684.88
362.07	699.88
362.296	704.88
362.523	690.88
362.749	704.88
362.976	691.88
363.203	677.88
363.429	673.88
363.656	684.88
363.882	670.88
364.109	670.88
364.335	698.88
364.562	690.88
364.788	684.88
365.015	688.88
365.241	674.88
365.468	681.88
365.694	690.88
365.92	669.88
366.147	678.88
366.373	688.88
366.599	685.88
366.826	684.88
367.052	677.88
367.278	701.88
367.505	658.88
367.731	696.88
367.957	694.88
368.184	662.88
368.41	705.88
368.636	706.88
368.862	713.88
369.089	706.88
369.315	713.88
369.541	696.88
369.767	709.88
369.993	726.88
370.219	695.88
370.445	724.88
370.672	723.88
370.898	699.88
371.124	746.88
371.35	745.88
371.576	746.88
371.802	756.88
372.028	707.88
372.254	748.88
372.48	771.88
372.706	770.88
372.932	768.88
373.158	750.88
373.384	734.88
373.61	737.88
373.835	748.88
374.061	737.88
374.287	739.88
374.513	766.88
374.739	778.88
374.965	816.88
375.191	828.88
375.416	837.88
375.642	818.88
375.868	774.88
376.094	768.88
376.319	755.88
376.545	762.88
376.771	739.88
376.997	729.88
377.222	738.88
377.448	754.88
377.674	746.88
377.899	730.88
378.125	739.88
378.35	732.88
378.576	714.88
378.802	736.88
379.027	730.88
379.253	722.88
379.478	745.88
379.704	737.88
379.929	741.88
380.155	725.88
380.38	729.88
380.606	722.88
380.831	735.88
381.057	731.88
381.282	730.88
381.507	747.88
381.733	766.88
381.958	762.88
382.184	732.88
382.409	775.88
382.634	745.88
382.86	765.88
383.085	801.88
383.31	782.88
383.535	797.88
383.761	798.88
383.986	810.88
384.211	832.88
384.436	838.88
384.662	849.88
384.887	880.88
385.112	852.88
385.337	897.88
385.562	901.88
385.787	885.88
386.013	882.88
386.238	876.88
386.463	862.88
386.688	905.88
386.913	890.88
387.138	882.88
387.363	874.88
387.588	873.88
387.813	889.88
388.038	896.88
388.263	897.88
388.488	866.88
388.713	886.88
388.938	857.88
389.163	828.88
389.387	848.88
389.612	861.88
389.837	849.88
390.062	860.88
390.287	889.88
390.512	886.88
390.736	880.88
390.961	899.88
391.186	903.88
391.411	934.88
391.636	963.88
391.86	989.88
392.085	1028.88
392.31	986.88
392.534	954.88
392.759	973.88
392.984	931.88
393.208	930.88
393.433	922.88
393.658	955.88
393.882	935.88
394.107	928.88
394.331	940.88
394.556	932.88
394.78	948.88
395.005	946.88
395.229	936.88
395.454	978.88
395.678	1008.88
395.903	995.88
396.127	992.88
396.352	974.88
396.576	965.88
396.801	960.88
397.025	969.88
397.249	986.88
397.474	994.88
397.698	1007.88
397.922	1008.88
398.147	987.88
398.371	1048.88
398.595	1057.88
398.82	1113.88
399.044	1219.88
399.268	1317.88
399.492	1489.88
399.717	1623.88
399.941	1606.88
400.165	1506.88
400.389	1347.88
400.613	1260.88
400.837	1218.88
401.062	1171.88
401.286	1139.88
401.51	1109.88
401.734	1150.88
401.958	1149.88
402.182	1147.88
402.406	1125.88
402.63	1166.88
402.854	1180.88
403.078	1190.88
403.302	1211.88
403.526	1218.88
403.75	1220.88
403.974	1233.88
404.198	1247.88
404.422	1285.88
404.645	1221.88
404.869	1239.88
405.093	1236.88
405.317	1261.88
405.541	1242.88
405.765	1254.88
405.988	1228.88
406.212	1222.88
406.436	1235.88
406.66	1296.88
406.883	1245.88
407.107	1332.88
407.331	1406.88
407.555	1440.88
407.778	1444.88
408.002	1420.88
408.226	1369.88
408.449	1357.88
408.673	1314.88
408.896	1289.88
409.12	1288.88
409.344	1280.88
409.567	1265.88
409.791	1276.88
410.014	1239.88
410.238	1268.88
410.461	1216.88
410.685	1234.88
410.908	1187.88
411.132	1216.88
411.355	1180.88
411.578	1177.88
411.802	1172.88
412.025	1161.88
412.249	1187.88
412.472	1172.88
412.695	1184.88
412.919	1129.88
413.142	1156.88
413.365	1140.88
413.589	1146.88
413.812	1120.88
414.035	1125.88
414.258	1117.88
414.482	1125.88
414.705	1125.88
414.928	1148.88
415.151	1166.88
415.374	1132.88
415.597	1111.88
415.821	1128.88
416.044	1122.88
416.267	1107.88
416.49	1096.88
416.713	1109.88
416.936	1100.88
417.159	1106.88
417.382	1108.88
417.605	1092.88
417.828	1095.88
418.051	1094.88
418.274	1133.88
418.497	1084.88
418.72	1130.88
418.943	1170.88
419.166	1186.88
419.389	1283.88
419.611	1257.88
419.834	1200.88
420.057	1184.88
420.28	1131.88
420.503	1104.88
420.726	1108.88
420.948	1107.88
421.171	1127.88
421.394	1100.88
421.617	1152.88
421.839	1124.88
422.062	1138.88
422.285	1106.88
422.507	1129.88
422.73	1120.88
422.953	1112.88
423.175	1175.88
423.398	1170.88
423.621	1146.88
423.843	1139.88
424.066	1178.88
424.288	1188.88
424.511	1134.88
424.733	1131.88
424.956	1142.88
425.178	1129.88
425.401	1137.88
425.623	1119.88
425.846	1083.88
426.068	1081.88
426.291	1112.88
426.513	1068.88
426.735	1052.88
426.958	1075.88
427.18	1031.88
427.402	1049.88
427.625	1042.88
427.847	1005.88
428.069	1015.88
428.292	1037.88
428.514	1038.88
428.736	1000.88
428.958	1007.88
429.181	992.88
429.403	984.88
429.625	978.88
429.847	989.88
430.069	965.88
430.292	975.88
430.514	963.88
430.736	991.88
430.958	970.88
431.18	965.88
431.402	993.88
431.624	983.88
431.846	1043.88
432.068	1030.88
432.29	1021.88
432.512	1001.88
432.734	1014.88
432.956	995.88
433.178	1026.88
433.4	1004.88
433.622	1024.88
433.844	1056.88
434.066	1030.88
434.287	1038.88
434.509	1056.88
434.731	1076.88
434.953	1151.88
435.175	1099.88
435.397	1114.88
435.618	1072.88
435.84	1055.88
436.062	1024.88
436.284	1035.88
436.505	1025.88
436.727	996.88
436.949	1020.88
437.17	1021.88
437.392	970.88
437.614	1018.88
437.835	983.88
438.057	952.88
438.278	954.88
438.5	936.88
438.721	950.88
438.943	974.88
439.165	981.88
439.386	979.88
439.608	1025.88
439.829	1012.88
440.05	1048.88
440.272	1014.88
440.493	1024.88
440.715	1050.88
440.936	1063.88
441.158	1083.88
441.379	1091.88
441.6	1132.88
441.822	1150.88
442.043	1115.88
442.264	1118.88
442.486	1103.88
442.707	1090.88
442.928	1097.88
443.149	1115.88
443.371	1135.88
443.592	1115.88
443.813	1118.88
444.034	1157.88
444.255	1156.88
444.476	1233.88
444.698	1287.88
444.919	1320.88
445.14	1419.88
445.361	1280.88
445.582	1204.88
445.803	1148.88
446.024	1089.88
446.245	1076.88
446.466	1086.88
446.687	1034.88
446.908	1058.88
447.129	1044.88
447.35	982.88
447.571	997.88
447.792	965.88
448.013	948.88
448.234	956.88
448.455	961.88
448.675	944.88
448.896	960.88
449.117	916.88
449.338	920.88
449.559	949.88
449.779	938.88
450	928.88
450.221	913.88
450.442	924.88
450.662	956.88
450.883	920.88
451.104	964.88
451.324	950.88
451.545	947.88
451.766	922.88
451.986	929.88
452.207	925.88
452.428	927.88
452.648	932.88
452.869	916.88
453.089	899.88
453.31	916.88
453.53	883.88
453.751	900.88
453.971	872.88
454.192	889.88
454.412	856.88
454.633	890.88
454.853	892.88
455.073	914.88
455.294	856.88
455.514	862.88
455.734	872.88
455.955	848.88
456.175	858.88
456.395	853.88
456.616	834.88
456.836	873.88
457.056	848.88
457.276	829.88
457.497	893.88
457.717	861.88
457.937	904.88
458.157	892.88
458.377	878.88
458.598	912.88
458.818	916.88
459.038	963.88
459.258	969.88
459.478	1050.88
459.698	1067.88
459.918	1078.88
460.138	1109.88
460.358	1178.88
460.578	1181.88
460.798	1188.88
461.018	1186.88
461.238	1217.88
461.458	1189.88
461.678	1176.88
461.898	1189.88
462.118	1200.88
462.338	1292.88
462.558	1338.88
462.777	1400.88
462.997	1445.88
463.217	1535.88
463.437	1569.88
463.657	1472.88
463.876	1410.88
464.096	1349.88
464.316	1395.88
464.536	1372.88
464.755	1315.88
464.975	1294.88
465.195	1205.88
465.414	1166.88
465.634	1046.88
465.854	1031.88
466.073	1008.88
466.293	1018.88
466.512	1011.88
466.732	988.88
466.951	992.88
467.171	962.88
467.391	977.88
467.61	982.88
467.829	966.88
468.049	963.88
468.268	934.88
468.488	904.88
468.707	925.88
468.927	944.88
469.146	948.88
469.365	965.88
469.585	941.88
469.804	983.88
470.023	1003.88
470.243	1004.88
470.462	986.88
470.681	1026.88
470.901	999.88
471.12	967.88
471.339	980.88
471.558	941.88
471.777	940.88
471.997	942.88
472.216	952.88
472.435	938.88
472.654	936.88
472.873	906.88
473.092	898.88
473.311	889.88
473.53	914.88
473.749	929.88
473.968	909.88
474.187	880.88
474.406	909.88
474.625	914.88
474.844	888.88
475.063	930.88
475.282	904.88
475.501	900.88
475.72	938.88
475.939	896.88
476.158	937.88
476.377	932.88
476.596	951.88
476.814	956.88
477.033	956.88
477.252	979.88
477.471	1012.88
477.69	993.88
477.908	1036.88
478.127	1069.88
478.346	1060.88
478.564	1090.88
478.783	1088.88
479.002	1153.88
479.22	1130.88
479.439	1109.88
479.658	1126.88
479.876	1130.88
480.095	1145.88
480.313	1184.88
480.532	1206.88
480.751	1183.88
480.969	1127.88
481.188	1102.88
481.406	1074.88
481.624	1060.88
481.843	1040.88
482.061	1036.88
482.28	1048.88
482.498	1032.88
482.717	1001.88
482.935	1029.88
483.153	1028.88
483.372	1030.88
483.59	1031.88
483.808	1054.88
484.027	1026.88
484.245	1010.88
484.463	1016.88
484.681	1088.88
484.9	1065.88
485.118	1056.88
485.336	1085.88
485.554	1056.88
485.772	1065.88
485.99	1063.88
486.209	1059.88
486.427	1059.88
486.645	1077.88
486.863	1094.88
487.081	1063.88
487.299	1054.88
487.517	1065.88
487.735	1077.88
487.953	1088.88
488.171	1089.88
488.389	1073.88
488.607	1060.88
488.825	1046.88
489.043	1042.88
489.261	1037.88
489.479	1040.88
489.696	1072.88
489.914	1075.88
490.132	1085.88
490.35	1059.88
490.568	1066.88
490.786	1069.88
491.003	1102.88
491.221	1098.88
491.439	1107.88
491.657	1107.88
491.874	1109.88
492.092	1105.88
492.31	1103.88
492.527	1126.88
492.745	1138.88
492.963	1130.88
493.18	1144.88
493.398	1152.88
493.615	1138.88
493.833	1153.88
494.05	1132.88
494.268	1127.88
494.485	1137.88
494.703	1144.88
494.92	1170.88
495.138	1147.88
495.355	1178.88
495.573	1178.88
495.79	1181.88
496.008	1192.88
496.225	1204.88
496.442	1189.88
496.66	1223.88
496.877	1193.88
497.094	1272.88
497.312	1283.88
497.529	1310.88
497.746	1340.88
497.963	1390.88
498.181	1442.88
498.398	1512.88
498.615	1596.88
498.832	1702.88
499.049	1802.88
499.267	1945.88
499.484	2136.88
499.701	2353.88
499.918	2584.88
500.135	2848.88
500.352	3187.88
500.569	3363.88
500.786	3257.88
501.003	3087.88
501.22	2776.88
501.437	2562.88
501.654	2265.88
501.871	2020.88
502.088	1888.88
502.305	1783.88
502.522	1676.88
502.739	1642.88
502.956	1573.88
503.172	1497.88
503.389	1398.88
503.606	1401.88
503.823	1378.88
504.04	1348.88
504.256	1354.88
504.473	1349.88
504.69	1372.88
504.907	1335.88
505.123	1273.88
505.34	1223.88
505.557	1179.88
505.773	1127.88
505.99	1108.88
506.207	1105.88
506.423	1068.88
506.64	1031.88
506.856	1022.88
507.073	1019.88
507.289	1038.88
507.506	995.88
507.722	1024.88
507.939	1012.88
508.155	991.88
508.372	986.88
508.588	988.88
508.805	973.88
509.021	946.88
509.238	939.88
509.454	935.88
509.67	918.88
509.887	952.88
510.103	949.88
510.319	922.88
510.536	937.88
510.752	912.88
510.968	923.88
511.184	898.88
511.401	928.88
511.617	921.88
511.833	905.88
512.049	923.88
512.265	890.88
512.481	900.88
512.698	920.88
512.914	909.88
513.13	910.88
513.346	901.88
513.562	913.88
513.778	931.88
513.994	926.88
514.21	931.88
514.426	932.88
514.642	948.88
514.858	941.88
515.074	932.88
515.29	966.88
515.506	948.88
515.721	968.88
515.937	1006.88
516.153	1005.88
516.369	986.88
516.585	1049.88
516.801	1093.88
517.016	1172.88
517.232	1197.88
517.448	1235.88
517.664	1265.88
517.879	1284.88
518.095	1301.88
518.311	1229.88
518.527	1212.88
518.742	1174.88
518.958	1130.88
519.173	1083.88
519.389	1049.88
519.605	1029.88
519.82	1026.88
520.036	996.88
520.251	955.88
520.467	936.88
520.682	934.88
520.898	921.88
521.113	906.88
521.329	898.88
521.544	884.88
521.76	901.88
521.975	877.88
522.19	881.88
522.406	869.88
522.621	866.88
522.836	875.88
523.052	889.88
523.267	852.88
523.482	873.88
523.698	821.88
523.913	832.88
524.128	844.88
524.343	849.88
524.559	844.88
524.774	846.88
524.989	845.88
525.204	844.88
525.419	825.88
525.634	810.88
525.849	838.88
526.064	828.88
526.28	836.88
526.495	858.88
526.71	827.88
526.925	806.88
527.14	812.88
527.355	826.88
527.57	847.88
527.785	793.88
527.999	819.88
528.214	831.88
528.429	834.88
528.644	846.88
528.859	838.88
529.074	835.88
529.289	852.88
529.503	822.88
529.718	835.88
529.933	827.88
530.148	803.88
530.363	821.88
530.577	803.88
530.792	816.88
531.007	820.88
531.221	831.88
531.436	827.88
531.651	843.88
531.865	819.88
532.08	825.88
532.295	846.88
532.509	844.88
532.724	825.88
532.938	838.88
533.153	858.88
533.367	808.88
533.582	835.88
533.796	821.88
534.011	788.88
534.225	818.88
534.44	819.88
534.654	808.88
534.868	777.88
535.083	804.88
535.297	824.88
535.511	806.88
535.726	806.88
535.94	789.88
536.154	781.88
536.369	797.88
536.583	778.88
536.797	769.88
537.011	767.88
537.225	749.88
537.44	749.88
537.654	745.88
537.868	732.88
538.082	764.88
538.296	757.88
538.51	728.88
538.724	731.88
538.938	765.88
539.153	748.88
539.367	737.88
539.581	753.88
539.795	759.88
540.009	738.88
540.222	745.88
540.436	724.88
540.65	738.88
540.864	746.88
541.078	750.88
541.292	765.88
541.506	737.88
541.72	754.88
541.934	742.88
542.147	780.88
542.361	768.88
542.575	723.88
542.789	742.88
543.002	727.88
543.216	716.88
543.43	732.88
543.644	736.88
543.857	725.88
544.071	743.88
544.285	742.88
544.498	748.88
544.712	770.88
544.925	774.88
545.139	758.88
545.352	762.88
545.566	777.88
545.779	754.88
545.993	789.88
546.206	760.88
546.42	755.88
546.633	769.88
546.847	752.88
547.06	793.88
547.274	767.88
547.487	805.88
547.7	778.88
547.914	805.88
548.127	761.88
548.34	776.88
548.554	778.88
548.767	807.88
548.98	769.88
549.193	790.88
549.407	806.88
549.62	791.88
549.833	784.88
550.046	772.88
550.259	768.88
550.473	780.88
550.686	766.88
550.899	780.88
551.112	757.88
551.325	739.88
551.538	749.88
551.751	748.88
551.964	753.88
552.177	764.88
552.39	782.88
552.603	783.88
552.816	814.88
553.029	825.88
553.242	830.88
553.455	842.88
553.667	864.88
553.88	829.88
554.093	788.88
554.306	785.88
554.519	756.88
554.732	776.88
554.944	732.88
555.157	720.88
555.37	722.88
555.583	693.88
555.795	721.88
556.008	689.88
556.221	701.88
556.433	666.88
556.646	674.88
556.859	678.88
557.071	670.88
557.284	647.88
557.496	652.88
557.709	643.88
557.921	664.88
558.134	638.88
558.346	637.88
558.559	621.88
558.771	636.88
558.984	652.88
559.196	636.88
559.409	638.88
559.621	638.88
559.833	646.88
560.046	624.88
560.258	629.88
560.47	616.88
560.683	626.88
560.895	632.88
561.107	652.88
561.32	606.88
561.532	632.88
561.744	605.88
561.956	607.88
562.168	637.88
562.381	636.88
562.593	630.88
562.805	634.88
563.017	611.88
563.229	652.88
563.441	644.88
563.653	643.88
563.865	648.88
564.077	660.88
564.289	651.88
564.501	651.88
564.713	679.88
564.925	697.88
565.137	694.88
565.349	708.88
565.561	745.88
565.773	755.88
565.985	816.88
566.197	816.88
566.408	891.88
566.62	930.88
566.832	971.88
567.044	1021.88
567.255	1025.88
567.467	1066.88
567.679	1076.88
567.891	1132.88
568.102	1147.88
568.314	1102.88
568.526	997.88
568.737	941.88
568.949	852.88
569.161	800.88
569.372	749.88
569.584	715.88
569.795	696.88
570.007	654.88
570.218	677.88
570.43	680.88
570.641	646.88
570.853	645.88
571.064	658.88
571.276	660.88
571.487	630.88
571.698	616.88
571.91	582.88
572.121	580.88
572.333	569.88
572.544	573.88
572.755	554.88
572.966	549.88
573.178	537.88
573.389	520.88
573.6	549.88
573.811	529.88
574.023	529.88
574.234	520.88
574.445	518.88
574.656	502.88
574.867	493.88
575.078	514.88
575.289	525.88
575.501	517.88
575.712	493.88
575.923	474.88
576.134	499.88
576.345	498.88
576.556	473.88
576.767	483.88
576.978	492.88
577.188	484.88
577.399	488.88
577.61	468.88
577.821	470.88
578.032	443.88
578.243	479.88
578.454	485.88
578.665	486.88
578.875	461.88
579.086	446.88
579.297	446.88
579.508	475.88
579.718	458.88
579.929	452.88
580.14	449.88
580.35	443.88
580.561	432.88
580.772	457.88
580.982	423.88
581.193	448.88
581.403	436.88
581.614	441.88
581.825	434.88
582.035	446.88
582.246	445.88
582.456	460.88
582.667	420.88
582.877	417.88
583.087	452.88
583.298	442.88
583.508	416.88
583.719	422.88
583.929	419.88
584.139	402.88
584.35	420.88
584.56	420.88
584.77	416.88
584.981	427.88
585.191	427.88
585.401	433.88
585.611	440.88
585.821	421.88
586.032	418.88
586.242	424.88
586.452	411.88
586.662	425.88
586.872	415.88
587.082	416.88
587.292	401.88
587.502	389.88
587.713	393.88
587.923	412.88
588.133	398.88
588.343	413.88
588.553	434.88
588.762	407.88
588.972	397.88
589.182	432.88
589.392	425.88
589.602	421.88
589.812	399.88
590.022	418.88
590.232	419.88
590.441	418.88
590.651	416.88
590.861	422.88
591.071	413.88
591.281	436.88
591.49	434.88
591.7	428.88
591.91	440.88
592.119	446.88
592.329	446.88
592.539	484.88
592.748	476.88
592.958	519.88
593.167	501.88
593.377	504.88
593.587	525.88
593.796	526.88
594.006	510.88
594.215	527.88
594.424	526.88
594.634	504.88
594.843	492.88
595.053	466.88
595.262	480.88
595.472	456.88
595.681	440.88
595.89	431.88
596.1	401.88
596.309	408.88
596.518	398.88
596.727	388.88
596.937	406.88
597.146	391.88
597.355	394.88
597.564	380.88
597.774	380.88
597.983	364.88
598.192	343.88
598.401	372.88
598.61	363.88
598.819	353.88
599.028	370.88
599.237	353.88
599.446	354.88
599.655	375.88
599.864	380.88
600.073	343.88
600.282	342.88
600.491	363.88
600.7	342.88
600.909	342.88
601.118	326.88
601.327	338.88
601.536	339.88
601.745	340.88
601.953	354.88
602.162	338.88
602.371	358.88
602.58	328.88
602.789	322.88
602.997	315.88
603.206	346.88
603.415	343.88
603.623	326.88
603.832	324.88
604.041	344.88
604.249	315.88
604.458	316.88
604.666	310.88
604.875	334.88
605.084	302.88
605.292	325.88
605.501	343.88
605.709	339.88
605.918	323.88
606.126	327.88
606.334	319.88
606.543	330.88
606.751	333.88
606.96	316.88
607.168	307.88
607.376	307.88
607.585	317.88
607.793	308.88
608.001	336.88
608.21	313.88
608.418	294.88
608.626	322.88
608.834	300.88
609.043	307.88
609.251	305.88
609.459	304.88
609.667	305.88
609.875	323.88
610.083	331.88
610.291	313.88
610.499	304.88
610.707	315.88
610.916	310.88
611.124	307.88
611.332	301.88
611.54	309.88
611.748	299.88
611.955	284.88
612.163	299.88
612.371	300.88
612.579	299.88
612.787	320.88
612.995	327.88
613.203	314.88
613.411	306.88
613.618	291.88
613.826	284.88
614.034	291.88
614.242	278.88
614.449	294.88
614.657	301.88
614.865	294.88
615.072	298.88
615.28	268.88
615.488	293.88
615.695	290.88
615.903	288.88
616.111	296.88
616.318	305.88
616.526	282.88
616.733	288.88
616.941	296.88
617.148	308.88
617.356	279.88
617.563	290.88
617.771	296.88
617.978	298.88
618.185	287.88
618.393	284.88
618.6	288.88
618.807	287.88
619.015	287.88
619.222	284.88
619.429	295.88
619.637	284.88
619.844	295.88
620.051	289.88
620.258	272.88
620.466	279.88
620.673	284.88
620.88	259.88
621.087	267.88
621.294	270.88
621.501	265.88
621.708	281.88
621.915	290.88
622.122	282.88
622.329	287.88
622.536	279.88
622.743	295.88
622.95	269.88
623.157	261.88
623.364	281.88
623.571	269.88
623.778	278.88
623.985	262.88
624.192	276.88
624.399	261.88
624.606	279.88
624.812	250.88
625.019	248.88
625.226	248.88
625.433	278.88
625.639	260.88
625.846	264.88
626.053	261.88
626.259	261.88
626.466	250.88
626.673	264.88
626.879	248.88
627.086	243.88
627.293	242.88
627.499	238.88
627.706	265.88
627.912	254.88
628.119	272.88
628.325	260.88
628.532	258.88
628.738	230.88
628.945	252.88
629.151	255.88
629.357	248.88
629.564	268.88
629.77	238.88
629.976	232.88
630.183	245.88
630.389	240.88
630.595	243.88
630.802	249.88
631.008	215.88
631.214	214.88
631.42	234.88
631.627	236.88
631.833	233.88
632.039	228.88
632.245	228.88
632.451	214.88
632.657	255.88
632.863	227.88
633.069	221.88
633.275	213.88
633.481	208.88
633.688	228.88
633.893	217.88
634.099	237.88
634.305	238.88
634.511	210.88
634.717	225.88
634.923	215.88
635.129	218.88
635.335	223.88
635.541	214.88
635.747	210.88
635.952	203.88
636.158	196.88
636.364	212.88
636.57	212.88
636.775	234.88
636.981	227.88
637.187	215.88
637.392	226.88
637.598	199.88
637.804	203.88
638.009	190.88
638.215	201.88
638.421	214.88
638.626	223.88
638.832	210.88
639.037	196.88
639.243	221.88
639.448	218.88
639.654	214.88
639.859	203.88
640.065	219.88
640.27	212.88
640.475	205.88
640.681	198.88
640.886	212.88
641.091	203.88
641.297	193.88
641.502	205.88
641.707	200.88
641.913	194.88
642.118	196.88
642.323	172.88
642.528	193.88
642.733	196.88
642.939	205.88
643.144	187.88
643.349	199.88
643.554	189.88
643.759	198.88
643.964	204.88
644.169	197.88
644.374	192.88
644.579	191.88
644.784	193.88
644.989	206.88
645.194	196.88
645.399	192.88
645.604	200.88
645.809	201.88
646.014	198.88
646.219	202.88
646.423	202.88
646.628	210.88
646.833	198.88
647.038	201.88
647.243	206.88
647.447	215.88
647.652	185.88
647.857	206.88
648.062	218.88
648.266	221.88
648.471	199.88
648.676	206.88
648.88	194.88
649.085	205.88
649.289	194.88
649.494	195.88
649.698	197.88
649.903	188.88
650.107	185.88
650.312	177.88
650.516	189.88
650.721	197.88
650.925	169.88
651.13	163.88
651.334	190.88
651.539	169.88
651.743	167.88
651.947	179.88
652.152	178.88
652.356	159.88
652.56	155.88
652.764	148.88
652.969	151.88
653.173	150.88
653.377	176.88
653.581	168.88
653.785	148.88
653.99	153.88
654.194	147.88
654.398	161.88
654.602	141.88
654.806	151.88
655.01	139.88
655.214	142.88
655.418	137.88
655.622	126.88
655.826	156.88
656.03	142.88
656.234	156.88
656.438	137.88
656.642	142.88
656.846	145.88
657.049	136.88
657.253	132.88
657.457	123.88
657.661	126.88
657.865	125.88
658.068	121.88
658.272	123.88
658.476	115.88
658.68	126.88
658.883	124.88
659.087	120.88
659.291	104.88
659.494	124.88
659.698	100.88
659.901	101.88
660.105	81.88
660.309	110.88
660.512	108.88
660.716	109.88
660.919	104.88
661.123	80.88
661.326	108.88
661.53	96.88
661.733	91.88
661.936	97.88
662.14	85.88
662.343	89.88
662.546	106.88
662.75	101.88
662.953	98.88
663.156	88.88
663.36	89.88
663.563	93.88
663.766	83.88
663.969	89.88
664.173	79.88
664.376	103.88
664.579	81.88
664.782	75.88
664.985	84.88
665.188	77.88
665.391	99.88
665.594	101.88
665.797	90.88
666	87.88
666.203	86.88
666.406	88.88
666.609	90.88
666.812	71.88
667.015	65.88
667.218	89.88
667.421	85.88
667.624	80.88
667.827	80.88
668.03	74.88
668.232	84.88
668.435	77.88
668.638	86.88
668.841	89.88
669.043	76.88
669.246	88.88
669.449	75.88
669.651	82.88
669.854	82.88
670.057	96.88
670.259	70.88
670.462	88.88
670.665	96.88
670.867	93.88
671.07	76.88
671.272	84.88
671.475	90.88
671.677	84.88
671.88	79.88
672.082	92.88
672.284	77.88
672.487	82.88
672.689	85.88
672.892	81.88
