Data from Ni(NO3)2@0.5M.TitratingCurve.Agarose3%dH2O.NegLispCup.LampEnergy10.LIBS07252019_HRD10591_17-59-34-564.txt Node
Date: Thu Jul 25 17:59:34 EDT 2019
User: cochatt
Spectrometer: HR+D1059
Trigger mode: 1
Integration Time (sec): 1.000000E-1
Scans to average: 1
Electric dark correction enabled: true
Nonlinearity correction enabled: false
Boxcar width: 0
XAxis mode: Wavelengths
Number of Pixels in Spectrum: 2048
>>>>>Begin Spectral Data<<<<<
223.165	-6.62
223.4	-6.62
223.635	-6.62
223.869	-22.62
224.104	-18.62
224.338	-6.62
224.573	-18.62
224.808	0.38
225.042	-21.62
225.277	-6.62
225.511	-0.62
225.746	-3.62
225.98	14.38
226.215	1.38
226.449	2.38
226.683	28.38
226.918	15.38
227.152	43.38
227.387	48.38
227.621	18.38
227.856	38.38
228.09	36.38
228.324	34.38
228.559	61.38
228.793	81.38
229.027	136.38
229.262	146.38
229.496	145.38
229.73	152.38
229.964	190.38
230.199	233.38
230.433	240.38
230.667	221.38
230.901	229.38
231.136	190.38
231.37	187.38
231.604	197.38
231.838	244.38
232.072	226.38
232.306	206.38
232.541	189.38
232.775	176.38
233.009	170.38
233.243	169.38
233.477	172.38
233.711	196.38
233.945	193.38
234.179	210.38
234.413	186.38
234.647	191.38
234.881	198.38
235.115	204.38
235.349	181.38
235.583	171.38
235.817	174.38
236.051	184.38
236.285	170.38
236.519	160.38
236.753	174.38
236.987	174.38
237.221	184.38
237.455	200.38
237.689	187.38
237.922	193.38
238.156	192.38
238.39	195.38
238.624	190.38
238.858	199.38
239.091	189.38
239.325	209.38
239.559	236.38
239.793	260.38
240.027	256.38
240.26	192.38
240.494	204.38
240.728	217.38
240.961	212.38
241.195	209.38
241.429	220.38
241.662	241.38
241.896	257.38
242.13	280.38
242.363	227.38
242.597	225.38
242.83	229.38
243.064	202.38
243.298	226.38
243.531	230.38
243.765	242.38
243.998	268.38
244.232	250.38
244.465	233.38
244.699	242.38
244.932	227.38
245.166	240.38
245.399	236.38
245.633	240.38
245.866	244.38
246.099	240.38
246.333	236.38
246.566	248.38
246.8	260.38
247.033	257.38
247.266	254.38
247.5	262.38
247.733	278.38
247.966	267.38
248.2	262.38
248.433	280.38
248.666	271.38
248.899	280.38
249.133	276.38
249.366	265.38
249.599	296.38
249.832	276.38
250.066	276.38
250.299	285.38
250.532	296.38
250.765	295.38
250.998	300.38
251.231	321.38
251.465	335.38
251.698	326.38
251.931	321.38
252.164	308.38
252.397	309.38
252.63	314.38
252.863	321.38
253.096	328.38
253.329	308.38
253.562	306.38
253.795	321.38
254.028	310.38
254.261	317.38
254.494	317.38
254.727	343.38
254.96	330.38
255.193	345.38
255.426	349.38
255.659	335.38
255.892	334.38
256.124	341.38
256.357	344.38
256.59	338.38
256.823	363.38
257.056	338.38
257.289	352.38
257.521	349.38
257.754	356.38
257.987	343.38
258.22	362.38
258.452	366.38
258.685	358.38
258.918	375.38
259.151	354.38
259.383	371.38
259.616	368.38
259.849	388.38
260.081	369.38
260.314	381.38
260.547	373.38
260.779	369.38
261.012	389.38
261.244	393.38
261.477	401.38
261.71	391.38
261.942	390.38
262.175	392.38
262.407	404.38
262.64	404.38
262.872	379.38
263.105	398.38
263.337	399.38
263.57	416.38
263.802	406.38
264.035	437.38
264.267	423.38
264.499	416.38
264.732	406.38
264.964	406.38
265.197	423.38
265.429	382.38
265.661	428.38
265.894	433.38
266.126	423.38
266.358	424.38
266.591	443.38
266.823	433.38
267.055	469.38
267.287	422.38
267.52	430.38
267.752	425.38
267.984	436.38
268.216	452.38
268.448	449.38
268.681	456.38
268.913	442.38
269.145	419.38
269.377	428.38
269.609	469.38
269.841	460.38
270.073	450.38
270.306	454.38
270.538	443.38
270.77	445.38
271.002	448.38
271.234	450.38
271.466	454.38
271.698	468.38
271.93	453.38
272.162	443.38
272.394	457.38
272.626	462.38
272.858	487.38
273.09	481.38
273.322	491.38
273.553	472.38
273.785	511.38
274.017	489.38
274.249	490.38
274.481	505.38
274.713	492.38
274.945	494.38
275.176	474.38
275.408	505.38
275.64	505.38
275.872	506.38
276.104	523.38
276.335	493.38
276.567	518.38
276.799	504.38
277.031	525.38
277.262	516.38
277.494	508.38
277.726	529.38
277.957	524.38
278.189	527.38
278.421	536.38
278.652	544.38
278.884	523.38
279.115	526.38
279.347	518.38
279.579	511.38
279.81	525.38
280.042	538.38
280.273	588.38
280.505	556.38
280.736	557.38
280.968	548.38
281.199	546.38
281.431	558.38
281.662	549.38
281.894	572.38
282.125	550.38
282.356	591.38
282.588	576.38
282.819	548.38
283.051	584.38
283.282	569.38
283.513	588.38
283.745	589.38
283.976	590.38
284.207	587.38
284.439	594.38
284.67	589.38
284.901	571.38
285.132	566.38
285.364	594.38
285.595	593.38
285.826	587.38
286.057	598.38
286.288	602.38
286.52	603.38
286.751	614.38
286.982	613.38
287.213	574.38
287.444	602.38
287.675	599.38
287.906	604.38
288.138	613.38
288.369	619.38
288.6	621.38
288.831	619.38
289.062	606.38
289.293	612.38
289.524	619.38
289.755	598.38
289.986	621.38
290.217	614.38
290.448	621.38
290.679	624.38
290.91	629.38
291.141	652.38
291.371	612.38
291.602	608.38
291.833	615.38
292.064	617.38
292.295	613.38
292.526	631.38
292.757	649.38
292.987	628.38
293.218	631.38
293.449	622.38
293.68	629.38
293.91	628.38
294.141	641.38
294.372	649.38
294.603	630.38
294.833	622.38
295.064	606.38
295.295	631.38
295.525	642.38
295.756	633.38
295.987	649.38
296.217	629.38
296.448	634.38
296.679	635.38
296.909	651.38
297.14	666.38
297.37	697.38
297.601	667.38
297.831	664.38
298.062	652.38
298.292	663.38
298.523	672.38
298.753	674.38
298.984	655.38
299.214	653.38
299.445	681.38
299.675	694.38
299.905	708.38
300.136	694.38
300.366	762.38
300.597	747.38
300.827	723.38
301.057	700.38
301.288	723.38
301.518	749.38
301.748	705.38
301.979	711.38
302.209	709.38
302.439	702.38
302.669	735.38
302.9	716.38
303.13	702.38
303.36	713.38
303.59	716.38
303.82	733.38
304.051	761.38
304.281	754.38
304.511	733.38
304.741	742.38
304.971	748.38
305.201	761.38
305.431	776.38
305.661	759.38
305.891	740.38
306.121	736.38
306.352	753.38
306.582	737.38
306.812	720.38
307.042	733.38
307.272	709.38
307.502	733.38
307.731	726.38
307.961	728.38
308.191	716.38
308.421	727.38
308.651	738.38
308.881	717.38
309.111	731.38
309.341	717.38
309.571	742.38
309.8	772.38
310.03	753.38
310.26	817.38
310.49	820.38
310.72	773.38
310.949	759.38
311.179	754.38
311.409	726.38
311.639	774.38
311.868	785.38
312.098	776.38
312.328	772.38
312.557	782.38
312.787	795.38
313.017	787.38
313.246	797.38
313.476	807.38
313.706	812.38
313.935	783.38
314.165	766.38
314.394	786.38
314.624	780.38
314.853	791.38
315.083	780.38
315.312	800.38
315.542	806.38
315.771	792.38
316.001	793.38
316.23	787.38
316.46	818.38
316.689	808.38
316.919	828.38
317.148	806.38
317.377	826.38
317.607	824.38
317.836	793.38
318.065	794.38
318.295	832.38
318.524	798.38
318.753	808.38
318.983	809.38
319.212	792.38
319.441	788.38
319.67	809.38
319.9	801.38
320.129	802.38
320.358	800.38
320.587	813.38
320.816	814.38
321.046	834.38
321.275	848.38
321.504	826.38
321.733	826.38
321.962	859.38
322.191	842.38
322.42	842.38
322.649	838.38
322.878	849.38
323.108	842.38
323.337	875.38
323.566	885.38
323.795	869.38
324.024	877.38
324.253	876.38
324.482	850.38
324.71	889.38
324.939	890.38
325.168	888.38
325.397	851.38
325.626	888.38
325.855	866.38
326.084	892.38
326.313	868.38
326.542	880.38
326.77	898.38
326.999	861.38
327.228	872.38
327.457	876.38
327.686	886.38
327.914	912.38
328.143	904.38
328.372	920.38
328.6	907.38
328.829	924.38
329.058	910.38
329.287	892.38
329.515	918.38
329.744	915.38
329.972	897.38
330.201	905.38
330.43	934.38
330.658	934.38
330.887	953.38
331.115	967.38
331.344	957.38
331.572	957.38
331.801	972.38
332.03	973.38
332.258	992.38
332.486	1010.38
332.715	1003.38
332.943	1004.38
333.172	1032.38
333.4	1045.38
333.629	1048.38
333.857	1058.38
334.085	1092.38
334.314	1093.38
334.542	1034.38
334.771	1070.38
334.999	1038.38
335.227	1062.38
335.455	1075.38
335.684	1064.38
335.912	1092.38
336.14	1090.38
336.369	1055.38
336.597	1096.38
336.825	1078.38
337.053	1078.38
337.281	1062.38
337.51	1039.38
337.738	1047.38
337.966	1051.38
338.194	1101.38
338.422	1024.38
338.65	1000.38
338.878	1009.38
339.106	1032.38
339.334	1052.38
339.562	1032.38
339.79	1011.38
340.018	995.38
340.246	989.38
340.474	1005.38
340.702	963.38
340.93	1014.38
341.158	978.38
341.386	1066.38
341.614	1097.38
341.842	1078.38
342.07	989.38
342.298	1003.38
342.526	1008.38
342.754	1014.38
342.981	981.38
343.209	1012.38
343.437	1023.38
343.665	1062.38
343.893	1053.38
344.12	1086.38
344.348	1094.38
344.576	1077.38
344.804	1090.38
345.031	1037.38
345.259	1033.38
345.487	1031.38
345.714	1037.38
345.942	1035.38
346.17	1073.38
346.397	1038.38
346.625	974.38
346.853	956.38
347.08	950.38
347.308	984.38
347.535	953.38
347.763	945.38
347.99	944.38
348.218	913.38
348.445	959.38
348.673	947.38
348.9	964.38
349.128	960.38
349.355	989.38
349.583	1007.38
349.81	917.38
350.037	926.38
350.265	919.38
350.492	920.38
350.72	922.38
350.947	955.38
351.174	982.38
351.402	1002.38
351.629	1024.38
351.856	1021.38
352.083	1002.38
352.311	972.38
352.538	1024.38
352.765	1031.38
352.992	961.38
353.22	904.38
353.447	906.38
353.674	904.38
353.901	907.38
354.128	912.38
354.355	900.38
354.583	905.38
354.81	909.38
355.037	949.38
355.264	893.38
355.491	939.38
355.718	932.38
355.945	913.38
356.172	920.38
356.399	934.38
356.626	963.38
356.853	967.38
357.08	935.38
357.307	938.38
357.534	930.38
357.761	954.38
357.988	946.38
358.215	929.38
358.441	935.38
358.668	906.38
358.895	932.38
359.122	900.38
359.349	924.38
359.576	920.38
359.802	929.38
360.029	922.38
360.256	926.38
360.483	932.38
360.709	923.38
360.936	941.38
361.163	925.38
361.39	947.38
361.616	970.38
361.843	973.38
362.07	1022.38
362.296	1000.38
362.523	933.38
362.749	958.38
362.976	954.38
363.203	924.38
363.429	942.38
363.656	926.38
363.882	944.38
364.109	940.38
364.335	920.38
364.562	917.38
364.788	944.38
365.015	921.38
365.241	904.38
365.468	929.38
365.694	908.38
365.92	918.38
366.147	923.38
366.373	955.38
366.599	926.38
366.826	907.38
367.052	914.38
367.278	978.38
367.505	960.38
367.731	954.38
367.957	942.38
368.184	955.38
368.41	961.38
368.636	942.38
368.862	958.38
369.089	935.38
369.315	962.38
369.541	967.38
369.767	955.38
369.993	946.38
370.219	948.38
370.445	964.38
370.672	958.38
370.898	965.38
371.124	969.38
371.35	984.38
371.576	979.38
371.802	989.38
372.028	998.38
372.254	961.38
372.48	1002.38
372.706	1012.38
372.932	1005.38
373.158	1003.38
373.384	1001.38
373.61	995.38
373.835	1008.38
374.061	981.38
374.287	1029.38
374.513	1004.38
374.739	1037.38
374.965	1070.38
375.191	1036.38
375.416	1034.38
375.642	1009.38
375.868	1009.38
376.094	1024.38
376.319	1003.38
376.545	982.38
376.771	961.38
376.997	970.38
377.222	991.38
377.448	983.38
377.674	991.38
377.899	1006.38
378.125	985.38
378.35	1002.38
378.576	1000.38
378.802	978.38
379.027	973.38
379.253	954.38
379.478	957.38
379.704	975.38
379.929	967.38
380.155	982.38
380.38	986.38
380.606	996.38
380.831	983.38
381.057	1010.38
381.282	994.38
381.507	974.38
381.733	981.38
381.958	986.38
382.184	987.38
382.409	998.38
382.634	982.38
382.86	1012.38
383.085	1016.38
383.31	1045.38
383.535	1024.38
383.761	1054.38
383.986	1043.38
384.211	1061.38
384.436	1078.38
384.662	1066.38
384.887	1092.38
385.112	1074.38
385.337	1102.38
385.562	1091.38
385.787	1098.38
386.013	1118.38
386.238	1140.38
386.463	1159.38
386.688	1121.38
386.913	1086.38
387.138	1103.38
387.363	1107.38
387.588	1108.38
387.813	1113.38
388.038	1109.38
388.263	1120.38
388.488	1099.38
388.713	1133.38
388.938	1132.38
389.163	1125.38
389.387	1097.38
389.612	1123.38
389.837	1104.38
390.062	1141.38
390.287	1150.38
390.512	1147.38
390.736	1115.38
390.961	1126.38
391.186	1151.38
391.411	1189.38
391.636	1163.38
391.86	1200.38
392.085	1178.38
392.31	1220.38
392.534	1169.38
392.759	1153.38
392.984	1164.38
393.208	1184.38
393.433	1208.38
393.658	1203.38
393.882	1211.38
394.107	1153.38
394.331	1156.38
394.556	1142.38
394.78	1158.38
395.005	1193.38
395.229	1157.38
395.454	1201.38
395.678	1204.38
395.903	1211.38
396.127	1208.38
396.352	1197.38
396.576	1186.38
396.801	1180.38
397.025	1212.38
397.249	1259.38
397.474	1251.38
397.698	1214.38
397.922	1282.38
398.147	1240.38
398.371	1282.38
398.595	1315.38
398.82	1324.38
399.044	1385.38
399.268	1468.38
399.492	1523.38
399.717	1553.38
399.941	1613.38
400.165	1562.38
400.389	1497.38
400.613	1427.38
400.837	1374.38
401.062	1378.38
401.286	1359.38
401.51	1372.38
401.734	1341.38
401.958	1312.38
402.182	1338.38
402.406	1328.38
402.63	1316.38
402.854	1376.38
403.078	1341.38
403.302	1346.38
403.526	1355.38
403.75	1370.38
403.974	1372.38
404.198	1349.38
404.422	1362.38
404.645	1368.38
404.869	1365.38
405.093	1392.38
405.317	1383.38
405.541	1406.38
405.765	1402.38
405.988	1421.38
406.212	1401.38
406.436	1411.38
406.66	1448.38
406.883	1468.38
407.107	1462.38
407.331	1500.38
407.555	1567.38
407.778	1584.38
408.002	1556.38
408.226	1548.38
408.449	1517.38
408.673	1500.38
408.896	1481.38
409.12	1474.38
409.344	1473.38
409.567	1460.38
409.791	1444.38
410.014	1452.38
410.238	1393.38
410.461	1452.38
410.685	1440.38
410.908	1408.38
411.132	1410.38
411.355	1377.38
411.578	1386.38
411.802	1414.38
412.025	1376.38
412.249	1380.38
412.472	1370.38
412.695	1385.38
412.919	1353.38
413.142	1344.38
413.365	1392.38
413.589	1377.38
413.812	1348.38
414.035	1341.38
414.258	1335.38
414.482	1340.38
414.705	1343.38
414.928	1336.38
415.151	1321.38
415.374	1354.38
415.597	1325.38
415.821	1313.38
416.044	1315.38
416.267	1292.38
416.49	1295.38
416.713	1321.38
416.936	1317.38
417.159	1266.38
417.382	1280.38
417.605	1268.38
417.828	1261.38
418.051	1251.38
418.274	1301.38
418.497	1307.38
418.72	1309.38
418.943	1273.38
419.166	1339.38
419.389	1410.38
419.611	1386.38
419.834	1355.38
420.057	1351.38
420.28	1299.38
420.503	1265.38
420.726	1251.38
420.948	1266.38
421.171	1282.38
421.394	1256.38
421.617	1276.38
421.839	1259.38
422.062	1290.38
422.285	1251.38
422.507	1300.38
422.73	1296.38
422.953	1301.38
423.175	1292.38
423.398	1299.38
423.621	1245.38
423.843	1288.38
424.066	1317.38
424.288	1271.38
424.511	1293.38
424.733	1259.38
424.956	1272.38
425.178	1258.38
425.401	1290.38
425.623	1273.38
425.846	1293.38
426.068	1220.38
426.291	1254.38
426.513	1244.38
426.735	1289.38
426.958	1255.38
427.18	1239.38
427.402	1239.38
427.625	1259.38
427.847	1221.38
428.069	1216.38
428.292	1210.38
428.514	1210.38
428.736	1205.38
428.958	1217.38
429.181	1180.38
429.403	1187.38
429.625	1225.38
429.847	1184.38
430.069	1156.38
430.292	1217.38
430.514	1190.38
430.736	1231.38
430.958	1191.38
431.18	1242.38
431.402	1219.38
431.624	1192.38
431.846	1205.38
432.068	1216.38
432.29	1266.38
432.512	1205.38
432.734	1243.38
432.956	1256.38
433.178	1274.38
433.4	1293.38
433.622	1310.38
433.844	1278.38
434.066	1264.38
434.287	1236.38
434.509	1268.38
434.731	1300.38
434.953	1320.38
435.175	1354.38
435.397	1347.38
435.618	1294.38
435.84	1262.38
436.062	1238.38
436.284	1257.38
436.505	1212.38
436.727	1261.38
436.949	1227.38
437.17	1261.38
437.392	1264.38
437.614	1236.38
437.835	1176.38
438.057	1180.38
438.278	1156.38
438.5	1170.38
438.721	1198.38
438.943	1203.38
439.165	1193.38
439.386	1173.38
439.608	1198.38
439.829	1211.38
440.05	1225.38
440.272	1214.38
440.493	1213.38
440.715	1242.38
440.936	1235.38
441.158	1253.38
441.379	1266.38
441.6	1338.38
441.822	1306.38
442.043	1293.38
442.264	1277.38
442.486	1272.38
442.707	1301.38
442.928	1307.38
443.149	1316.38
443.371	1326.38
443.592	1431.38
443.813	1362.38
444.034	1316.38
444.255	1328.38
444.476	1380.38
444.698	1396.38
444.919	1410.38
445.14	1502.38
445.361	1443.38
445.582	1375.38
445.803	1301.38
446.024	1242.38
446.245	1236.38
446.466	1201.38
446.687	1221.38
446.908	1204.38
447.129	1187.38
447.35	1156.38
447.571	1150.38
447.792	1152.38
448.013	1152.38
448.234	1139.38
448.455	1123.38
448.675	1139.38
448.896	1144.38
449.117	1085.38
449.338	1093.38
449.559	1097.38
449.779	1116.38
450	1109.38
450.221	1109.38
450.442	1088.38
450.662	1101.38
450.883	1147.38
451.104	1180.38
451.324	1099.38
451.545	1105.38
451.766	1066.38
451.986	1082.38
452.207	1049.38
452.428	1085.38
452.648	1094.38
452.869	1076.38
453.089	1104.38
453.31	1137.38
453.53	1082.38
453.751	1038.38
453.971	1081.38
454.192	1130.38
454.412	1116.38
454.633	1089.38
454.853	1057.38
455.073	1084.38
455.294	1082.38
455.514	1095.38
455.734	1110.38
455.955	1142.38
456.175	1134.38
456.395	1077.38
456.616	1057.38
456.836	1053.38
457.056	1067.38
457.276	1031.38
457.497	1110.38
457.717	1097.38
457.937	1109.38
458.157	1131.38
458.377	1098.38
458.598	1110.38
458.818	1138.38
459.038	1134.38
459.258	1171.38
459.478	1321.38
459.698	1400.38
459.918	1385.38
460.138	1302.38
460.358	1352.38
460.578	1326.38
460.798	1379.38
461.018	1421.38
461.238	1309.38
461.458	1320.38
461.678	1305.38
461.898	1349.38
462.118	1358.38
462.338	1380.38
462.558	1405.38
462.777	1468.38
462.997	1553.38
463.217	1556.38
463.437	1673.38
463.657	1588.38
463.876	1513.38
464.096	1445.38
464.316	1467.38
464.536	1472.38
464.755	1408.38
464.975	1390.38
465.195	1350.38
465.414	1315.38
465.634	1253.38
465.854	1219.38
466.073	1228.38
466.293	1171.38
466.512	1189.38
466.732	1185.38
466.951	1174.38
467.171	1180.38
467.391	1193.38
467.61	1192.38
467.829	1165.38
468.049	1139.38
468.268	1150.38
468.488	1170.38
468.707	1165.38
468.927	1146.38
469.146	1159.38
469.365	1236.38
469.585	1177.38
469.804	1173.38
470.023	1175.38
470.243	1157.38
470.462	1189.38
470.681	1160.38
470.901	1166.38
471.12	1176.38
471.339	1150.38
471.558	1185.38
471.777	1152.38
471.997	1152.38
472.216	1141.38
472.435	1158.38
472.654	1128.38
472.873	1156.38
473.092	1152.38
473.311	1132.38
473.53	1148.38
473.749	1157.38
473.968	1141.38
474.187	1166.38
474.406	1114.38
474.625	1166.38
474.844	1184.38
475.063	1160.38
475.282	1207.38
475.501	1228.38
475.72	1199.38
475.939	1206.38
476.158	1212.38
476.377	1215.38
476.596	1188.38
476.814	1234.38
477.033	1228.38
477.252	1276.38
477.471	1246.38
477.69	1292.38
477.908	1316.38
478.127	1318.38
478.346	1335.38
478.564	1351.38
478.783	1380.38
479.002	1449.38
479.22	1490.38
479.439	1426.38
479.658	1415.38
479.876	1404.38
480.095	1406.38
480.313	1434.38
480.532	1424.38
480.751	1435.38
480.969	1396.38
481.188	1408.38
481.406	1393.38
481.624	1393.38
481.843	1406.38
482.061	1397.38
482.28	1376.38
482.498	1398.38
482.717	1402.38
482.935	1406.38
483.153	1426.38
483.372	1465.38
483.59	1508.38
483.808	1452.38
484.027	1417.38
484.245	1437.38
484.463	1451.38
484.681	1468.38
484.9	1434.38
485.118	1450.38
485.336	1464.38
485.554	1466.38
485.772	1440.38
485.99	1441.38
486.209	1459.38
486.427	1460.38
486.645	1458.38
486.863	1491.38
487.081	1482.38
487.299	1462.38
487.517	1447.38
487.735	1479.38
487.953	1519.38
488.171	1464.38
488.389	1471.38
488.607	1444.38
488.825	1442.38
489.043	1442.38
489.261	1428.38
489.479	1440.38
489.696	1463.38
489.914	1460.38
490.132	1428.38
490.35	1429.38
490.568	1444.38
490.786	1464.38
491.003	1423.38
491.221	1453.38
491.439	1481.38
491.657	1495.38
491.874	1449.38
492.092	1468.38
492.31	1468.38
492.527	1460.38
492.745	1445.38
492.963	1459.38
493.18	1464.38
493.398	1485.38
493.615	1479.38
493.833	1489.38
494.05	1454.38
494.268	1499.38
494.485	1465.38
494.703	1451.38
494.92	1480.38
495.138	1481.38
495.355	1493.38
495.573	1484.38
495.79	1515.38
496.008	1521.38
496.225	1524.38
496.442	1555.38
496.66	1544.38
496.877	1529.38
497.094	1612.38
497.312	1597.38
497.529	1641.38
497.746	1627.38
497.963	1679.38
498.181	1706.38
498.398	1789.38
498.615	1833.38
498.832	1885.38
499.049	1973.38
499.267	2018.38
499.484	2136.38
499.701	2267.38
499.918	2394.38
500.135	2467.38
500.352	2609.38
500.569	2682.38
500.786	2662.38
501.003	2612.38
501.22	2472.38
501.437	2343.38
501.654	2217.38
501.871	2097.38
502.088	2052.38
502.305	1975.38
502.522	1918.38
502.739	1846.38
502.956	1741.38
503.172	1700.38
503.389	1630.38
503.606	1616.38
503.823	1633.38
504.04	1586.38
504.256	1572.38
504.473	1550.38
504.69	1562.38
504.907	1502.38
505.123	1460.38
505.34	1425.38
505.557	1418.38
505.773	1383.38
505.99	1390.38
506.207	1333.38
506.423	1343.38
506.64	1332.38
506.856	1314.38
507.073	1265.38
507.289	1288.38
507.506	1295.38
507.722	1275.38
507.939	1280.38
508.155	1272.38
508.372	1229.38
508.588	1252.38
508.805	1198.38
509.021	1219.38
509.238	1214.38
509.454	1209.38
509.67	1207.38
509.887	1190.38
510.103	1156.38
510.319	1185.38
510.536	1177.38
510.752	1172.38
510.968	1141.38
511.184	1149.38
511.401	1157.38
511.617	1149.38
511.833	1178.38
512.049	1153.38
512.265	1148.38
512.481	1125.38
512.698	1112.38
512.914	1154.38
513.13	1164.38
513.346	1156.38
513.562	1166.38
513.778	1172.38
513.994	1212.38
514.21	1205.38
514.426	1153.38
514.642	1178.38
514.858	1170.38
515.074	1174.38
515.29	1169.38
515.506	1188.38
515.721	1231.38
515.937	1221.38
516.153	1224.38
516.369	1196.38
516.585	1209.38
516.801	1255.38
517.016	1278.38
517.232	1282.38
517.448	1298.38
517.664	1314.38
517.879	1325.38
518.095	1293.38
518.311	1326.38
518.527	1275.38
518.742	1272.38
518.958	1234.38
519.173	1204.38
519.389	1216.38
519.605	1201.38
519.82	1152.38
520.036	1184.38
520.251	1169.38
520.467	1141.38
520.682	1114.38
520.898	1148.38
521.113	1124.38
521.329	1101.38
521.544	1082.38
521.76	1071.38
521.975	1100.38
522.19	1079.38
522.406	1079.38
522.621	1061.38
522.836	1065.38
523.052	1076.38
523.267	1059.38
523.482	1045.38
523.698	1042.38
523.913	1026.38
524.128	1034.38
524.343	1034.38
524.559	1015.38
524.774	1022.38
524.989	1046.38
525.204	1028.38
525.419	1037.38
525.634	982.38
525.849	1062.38
526.064	1027.38
526.28	1009.38
526.495	1024.38
526.71	992.38
526.925	1000.38
527.14	1006.38
527.355	1038.38
527.57	978.38
527.785	1025.38
527.999	997.38
528.214	988.38
528.429	981.38
528.644	984.38
528.859	1014.38
529.074	995.38
529.289	1012.38
529.503	978.38
529.718	996.38
529.933	999.38
530.148	1013.38
530.363	978.38
530.577	984.38
530.792	1001.38
531.007	988.38
531.221	976.38
531.436	983.38
531.651	985.38
531.865	989.38
532.08	977.38
532.295	964.38
532.509	971.38
532.724	984.38
532.938	984.38
533.153	977.38
533.367	964.38
533.582	951.38
533.796	969.38
534.011	974.38
534.225	967.38
534.44	967.38
534.654	946.38
534.868	945.38
535.083	928.38
535.297	913.38
535.511	961.38
535.726	935.38
535.94	944.38
536.154	935.38
536.369	929.38
536.583	935.38
536.797	925.38
537.011	923.38
537.225	938.38
537.44	899.38
537.654	924.38
537.868	918.38
538.082	901.38
538.296	893.38
538.51	898.38
538.724	927.38
538.938	913.38
539.153	893.38
539.367	901.38
539.581	884.38
539.795	901.38
540.009	892.38
540.222	883.38
540.436	876.38
540.65	888.38
540.864	880.38
541.078	894.38
541.292	892.38
541.506	894.38
541.72	907.38
541.934	908.38
542.147	925.38
542.361	907.38
542.575	894.38
542.789	905.38
543.002	861.38
543.216	882.38
543.43	891.38
543.644	889.38
543.857	885.38
544.071	877.38
544.285	860.38
544.498	860.38
544.712	852.38
544.925	864.38
545.139	882.38
545.352	877.38
545.566	881.38
545.779	899.38
545.993	900.38
546.206	888.38
546.42	855.38
546.633	872.38
546.847	889.38
547.06	892.38
547.274	865.38
547.487	898.38
547.7	884.38
547.914	888.38
548.127	877.38
548.34	888.38
548.554	869.38
548.767	862.38
548.98	876.38
549.193	876.38
549.407	896.38
549.62	900.38
549.833	884.38
550.046	877.38
550.259	848.38
550.473	855.38
550.686	876.38
550.899	898.38
551.112	884.38
551.325	864.38
551.538	849.38
551.751	853.38
551.964	851.38
552.177	872.38
552.39	887.38
552.603	887.38
552.816	868.38
553.029	875.38
553.242	873.38
553.455	888.38
553.667	906.38
553.88	905.38
554.093	853.38
554.306	870.38
554.519	868.38
554.732	861.38
554.944	856.38
555.157	830.38
555.37	818.38
555.583	820.38
555.795	792.38
556.008	786.38
556.221	816.38
556.433	780.38
556.646	786.38
556.859	774.38
557.071	780.38
557.284	758.38
557.496	781.38
557.709	796.38
557.921	742.38
558.134	750.38
558.346	760.38
558.559	743.38
558.771	734.38
558.984	744.38
559.196	740.38
559.409	741.38
559.621	745.38
559.833	726.38
560.046	744.38
560.258	731.38
560.47	732.38
560.683	716.38
560.895	729.38
561.107	720.38
561.32	757.38
561.532	749.38
561.744	731.38
561.956	732.38
562.168	730.38
562.381	733.38
562.593	736.38
562.805	723.38
563.017	734.38
563.229	717.38
563.441	724.38
563.653	760.38
563.865	747.38
564.077	768.38
564.289	760.38
564.501	767.38
564.713	760.38
564.925	787.38
565.137	778.38
565.349	796.38
565.561	816.38
565.773	845.38
565.985	842.38
566.197	871.38
566.408	896.38
566.62	906.38
566.832	953.38
567.044	944.38
567.255	976.38
567.467	974.38
567.679	985.38
567.891	999.38
568.102	1011.38
568.314	963.38
568.526	923.38
568.737	883.38
568.949	884.38
569.161	830.38
569.372	810.38
569.584	761.38
569.795	777.38
570.007	742.38
570.218	721.38
570.43	735.38
570.641	713.38
570.853	702.38
571.064	698.38
571.276	689.38
571.487	672.38
571.698	665.38
571.91	644.38
572.121	650.38
572.333	630.38
572.544	641.38
572.755	633.38
572.966	624.38
573.178	615.38
573.389	592.38
573.6	615.38
573.811	627.38
574.023	619.38
574.234	577.38
574.445	586.38
574.656	573.38
574.867	600.38
575.078	569.38
575.289	590.38
575.501	592.38
575.712	573.38
575.923	581.38
576.134	579.38
576.345	578.38
576.556	558.38
576.767	541.38
576.978	547.38
577.188	565.38
577.399	563.38
577.61	565.38
577.821	562.38
578.032	552.38
578.243	556.38
578.454	560.38
578.665	550.38
578.875	541.38
579.086	555.38
579.297	525.38
579.508	531.38
579.718	539.38
579.929	522.38
580.14	504.38
580.35	538.38
580.561	523.38
580.772	514.38
580.982	499.38
581.193	501.38
581.403	527.38
581.614	510.38
581.825	488.38
582.035	480.38
582.246	498.38
582.456	517.38
582.667	484.38
582.877	499.38
583.087	499.38
583.298	478.38
583.508	498.38
583.719	503.38
583.929	491.38
584.139	508.38
584.35	467.38
584.56	497.38
584.77	506.38
584.981	490.38
585.191	499.38
585.401	469.38
585.611	493.38
585.821	485.38
586.032	510.38
586.242	485.38
586.452	480.38
586.662	475.38
586.872	502.38
587.082	473.38
587.292	456.38
587.502	467.38
587.713	467.38
587.923	473.38
588.133	485.38
588.343	457.38
588.553	460.38
588.762	477.38
588.972	480.38
589.182	522.38
589.392	501.38
589.602	480.38
589.812	499.38
590.022	502.38
590.232	463.38
590.441	467.38
590.651	481.38
590.861	492.38
591.071	477.38
591.281	479.38
591.49	493.38
591.7	498.38
591.91	517.38
592.119	478.38
592.329	484.38
592.539	522.38
592.748	511.38
592.958	520.38
593.167	490.38
593.377	514.38
593.587	520.38
593.796	505.38
594.006	513.38
594.215	529.38
594.424	513.38
594.634	526.38
594.843	507.38
595.053	498.38
595.262	492.38
595.472	500.38
595.681	465.38
595.89	439.38
596.1	463.38
596.309	461.38
596.518	450.38
596.727	427.38
596.937	445.38
597.146	448.38
597.355	440.38
597.564	441.38
597.774	416.38
597.983	412.38
598.192	421.38
598.401	436.38
598.61	421.38
598.819	430.38
599.028	419.38
599.237	402.38
599.446	411.38
599.655	404.38
599.864	407.38
600.073	404.38
600.282	407.38
600.491	376.38
600.7	394.38
600.909	402.38
601.118	386.38
601.327	365.38
601.536	391.38
601.745	390.38
601.953	382.38
602.162	393.38
602.371	390.38
602.58	403.38
602.789	410.38
602.997	386.38
603.206	397.38
603.415	384.38
603.623	382.38
603.832	399.38
604.041	380.38
604.249	380.38
604.458	356.38
604.666	363.38
604.875	377.38
605.084	365.38
605.292	370.38
605.501	378.38
605.709	344.38
605.918	361.38
606.126	374.38
606.334	380.38
606.543	346.38
606.751	355.38
606.96	376.38
607.168	362.38
607.376	350.38
607.585	381.38
607.793	386.38
608.001	366.38
608.21	358.38
608.418	360.38
608.626	346.38
608.834	367.38
609.043	348.38
609.251	368.38
609.459	359.38
609.667	363.38
609.875	344.38
610.083	361.38
610.291	361.38
610.499	349.38
610.707	350.38
610.916	356.38
611.124	350.38
611.332	354.38
611.54	367.38
611.748	339.38
611.955	343.38
612.163	341.38
612.371	356.38
612.579	358.38
612.787	366.38
612.995	339.38
613.203	349.38
613.411	341.38
613.618	366.38
613.826	339.38
614.034	350.38
614.242	329.38
614.449	345.38
614.657	342.38
614.865	344.38
615.072	366.38
615.28	356.38
615.488	337.38
615.695	351.38
615.903	349.38
616.111	324.38
616.318	340.38
616.526	359.38
616.733	353.38
616.941	341.38
617.148	339.38
617.356	340.38
617.563	337.38
617.771	337.38
617.978	341.38
618.185	337.38
618.393	338.38
618.6	332.38
618.807	338.38
619.015	320.38
619.222	337.38
619.429	339.38
619.637	341.38
619.844	314.38
620.051	331.38
620.258	346.38
620.466	310.38
620.673	298.38
620.88	314.38
621.087	303.38
621.294	320.38
621.501	322.38
621.708	322.38
621.915	323.38
622.122	314.38
622.329	321.38
622.536	302.38
622.743	345.38
622.95	327.38
623.157	309.38
623.364	306.38
623.571	323.38
623.778	305.38
623.985	310.38
624.192	297.38
624.399	308.38
624.606	321.38
624.812	306.38
625.019	305.38
625.226	298.38
625.433	301.38
625.639	294.38
625.846	312.38
626.053	286.38
626.259	310.38
626.466	298.38
626.673	284.38
626.879	283.38
627.086	298.38
627.293	287.38
627.499	283.38
627.706	294.38
627.912	280.38
628.119	310.38
628.325	293.38
628.532	277.38
628.738	285.38
628.945	270.38
629.151	283.38
629.357	281.38
629.564	295.38
629.77	260.38
629.976	270.38
630.183	296.38
630.389	286.38
630.595	281.38
630.802	284.38
631.008	268.38
631.214	285.38
631.42	293.38
631.627	289.38
631.833	274.38
632.039	271.38
632.245	277.38
632.451	283.38
632.657	276.38
632.863	238.38
633.069	241.38
633.275	264.38
633.481	275.38
633.688	264.38
633.893	264.38
634.099	268.38
634.305	271.38
634.511	265.38
634.717	268.38
634.923	274.38
635.129	266.38
635.335	272.38
635.541	269.38
635.747	268.38
635.952	255.38
636.158	267.38
636.364	262.38
636.57	261.38
636.775	256.38
636.981	256.38
637.187	267.38
637.392	254.38
637.598	244.38
637.804	235.38
638.009	232.38
638.215	268.38
638.421	254.38
638.626	255.38
638.832	269.38
639.037	232.38
639.243	250.38
639.448	286.38
639.654	263.38
639.859	244.38
640.065	268.38
640.27	264.38
640.475	252.38
640.681	264.38
640.886	263.38
641.091	249.38
641.297	277.38
641.502	251.38
641.707	260.38
641.913	262.38
642.118	247.38
642.323	236.38
642.528	258.38
642.733	269.38
642.939	272.38
643.144	233.38
643.349	266.38
643.554	255.38
643.759	261.38
643.964	254.38
644.169	246.38
644.374	266.38
644.579	260.38
644.784	248.38
644.989	263.38
645.194	269.38
645.399	250.38
645.604	256.38
645.809	278.38
646.014	250.38
646.219	259.38
646.423	268.38
646.628	255.38
646.833	249.38
647.038	253.38
647.243	238.38
647.447	260.38
647.652	257.38
647.857	252.38
648.062	264.38
648.266	280.38
648.471	263.38
648.676	283.38
648.88	254.38
649.085	274.38
649.289	265.38
649.494	266.38
649.698	273.38
649.903	274.38
650.107	272.38
650.312	268.38
650.516	264.38
650.721	269.38
650.925	255.38
651.13	277.38
651.334	275.38
651.539	275.38
651.743	255.38
651.947	264.38
652.152	254.38
652.356	269.38
652.56	271.38
652.764	260.38
652.969	258.38
653.173	266.38
653.377	259.38
653.581	259.38
653.785	273.38
653.99	256.38
654.194	295.38
654.398	277.38
654.602	263.38
654.806	275.38
655.01	283.38
655.214	294.38
655.418	285.38
655.622	297.38
655.826	302.38
656.03	317.38
656.234	319.38
656.438	335.38
656.642	332.38
656.846	326.38
657.049	284.38
657.253	275.38
657.457	232.38
657.661	244.38
657.865	242.38
658.068	221.38
658.272	196.38
658.476	182.38
658.68	176.38
658.883	180.38
659.087	169.38
659.291	158.38
659.494	156.38
659.698	149.38
659.901	149.38
660.105	148.38
660.309	134.38
660.512	131.38
660.716	115.38
660.919	117.38
661.123	120.38
661.326	122.38
661.53	115.38
661.733	114.38
661.936	96.38
662.14	103.38
662.343	105.38
662.546	88.38
662.75	93.38
662.953	88.38
663.156	85.38
663.36	89.38
663.563	94.38
663.766	83.38
663.969	90.38
664.173	92.38
664.376	92.38
664.579	85.38
664.782	83.38
664.985	71.38
665.188	83.38
665.391	96.38
665.594	85.38
665.797	74.38
666	77.38
666.203	88.38
666.406	73.38
666.609	73.38
666.812	85.38
667.015	77.38
667.218	83.38
667.421	78.38
667.624	74.38
667.827	96.38
668.03	96.38
668.232	81.38
668.435	79.38
668.638	88.38
668.841	84.38
669.043	69.38
669.246	94.38
669.449	84.38
669.651	72.38
669.854	97.38
670.057	90.38
670.259	73.38
670.462	86.38
670.665	85.38
670.867	82.38
671.07	78.38
671.272	68.38
671.475	74.38
671.677	88.38
671.88	80.38
672.082	67.38
672.284	82.38
672.487	84.38
672.689	81.38
672.892	72.38
