Data from Ni(NO3)2@0.25M.TitratingCurve.Agarose3%dH2O.NegLispCup.LampEnergy10.LIBS07252019_HRD10591_18-03-21-566.txt Node
Date: Thu Jul 25 18:03:21 EDT 2019
User: cochatt
Spectrometer: HR+D1059
Trigger mode: 1
Integration Time (sec): 1.000000E-1
Scans to average: 1
Electric dark correction enabled: true
Nonlinearity correction enabled: false
Boxcar width: 0
XAxis mode: Wavelengths
Number of Pixels in Spectrum: 2048
>>>>>Begin Spectral Data<<<<<
223.165	-0.44
223.4	-0.44
223.635	-0.44
223.869	-25.44
224.104	-15.44
224.338	-20.44
224.573	-29.44
224.808	-11.44
225.042	6.56
225.277	-9.44
225.511	-7.44
225.746	5.56
225.98	11.56
226.215	4.56
226.449	23.56
226.683	15.56
226.918	21.56
227.152	30.56
227.387	33.56
227.621	44.56
227.856	29.56
228.09	49.56
228.324	58.56
228.559	52.56
228.793	51.56
229.027	87.56
229.262	81.56
229.496	87.56
229.73	93.56
229.964	112.56
230.199	128.56
230.433	113.56
230.667	109.56
230.901	104.56
231.136	115.56
231.37	118.56
231.604	112.56
231.838	136.56
232.072	128.56
232.306	124.56
232.541	109.56
232.775	111.56
233.009	107.56
233.243	105.56
233.477	116.56
233.711	114.56
233.945	115.56
234.179	125.56
234.413	110.56
234.647	125.56
234.881	128.56
235.115	120.56
235.349	115.56
235.583	114.56
235.817	124.56
236.051	113.56
236.285	136.56
236.519	140.56
236.753	112.56
236.987	118.56
237.221	114.56
237.455	106.56
237.689	128.56
237.922	128.56
238.156	123.56
238.39	120.56
238.624	120.56
238.858	121.56
239.091	112.56
239.325	110.56
239.559	130.56
239.793	128.56
240.027	108.56
240.26	136.56
240.494	122.56
240.728	141.56
240.961	130.56
241.195	132.56
241.429	125.56
241.662	130.56
241.896	134.56
242.13	138.56
242.363	131.56
242.597	124.56
242.83	131.56
243.064	130.56
243.298	137.56
243.531	143.56
243.765	148.56
243.998	140.56
244.232	139.56
244.465	128.56
244.699	151.56
244.932	148.56
245.166	142.56
245.399	139.56
245.633	154.56
245.866	150.56
246.099	155.56
246.333	164.56
246.566	149.56
246.8	164.56
247.033	158.56
247.266	164.56
247.5	149.56
247.733	154.56
247.966	155.56
248.2	174.56
248.433	157.56
248.666	170.56
248.899	182.56
249.133	157.56
249.366	186.56
249.599	200.56
249.832	187.56
250.066	185.56
250.299	203.56
250.532	200.56
250.765	195.56
250.998	209.56
251.231	228.56
251.465	205.56
251.698	223.56
251.931	213.56
252.164	219.56
252.397	221.56
252.63	237.56
252.863	233.56
253.096	218.56
253.329	245.56
253.562	251.56
253.795	251.56
254.028	245.56
254.261	234.56
254.494	260.56
254.727	260.56
254.96	255.56
255.193	265.56
255.426	262.56
255.659	260.56
255.892	268.56
256.124	261.56
256.357	296.56
256.59	264.56
256.823	284.56
257.056	270.56
257.289	294.56
257.521	293.56
257.754	299.56
257.987	283.56
258.22	301.56
258.452	317.56
258.685	317.56
258.918	316.56
259.151	317.56
259.383	306.56
259.616	312.56
259.849	309.56
260.081	319.56
260.314	328.56
260.547	329.56
260.779	337.56
261.012	332.56
261.244	331.56
261.477	353.56
261.71	355.56
261.942	341.56
262.175	339.56
262.407	332.56
262.64	344.56
262.872	340.56
263.105	360.56
263.337	365.56
263.57	348.56
263.802	359.56
264.035	347.56
264.267	368.56
264.499	353.56
264.732	362.56
264.964	365.56
265.197	359.56
265.429	349.56
265.661	349.56
265.894	364.56
266.126	382.56
266.358	388.56
266.591	400.56
266.823	372.56
267.055	353.56
267.287	370.56
267.52	374.56
267.752	363.56
267.984	387.56
268.216	373.56
268.448	379.56
268.681	369.56
268.913	395.56
269.145	368.56
269.377	384.56
269.609	380.56
269.841	384.56
270.073	362.56
270.306	367.56
270.538	396.56
270.77	380.56
271.002	382.56
271.234	374.56
271.466	390.56
271.698	389.56
271.93	404.56
272.162	401.56
272.394	411.56
272.626	401.56
272.858	400.56
273.09	413.56
273.322	414.56
273.553	384.56
273.785	397.56
274.017	388.56
274.249	410.56
274.481	402.56
274.713	385.56
274.945	416.56
275.176	395.56
275.408	408.56
275.64	402.56
275.872	396.56
276.104	390.56
276.335	398.56
276.567	393.56
276.799	394.56
277.031	404.56
277.262	397.56
277.494	402.56
277.726	404.56
277.957	409.56
278.189	391.56
278.421	408.56
278.652	381.56
278.884	402.56
279.115	401.56
279.347	400.56
279.579	407.56
279.81	412.56
280.042	418.56
280.273	424.56
280.505	411.56
280.736	409.56
280.968	411.56
281.199	421.56
281.431	442.56
281.662	408.56
281.894	417.56
282.125	417.56
282.356	419.56
282.588	410.56
282.819	411.56
283.051	435.56
283.282	419.56
283.513	406.56
283.745	435.56
283.976	398.56
284.207	421.56
284.439	411.56
284.67	415.56
284.901	426.56
285.132	417.56
285.364	412.56
285.595	415.56
285.826	410.56
286.057	423.56
286.288	429.56
286.52	419.56
286.751	416.56
286.982	430.56
287.213	426.56
287.444	414.56
287.675	400.56
287.906	432.56
288.138	408.56
288.369	406.56
288.6	421.56
288.831	426.56
289.062	422.56
289.293	437.56
289.524	428.56
289.755	428.56
289.986	429.56
290.217	410.56
290.448	422.56
290.679	426.56
290.91	435.56
291.141	428.56
291.371	420.56
291.602	424.56
291.833	428.56
292.064	418.56
292.295	438.56
292.526	413.56
292.757	404.56
292.987	416.56
293.218	411.56
293.449	438.56
293.68	410.56
293.91	421.56
294.141	422.56
294.372	419.56
294.603	432.56
294.833	434.56
295.064	416.56
295.295	424.56
295.525	419.56
295.756	430.56
295.987	404.56
296.217	424.56
296.448	426.56
296.679	429.56
296.909	424.56
297.14	434.56
297.37	440.56
297.601	428.56
297.831	416.56
298.062	457.56
298.292	443.56
298.523	460.56
298.753	450.56
298.984	436.56
299.214	436.56
299.445	465.56
299.675	443.56
299.905	452.56
300.136	457.56
300.366	473.56
300.597	463.56
300.827	460.56
301.057	500.56
301.288	476.56
301.518	471.56
301.748	462.56
301.979	444.56
302.209	469.56
302.439	442.56
302.669	484.56
302.9	477.56
303.13	457.56
303.36	476.56
303.59	455.56
303.82	479.56
304.051	491.56
304.281	465.56
304.511	477.56
304.741	469.56
304.971	478.56
305.201	499.56
305.431	519.56
305.661	467.56
305.891	484.56
306.121	504.56
306.352	484.56
306.582	498.56
306.812	477.56
307.042	478.56
307.272	485.56
307.502	484.56
307.731	495.56
307.961	510.56
308.191	477.56
308.421	483.56
308.651	496.56
308.881	480.56
309.111	492.56
309.341	490.56
309.571	502.56
309.8	514.56
310.03	496.56
310.26	545.56
310.49	534.56
310.72	539.56
310.949	529.56
311.179	508.56
311.409	518.56
311.639	526.56
311.868	517.56
312.098	534.56
312.328	538.56
312.557	536.56
312.787	527.56
313.017	552.56
313.246	570.56
313.476	577.56
313.706	585.56
313.935	569.56
314.165	587.56
314.394	580.56
314.624	582.56
314.853	569.56
315.083	574.56
315.312	599.56
315.542	587.56
315.771	596.56
316.001	621.56
316.23	628.56
316.46	600.56
316.689	630.56
316.919	616.56
317.148	624.56
317.377	636.56
317.607	612.56
317.836	626.56
318.065	636.56
318.295	632.56
318.524	631.56
318.753	639.56
318.983	644.56
319.212	647.56
319.441	659.56
319.67	662.56
319.9	666.56
320.129	658.56
320.358	698.56
320.587	680.56
320.816	698.56
321.046	691.56
321.275	716.56
321.504	700.56
321.733	707.56
321.962	701.56
322.191	723.56
322.42	732.56
322.649	716.56
322.878	728.56
323.108	733.56
323.337	747.56
323.566	740.56
323.795	796.56
324.024	759.56
324.253	782.56
324.482	769.56
324.71	753.56
324.939	780.56
325.168	808.56
325.397	785.56
325.626	796.56
325.855	818.56
326.084	826.56
326.313	834.56
326.542	860.56
326.77	853.56
326.999	858.56
327.228	860.56
327.457	842.56
327.686	839.56
327.914	862.56
328.143	854.56
328.372	862.56
328.6	865.56
328.829	890.56
329.058	858.56
329.287	884.56
329.515	882.56
329.744	890.56
329.972	903.56
330.201	917.56
330.43	904.56
330.658	907.56
330.887	916.56
331.115	919.56
331.344	929.56
331.572	962.56
331.801	951.56
332.03	977.56
332.258	977.56
332.486	986.56
332.715	950.56
332.943	976.56
333.172	1007.56
333.4	1003.56
333.629	1011.56
333.857	1044.56
334.085	1045.56
334.314	1041.56
334.542	1035.56
334.771	1074.56
334.999	1091.56
335.227	1064.56
335.455	1058.56
335.684	1069.56
335.912	1069.56
336.14	1081.56
336.369	1102.56
336.597	1131.56
336.825	1104.56
337.053	1092.56
337.281	1098.56
337.51	1083.56
337.738	1048.56
337.966	1057.56
338.194	1066.56
338.422	1074.56
338.65	1045.56
338.878	1059.56
339.106	1048.56
339.334	1037.56
339.562	1059.56
339.79	1016.56
340.018	1056.56
340.246	1021.56
340.474	1013.56
340.702	1021.56
340.93	1001.56
341.158	1057.56
341.386	1074.56
341.614	1016.56
341.842	1041.56
342.07	1020.56
342.298	1034.56
342.526	1042.56
342.754	1049.56
342.981	1029.56
343.209	1061.56
343.437	1076.56
343.665	1073.56
343.893	1077.56
344.12	1134.56
344.348	1065.56
344.576	1090.56
344.804	1083.56
345.031	1067.56
345.259	1063.56
345.487	1069.56
345.714	1054.56
345.942	1047.56
346.17	1048.56
346.397	1013.56
346.625	1020.56
346.853	1028.56
347.08	1005.56
347.308	1000.56
347.535	1025.56
347.763	995.56
347.99	1000.56
348.218	981.56
348.445	1005.56
348.673	999.56
348.9	996.56
349.128	1013.56
349.355	987.56
349.583	1040.56
349.81	1005.56
350.037	977.56
350.265	1007.56
350.492	992.56
350.72	997.56
350.947	988.56
351.174	980.56
351.402	1013.56
351.629	1016.56
351.856	1006.56
352.083	987.56
352.311	970.56
352.538	1007.56
352.765	1036.56
352.992	978.56
353.22	948.56
353.447	944.56
353.674	968.56
353.901	977.56
354.128	943.56
354.355	977.56
354.583	971.56
354.81	962.56
355.037	978.56
355.264	965.56
355.491	941.56
355.718	966.56
355.945	965.56
356.172	954.56
356.399	974.56
356.626	1029.56
356.853	996.56
357.08	966.56
357.307	992.56
357.534	986.56
357.761	956.56
357.988	955.56
358.215	972.56
358.441	925.56
358.668	926.56
358.895	953.56
359.122	961.56
359.349	961.56
359.576	969.56
359.802	944.56
360.029	948.56
360.256	917.56
360.483	947.56
360.709	966.56
360.936	965.56
361.163	968.56
361.39	958.56
361.616	967.56
361.843	973.56
362.07	999.56
362.296	969.56
362.523	949.56
362.749	936.56
362.976	948.56
363.203	929.56
363.429	936.56
363.656	954.56
363.882	946.56
364.109	960.56
364.335	935.56
364.562	930.56
364.788	957.56
365.015	976.56
365.241	946.56
365.468	944.56
365.694	944.56
365.92	926.56
366.147	933.56
366.373	938.56
366.599	959.56
366.826	958.56
367.052	925.56
367.278	944.56
367.505	944.56
367.731	955.56
367.957	944.56
368.184	957.56
368.41	936.56
368.636	937.56
368.862	942.56
369.089	948.56
369.315	957.56
369.541	936.56
369.767	964.56
369.993	958.56
370.219	921.56
370.445	948.56
370.672	944.56
370.898	927.56
371.124	959.56
371.35	962.56
371.576	955.56
371.802	951.56
372.028	936.56
372.254	971.56
372.48	941.56
372.706	925.56
372.932	952.56
373.158	968.56
373.384	951.56
373.61	951.56
373.835	935.56
374.061	936.56
374.287	933.56
374.513	959.56
374.739	968.56
374.965	968.56
375.191	974.56
375.416	995.56
375.642	959.56
375.868	935.56
376.094	922.56
376.319	930.56
376.545	936.56
376.771	932.56
376.997	930.56
377.222	940.56
377.448	932.56
377.674	922.56
377.899	902.56
378.125	906.56
378.35	921.56
378.576	920.56
378.802	895.56
379.027	872.56
379.253	909.56
379.478	885.56
379.704	888.56
379.929	883.56
380.155	886.56
380.38	898.56
380.606	906.56
380.831	882.56
381.057	893.56
381.282	862.56
381.507	881.56
381.733	900.56
381.958	882.56
382.184	920.56
382.409	948.56
382.634	904.56
382.86	897.56
383.085	926.56
383.31	915.56
383.535	955.56
383.761	932.56
383.986	928.56
384.211	932.56
384.436	935.56
384.662	935.56
384.887	935.56
385.112	960.56
385.337	979.56
385.562	966.56
385.787	938.56
386.013	974.56
386.238	980.56
386.463	960.56
386.688	965.56
386.913	958.56
387.138	963.56
387.363	1014.56
387.588	983.56
387.813	996.56
388.038	987.56
388.263	961.56
388.488	984.56
388.713	962.56
388.938	994.56
389.163	974.56
389.387	974.56
389.612	1001.56
389.837	1006.56
390.062	952.56
390.287	999.56
390.512	988.56
390.736	1002.56
390.961	980.56
391.186	976.56
391.411	1034.56
391.636	997.56
391.86	1019.56
392.085	1028.56
392.31	1031.56
392.534	1034.56
392.759	1049.56
392.984	1011.56
393.208	1069.56
393.433	1030.56
393.658	1025.56
393.882	1014.56
394.107	1000.56
394.331	1038.56
394.556	1013.56
394.78	1013.56
395.005	1004.56
395.229	1033.56
395.454	1043.56
395.678	1042.56
395.903	1061.56
396.127	1039.56
396.352	1031.56
396.576	1036.56
396.801	1045.56
397.025	1076.56
397.249	1067.56
397.474	1088.56
397.698	1082.56
397.922	1082.56
398.147	1098.56
398.371	1112.56
398.595	1093.56
398.82	1141.56
399.044	1148.56
399.268	1219.56
399.492	1269.56
399.717	1298.56
399.941	1334.56
400.165	1318.56
400.389	1274.56
400.613	1268.56
400.837	1194.56
401.062	1195.56
401.286	1195.56
401.51	1182.56
401.734	1186.56
401.958	1167.56
402.182	1161.56
402.406	1165.56
402.63	1174.56
402.854	1139.56
403.078	1158.56
403.302	1178.56
403.526	1158.56
403.75	1184.56
403.974	1193.56
404.198	1192.56
404.422	1169.56
404.645	1171.56
404.869	1227.56
405.093	1220.56
405.317	1184.56
405.541	1223.56
405.765	1268.56
405.988	1231.56
406.212	1249.56
406.436	1289.56
406.66	1267.56
406.883	1285.56
407.107	1291.56
407.331	1354.56
407.555	1330.56
407.778	1357.56
408.002	1325.56
408.226	1309.56
408.449	1335.56
408.673	1284.56
408.896	1301.56
409.12	1276.56
409.344	1312.56
409.567	1253.56
409.791	1285.56
410.014	1260.56
410.238	1255.56
410.461	1248.56
410.685	1295.56
410.908	1249.56
411.132	1248.56
411.355	1233.56
411.578	1259.56
411.802	1254.56
412.025	1223.56
412.249	1250.56
412.472	1243.56
412.695	1216.56
412.919	1215.56
413.142	1242.56
413.365	1288.56
413.589	1230.56
413.812	1216.56
414.035	1211.56
414.258	1225.56
414.482	1223.56
414.705	1253.56
414.928	1293.56
415.151	1232.56
415.374	1253.56
415.597	1259.56
415.821	1214.56
416.044	1222.56
416.267	1204.56
416.49	1189.56
416.713	1179.56
416.936	1237.56
417.159	1206.56
417.382	1205.56
417.605	1206.56
417.828	1218.56
418.051	1208.56
418.274	1236.56
418.497	1233.56
418.72	1227.56
418.943	1210.56
419.166	1302.56
419.389	1366.56
419.611	1346.56
419.834	1300.56
420.057	1289.56
420.28	1257.56
420.503	1230.56
420.726	1220.56
420.948	1213.56
421.171	1252.56
421.394	1246.56
421.617	1250.56
421.839	1192.56
422.062	1215.56
422.285	1232.56
422.507	1256.56
422.73	1224.56
422.953	1239.56
423.175	1230.56
423.398	1254.56
423.621	1253.56
423.843	1245.56
424.066	1252.56
424.288	1252.56
424.511	1229.56
424.733	1229.56
424.956	1247.56
425.178	1259.56
425.401	1270.56
425.623	1258.56
425.846	1251.56
426.068	1245.56
426.291	1254.56
426.513	1235.56
426.735	1257.56
426.958	1287.56
427.18	1212.56
427.402	1260.56
427.625	1238.56
427.847	1207.56
428.069	1212.56
428.292	1249.56
428.514	1229.56
428.736	1254.56
428.958	1267.56
429.181	1225.56
429.403	1246.56
429.625	1216.56
429.847	1237.56
430.069	1197.56
430.292	1245.56
430.514	1232.56
430.736	1256.56
430.958	1242.56
431.18	1239.56
431.402	1241.56
431.624	1210.56
431.846	1227.56
432.068	1218.56
432.29	1259.56
432.512	1213.56
432.734	1256.56
432.956	1244.56
433.178	1235.56
433.4	1293.56
433.622	1281.56
433.844	1285.56
434.066	1269.56
434.287	1240.56
434.509	1265.56
434.731	1250.56
434.953	1288.56
435.175	1302.56
435.397	1316.56
435.618	1268.56
435.84	1277.56
436.062	1219.56
436.284	1263.56
436.505	1286.56
436.727	1269.56
436.949	1251.56
437.17	1267.56
437.392	1244.56
437.614	1247.56
437.835	1228.56
438.057	1264.56
438.278	1226.56
438.5	1223.56
438.721	1239.56
438.943	1237.56
439.165	1237.56
439.386	1219.56
439.608	1252.56
439.829	1257.56
440.05	1245.56
440.272	1284.56
440.493	1259.56
440.715	1257.56
440.936	1276.56
441.158	1260.56
441.379	1299.56
441.6	1338.56
441.822	1295.56
442.043	1314.56
442.264	1340.56
442.486	1284.56
442.707	1272.56
442.928	1304.56
443.149	1295.56
443.371	1274.56
443.592	1336.56
443.813	1329.56
444.034	1323.56
444.255	1348.56
444.476	1334.56
444.698	1362.56
444.919	1370.56
445.14	1432.56
445.361	1423.56
445.582	1349.56
445.803	1310.56
446.024	1332.56
446.245	1315.56
446.466	1318.56
446.687	1251.56
446.908	1254.56
447.129	1246.56
447.35	1235.56
447.571	1234.56
447.792	1220.56
448.013	1228.56
448.234	1192.56
448.455	1214.56
448.675	1178.56
448.896	1196.56
449.117	1170.56
449.338	1214.56
449.559	1172.56
449.779	1166.56
450	1186.56
450.221	1187.56
450.442	1174.56
450.662	1126.56
450.883	1165.56
451.104	1179.56
451.324	1178.56
451.545	1142.56
451.766	1148.56
451.986	1159.56
452.207	1157.56
452.428	1156.56
452.648	1142.56
452.869	1156.56
453.089	1127.56
453.31	1156.56
453.53	1125.56
453.751	1116.56
453.971	1127.56
454.192	1113.56
454.412	1116.56
454.633	1116.56
454.853	1147.56
455.073	1147.56
455.294	1132.56
455.514	1121.56
455.734	1136.56
455.955	1144.56
456.175	1138.56
456.395	1124.56
456.616	1134.56
456.836	1126.56
457.056	1113.56
457.276	1114.56
457.497	1143.56
457.717	1154.56
457.937	1164.56
458.157	1146.56
458.377	1144.56
458.598	1145.56
458.818	1177.56
459.038	1167.56
459.258	1192.56
459.478	1254.56
459.698	1267.56
459.918	1273.56
460.138	1277.56
460.358	1291.56
460.578	1306.56
460.798	1315.56
461.018	1330.56
461.238	1367.56
461.458	1308.56
461.678	1325.56
461.898	1374.56
462.118	1365.56
462.338	1395.56
462.558	1434.56
462.777	1429.56
462.997	1450.56
463.217	1499.56
463.437	1546.56
463.657	1501.56
463.876	1440.56
464.096	1465.56
464.316	1419.56
464.536	1422.56
464.755	1406.56
464.975	1381.56
465.195	1384.56
465.414	1353.56
465.634	1313.56
465.854	1308.56
466.073	1293.56
466.293	1225.56
466.512	1217.56
466.732	1233.56
466.951	1231.56
467.171	1239.56
467.391	1249.56
467.61	1248.56
467.829	1242.56
468.049	1219.56
468.268	1233.56
468.488	1180.56
468.707	1243.56
468.927	1206.56
469.146	1203.56
469.365	1234.56
469.585	1211.56
469.804	1257.56
470.023	1214.56
470.243	1246.56
470.462	1254.56
470.681	1242.56
470.901	1234.56
471.12	1272.56
471.339	1278.56
471.558	1260.56
471.777	1216.56
471.997	1264.56
472.216	1202.56
472.435	1242.56
472.654	1210.56
472.873	1206.56
473.092	1190.56
473.311	1235.56
473.53	1262.56
473.749	1204.56
473.968	1257.56
474.187	1232.56
474.406	1227.56
474.625	1205.56
474.844	1242.56
475.063	1252.56
475.282	1276.56
475.501	1270.56
475.72	1250.56
475.939	1268.56
476.158	1285.56
476.377	1281.56
476.596	1284.56
476.814	1322.56
477.033	1320.56
477.252	1333.56
477.471	1331.56
477.69	1355.56
477.908	1370.56
478.127	1383.56
478.346	1379.56
478.564	1399.56
478.783	1438.56
479.002	1433.56
479.22	1477.56
479.439	1466.56
479.658	1460.56
479.876	1444.56
480.095	1470.56
480.313	1481.56
480.532	1465.56
480.751	1478.56
480.969	1484.56
481.188	1461.56
481.406	1476.56
481.624	1444.56
481.843	1421.56
482.061	1432.56
482.28	1415.56
482.498	1441.56
482.717	1449.56
482.935	1435.56
483.153	1478.56
483.372	1484.56
483.59	1478.56
483.808	1468.56
484.027	1455.56
484.245	1475.56
484.463	1477.56
484.681	1478.56
484.9	1465.56
485.118	1485.56
485.336	1480.56
485.554	1490.56
485.772	1454.56
485.99	1471.56
486.209	1503.56
486.427	1504.56
486.645	1513.56
486.863	1491.56
487.081	1515.56
487.299	1499.56
487.517	1497.56
487.735	1505.56
487.953	1541.56
488.171	1496.56
488.389	1529.56
488.607	1495.56
488.825	1508.56
489.043	1515.56
489.261	1500.56
489.479	1489.56
489.696	1504.56
489.914	1497.56
490.132	1505.56
490.35	1519.56
490.568	1522.56
490.786	1548.56
491.003	1546.56
491.221	1549.56
491.439	1589.56
491.657	1555.56
491.874	1580.56
492.092	1584.56
492.31	1616.56
492.527	1637.56
492.745	1609.56
492.963	1586.56
493.18	1610.56
493.398	1592.56
493.615	1622.56
493.833	1614.56
494.05	1606.56
494.268	1661.56
494.485	1610.56
494.703	1622.56
494.92	1619.56
495.138	1629.56
495.355	1637.56
495.573	1639.56
495.79	1652.56
496.008	1702.56
496.225	1672.56
496.442	1728.56
496.66	1723.56
496.877	1741.56
497.094	1768.56
497.312	1750.56
497.529	1821.56
497.746	1784.56
497.963	1827.56
498.181	1893.56
498.398	1924.56
498.615	1974.56
498.832	1986.56
499.049	2059.56
499.267	2104.56
499.484	2237.56
499.701	2307.56
499.918	2337.56
500.135	2422.56
500.352	2547.56
500.569	2533.56
500.786	2553.56
501.003	2502.56
501.22	2440.56
501.437	2371.56
501.654	2263.56
501.871	2212.56
502.088	2132.56
502.305	2063.56
502.522	2029.56
502.739	1959.56
502.956	1940.56
503.172	1906.56
503.389	1861.56
503.606	1814.56
503.823	1804.56
504.04	1748.56
504.256	1770.56
504.473	1785.56
504.69	1707.56
504.907	1690.56
505.123	1667.56
505.34	1621.56
505.557	1611.56
505.773	1613.56
505.99	1563.56
506.207	1579.56
506.423	1514.56
506.64	1530.56
506.856	1532.56
507.073	1486.56
507.289	1492.56
507.506	1485.56
507.722	1440.56
507.939	1452.56
508.155	1463.56
508.372	1452.56
508.588	1453.56
508.805	1443.56
509.021	1418.56
509.238	1381.56
509.454	1404.56
509.67	1406.56
509.887	1373.56
510.103	1370.56
510.319	1360.56
510.536	1404.56
510.752	1344.56
510.968	1379.56
511.184	1358.56
511.401	1353.56
511.617	1357.56
511.833	1372.56
512.049	1328.56
512.265	1345.56
512.481	1336.56
512.698	1358.56
512.914	1330.56
513.13	1353.56
513.346	1355.56
513.562	1363.56
513.778	1340.56
513.994	1350.56
514.21	1369.56
514.426	1373.56
514.642	1366.56
514.858	1376.56
515.074	1350.56
515.29	1356.56
515.506	1373.56
515.721	1362.56
515.937	1393.56
516.153	1402.56
516.369	1389.56
516.585	1400.56
516.801	1414.56
517.016	1447.56
517.232	1480.56
517.448	1479.56
517.664	1472.56
517.879	1464.56
518.095	1489.56
518.311	1515.56
518.527	1466.56
518.742	1460.56
518.958	1412.56
519.173	1412.56
519.389	1424.56
519.605	1377.56
519.82	1337.56
520.036	1379.56
520.251	1330.56
520.467	1353.56
520.682	1313.56
520.898	1341.56
521.113	1308.56
521.329	1295.56
521.544	1264.56
521.76	1249.56
521.975	1252.56
522.19	1269.56
522.406	1274.56
522.621	1267.56
522.836	1249.56
523.052	1258.56
523.267	1252.56
523.482	1245.56
523.698	1246.56
523.913	1239.56
524.128	1254.56
524.343	1214.56
524.559	1230.56
524.774	1235.56
524.989	1228.56
525.204	1217.56
525.419	1249.56
525.634	1252.56
525.849	1247.56
526.064	1231.56
526.28	1201.56
526.495	1202.56
526.71	1214.56
526.925	1178.56
527.14	1178.56
527.355	1173.56
527.57	1204.56
527.785	1148.56
527.999	1201.56
528.214	1177.56
528.429	1206.56
528.644	1220.56
528.859	1217.56
529.074	1238.56
529.289	1203.56
529.503	1209.56
529.718	1226.56
529.933	1175.56
530.148	1174.56
530.363	1206.56
530.577	1150.56
530.792	1182.56
531.007	1145.56
531.221	1148.56
531.436	1176.56
531.651	1180.56
531.865	1179.56
532.08	1160.56
532.295	1180.56
532.509	1174.56
532.724	1156.56
532.938	1125.56
533.153	1152.56
533.367	1147.56
533.582	1152.56
533.796	1177.56
534.011	1160.56
534.225	1156.56
534.44	1168.56
534.654	1148.56
534.868	1146.56
535.083	1160.56
535.297	1117.56
535.511	1129.56
535.726	1132.56
535.94	1139.56
536.154	1126.56
536.369	1111.56
536.583	1120.56
536.797	1096.56
537.011	1097.56
537.225	1114.56
537.44	1097.56
537.654	1130.56
537.868	1076.56
538.082	1093.56
538.296	1069.56
538.51	1084.56
538.724	1074.56
538.938	1067.56
539.153	1087.56
539.367	1109.56
539.581	1091.56
539.795	1076.56
540.009	1072.56
540.222	1042.56
540.436	1066.56
540.65	1061.56
540.864	1036.56
541.078	1056.56
541.292	1066.56
541.506	1084.56
541.72	1069.56
541.934	1096.56
542.147	1115.56
542.361	1098.56
542.575	1086.56
542.789	1054.56
543.002	1060.56
543.216	1061.56
543.43	1059.56
543.644	1032.56
543.857	1069.56
544.071	1086.56
544.285	1072.56
544.498	1092.56
544.712	1064.56
544.925	1050.56
545.139	1080.56
545.352	1073.56
545.566	1088.56
545.779	1068.56
545.993	1054.56
546.206	1072.56
546.42	1078.56
546.633	1046.56
546.847	1059.56
547.06	1048.56
547.274	1087.56
547.487	1090.56
547.7	1068.56
547.914	1092.56
548.127	1059.56
548.34	1079.56
548.554	1084.56
548.767	1072.56
548.98	1078.56
549.193	1067.56
549.407	1068.56
549.62	1048.56
549.833	1051.56
550.046	1036.56
550.259	1060.56
550.473	1057.56
550.686	1081.56
550.899	1000.56
551.112	1054.56
551.325	1032.56
551.538	1012.56
551.751	1019.56
551.964	1009.56
552.177	1022.56
552.39	1059.56
552.603	1077.56
552.816	1040.56
553.029	1065.56
553.242	1084.56
553.455	1083.56
553.667	1055.56
553.88	1034.56
554.093	1042.56
554.306	1023.56
554.519	993.56
554.732	994.56
554.944	1026.56
555.157	1011.56
555.37	977.56
555.583	992.56
555.795	978.56
556.008	972.56
556.221	965.56
556.433	930.56
556.646	933.56
556.859	935.56
557.071	914.56
557.284	936.56
557.496	926.56
557.709	909.56
557.921	921.56
558.134	913.56
558.346	951.56
558.559	890.56
558.771	918.56
558.984	916.56
559.196	893.56
559.409	884.56
559.621	896.56
559.833	893.56
560.046	880.56
560.258	896.56
560.47	890.56
560.683	905.56
560.895	917.56
561.107	904.56
561.32	884.56
561.532	912.56
561.744	868.56
561.956	869.56
562.168	871.56
562.381	869.56
562.593	868.56
562.805	907.56
563.017	898.56
563.229	900.56
563.441	888.56
563.653	879.56
563.865	887.56
564.077	899.56
564.289	885.56
564.501	904.56
564.713	908.56
564.925	942.56
565.137	916.56
565.349	926.56
565.561	963.56
565.773	970.56
565.985	963.56
566.197	952.56
566.408	1014.56
566.62	994.56
566.832	1049.56
567.044	1069.56
567.255	1027.56
567.467	1029.56
567.679	1042.56
567.891	1024.56
568.102	1031.56
568.314	1018.56
568.526	982.56
568.737	1006.56
568.949	932.56
569.161	908.56
569.372	888.56
569.584	887.56
569.795	859.56
570.007	807.56
570.218	867.56
570.43	820.56
570.641	826.56
570.853	790.56
571.064	838.56
571.276	788.56
571.487	786.56
571.698	785.56
571.91	771.56
572.121	791.56
572.333	773.56
572.544	768.56
572.755	742.56
572.966	745.56
573.178	741.56
573.389	711.56
573.6	692.56
573.811	692.56
574.023	730.56
574.234	698.56
574.445	680.56
574.656	698.56
574.867	715.56
575.078	710.56
575.289	682.56
575.501	672.56
575.712	678.56
575.923	692.56
576.134	688.56
576.345	673.56
576.556	668.56
576.767	670.56
576.978	673.56
577.188	654.56
577.399	662.56
577.61	633.56
577.821	634.56
578.032	642.56
578.243	646.56
578.454	666.56
578.665	638.56
578.875	628.56
579.086	640.56
579.297	631.56
579.508	611.56
579.718	614.56
579.929	633.56
580.14	593.56
580.35	612.56
580.561	621.56
580.772	621.56
580.982	605.56
581.193	602.56
581.403	613.56
581.614	607.56
581.825	598.56
582.035	602.56
582.246	588.56
582.456	594.56
582.667	610.56
582.877	594.56
583.087	573.56
583.298	589.56
583.508	575.56
583.719	576.56
583.929	570.56
584.139	574.56
584.35	587.56
584.56	572.56
584.77	591.56
584.981	580.56
585.191	554.56
585.401	577.56
585.611	555.56
585.821	594.56
586.032	584.56
586.242	572.56
586.452	565.56
586.662	555.56
586.872	571.56
587.082	567.56
587.292	564.56
587.502	557.56
587.713	564.56
587.923	573.56
588.133	556.56
588.343	573.56
588.553	572.56
588.762	554.56
588.972	530.56
589.182	599.56
589.392	564.56
589.602	544.56
589.812	559.56
590.022	566.56
590.232	534.56
590.441	537.56
590.651	544.56
590.861	537.56
591.071	557.56
591.281	554.56
591.49	550.56
591.7	534.56
591.91	555.56
592.119	563.56
592.329	554.56
592.539	579.56
592.748	587.56
592.958	572.56
593.167	543.56
593.377	585.56
593.587	566.56
593.796	540.56
594.006	594.56
594.215	550.56
594.424	562.56
594.634	562.56
594.843	535.56
595.053	540.56
595.262	549.56
595.472	522.56
595.681	515.56
595.89	536.56
596.1	516.56
596.309	514.56
596.518	508.56
596.727	509.56
596.937	530.56
597.146	501.56
597.355	490.56
597.564	482.56
597.774	490.56
597.983	500.56
598.192	480.56
598.401	477.56
598.61	496.56
598.819	490.56
599.028	486.56
599.237	483.56
599.446	469.56
599.655	453.56
599.864	458.56
600.073	453.56
600.282	466.56
600.491	444.56
600.7	464.56
600.909	490.56
601.118	461.56
601.327	448.56
601.536	442.56
601.745	434.56
601.953	437.56
602.162	451.56
602.371	434.56
602.58	447.56
602.789	436.56
602.997	412.56
603.206	445.56
603.415	458.56
603.623	424.56
603.832	422.56
604.041	429.56
604.249	406.56
604.458	441.56
604.666	418.56
604.875	412.56
605.084	441.56
605.292	413.56
605.501	446.56
605.709	420.56
605.918	415.56
606.126	424.56
606.334	437.56
606.543	424.56
606.751	422.56
606.96	407.56
607.168	412.56
607.376	405.56
607.585	407.56
607.793	420.56
608.001	414.56
608.21	413.56
608.418	423.56
608.626	429.56
608.834	386.56
609.043	412.56
609.251	411.56
609.459	420.56
609.667	412.56
609.875	398.56
610.083	414.56
610.291	420.56
610.499	392.56
610.707	408.56
610.916	394.56
611.124	406.56
611.332	382.56
611.54	393.56
611.748	403.56
611.955	404.56
612.163	378.56
612.371	398.56
612.579	392.56
612.787	372.56
612.995	400.56
613.203	396.56
613.411	405.56
613.618	397.56
613.826	376.56
614.034	382.56
614.242	388.56
614.449	375.56
614.657	365.56
614.865	390.56
615.072	387.56
615.28	382.56
615.488	382.56
615.695	366.56
615.903	370.56
616.111	391.56
616.318	386.56
616.526	378.56
616.733	385.56
616.941	384.56
617.148	382.56
617.356	372.56
617.563	382.56
617.771	353.56
617.978	363.56
618.185	377.56
618.393	375.56
618.6	342.56
618.807	363.56
619.015	364.56
619.222	329.56
619.429	324.56
619.637	349.56
619.844	361.56
620.051	363.56
620.258	342.56
620.466	365.56
620.673	357.56
620.88	334.56
621.087	340.56
621.294	334.56
621.501	354.56
621.708	341.56
621.915	358.56
622.122	356.56
622.329	331.56
622.536	357.56
622.743	344.56
622.95	348.56
623.157	346.56
623.364	337.56
623.571	341.56
623.778	334.56
623.985	349.56
624.192	317.56
624.399	337.56
624.606	340.56
624.812	325.56
625.019	331.56
625.226	324.56
625.433	331.56
625.639	317.56
625.846	318.56
626.053	321.56
626.259	328.56
626.466	338.56
626.673	338.56
626.879	327.56
627.086	329.56
627.293	330.56
627.499	326.56
627.706	323.56
627.912	301.56
628.119	323.56
628.325	314.56
628.532	318.56
628.738	312.56
628.945	316.56
629.151	318.56
629.357	315.56
629.564	296.56
629.77	293.56
629.976	292.56
630.183	302.56
630.389	296.56
630.595	306.56
630.802	281.56
631.008	299.56
631.214	293.56
631.42	310.56
631.627	290.56
631.833	299.56
632.039	282.56
632.245	300.56
632.451	298.56
632.657	282.56
632.863	296.56
633.069	288.56
633.275	302.56
633.481	282.56
633.688	283.56
633.893	282.56
634.099	296.56
634.305	290.56
634.511	281.56
634.717	284.56
634.923	308.56
635.129	277.56
635.335	289.56
635.541	287.56
635.747	295.56
635.952	275.56
636.158	269.56
636.364	266.56
636.57	267.56
636.775	277.56
636.981	283.56
637.187	269.56
637.392	290.56
637.598	269.56
637.804	263.56
638.009	268.56
638.215	262.56
638.421	270.56
638.626	268.56
638.832	280.56
639.037	266.56
639.243	262.56
639.448	270.56
639.654	249.56
639.859	266.56
640.065	270.56
640.27	264.56
640.475	262.56
640.681	265.56
640.886	274.56
641.091	261.56
641.297	258.56
641.502	245.56
641.707	267.56
641.913	264.56
642.118	248.56
642.323	249.56
642.528	262.56
642.733	264.56
642.939	251.56
643.144	262.56
643.349	244.56
643.554	238.56
643.759	260.56
643.964	260.56
644.169	236.56
644.374	233.56
644.579	245.56
644.784	230.56
644.989	256.56
645.194	252.56
645.399	267.56
645.604	252.56
645.809	242.56
646.014	237.56
646.219	237.56
646.423	257.56
646.628	246.56
646.833	261.56
647.038	241.56
647.243	270.56
647.447	238.56
647.652	258.56
647.857	249.56
648.062	261.56
648.266	244.56
648.471	243.56
648.676	241.56
648.88	255.56
649.085	253.56
649.289	240.56
649.494	225.56
649.698	246.56
649.903	251.56
650.107	228.56
650.312	227.56
650.516	223.56
650.721	232.56
650.925	232.56
651.13	221.56
651.334	217.56
651.539	218.56
651.743	215.56
651.947	218.56
652.152	216.56
652.356	205.56
652.56	209.56
652.764	213.56
652.969	227.56
653.173	201.56
653.377	210.56
653.581	198.56
653.785	210.56
653.99	212.56
654.194	198.56
654.398	189.56
654.602	202.56
654.806	201.56
655.01	175.56
655.214	197.56
655.418	185.56
655.622	184.56
655.826	177.56
656.03	186.56
656.234	192.56
656.438	174.56
656.642	187.56
656.846	180.56
657.049	170.56
657.253	162.56
657.457	146.56
657.661	148.56
657.865	135.56
658.068	140.56
658.272	140.56
658.476	140.56
658.68	136.56
658.883	135.56
659.087	120.56
659.291	118.56
659.494	120.56
659.698	120.56
659.901	107.56
660.105	97.56
660.309	99.56
660.512	113.56
660.716	99.56
660.919	107.56
661.123	103.56
661.326	92.56
661.53	108.56
661.733	85.56
661.936	102.56
662.14	91.56
662.343	94.56
662.546	96.56
662.75	103.56
662.953	98.56
663.156	79.56
663.36	85.56
663.563	102.56
663.766	104.56
663.969	86.56
664.173	88.56
664.376	83.56
664.579	67.56
664.782	90.56
664.985	88.56
665.188	85.56
665.391	79.56
665.594	91.56
665.797	89.56
666	73.56
666.203	88.56
666.406	88.56
666.609	85.56
666.812	86.56
667.015	58.56
667.218	71.56
667.421	89.56
667.624	84.56
667.827	65.56
668.03	77.56
668.232	74.56
668.435	83.56
668.638	82.56
668.841	83.56
669.043	88.56
669.246	84.56
669.449	85.56
669.651	72.56
669.854	84.56
670.057	83.56
670.259	86.56
670.462	82.56
670.665	78.56
670.867	82.56
671.07	100.56
671.272	92.56
671.475	82.56
671.677	88.56
671.88	71.56
672.082	83.56
672.284	75.56
672.487	70.56
672.689	95.56
672.892	98.56
