Data from Ni(NO3)2@0.25M.TitratingCurve.Agarose3%dH2O.NegLispCup.LampEnergy10.LIBS07252019_HRD10591_18-03-44-566.txt Node
Date: Thu Jul 25 18:03:44 EDT 2019
User: cochatt
Spectrometer: HR+D1059
Trigger mode: 1
Integration Time (sec): 1.000000E-1
Scans to average: 1
Electric dark correction enabled: true
Nonlinearity correction enabled: false
Boxcar width: 0
XAxis mode: Wavelengths
Number of Pixels in Spectrum: 2048
>>>>>Begin Spectral Data<<<<<
223.165	-19.62
223.4	-19.62
223.635	-19.62
223.869	-21.62
224.104	-19.62
224.338	-6.62
224.573	-18.62
224.808	-1.62
225.042	-13.62
225.277	2.38
225.511	11.38
225.746	6.38
225.98	-7.62
226.215	8.38
226.449	20.38
226.683	17.38
226.918	15.38
227.152	27.38
227.387	34.38
227.621	36.38
227.856	32.38
228.09	34.38
228.324	55.38
228.559	59.38
228.793	65.38
229.027	78.38
229.262	82.38
229.496	89.38
229.73	89.38
229.964	93.38
230.199	115.38
230.433	101.38
230.667	122.38
230.901	105.38
231.136	98.38
231.37	108.38
231.604	120.38
231.838	104.38
232.072	118.38
232.306	99.38
232.541	95.38
232.775	103.38
233.009	125.38
233.243	116.38
233.477	112.38
233.711	119.38
233.945	120.38
234.179	104.38
234.413	111.38
234.647	104.38
234.881	99.38
235.115	111.38
235.349	122.38
235.583	102.38
235.817	112.38
236.051	125.38
236.285	99.38
236.519	110.38
236.753	116.38
236.987	106.38
237.221	122.38
237.455	121.38
237.689	122.38
237.922	118.38
238.156	116.38
238.39	103.38
238.624	112.38
238.858	125.38
239.091	118.38
239.325	119.38
239.559	124.38
239.793	115.38
240.027	118.38
240.26	110.38
240.494	108.38
240.728	120.38
240.961	116.38
241.195	118.38
241.429	120.38
241.662	119.38
241.896	126.38
242.13	139.38
242.363	128.38
242.597	126.38
242.83	128.38
243.064	129.38
243.298	126.38
243.531	121.38
243.765	114.38
243.998	126.38
244.232	139.38
244.465	148.38
244.699	136.38
244.932	150.38
245.166	138.38
245.399	138.38
245.633	131.38
245.866	151.38
246.099	130.38
246.333	154.38
246.566	144.38
246.8	139.38
247.033	139.38
247.266	141.38
247.5	134.38
247.733	132.38
247.966	140.38
248.2	135.38
248.433	148.38
248.666	150.38
248.899	170.38
249.133	155.38
249.366	160.38
249.599	165.38
249.832	150.38
250.066	172.38
250.299	184.38
250.532	171.38
250.765	170.38
250.998	177.38
251.231	183.38
251.465	165.38
251.698	172.38
251.931	179.38
252.164	184.38
252.397	179.38
252.63	182.38
252.863	191.38
253.096	188.38
253.329	199.38
253.562	198.38
253.795	209.38
254.028	192.38
254.261	188.38
254.494	198.38
254.727	214.38
254.96	211.38
255.193	210.38
255.426	196.38
255.659	199.38
255.892	206.38
256.124	203.38
256.357	187.38
256.59	212.38
256.823	208.38
257.056	220.38
257.289	227.38
257.521	221.38
257.754	228.38
257.987	224.38
258.22	208.38
258.452	232.38
258.685	235.38
258.918	224.38
259.151	225.38
259.383	235.38
259.616	238.38
259.849	243.38
260.081	226.38
260.314	251.38
260.547	244.38
260.779	239.38
261.012	258.38
261.244	232.38
261.477	256.38
261.71	242.38
261.942	247.38
262.175	244.38
262.407	245.38
262.64	238.38
262.872	246.38
263.105	231.38
263.337	262.38
263.57	271.38
263.802	262.38
264.035	262.38
264.267	264.38
264.499	256.38
264.732	242.38
264.964	271.38
265.197	269.38
265.429	264.38
265.661	251.38
265.894	270.38
266.126	281.38
266.358	269.38
266.591	255.38
266.823	294.38
267.055	278.38
267.287	266.38
267.52	276.38
267.752	272.38
267.984	276.38
268.216	277.38
268.448	278.38
268.681	291.38
268.913	288.38
269.145	275.38
269.377	266.38
269.609	262.38
269.841	279.38
270.073	291.38
270.306	277.38
270.538	277.38
270.77	276.38
271.002	286.38
271.234	284.38
271.466	280.38
271.698	290.38
271.93	297.38
272.162	281.38
272.394	297.38
272.626	307.38
272.858	289.38
273.09	291.38
273.322	286.38
273.553	292.38
273.785	284.38
274.017	296.38
274.249	285.38
274.481	294.38
274.713	303.38
274.945	300.38
275.176	299.38
275.408	318.38
275.64	315.38
275.872	309.38
276.104	306.38
276.335	298.38
276.567	312.38
276.799	303.38
277.031	301.38
277.262	304.38
277.494	311.38
277.726	316.38
277.957	300.38
278.189	309.38
278.421	325.38
278.652	318.38
278.884	301.38
279.115	305.38
279.347	304.38
279.579	306.38
279.81	296.38
280.042	318.38
280.273	298.38
280.505	315.38
280.736	308.38
280.968	314.38
281.199	334.38
281.431	328.38
281.662	324.38
281.894	296.38
282.125	316.38
282.356	315.38
282.588	309.38
282.819	315.38
283.051	327.38
283.282	313.38
283.513	321.38
283.745	322.38
283.976	322.38
284.207	318.38
284.439	317.38
284.67	342.38
284.901	320.38
285.132	313.38
285.364	322.38
285.595	326.38
285.826	340.38
286.057	340.38
286.288	321.38
286.52	324.38
286.751	331.38
286.982	321.38
287.213	324.38
287.444	325.38
287.675	324.38
287.906	319.38
288.138	310.38
288.369	331.38
288.6	342.38
288.831	344.38
289.062	315.38
289.293	310.38
289.524	331.38
289.755	334.38
289.986	324.38
290.217	316.38
290.448	327.38
290.679	342.38
290.91	330.38
291.141	323.38
291.371	322.38
291.602	330.38
291.833	326.38
292.064	333.38
292.295	320.38
292.526	312.38
292.757	330.38
292.987	333.38
293.218	330.38
293.449	332.38
293.68	329.38
293.91	314.38
294.141	333.38
294.372	330.38
294.603	333.38
294.833	332.38
295.064	350.38
295.295	326.38
295.525	347.38
295.756	340.38
295.987	332.38
296.217	331.38
296.448	355.38
296.679	342.38
296.909	342.38
297.14	343.38
297.37	350.38
297.601	353.38
297.831	355.38
298.062	340.38
298.292	338.38
298.523	353.38
298.753	354.38
298.984	352.38
299.214	366.38
299.445	370.38
299.675	357.38
299.905	349.38
300.136	340.38
300.366	351.38
300.597	361.38
300.827	384.38
301.057	354.38
301.288	378.38
301.518	372.38
301.748	376.38
301.979	371.38
302.209	349.38
302.439	374.38
302.669	361.38
302.9	380.38
303.13	370.38
303.36	359.38
303.59	375.38
303.82	374.38
304.051	387.38
304.281	368.38
304.511	390.38
304.741	374.38
304.971	380.38
305.201	387.38
305.431	386.38
305.661	395.38
305.891	378.38
306.121	379.38
306.352	380.38
306.582	376.38
306.812	364.38
307.042	377.38
307.272	382.38
307.502	372.38
307.731	388.38
307.961	391.38
308.191	375.38
308.421	388.38
308.651	379.38
308.881	374.38
309.111	390.38
309.341	397.38
309.571	402.38
309.8	388.38
310.03	401.38
310.26	399.38
310.49	421.38
310.72	400.38
310.949	395.38
311.179	397.38
311.409	399.38
311.639	406.38
311.868	400.38
312.098	426.38
312.328	411.38
312.557	411.38
312.787	422.38
313.017	402.38
313.246	412.38
313.476	444.38
313.706	439.38
313.935	434.38
314.165	411.38
314.394	431.38
314.624	440.38
314.853	441.38
315.083	423.38
315.312	461.38
315.542	436.38
315.771	445.38
316.001	439.38
316.23	445.38
316.46	454.38
316.689	442.38
316.919	467.38
317.148	447.38
317.377	439.38
317.607	453.38
317.836	458.38
318.065	451.38
318.295	474.38
318.524	463.38
318.753	479.38
318.983	467.38
319.212	469.38
319.441	457.38
319.67	478.38
319.9	489.38
320.129	487.38
320.358	490.38
320.587	489.38
320.816	523.38
321.046	501.38
321.275	493.38
321.504	503.38
321.733	499.38
321.962	487.38
322.191	524.38
322.42	510.38
322.649	487.38
322.878	526.38
323.108	514.38
323.337	514.38
323.566	517.38
323.795	542.38
324.024	566.38
324.253	542.38
324.482	548.38
324.71	556.38
324.939	562.38
325.168	551.38
325.397	543.38
325.626	570.38
325.855	565.38
326.084	580.38
326.313	586.38
326.542	575.38
326.77	599.38
326.999	595.38
327.228	591.38
327.457	596.38
327.686	594.38
327.914	611.38
328.143	598.38
328.372	617.38
328.6	614.38
328.829	613.38
329.058	612.38
329.287	601.38
329.515	616.38
329.744	614.38
329.972	627.38
330.201	630.38
330.43	640.38
330.658	617.38
330.887	648.38
331.115	642.38
331.344	649.38
331.572	678.38
331.801	674.38
332.03	692.38
332.258	682.38
332.486	691.38
332.715	702.38
332.943	685.38
333.172	744.38
333.4	753.38
333.629	734.38
333.857	740.38
334.085	762.38
334.314	746.38
334.542	734.38
334.771	789.38
334.999	755.38
335.227	774.38
335.455	781.38
335.684	766.38
335.912	795.38
336.14	792.38
336.369	780.38
336.597	796.38
336.825	786.38
337.053	802.38
337.281	803.38
337.51	789.38
337.738	751.38
337.966	774.38
338.194	771.38
338.422	740.38
338.65	745.38
338.878	743.38
339.106	725.38
339.334	738.38
339.562	724.38
339.79	706.38
340.018	708.38
340.246	718.38
340.474	695.38
340.702	717.38
340.93	709.38
341.158	711.38
341.386	721.38
341.614	718.38
341.842	723.38
342.07	704.38
342.298	696.38
342.526	719.38
342.754	715.38
342.981	729.38
343.209	715.38
343.437	735.38
343.665	738.38
343.893	783.38
344.12	782.38
344.348	788.38
344.576	795.38
344.804	765.38
345.031	748.38
345.259	711.38
345.487	733.38
345.714	734.38
345.942	717.38
346.17	734.38
346.397	736.38
346.625	690.38
346.853	697.38
347.08	684.38
347.308	672.38
347.535	696.38
347.763	708.38
347.99	683.38
348.218	707.38
348.445	691.38
348.673	668.38
348.9	676.38
349.128	687.38
349.355	691.38
349.583	716.38
349.81	682.38
350.037	675.38
350.265	670.38
350.492	668.38
350.72	674.38
350.947	677.38
351.174	668.38
351.402	668.38
351.629	708.38
351.856	688.38
352.083	693.38
352.311	677.38
352.538	697.38
352.765	686.38
352.992	656.38
353.22	656.38
353.447	656.38
353.674	663.38
353.901	661.38
354.128	645.38
354.355	638.38
354.583	655.38
354.81	636.38
355.037	640.38
355.264	643.38
355.491	635.38
355.718	650.38
355.945	660.38
356.172	657.38
356.399	665.38
356.626	679.38
356.853	698.38
357.08	676.38
357.307	644.38
357.534	645.38
357.761	650.38
357.988	667.38
358.215	652.38
358.441	650.38
358.668	666.38
358.895	662.38
359.122	645.38
359.349	627.38
359.576	661.38
359.802	675.38
360.029	642.38
360.256	657.38
360.483	638.38
360.709	638.38
360.936	678.38
361.163	661.38
361.39	654.38
361.616	662.38
361.843	664.38
362.07	696.38
362.296	657.38
362.523	658.38
362.749	664.38
362.976	665.38
363.203	666.38
363.429	644.38
363.656	654.38
363.882	668.38
364.109	653.38
364.335	648.38
364.562	631.38
364.788	638.38
365.015	632.38
365.241	618.38
365.468	638.38
365.694	653.38
365.92	648.38
366.147	646.38
366.373	647.38
366.599	660.38
366.826	619.38
367.052	644.38
367.278	647.38
367.505	629.38
367.731	640.38
367.957	651.38
368.184	632.38
368.41	652.38
368.636	644.38
368.862	636.38
369.089	661.38
369.315	639.38
369.541	656.38
369.767	650.38
369.993	657.38
370.219	662.38
370.445	674.38
370.672	646.38
370.898	656.38
371.124	668.38
371.35	657.38
371.576	668.38
371.802	671.38
372.028	654.38
372.254	667.38
372.48	680.38
372.706	668.38
372.932	665.38
373.158	692.38
373.384	668.38
373.61	673.38
373.835	678.38
374.061	678.38
374.287	664.38
374.513	665.38
374.739	702.38
374.965	681.38
375.191	688.38
375.416	706.38
375.642	662.38
375.868	668.38
376.094	696.38
376.319	669.38
376.545	679.38
376.771	650.38
376.997	642.38
377.222	647.38
377.448	657.38
377.674	654.38
377.899	661.38
378.125	651.38
378.35	639.38
378.576	641.38
378.802	646.38
379.027	642.38
379.253	631.38
379.478	631.38
379.704	644.38
379.929	646.38
380.155	685.38
380.38	630.38
380.606	621.38
380.831	663.38
381.057	636.38
381.282	616.38
381.507	619.38
381.733	631.38
381.958	676.38
382.184	644.38
382.409	638.38
382.634	645.38
382.86	630.38
383.085	655.38
383.31	668.38
383.535	649.38
383.761	677.38
383.986	679.38
384.211	700.38
384.436	671.38
384.662	682.38
384.887	718.38
385.112	704.38
385.337	705.38
385.562	722.38
385.787	712.38
386.013	732.38
386.238	729.38
386.463	742.38
386.688	727.38
386.913	729.38
387.138	707.38
387.363	712.38
387.588	702.38
387.813	715.38
388.038	739.38
388.263	724.38
388.488	724.38
388.713	736.38
388.938	739.38
389.163	739.38
389.387	724.38
389.612	712.38
389.837	711.38
390.062	726.38
390.287	725.38
390.512	735.38
390.736	752.38
390.961	734.38
391.186	747.38
391.411	781.38
391.636	763.38
391.86	783.38
392.085	790.38
392.31	785.38
392.534	786.38
392.759	815.38
392.984	798.38
393.208	764.38
393.433	779.38
393.658	761.38
393.882	743.38
394.107	808.38
394.331	762.38
394.556	785.38
394.78	761.38
395.005	748.38
395.229	788.38
395.454	788.38
395.678	812.38
395.903	798.38
396.127	792.38
396.352	769.38
396.576	782.38
396.801	782.38
397.025	783.38
397.249	812.38
397.474	832.38
397.698	830.38
397.922	861.38
398.147	878.38
398.371	853.38
398.595	863.38
398.82	894.38
399.044	963.38
399.268	983.38
399.492	1073.38
399.717	1086.38
399.941	1132.38
400.165	1072.38
400.389	1054.38
400.613	1006.38
400.837	995.38
401.062	957.38
401.286	933.38
401.51	920.38
401.734	921.38
401.958	922.38
402.182	895.38
402.406	912.38
402.63	922.38
402.854	953.38
403.078	950.38
403.302	940.38
403.526	946.38
403.75	939.38
403.974	936.38
404.198	969.38
404.422	962.38
404.645	931.38
404.869	948.38
405.093	968.38
405.317	955.38
405.541	961.38
405.765	980.38
405.988	982.38
406.212	976.38
406.436	962.38
406.66	1033.38
406.883	1006.38
407.107	1033.38
407.331	1053.38
407.555	1075.38
407.778	1078.38
408.002	1100.38
408.226	1082.38
408.449	1074.38
408.673	1048.38
408.896	1075.38
409.12	1047.38
409.344	1048.38
409.567	999.38
409.791	1019.38
410.014	999.38
410.238	1030.38
410.461	1004.38
410.685	1014.38
410.908	984.38
411.132	1008.38
411.355	979.38
411.578	968.38
411.802	968.38
412.025	966.38
412.249	986.38
412.472	956.38
412.695	961.38
412.919	953.38
413.142	967.38
413.365	959.38
413.589	988.38
413.812	984.38
414.035	947.38
414.258	953.38
414.482	960.38
414.705	973.38
414.928	960.38
415.151	989.38
415.374	990.38
415.597	966.38
415.821	975.38
416.044	966.38
416.267	946.38
416.49	940.38
416.713	937.38
416.936	958.38
417.159	948.38
417.382	943.38
417.605	944.38
417.828	931.38
418.051	955.38
418.274	952.38
418.497	934.38
418.72	982.38
418.943	959.38
419.166	1018.38
419.389	1081.38
419.611	1057.38
419.834	1030.38
420.057	995.38
420.28	957.38
420.503	962.38
420.726	949.38
420.948	953.38
421.171	961.38
421.394	964.38
421.617	942.38
421.839	966.38
422.062	945.38
422.285	935.38
422.507	980.38
422.73	980.38
422.953	933.38
423.175	946.38
423.398	983.38
423.621	981.38
423.843	978.38
424.066	992.38
424.288	994.38
424.511	976.38
424.733	986.38
424.956	970.38
425.178	982.38
425.401	964.38
425.623	982.38
425.846	981.38
426.068	984.38
426.291	958.38
426.513	941.38
426.735	946.38
426.958	954.38
427.18	911.38
427.402	944.38
427.625	918.38
427.847	928.38
428.069	920.38
428.292	978.38
428.514	936.38
428.736	920.38
428.958	963.38
429.181	890.38
429.403	906.38
429.625	933.38
429.847	905.38
430.069	906.38
430.292	915.38
430.514	918.38
430.736	923.38
430.958	939.38
431.18	907.38
431.402	962.38
431.624	941.38
431.846	911.38
432.068	916.38
432.29	929.38
432.512	900.38
432.734	940.38
432.956	963.38
433.178	934.38
433.4	941.38
433.622	983.38
433.844	978.38
434.066	976.38
434.287	944.38
434.509	972.38
434.731	984.38
434.953	988.38
435.175	1008.38
435.397	1030.38
435.618	1013.38
435.84	957.38
436.062	965.38
436.284	949.38
436.505	968.38
436.727	934.38
436.949	959.38
437.17	963.38
437.392	919.38
437.614	932.38
437.835	916.38
438.057	918.38
438.278	901.38
438.5	919.38
438.721	940.38
438.943	953.38
439.165	937.38
439.386	937.38
439.608	937.38
439.829	956.38
440.05	975.38
440.272	1001.38
440.493	962.38
440.715	990.38
440.936	989.38
441.158	994.38
441.379	986.38
441.6	1011.38
441.822	1016.38
442.043	1017.38
442.264	1013.38
442.486	1003.38
442.707	997.38
442.928	1024.38
443.149	1014.38
443.371	1026.38
443.592	1003.38
443.813	1034.38
444.034	1038.38
444.255	1055.38
444.476	1065.38
444.698	1123.38
444.919	1103.38
445.14	1157.38
445.361	1102.38
445.582	1045.38
445.803	1032.38
446.024	1009.38
446.245	1012.38
446.466	996.38
446.687	949.38
446.908	967.38
447.129	962.38
447.35	937.38
447.571	941.38
447.792	933.38
448.013	937.38
448.234	905.38
448.455	914.38
448.675	931.38
448.896	902.38
449.117	878.38
449.338	917.38
449.559	896.38
449.779	922.38
450	899.38
450.221	890.38
450.442	892.38
450.662	879.38
450.883	858.38
451.104	902.38
451.324	890.38
451.545	885.38
451.766	893.38
451.986	909.38
452.207	878.38
452.428	908.38
452.648	856.38
452.869	868.38
453.089	862.38
453.31	856.38
453.53	852.38
453.751	879.38
453.971	855.38
454.192	833.38
454.412	850.38
454.633	854.38
454.853	837.38
455.073	858.38
455.294	828.38
455.514	846.38
455.734	869.38
455.955	814.38
456.175	831.38
456.395	834.38
456.616	852.38
456.836	863.38
457.056	846.38
457.276	812.38
457.497	855.38
457.717	845.38
457.937	851.38
458.157	870.38
458.377	879.38
458.598	903.38
458.818	891.38
459.038	909.38
459.258	916.38
459.478	977.38
459.698	963.38
459.918	1002.38
460.138	1020.38
460.358	1033.38
460.578	1037.38
460.798	1030.38
461.018	1066.38
461.238	1070.38
461.458	1076.38
461.678	1069.38
461.898	1090.38
462.118	1113.38
462.338	1157.38
462.558	1128.38
462.777	1190.38
462.997	1222.38
463.217	1240.38
463.437	1278.38
463.657	1236.38
463.876	1198.38
464.096	1202.38
464.316	1180.38
464.536	1174.38
464.755	1148.38
464.975	1112.38
465.195	1097.38
465.414	1040.38
465.634	1025.38
465.854	993.38
466.073	998.38
466.293	990.38
466.512	930.38
466.732	955.38
466.951	953.38
467.171	934.38
467.391	956.38
467.61	947.38
467.829	923.38
468.049	932.38
468.268	928.38
468.488	927.38
468.707	915.38
468.927	923.38
469.146	893.38
469.365	934.38
469.585	943.38
469.804	942.38
470.023	935.38
470.243	927.38
470.462	935.38
470.681	945.38
470.901	970.38
471.12	959.38
471.339	933.38
471.558	896.38
471.777	928.38
471.997	897.38
472.216	898.38
472.435	930.38
472.654	890.38
472.873	870.38
473.092	902.38
473.311	903.38
473.53	918.38
473.749	923.38
473.968	922.38
474.187	895.38
474.406	905.38
474.625	926.38
474.844	932.38
475.063	934.38
475.282	925.38
475.501	923.38
475.72	910.38
475.939	941.38
476.158	954.38
476.377	955.38
476.596	934.38
476.814	948.38
477.033	926.38
477.252	983.38
477.471	981.38
477.69	1005.38
477.908	1023.38
478.127	1017.38
478.346	1061.38
478.564	1067.38
478.783	1040.38
479.002	1072.38
479.22	1060.38
479.439	1084.38
479.658	1081.38
479.876	1098.38
480.095	1075.38
480.313	1105.38
480.532	1110.38
480.751	1113.38
480.969	1071.38
481.188	1068.38
481.406	1055.38
481.624	1034.38
481.843	1040.38
482.061	1053.38
482.28	1043.38
482.498	1038.38
482.717	1041.38
482.935	1046.38
483.153	1063.38
483.372	1048.38
483.59	1067.38
483.808	1041.38
484.027	1018.38
484.245	1024.38
484.463	1039.38
484.681	1090.38
484.9	1070.38
485.118	1080.38
485.336	1080.38
485.554	1085.38
485.772	1073.38
485.99	1057.38
486.209	1070.38
486.427	1088.38
486.645	1094.38
486.863	1090.38
487.081	1079.38
487.299	1097.38
487.517	1089.38
487.735	1127.38
487.953	1116.38
488.171	1100.38
488.389	1071.38
488.607	1125.38
488.825	1099.38
489.043	1067.38
489.261	1096.38
489.479	1119.38
489.696	1095.38
489.914	1082.38
490.132	1058.38
490.35	1088.38
490.568	1103.38
490.786	1147.38
491.003	1103.38
491.221	1140.38
491.439	1107.38
491.657	1136.38
491.874	1145.38
492.092	1144.38
492.31	1146.38
492.527	1140.38
492.745	1159.38
492.963	1177.38
493.18	1160.38
493.398	1180.38
493.615	1156.38
493.833	1165.38
494.05	1181.38
494.268	1176.38
494.485	1183.38
494.703	1180.38
494.92	1212.38
495.138	1220.38
495.355	1189.38
495.573	1226.38
495.79	1215.38
496.008	1278.38
496.225	1289.38
496.442	1284.38
496.66	1277.38
496.877	1290.38
497.094	1293.38
497.312	1333.38
497.529	1364.38
497.746	1375.38
497.963	1417.38
498.181	1482.38
498.398	1491.38
498.615	1549.38
498.832	1606.38
499.049	1673.38
499.267	1755.38
499.484	1853.38
499.701	1958.38
499.918	2072.38
500.135	2157.38
500.352	2294.38
500.569	2336.38
500.786	2280.38
501.003	2267.38
501.22	2170.38
501.437	2074.38
501.654	1939.38
501.871	1855.38
502.088	1759.38
502.305	1672.38
502.522	1636.38
502.739	1595.38
502.956	1508.38
503.172	1490.38
503.389	1382.38
503.606	1419.38
503.823	1352.38
504.04	1362.38
504.256	1342.38
504.473	1346.38
504.69	1334.38
504.907	1314.38
505.123	1250.38
505.34	1209.38
505.557	1208.38
505.773	1185.38
505.99	1165.38
506.207	1144.38
506.423	1123.38
506.64	1124.38
506.856	1124.38
507.073	1108.38
507.289	1103.38
507.506	1090.38
507.722	1088.38
507.939	1019.38
508.155	1055.38
508.372	1026.38
508.588	1029.38
508.805	1046.38
509.021	1045.38
509.238	1021.38
509.454	1009.38
509.67	1004.38
509.887	975.38
510.103	995.38
510.319	975.38
510.536	953.38
510.752	958.38
510.968	979.38
511.184	979.38
511.401	957.38
511.617	986.38
511.833	971.38
512.049	950.38
512.265	974.38
512.481	989.38
512.698	969.38
512.914	962.38
513.13	983.38
513.346	956.38
513.562	963.38
513.778	941.38
513.994	990.38
514.21	967.38
514.426	991.38
514.642	978.38
514.858	989.38
515.074	1012.38
515.29	996.38
515.506	1022.38
515.721	994.38
515.937	1030.38
516.153	1046.38
516.369	1033.38
516.585	1043.38
516.801	1072.38
517.016	1092.38
517.232	1111.38
517.448	1142.38
517.664	1143.38
517.879	1128.38
518.095	1126.38
518.311	1127.38
518.527	1087.38
518.742	1104.38
518.958	1091.38
519.173	1075.38
519.389	1063.38
519.605	1053.38
519.82	1023.38
520.036	1013.38
520.251	976.38
520.467	984.38
520.682	989.38
520.898	954.38
521.113	943.38
521.329	954.38
521.544	923.38
521.76	931.38
521.975	909.38
522.19	931.38
522.406	916.38
522.621	922.38
522.836	884.38
523.052	930.38
523.267	916.38
523.482	855.38
523.698	899.38
523.913	888.38
524.128	894.38
524.343	898.38
524.559	901.38
524.774	878.38
524.989	906.38
525.204	897.38
525.419	874.38
525.634	872.38
525.849	891.38
526.064	879.38
526.28	886.38
526.495	860.38
526.71	845.38
526.925	874.38
527.14	867.38
527.355	856.38
527.57	865.38
527.785	884.38
527.999	850.38
528.214	830.38
528.429	862.38
528.644	861.38
528.859	845.38
529.074	862.38
529.289	888.38
529.503	832.38
529.718	869.38
529.933	865.38
530.148	827.38
530.363	854.38
530.577	851.38
530.792	853.38
531.007	845.38
531.221	860.38
531.436	828.38
531.651	831.38
531.865	832.38
532.08	864.38
532.295	857.38
532.509	862.38
532.724	862.38
532.938	847.38
533.153	850.38
533.367	832.38
533.582	873.38
533.796	854.38
534.011	845.38
534.225	831.38
534.44	842.38
534.654	842.38
534.868	818.38
535.083	834.38
535.297	852.38
535.511	829.38
535.726	819.38
535.94	820.38
536.154	764.38
536.369	801.38
536.583	831.38
536.797	777.38
537.011	773.38
537.225	781.38
537.44	805.38
537.654	816.38
537.868	772.38
538.082	801.38
538.296	768.38
538.51	798.38
538.724	806.38
538.938	798.38
539.153	792.38
539.367	791.38
539.581	807.38
539.795	782.38
540.009	774.38
540.222	770.38
540.436	763.38
540.65	793.38
540.864	775.38
541.078	789.38
541.292	809.38
541.506	801.38
541.72	800.38
541.934	802.38
542.147	818.38
542.361	782.38
542.575	795.38
542.789	807.38
543.002	762.38
543.216	796.38
543.43	773.38
543.644	792.38
543.857	775.38
544.071	779.38
544.285	822.38
544.498	785.38
544.712	784.38
544.925	792.38
545.139	796.38
545.352	794.38
545.566	809.38
545.779	814.38
545.993	804.38
546.206	796.38
546.42	784.38
546.633	802.38
546.847	783.38
547.06	781.38
547.274	803.38
547.487	799.38
547.7	800.38
547.914	812.38
548.127	799.38
548.34	791.38
548.554	811.38
548.767	784.38
548.98	797.38
549.193	802.38
549.407	807.38
549.62	827.38
549.833	810.38
550.046	780.38
550.259	797.38
550.473	799.38
550.686	792.38
550.899	762.38
551.112	772.38
551.325	783.38
551.538	763.38
551.751	773.38
551.964	765.38
552.177	792.38
552.39	786.38
552.603	812.38
552.816	827.38
553.029	845.38
553.242	831.38
553.455	818.38
553.667	824.38
553.88	799.38
554.093	766.38
554.306	798.38
554.519	782.38
554.732	778.38
554.944	775.38
555.157	770.38
555.37	741.38
555.583	759.38
555.795	734.38
556.008	729.38
556.221	726.38
556.433	694.38
556.646	723.38
556.859	712.38
557.071	697.38
557.284	676.38
557.496	714.38
557.709	694.38
557.921	677.38
558.134	681.38
558.346	667.38
558.559	694.38
558.771	672.38
558.984	675.38
559.196	676.38
559.409	657.38
559.621	669.38
559.833	661.38
560.046	694.38
560.258	656.38
560.47	654.38
560.683	666.38
560.895	689.38
561.107	658.38
561.32	638.38
561.532	640.38
561.744	668.38
561.956	666.38
562.168	683.38
562.381	684.38
562.593	663.38
562.805	700.38
563.017	677.38
563.229	682.38
563.441	692.38
563.653	679.38
563.865	670.38
564.077	662.38
564.289	694.38
564.501	712.38
564.713	720.38
564.925	726.38
565.137	742.38
565.349	733.38
565.561	766.38
565.773	759.38
565.985	770.38
566.197	789.38
566.408	804.38
566.62	820.38
566.832	851.38
567.044	858.38
567.255	860.38
567.467	873.38
567.679	900.38
567.891	918.38
568.102	897.38
568.314	852.38
568.526	819.38
568.737	824.38
568.949	774.38
569.161	742.38
569.372	710.38
569.584	723.38
569.795	700.38
570.007	669.38
570.218	650.38
570.43	661.38
570.641	666.38
570.853	655.38
571.064	644.38
571.276	638.38
571.487	642.38
571.698	626.38
571.91	600.38
572.121	587.38
572.333	582.38
572.544	614.38
572.755	560.38
572.966	564.38
573.178	570.38
573.389	541.38
573.6	528.38
573.811	550.38
574.023	557.38
574.234	528.38
574.445	522.38
574.656	534.38
574.867	525.38
575.078	533.38
575.289	516.38
575.501	520.38
575.712	505.38
575.923	507.38
576.134	538.38
576.345	513.38
576.556	487.38
576.767	475.38
576.978	503.38
577.188	502.38
577.399	510.38
577.61	505.38
577.821	488.38
578.032	510.38
578.243	475.38
578.454	482.38
578.665	484.38
578.875	495.38
579.086	473.38
579.297	469.38
579.508	462.38
579.718	472.38
579.929	460.38
580.14	474.38
580.35	449.38
580.561	478.38
580.772	455.38
580.982	463.38
581.193	491.38
581.403	469.38
581.614	474.38
581.825	436.38
582.035	447.38
582.246	436.38
582.456	430.38
582.667	455.38
582.877	459.38
583.087	456.38
583.298	436.38
583.508	432.38
583.719	441.38
583.929	455.38
584.139	444.38
584.35	435.38
584.56	460.38
584.77	434.38
584.981	427.38
585.191	431.38
585.401	418.38
585.611	418.38
585.821	455.38
586.032	448.38
586.242	420.38
586.452	444.38
586.662	427.38
586.872	418.38
587.082	428.38
587.292	421.38
587.502	425.38
587.713	414.38
587.923	420.38
588.133	442.38
588.343	446.38
588.553	414.38
588.762	420.38
588.972	431.38
589.182	446.38
589.392	431.38
589.602	444.38
589.812	429.38
590.022	426.38
590.232	430.38
590.441	416.38
590.651	416.38
590.861	420.38
591.071	439.38
591.281	436.38
591.49	445.38
591.7	436.38
591.91	438.38
592.119	440.38
592.329	451.38
592.539	456.38
592.748	462.38
592.958	479.38
593.167	444.38
593.377	452.38
593.587	434.38
593.796	464.38
594.006	463.38
594.215	476.38
594.424	470.38
594.634	436.38
594.843	456.38
595.053	463.38
595.262	454.38
595.472	416.38
595.681	390.38
595.89	421.38
596.1	424.38
596.309	424.38
596.518	391.38
596.727	386.38
596.937	396.38
597.146	394.38
597.355	391.38
597.564	405.38
597.774	380.38
597.983	376.38
598.192	369.38
598.401	383.38
598.61	387.38
598.819	379.38
599.028	389.38
599.237	361.38
599.446	356.38
599.655	360.38
599.864	377.38
600.073	369.38
600.282	372.38
600.491	357.38
600.7	357.38
600.909	372.38
601.118	369.38
601.327	353.38
601.536	342.38
601.745	356.38
601.953	349.38
602.162	356.38
602.371	342.38
602.58	371.38
602.789	356.38
602.997	344.38
603.206	352.38
603.415	349.38
603.623	334.38
603.832	334.38
604.041	329.38
604.249	322.38
604.458	313.38
604.666	325.38
604.875	320.38
605.084	327.38
605.292	340.38
605.501	322.38
605.709	348.38
605.918	327.38
606.126	326.38
606.334	318.38
606.543	324.38
606.751	307.38
606.96	319.38
607.168	324.38
607.376	333.38
607.585	322.38
607.793	319.38
608.001	337.38
608.21	314.38
608.418	325.38
608.626	313.38
608.834	315.38
609.043	313.38
609.251	336.38
609.459	328.38
609.667	317.38
609.875	310.38
610.083	296.38
610.291	307.38
610.499	322.38
610.707	317.38
610.916	320.38
611.124	327.38
611.332	335.38
611.54	302.38
611.748	311.38
611.955	311.38
612.163	325.38
612.371	301.38
612.579	306.38
612.787	318.38
612.995	323.38
613.203	312.38
613.411	320.38
613.618	303.38
613.826	295.38
614.034	327.38
614.242	315.38
614.449	308.38
614.657	310.38
614.865	316.38
615.072	290.38
615.28	333.38
615.488	306.38
615.695	290.38
615.903	296.38
616.111	310.38
616.318	308.38
616.526	304.38
616.733	303.38
616.941	294.38
617.148	292.38
617.356	299.38
617.563	287.38
617.771	291.38
617.978	295.38
618.185	278.38
618.393	299.38
618.6	293.38
618.807	277.38
619.015	289.38
619.222	306.38
619.429	291.38
619.637	276.38
619.844	283.38
620.051	276.38
620.258	279.38
620.466	282.38
620.673	286.38
620.88	265.38
621.087	287.38
621.294	277.38
621.501	276.38
621.708	268.38
621.915	285.38
622.122	275.38
622.329	294.38
622.536	277.38
622.743	281.38
622.95	286.38
623.157	282.38
623.364	276.38
623.571	276.38
623.778	278.38
623.985	275.38
624.192	269.38
624.399	275.38
624.606	276.38
624.812	273.38
625.019	272.38
625.226	264.38
625.433	276.38
625.639	270.38
625.846	268.38
626.053	246.38
626.259	257.38
626.466	249.38
626.673	243.38
626.879	235.38
627.086	252.38
627.293	271.38
627.499	259.38
627.706	260.38
627.912	251.38
628.119	258.38
628.325	259.38
628.532	263.38
628.738	249.38
628.945	258.38
629.151	235.38
629.357	249.38
629.564	239.38
629.77	248.38
629.976	226.38
630.183	242.38
630.389	245.38
630.595	230.38
630.802	244.38
631.008	243.38
631.214	242.38
631.42	246.38
631.627	238.38
631.833	243.38
632.039	239.38
632.245	242.38
632.451	254.38
632.657	230.38
632.863	224.38
633.069	247.38
633.275	234.38
633.481	219.38
633.688	218.38
633.893	213.38
634.099	220.38
634.305	228.38
634.511	229.38
634.717	231.38
634.923	221.38
635.129	201.38
635.335	214.38
635.541	211.38
635.747	220.38
635.952	212.38
636.158	231.38
636.364	229.38
636.57	216.38
636.775	239.38
636.981	230.38
637.187	227.38
637.392	214.38
637.598	206.38
637.804	209.38
638.009	216.38
638.215	212.38
638.421	214.38
638.626	219.38
638.832	212.38
639.037	214.38
639.243	217.38
639.448	219.38
639.654	211.38
639.859	216.38
640.065	208.38
640.27	216.38
640.475	200.38
640.681	205.38
640.886	214.38
641.091	209.38
641.297	220.38
641.502	212.38
641.707	201.38
641.913	226.38
642.118	213.38
642.323	213.38
642.528	204.38
642.733	205.38
642.939	211.38
643.144	199.38
643.349	204.38
643.554	212.38
643.759	202.38
643.964	202.38
644.169	219.38
644.374	204.38
644.579	199.38
644.784	182.38
644.989	203.38
645.194	192.38
645.399	204.38
645.604	195.38
645.809	198.38
646.014	214.38
646.219	207.38
646.423	203.38
646.628	204.38
646.833	205.38
647.038	206.38
647.243	202.38
647.447	213.38
647.652	210.38
647.857	195.38
648.062	216.38
648.266	195.38
648.471	198.38
648.676	197.38
648.88	202.38
649.085	208.38
649.289	200.38
649.494	198.38
649.698	184.38
649.903	198.38
650.107	196.38
650.312	209.38
650.516	204.38
650.721	178.38
650.925	187.38
651.13	178.38
651.334	190.38
651.539	195.38
651.743	170.38
651.947	191.38
652.152	172.38
652.356	172.38
652.56	179.38
652.764	164.38
652.969	171.38
653.173	174.38
653.377	178.38
653.581	171.38
653.785	153.38
653.99	169.38
654.194	152.38
654.398	154.38
654.602	163.38
654.806	158.38
655.01	144.38
655.214	153.38
655.418	147.38
655.622	150.38
655.826	144.38
656.03	157.38
656.234	132.38
656.438	140.38
656.642	156.38
656.846	150.38
657.049	136.38
657.253	144.38
657.457	134.38
657.661	139.38
657.865	135.38
658.068	109.38
658.272	123.38
658.476	138.38
658.68	114.38
658.883	130.38
659.087	124.38
659.291	104.38
659.494	116.38
659.698	125.38
659.901	117.38
660.105	112.38
660.309	113.38
660.512	104.38
660.716	105.38
660.919	95.38
661.123	99.38
661.326	107.38
661.53	99.38
661.733	108.38
661.936	95.38
662.14	89.38
662.343	96.38
662.546	90.38
662.75	92.38
662.953	101.38
663.156	87.38
663.36	91.38
663.563	101.38
663.766	87.38
663.969	100.38
664.173	81.38
664.376	65.38
664.579	84.38
664.782	80.38
664.985	71.38
665.188	80.38
665.391	93.38
665.594	90.38
665.797	85.38
666	85.38
666.203	83.38
666.406	87.38
666.609	78.38
666.812	98.38
667.015	90.38
667.218	93.38
667.421	86.38
667.624	76.38
667.827	85.38
668.03	70.38
668.232	87.38
668.435	77.38
668.638	84.38
668.841	82.38
669.043	81.38
669.246	84.38
669.449	80.38
669.651	80.38
669.854	81.38
670.057	78.38
670.259	70.38
670.462	79.38
670.665	85.38
670.867	87.38
671.07	90.38
671.272	73.38
671.475	91.38
671.677	78.38
671.88	76.38
672.082	84.38
672.284	94.38
672.487	83.38
672.689	95.38
672.892	74.38
