Data from Ni(NO3)2@0.125M.TitratingCurve.Agarose3%dH2O.NegLispCup.LampEnergy10.LIBS07252019_HRD10591_18-09-33-567.txt Node
Date: Thu Jul 25 18:09:33 EDT 2019
User: cochatt
Spectrometer: HR+D1059
Trigger mode: 1
Integration Time (sec): 1.000000E-1
Scans to average: 1
Electric dark correction enabled: true
Nonlinearity correction enabled: false
Boxcar width: 0
XAxis mode: Wavelengths
Number of Pixels in Spectrum: 2048
>>>>>Begin Spectral Data<<<<<
223.165	-16.56
223.4	-16.56
223.635	-16.56
223.869	-19.56
224.104	-27.56
224.338	-8.56
224.573	-19.56
224.808	-13.56
225.042	-8.56
225.277	-8.56
225.511	-8.56
225.746	-1.56
225.98	9.44
226.215	21.44
226.449	11.44
226.683	27.44
226.918	30.44
227.152	32.44
227.387	35.44
227.621	47.44
227.856	47.44
228.09	38.44
228.324	45.44
228.559	51.44
228.793	71.44
229.027	92.44
229.262	99.44
229.496	100.44
229.73	94.44
229.964	98.44
230.199	111.44
230.433	102.44
230.667	115.44
230.901	111.44
231.136	109.44
231.37	119.44
231.604	129.44
231.838	119.44
232.072	138.44
232.306	149.44
232.541	128.44
232.775	123.44
233.009	133.44
233.243	130.44
233.477	123.44
233.711	133.44
233.945	128.44
234.179	123.44
234.413	137.44
234.647	135.44
234.881	123.44
235.115	151.44
235.349	127.44
235.583	158.44
235.817	146.44
236.051	131.44
236.285	130.44
236.519	147.44
236.753	134.44
236.987	131.44
237.221	138.44
237.455	140.44
237.689	136.44
237.922	135.44
238.156	150.44
238.39	145.44
238.624	144.44
238.858	150.44
239.091	145.44
239.325	144.44
239.559	157.44
239.793	134.44
240.027	146.44
240.26	154.44
240.494	149.44
240.728	165.44
240.961	178.44
241.195	162.44
241.429	155.44
241.662	160.44
241.896	159.44
242.13	172.44
242.363	163.44
242.597	168.44
242.83	179.44
243.064	166.44
243.298	152.44
243.531	174.44
243.765	189.44
243.998	171.44
244.232	167.44
244.465	173.44
244.699	179.44
244.932	174.44
245.166	173.44
245.399	191.44
245.633	186.44
245.866	202.44
246.099	184.44
246.333	176.44
246.566	172.44
246.8	193.44
247.033	168.44
247.266	192.44
247.5	193.44
247.733	188.44
247.966	188.44
248.2	208.44
248.433	192.44
248.666	187.44
248.899	204.44
249.133	222.44
249.366	220.44
249.599	215.44
249.832	209.44
250.066	213.44
250.299	200.44
250.532	214.44
250.765	220.44
250.998	200.44
251.231	214.44
251.465	230.44
251.698	229.44
251.931	214.44
252.164	221.44
252.397	211.44
252.63	216.44
252.863	251.44
253.096	251.44
253.329	228.44
253.562	239.44
253.795	240.44
254.028	241.44
254.261	238.44
254.494	235.44
254.727	246.44
254.96	232.44
255.193	249.44
255.426	261.44
255.659	252.44
255.892	260.44
256.124	267.44
256.357	249.44
256.59	238.44
256.823	255.44
257.056	262.44
257.289	257.44
257.521	257.44
257.754	259.44
257.987	255.44
258.22	255.44
258.452	245.44
258.685	262.44
258.918	255.44
259.151	263.44
259.383	270.44
259.616	265.44
259.849	271.44
260.081	261.44
260.314	280.44
260.547	269.44
260.779	280.44
261.012	271.44
261.244	273.44
261.477	285.44
261.71	278.44
261.942	281.44
262.175	280.44
262.407	290.44
262.64	279.44
262.872	268.44
263.105	283.44
263.337	288.44
263.57	301.44
263.802	284.44
264.035	290.44
264.267	295.44
264.499	302.44
264.732	291.44
264.964	300.44
265.197	280.44
265.429	304.44
265.661	328.44
265.894	310.44
266.126	315.44
266.358	307.44
266.591	303.44
266.823	313.44
267.055	301.44
267.287	318.44
267.52	297.44
267.752	306.44
267.984	312.44
268.216	314.44
268.448	305.44
268.681	305.44
268.913	312.44
269.145	327.44
269.377	325.44
269.609	316.44
269.841	313.44
270.073	308.44
270.306	327.44
270.538	334.44
270.77	315.44
271.002	332.44
271.234	312.44
271.466	331.44
271.698	341.44
271.93	358.44
272.162	323.44
272.394	324.44
272.626	320.44
272.858	327.44
273.09	347.44
273.322	353.44
273.553	312.44
273.785	328.44
274.017	340.44
274.249	339.44
274.481	352.44
274.713	324.44
274.945	329.44
275.176	355.44
275.408	337.44
275.64	345.44
275.872	353.44
276.104	344.44
276.335	346.44
276.567	364.44
276.799	356.44
277.031	363.44
277.262	356.44
277.494	335.44
277.726	339.44
277.957	378.44
278.189	365.44
278.421	368.44
278.652	360.44
278.884	363.44
279.115	353.44
279.347	352.44
279.579	377.44
279.81	377.44
280.042	388.44
280.273	380.44
280.505	371.44
280.736	360.44
280.968	369.44
281.199	369.44
281.431	377.44
281.662	415.44
281.894	392.44
282.125	380.44
282.356	401.44
282.588	390.44
282.819	400.44
283.051	417.44
283.282	379.44
283.513	379.44
283.745	378.44
283.976	394.44
284.207	405.44
284.439	402.44
284.67	424.44
284.901	429.44
285.132	427.44
285.364	409.44
285.595	421.44
285.826	413.44
286.057	405.44
286.288	426.44
286.52	411.44
286.751	419.44
286.982	436.44
287.213	399.44
287.444	412.44
287.675	416.44
287.906	413.44
288.138	429.44
288.369	457.44
288.6	445.44
288.831	438.44
289.062	420.44
289.293	435.44
289.524	420.44
289.755	429.44
289.986	451.44
290.217	427.44
290.448	432.44
290.679	444.44
290.91	431.44
291.141	427.44
291.371	441.44
291.602	428.44
291.833	439.44
292.064	431.44
292.295	446.44
292.526	431.44
292.757	436.44
292.987	460.44
293.218	435.44
293.449	450.44
293.68	456.44
293.91	422.44
294.141	434.44
294.372	420.44
294.603	436.44
294.833	461.44
295.064	454.44
295.295	439.44
295.525	400.44
295.756	449.44
295.987	463.44
296.217	459.44
296.448	460.44
296.679	471.44
296.909	461.44
297.14	458.44
297.37	489.44
297.601	464.44
297.831	459.44
298.062	491.44
298.292	476.44
298.523	500.44
298.753	492.44
298.984	485.44
299.214	475.44
299.445	475.44
299.675	491.44
299.905	493.44
300.136	468.44
300.366	507.44
300.597	494.44
300.827	500.44
301.057	498.44
301.288	509.44
301.518	498.44
301.748	497.44
301.979	500.44
302.209	512.44
302.439	509.44
302.669	507.44
302.9	493.44
303.13	483.44
303.36	504.44
303.59	482.44
303.82	514.44
304.051	472.44
304.281	497.44
304.511	495.44
304.741	507.44
304.971	491.44
305.201	509.44
305.431	483.44
305.661	489.44
305.891	494.44
306.121	485.44
306.352	490.44
306.582	483.44
306.812	483.44
307.042	472.44
307.272	468.44
307.502	486.44
307.731	479.44
307.961	477.44
308.191	497.44
308.421	492.44
308.651	487.44
308.881	480.44
309.111	482.44
309.341	477.44
309.571	470.44
309.8	460.44
310.03	494.44
310.26	487.44
310.49	491.44
310.72	478.44
310.949	496.44
311.179	494.44
311.409	499.44
311.639	476.44
311.868	505.44
312.098	514.44
312.328	523.44
312.557	509.44
312.787	492.44
313.017	512.44
313.246	525.44
313.476	543.44
313.706	517.44
313.935	536.44
314.165	540.44
314.394	528.44
314.624	534.44
314.853	529.44
315.083	494.44
315.312	523.44
315.542	527.44
315.771	512.44
316.001	493.44
316.23	520.44
316.46	509.44
316.689	496.44
316.919	497.44
317.148	502.44
317.377	513.44
317.607	486.44
317.836	508.44
318.065	487.44
318.295	517.44
318.524	511.44
318.753	492.44
318.983	518.44
319.212	517.44
319.441	511.44
319.67	501.44
319.9	495.44
320.129	507.44
320.358	511.44
320.587	491.44
320.816	500.44
321.046	524.44
321.275	503.44
321.504	492.44
321.733	492.44
321.962	541.44
322.191	496.44
322.42	507.44
322.649	528.44
322.878	521.44
323.108	489.44
323.337	522.44
323.566	522.44
323.795	537.44
324.024	534.44
324.253	533.44
324.482	525.44
324.71	524.44
324.939	539.44
325.168	533.44
325.397	548.44
325.626	577.44
325.855	567.44
326.084	576.44
326.313	564.44
326.542	592.44
326.77	581.44
326.999	560.44
327.228	560.44
327.457	570.44
327.686	581.44
327.914	560.44
328.143	564.44
328.372	559.44
328.6	569.44
328.829	569.44
329.058	558.44
329.287	565.44
329.515	551.44
329.744	559.44
329.972	580.44
330.201	577.44
330.43	582.44
330.658	583.44
330.887	581.44
331.115	599.44
331.344	590.44
331.572	616.44
331.801	602.44
332.03	631.44
332.258	651.44
332.486	655.44
332.715	676.44
332.943	704.44
333.172	765.44
333.4	801.44
333.629	811.44
333.857	790.44
334.085	789.44
334.314	769.44
334.542	740.44
334.771	737.44
334.999	716.44
335.227	725.44
335.455	758.44
335.684	715.44
335.912	709.44
336.14	698.44
336.369	681.44
336.597	678.44
336.825	710.44
337.053	701.44
337.281	686.44
337.51	662.44
337.738	660.44
337.966	638.44
338.194	633.44
338.422	647.44
338.65	643.44
338.878	630.44
339.106	626.44
339.334	642.44
339.562	632.44
339.79	613.44
340.018	596.44
340.246	590.44
340.474	620.44
340.702	604.44
340.93	622.44
341.158	605.44
341.386	635.44
341.614	631.44
341.842	619.44
342.07	594.44
342.298	589.44
342.526	610.44
342.754	601.44
342.981	597.44
343.209	619.44
343.437	654.44
343.665	675.44
343.893	725.44
344.12	772.44
344.348	722.44
344.576	663.44
344.804	677.44
345.031	637.44
345.259	630.44
345.487	618.44
345.714	591.44
345.942	593.44
346.17	619.44
346.397	596.44
346.625	587.44
346.853	588.44
347.08	600.44
347.308	591.44
347.535	625.44
347.763	612.44
347.99	621.44
348.218	596.44
348.445	595.44
348.673	603.44
348.9	609.44
349.128	597.44
349.355	588.44
349.583	564.44
349.81	562.44
350.037	571.44
350.265	561.44
350.492	546.44
350.72	565.44
350.947	557.44
351.174	557.44
351.402	567.44
351.629	568.44
351.856	592.44
352.083	560.44
352.311	570.44
352.538	558.44
352.765	579.44
352.992	552.44
353.22	549.44
353.447	568.44
353.674	562.44
353.901	558.44
354.128	532.44
354.355	560.44
354.583	559.44
354.81	581.44
355.037	564.44
355.264	560.44
355.491	565.44
355.718	588.44
355.945	587.44
356.172	581.44
356.399	546.44
356.626	592.44
356.853	591.44
357.08	566.44
357.307	569.44
357.534	555.44
357.761	565.44
357.988	562.44
358.215	551.44
358.441	560.44
358.668	559.44
358.895	572.44
359.122	534.44
359.349	560.44
359.576	570.44
359.802	570.44
360.029	548.44
360.256	570.44
360.483	565.44
360.709	549.44
360.936	571.44
361.163	556.44
361.39	569.44
361.616	529.44
361.843	558.44
362.07	569.44
362.296	557.44
362.523	563.44
362.749	533.44
362.976	575.44
363.203	558.44
363.429	541.44
363.656	539.44
363.882	547.44
364.109	574.44
364.335	539.44
364.562	559.44
364.788	557.44
365.015	571.44
365.241	566.44
365.468	549.44
365.694	550.44
365.92	562.44
366.147	550.44
366.373	540.44
366.599	554.44
366.826	551.44
367.052	541.44
367.278	566.44
367.505	581.44
367.731	558.44
367.957	545.44
368.184	566.44
368.41	574.44
368.636	563.44
368.862	573.44
369.089	581.44
369.315	546.44
369.541	574.44
369.767	593.44
369.993	595.44
370.219	611.44
370.445	586.44
370.672	589.44
370.898	609.44
371.124	610.44
371.35	605.44
371.576	606.44
371.802	606.44
372.028	586.44
372.254	598.44
372.48	613.44
372.706	626.44
372.932	643.44
373.158	628.44
373.384	614.44
373.61	603.44
373.835	621.44
374.061	601.44
374.287	616.44
374.513	624.44
374.739	639.44
374.965	642.44
375.191	685.44
375.416	683.44
375.642	660.44
375.868	663.44
376.094	640.44
376.319	613.44
376.545	622.44
376.771	625.44
376.997	598.44
377.222	597.44
377.448	590.44
377.674	614.44
377.899	607.44
378.125	581.44
378.35	599.44
378.576	594.44
378.802	599.44
379.027	599.44
379.253	614.44
379.478	597.44
379.704	591.44
379.929	587.44
380.155	580.44
380.38	588.44
380.606	612.44
380.831	609.44
381.057	588.44
381.282	585.44
381.507	607.44
381.733	611.44
381.958	611.44
382.184	607.44
382.409	630.44
382.634	639.44
382.86	615.44
383.085	637.44
383.31	645.44
383.535	647.44
383.761	671.44
383.986	677.44
384.211	704.44
384.436	719.44
384.662	709.44
384.887	721.44
385.112	711.44
385.337	735.44
385.562	735.44
385.787	722.44
386.013	734.44
386.238	737.44
386.463	740.44
386.688	730.44
386.913	704.44
387.138	733.44
387.363	709.44
387.588	709.44
387.813	706.44
388.038	711.44
388.263	724.44
388.488	713.44
388.713	707.44
388.938	712.44
389.163	713.44
389.387	726.44
389.612	693.44
389.837	698.44
390.062	686.44
390.287	727.44
390.512	714.44
390.736	686.44
390.961	693.44
391.186	723.44
391.411	755.44
391.636	788.44
391.86	803.44
392.085	832.44
392.31	827.44
392.534	812.44
392.759	767.44
392.984	768.44
393.208	749.44
393.433	759.44
393.658	759.44
393.882	768.44
394.107	811.44
394.331	790.44
394.556	777.44
394.78	767.44
395.005	805.44
395.229	797.44
395.454	814.44
395.678	827.44
395.903	822.44
396.127	817.44
396.352	800.44
396.576	748.44
396.801	756.44
397.025	770.44
397.249	800.44
397.474	824.44
397.698	791.44
397.922	812.44
398.147	797.44
398.371	815.44
398.595	847.44
398.82	870.44
399.044	917.44
399.268	1045.44
399.492	1228.44
399.717	1413.44
399.941	1429.44
400.165	1223.44
400.389	1107.44
400.613	994.44
400.837	947.44
401.062	935.44
401.286	897.44
401.51	894.44
401.734	899.44
401.958	922.44
402.182	935.44
402.406	910.44
402.63	962.44
402.854	975.44
403.078	986.44
403.302	1032.44
403.526	1043.44
403.75	1073.44
403.974	1118.44
404.198	1074.44
404.422	1106.44
404.645	1077.44
404.869	1039.44
405.093	1026.44
405.317	1025.44
405.541	1031.44
405.765	985.44
405.988	1004.44
406.212	1021.44
406.436	993.44
406.66	989.44
406.883	1023.44
407.107	1130.44
407.331	1181.44
407.555	1213.44
407.778	1204.44
408.002	1170.44
408.226	1110.44
408.449	1105.44
408.673	1088.44
408.896	1060.44
409.12	1045.44
409.344	1060.44
409.567	1085.44
409.791	1072.44
410.014	1078.44
410.238	1046.44
410.461	1032.44
410.685	1056.44
410.908	998.44
411.132	962.44
411.355	950.44
411.578	942.44
411.802	947.44
412.025	948.44
412.249	962.44
412.472	963.44
412.695	932.44
412.919	932.44
413.142	910.44
413.365	953.44
413.589	950.44
413.812	915.44
414.035	899.44
414.258	896.44
414.482	927.44
414.705	951.44
414.928	925.44
415.151	934.44
415.374	913.44
415.597	911.44
415.821	890.44
416.044	899.44
416.267	894.44
416.49	902.44
416.713	859.44
416.936	875.44
417.159	907.44
417.382	914.44
417.605	893.44
417.828	889.44
418.051	925.44
418.274	927.44
418.497	909.44
418.72	936.44
418.943	947.44
419.166	1014.44
419.389	1081.44
419.611	1044.44
419.834	987.44
420.057	965.44
420.28	931.44
420.503	893.44
420.726	876.44
420.948	895.44
421.171	904.44
421.394	892.44
421.617	899.44
421.839	905.44
422.062	935.44
422.285	920.44
422.507	948.44
422.73	968.44
422.953	955.44
423.175	958.44
423.398	987.44
423.621	997.44
423.843	1022.44
424.066	996.44
424.288	971.44
424.511	966.44
424.733	964.44
424.956	955.44
425.178	941.44
425.401	927.44
425.623	939.44
425.846	886.44
426.068	883.44
426.291	903.44
426.513	867.44
426.735	845.44
426.958	878.44
427.18	837.44
427.402	828.44
427.625	826.44
427.847	823.44
428.069	840.44
428.292	841.44
428.514	801.44
428.736	833.44
428.958	826.44
429.181	806.44
429.403	796.44
429.625	787.44
429.847	771.44
430.069	792.44
430.292	794.44
430.514	783.44
430.736	782.44
430.958	803.44
431.18	805.44
431.402	789.44
431.624	797.44
431.846	792.44
432.068	827.44
432.29	845.44
432.512	824.44
432.734	848.44
432.956	823.44
433.178	838.44
433.4	860.44
433.622	844.44
433.844	834.44
434.066	832.44
434.287	865.44
434.509	868.44
434.731	895.44
434.953	951.44
435.175	934.44
435.397	952.44
435.618	889.44
435.84	862.44
436.062	830.44
436.284	823.44
436.505	827.44
436.727	848.44
436.949	853.44
437.17	832.44
437.392	830.44
437.614	833.44
437.835	816.44
438.057	785.44
438.278	767.44
438.5	775.44
438.721	807.44
438.943	815.44
439.165	811.44
439.386	804.44
439.608	815.44
439.829	825.44
440.05	824.44
440.272	863.44
440.493	841.44
440.715	863.44
440.936	862.44
441.158	883.44
441.379	913.44
441.6	968.44
441.822	971.44
442.043	929.44
442.264	944.44
442.486	918.44
442.707	933.44
442.928	925.44
443.149	959.44
443.371	927.44
443.592	939.44
443.813	974.44
444.034	953.44
444.255	996.44
444.476	1037.44
444.698	1115.44
444.919	1163.44
445.14	1239.44
445.361	1091.44
445.582	990.44
445.803	955.44
446.024	902.44
446.245	888.44
446.466	864.44
446.687	843.44
446.908	872.44
447.129	831.44
447.35	806.44
447.571	799.44
447.792	829.44
448.013	823.44
448.234	790.44
448.455	791.44
448.675	789.44
448.896	776.44
449.117	765.44
449.338	765.44
449.559	777.44
449.779	794.44
450	765.44
450.221	753.44
450.442	775.44
450.662	791.44
450.883	802.44
451.104	822.44
451.324	819.44
451.545	798.44
451.766	774.44
451.986	785.44
452.207	771.44
452.428	795.44
452.648	777.44
452.869	782.44
453.089	755.44
453.31	787.44
453.53	749.44
453.751	755.44
453.971	741.44
454.192	751.44
454.412	730.44
454.633	730.44
454.853	734.44
455.073	724.44
455.294	726.44
455.514	718.44
455.734	750.44
455.955	702.44
456.175	723.44
456.395	696.44
456.616	727.44
456.836	722.44
457.056	713.44
457.276	697.44
457.497	706.44
457.717	719.44
457.937	705.44
458.157	720.44
458.377	720.44
458.598	765.44
458.818	769.44
459.038	782.44
459.258	837.44
459.478	834.44
459.698	872.44
459.918	904.44
460.138	941.44
460.358	966.44
460.578	1010.44
460.798	993.44
461.018	1007.44
461.238	976.44
461.458	991.44
461.678	1009.44
461.898	981.44
462.118	998.44
462.338	1061.44
462.558	1073.44
462.777	1113.44
462.997	1226.44
463.217	1355.44
463.437	1402.44
463.657	1319.44
463.876	1187.44
464.096	1186.44
464.316	1189.44
464.536	1184.44
464.755	1164.44
464.975	1121.44
465.195	1017.44
465.414	978.44
465.634	901.44
465.854	891.44
466.073	877.44
466.293	865.44
466.512	839.44
466.732	844.44
466.951	811.44
467.171	809.44
467.391	778.44
467.61	821.44
467.829	793.44
468.049	811.44
468.268	800.44
468.488	770.44
468.707	747.44
468.927	771.44
469.146	741.44
469.365	784.44
469.585	795.44
469.804	817.44
470.023	812.44
470.243	831.44
470.462	856.44
470.681	841.44
470.901	813.44
471.12	827.44
471.339	785.44
471.558	801.44
471.777	817.44
471.997	781.44
472.216	776.44
472.435	749.44
472.654	733.44
472.873	727.44
473.092	755.44
473.311	732.44
473.53	745.44
473.749	742.44
473.968	759.44
474.187	757.44
474.406	766.44
474.625	740.44
474.844	739.44
475.063	749.44
475.282	748.44
475.501	745.44
475.72	771.44
475.939	769.44
476.158	786.44
476.377	785.44
476.596	764.44
476.814	795.44
477.033	778.44
477.252	820.44
477.471	837.44
477.69	842.44
477.908	882.44
478.127	888.44
478.346	918.44
478.564	891.44
478.783	913.44
479.002	940.44
479.22	970.44
479.439	954.44
479.658	925.44
479.876	919.44
480.095	955.44
480.313	989.44
480.532	1032.44
480.751	1000.44
480.969	985.44
481.188	924.44
481.406	877.44
481.624	876.44
481.843	856.44
482.061	847.44
482.28	839.44
482.498	855.44
482.717	833.44
482.935	829.44
483.153	865.44
483.372	885.44
483.59	891.44
483.808	867.44
484.027	853.44
484.245	855.44
484.463	876.44
484.681	863.44
484.9	897.44
485.118	888.44
485.336	908.44
485.554	904.44
485.772	916.44
485.99	920.44
486.209	949.44
486.427	919.44
486.645	892.44
486.863	953.44
487.081	924.44
487.299	911.44
487.517	935.44
487.735	913.44
487.953	902.44
488.171	891.44
488.389	868.44
488.607	934.44
488.825	886.44
489.043	872.44
489.261	905.44
489.479	907.44
489.696	920.44
489.914	872.44
490.132	903.44
490.35	920.44
490.568	897.44
490.786	906.44
491.003	919.44
491.221	914.44
491.439	919.44
491.657	921.44
491.874	899.44
492.092	919.44
492.31	932.44
492.527	935.44
492.745	977.44
492.963	916.44
493.18	983.44
493.398	926.44
493.615	969.44
493.833	964.44
494.05	967.44
494.268	979.44
494.485	977.44
494.703	943.44
494.92	986.44
495.138	945.44
495.355	950.44
495.573	992.44
495.79	959.44
496.008	975.44
496.225	978.44
496.442	969.44
496.66	988.44
496.877	1031.44
497.094	1024.44
497.312	1038.44
497.529	1057.44
497.746	1067.44
497.963	1133.44
498.181	1135.44
498.398	1165.44
498.615	1260.44
498.832	1363.44
499.049	1459.44
499.267	1555.44
499.484	1751.44
499.701	1948.44
499.918	2136.44
500.135	2471.44
500.352	2949.44
500.569	3143.44
500.786	3069.44
501.003	2845.44
501.22	2481.44
501.437	2167.44
501.654	1861.44
501.871	1659.44
502.088	1523.44
502.305	1412.44
502.522	1363.44
502.739	1329.44
502.956	1246.44
503.172	1198.44
503.389	1137.44
503.606	1098.44
503.823	1056.44
504.04	1100.44
504.256	1071.44
504.473	1127.44
504.69	1205.44
504.907	1158.44
505.123	1043.44
505.34	979.44
505.557	933.44
505.773	948.44
505.99	904.44
506.207	883.44
506.423	870.44
506.64	898.44
506.856	878.44
507.073	868.44
507.289	866.44
507.506	860.44
507.722	870.44
507.939	851.44
508.155	829.44
508.372	812.44
508.588	802.44
508.805	809.44
509.021	797.44
509.238	791.44
509.454	785.44
509.67	755.44
509.887	796.44
510.103	799.44
510.319	782.44
510.536	774.44
510.752	763.44
510.968	783.44
511.184	781.44
511.401	785.44
511.617	763.44
511.833	778.44
512.049	776.44
512.265	789.44
512.481	777.44
512.698	792.44
512.914	796.44
513.13	771.44
513.346	780.44
513.562	769.44
513.778	776.44
513.994	771.44
514.21	777.44
514.426	786.44
514.642	767.44
514.858	778.44
515.074	788.44
515.29	811.44
515.506	803.44
515.721	809.44
515.937	845.44
516.153	847.44
516.369	885.44
516.585	878.44
516.801	928.44
517.016	971.44
517.232	1045.44
517.448	1079.44
517.664	1121.44
517.879	1115.44
518.095	1101.44
518.311	1100.44
518.527	1029.44
518.742	1003.44
518.958	939.44
519.173	932.44
519.389	889.44
519.605	861.44
519.82	828.44
520.036	833.44
520.251	812.44
520.467	811.44
520.682	794.44
520.898	773.44
521.113	771.44
521.329	761.44
521.544	756.44
521.76	781.44
521.975	718.44
522.19	761.44
522.406	761.44
522.621	741.44
522.836	732.44
523.052	745.44
523.267	734.44
523.482	724.44
523.698	716.44
523.913	725.44
524.128	734.44
524.343	748.44
524.559	724.44
524.774	712.44
524.989	712.44
525.204	725.44
525.419	713.44
525.634	700.44
525.849	726.44
526.064	703.44
526.28	722.44
526.495	706.44
526.71	694.44
526.925	708.44
527.14	695.44
527.355	691.44
527.57	712.44
527.785	699.44
527.999	703.44
528.214	699.44
528.429	724.44
528.644	706.44
528.859	723.44
529.074	716.44
529.289	714.44
529.503	717.44
529.718	712.44
529.933	707.44
530.148	719.44
530.363	704.44
530.577	691.44
530.792	731.44
531.007	723.44
531.221	709.44
531.436	730.44
531.651	707.44
531.865	689.44
532.08	705.44
532.295	702.44
532.509	688.44
532.724	709.44
532.938	701.44
533.153	706.44
533.367	703.44
533.582	721.44
533.796	699.44
534.011	715.44
534.225	699.44
534.44	707.44
534.654	685.44
534.868	694.44
535.083	695.44
535.297	685.44
535.511	699.44
535.726	683.44
535.94	691.44
536.154	690.44
536.369	693.44
536.583	650.44
536.797	641.44
537.011	675.44
537.225	666.44
537.44	645.44
537.654	651.44
537.868	652.44
538.082	649.44
538.296	657.44
538.51	639.44
538.724	656.44
538.938	651.44
539.153	647.44
539.367	635.44
539.581	627.44
539.795	621.44
540.009	649.44
540.222	629.44
540.436	673.44
540.65	633.44
540.864	628.44
541.078	648.44
541.292	640.44
541.506	636.44
541.72	641.44
541.934	641.44
542.147	630.44
542.361	653.44
542.575	616.44
542.789	645.44
543.002	623.44
543.216	648.44
543.43	642.44
543.644	634.44
543.857	634.44
544.071	628.44
544.285	639.44
544.498	644.44
544.712	648.44
544.925	650.44
545.139	648.44
545.352	653.44
545.566	659.44
545.779	632.44
545.993	661.44
546.206	665.44
546.42	649.44
546.633	636.44
546.847	663.44
547.06	649.44
547.274	638.44
547.487	661.44
547.7	653.44
547.914	655.44
548.127	653.44
548.34	663.44
548.554	655.44
548.767	644.44
548.98	696.44
549.193	686.44
549.407	667.44
549.62	679.44
549.833	681.44
550.046	671.44
550.259	661.44
550.473	654.44
550.686	649.44
550.899	635.44
551.112	647.44
551.325	637.44
551.538	649.44
551.751	615.44
551.964	643.44
552.177	635.44
552.39	631.44
552.603	674.44
552.816	683.44
553.029	691.44
553.242	723.44
553.455	729.44
553.667	721.44
553.88	713.44
554.093	712.44
554.306	669.44
554.519	656.44
554.732	656.44
554.944	644.44
555.157	653.44
555.37	621.44
555.583	608.44
555.795	606.44
556.008	606.44
556.221	604.44
556.433	581.44
556.646	605.44
556.859	567.44
557.071	564.44
557.284	564.44
557.496	572.44
557.709	571.44
557.921	553.44
558.134	565.44
558.346	550.44
558.559	567.44
558.771	569.44
558.984	543.44
559.196	573.44
559.409	545.44
559.621	522.44
559.833	537.44
560.046	548.44
560.258	543.44
560.47	545.44
560.683	565.44
560.895	520.44
561.107	558.44
561.32	530.44
561.532	549.44
561.744	546.44
561.956	524.44
562.168	519.44
562.381	533.44
562.593	545.44
562.805	536.44
563.017	539.44
563.229	532.44
563.441	555.44
563.653	534.44
563.865	558.44
564.077	566.44
564.289	572.44
564.501	575.44
564.713	568.44
564.925	568.44
565.137	590.44
565.349	596.44
565.561	606.44
565.773	626.44
565.985	659.44
566.197	696.44
566.408	739.44
566.62	811.44
566.832	903.44
567.044	898.44
567.255	871.44
567.467	909.44
567.679	979.44
567.891	1083.44
568.102	1114.44
568.314	1062.44
568.526	922.44
568.737	859.44
568.949	783.44
569.161	675.44
569.372	652.44
569.584	580.44
569.795	600.44
570.007	590.44
570.218	566.44
570.43	537.44
570.641	543.44
570.853	555.44
571.064	534.44
571.276	598.44
571.487	560.44
571.698	545.44
571.91	501.44
572.121	492.44
572.333	482.44
572.544	476.44
572.755	473.44
572.966	467.44
573.178	449.44
573.389	465.44
573.6	456.44
573.811	445.44
574.023	434.44
574.234	447.44
574.445	446.44
574.656	447.44
574.867	456.44
575.078	465.44
575.289	451.44
575.501	433.44
575.712	421.44
575.923	430.44
576.134	437.44
576.345	438.44
576.556	418.44
576.767	391.44
576.978	418.44
577.188	448.44
577.399	432.44
577.61	419.44
577.821	431.44
578.032	420.44
578.243	407.44
578.454	407.44
578.665	377.44
578.875	400.44
579.086	399.44
579.297	390.44
579.508	408.44
579.718	392.44
579.929	390.44
580.14	390.44
580.35	413.44
580.561	401.44
580.772	403.44
580.982	391.44
581.193	395.44
581.403	384.44
581.614	394.44
581.825	389.44
582.035	388.44
582.246	356.44
582.456	373.44
582.667	369.44
582.877	364.44
583.087	362.44
583.298	378.44
583.508	357.44
583.719	375.44
583.929	388.44
584.139	379.44
584.35	374.44
584.56	361.44
584.77	371.44
584.981	371.44
585.191	367.44
585.401	376.44
585.611	367.44
585.821	373.44
586.032	385.44
586.242	368.44
586.452	345.44
586.662	375.44
586.872	370.44
587.082	370.44
587.292	352.44
587.502	367.44
587.713	367.44
587.923	335.44
588.133	352.44
588.343	353.44
588.553	370.44
588.762	363.44
588.972	351.44
589.182	367.44
589.392	360.44
589.602	365.44
589.812	354.44
590.022	369.44
590.232	367.44
590.441	377.44
590.651	379.44
590.861	353.44
591.071	362.44
591.281	373.44
591.49	377.44
591.7	377.44
591.91	386.44
592.119	395.44
592.329	407.44
592.539	407.44
592.748	428.44
592.958	457.44
593.167	443.44
593.377	471.44
593.587	480.44
593.796	487.44
594.006	464.44
594.215	489.44
594.424	480.44
594.634	461.44
594.843	457.44
595.053	424.44
595.262	428.44
595.472	393.44
595.681	387.44
595.89	368.44
596.1	350.44
596.309	354.44
596.518	350.44
596.727	351.44
596.937	344.44
597.146	352.44
597.355	333.44
597.564	337.44
597.774	320.44
597.983	335.44
598.192	331.44
598.401	317.44
598.61	341.44
598.819	307.44
599.028	314.44
599.237	311.44
599.446	309.44
599.655	314.44
599.864	315.44
600.073	296.44
600.282	321.44
600.491	286.44
600.7	304.44
600.909	301.44
601.118	315.44
601.327	313.44
601.536	278.44
601.745	315.44
601.953	310.44
602.162	307.44
602.371	317.44
602.58	291.44
602.789	297.44
602.997	299.44
603.206	294.44
603.415	296.44
603.623	307.44
603.832	285.44
604.041	284.44
604.249	298.44
604.458	292.44
604.666	292.44
604.875	301.44
605.084	292.44
605.292	303.44
605.501	279.44
605.709	296.44
605.918	271.44
606.126	289.44
606.334	277.44
606.543	293.44
606.751	289.44
606.96	283.44
607.168	282.44
607.376	289.44
607.585	294.44
607.793	285.44
608.001	311.44
608.21	272.44
608.418	279.44
608.626	287.44
608.834	296.44
609.043	289.44
609.251	278.44
609.459	269.44
609.667	271.44
609.875	279.44
610.083	287.44
610.291	287.44
610.499	281.44
610.707	274.44
610.916	278.44
611.124	270.44
611.332	275.44
611.54	288.44
611.748	275.44
611.955	275.44
612.163	271.44
612.371	280.44
612.579	286.44
612.787	273.44
612.995	277.44
613.203	277.44
613.411	272.44
613.618	269.44
613.826	268.44
614.034	270.44
614.242	280.44
614.449	260.44
614.657	262.44
614.865	249.44
615.072	255.44
615.28	266.44
615.488	271.44
615.695	280.44
615.903	253.44
616.111	285.44
616.318	293.44
616.526	271.44
616.733	278.44
616.941	261.44
617.148	285.44
617.356	272.44
617.563	267.44
617.771	279.44
617.978	277.44
618.185	268.44
618.393	276.44
618.6	264.44
618.807	261.44
619.015	267.44
619.222	257.44
619.429	277.44
619.637	259.44
619.844	268.44
620.051	271.44
620.258	271.44
620.466	267.44
620.673	245.44
620.88	263.44
621.087	243.44
621.294	243.44
621.501	260.44
621.708	237.44
621.915	260.44
622.122	246.44
622.329	251.44
622.536	259.44
622.743	232.44
622.95	240.44
623.157	220.44
623.364	237.44
623.571	245.44
623.778	247.44
623.985	246.44
624.192	237.44
624.399	241.44
624.606	251.44
624.812	238.44
625.019	227.44
625.226	240.44
625.433	240.44
625.639	231.44
625.846	219.44
626.053	214.44
626.259	243.44
626.466	232.44
626.673	211.44
626.879	218.44
627.086	206.44
627.293	199.44
627.499	228.44
627.706	233.44
627.912	216.44
628.119	231.44
628.325	247.44
628.532	215.44
628.738	221.44
628.945	216.44
629.151	216.44
629.357	238.44
629.564	203.44
629.77	216.44
629.976	234.44
630.183	214.44
630.389	235.44
630.595	205.44
630.802	206.44
631.008	206.44
631.214	196.44
631.42	214.44
631.627	225.44
631.833	209.44
632.039	224.44
632.245	205.44
632.451	210.44
632.657	196.44
632.863	184.44
633.069	198.44
633.275	197.44
633.481	203.44
633.688	204.44
633.893	208.44
634.099	213.44
634.305	199.44
634.511	197.44
634.717	214.44
634.923	193.44
635.129	198.44
635.335	188.44
635.541	192.44
635.747	202.44
635.952	199.44
636.158	204.44
636.364	189.44
636.57	197.44
636.775	187.44
636.981	192.44
637.187	205.44
637.392	181.44
637.598	192.44
637.804	196.44
638.009	191.44
638.215	201.44
638.421	184.44
638.626	175.44
638.832	183.44
639.037	187.44
639.243	164.44
639.448	180.44
639.654	197.44
639.859	199.44
640.065	202.44
640.27	203.44
640.475	184.44
640.681	178.44
640.886	158.44
641.091	177.44
641.297	198.44
641.502	183.44
641.707	176.44
641.913	187.44
642.118	192.44
642.323	177.44
642.528	188.44
642.733	164.44
642.939	172.44
643.144	179.44
643.349	180.44
643.554	180.44
643.759	185.44
643.964	179.44
644.169	176.44
644.374	179.44
644.579	181.44
644.784	182.44
644.989	177.44
645.194	191.44
645.399	163.44
645.604	179.44
645.809	177.44
646.014	167.44
646.219	189.44
646.423	176.44
646.628	178.44
646.833	180.44
647.038	177.44
647.243	185.44
647.447	167.44
647.652	187.44
647.857	174.44
648.062	186.44
648.266	184.44
648.471	190.44
648.676	188.44
648.88	190.44
649.085	183.44
649.289	178.44
649.494	189.44
649.698	187.44
649.903	169.44
650.107	163.44
650.312	164.44
650.516	169.44
650.721	159.44
650.925	165.44
651.13	165.44
651.334	155.44
651.539	151.44
651.743	152.44
651.947	153.44
652.152	152.44
652.356	141.44
652.56	138.44
652.764	140.44
652.969	160.44
653.173	123.44
653.377	156.44
653.581	147.44
653.785	145.44
653.99	137.44
654.194	138.44
654.398	139.44
654.602	133.44
654.806	128.44
655.01	121.44
655.214	147.44
655.418	144.44
655.622	136.44
655.826	139.44
656.03	126.44
656.234	135.44
656.438	133.44
656.642	143.44
656.846	135.44
657.049	117.44
657.253	125.44
657.457	120.44
657.661	119.44
657.865	112.44
658.068	110.44
658.272	125.44
658.476	99.44
658.68	108.44
658.883	87.44
659.087	100.44
659.291	108.44
659.494	100.44
659.698	100.44
659.901	102.44
660.105	99.44
660.309	95.44
660.512	103.44
660.716	78.44
660.919	91.44
661.123	88.44
661.326	91.44
661.53	89.44
661.733	83.44
661.936	95.44
662.14	86.44
662.343	72.44
662.546	61.44
662.75	83.44
662.953	87.44
663.156	82.44
663.36	93.44
663.563	86.44
663.766	65.44
663.969	73.44
664.173	79.44
664.376	75.44
664.579	79.44
664.782	68.44
664.985	77.44
665.188	78.44
665.391	80.44
665.594	76.44
665.797	72.44
666	72.44
666.203	83.44
666.406	89.44
666.609	81.44
666.812	68.44
667.015	85.44
667.218	79.44
667.421	81.44
667.624	77.44
667.827	89.44
668.03	68.44
668.232	81.44
668.435	78.44
668.638	79.44
668.841	78.44
669.043	76.44
669.246	85.44
669.449	78.44
669.651	80.44
669.854	71.44
670.057	75.44
670.259	85.44
670.462	82.44
670.665	79.44
670.867	73.44
671.07	82.44
671.272	74.44
671.475	79.44
671.677	84.44
671.88	79.44
672.082	79.44
672.284	87.44
672.487	89.44
672.689	88.44
672.892	59.44
