Data from Ni(NO3)2@0.5M.TitratingCurve.Agarose3%dH2O.NegLispCup.LampEnergy10.LIBS07252019_HRD10591_18-00-12-564.txt Node
Date: Thu Jul 25 18:00:12 EDT 2019
User: cochatt
Spectrometer: HR+D1059
Trigger mode: 1
Integration Time (sec): 1.000000E-1
Scans to average: 1
Electric dark correction enabled: true
Nonlinearity correction enabled: false
Boxcar width: 0
XAxis mode: Wavelengths
Number of Pixels in Spectrum: 2048
>>>>>Begin Spectral Data<<<<<
223.165	-18.38
223.4	-18.38
223.635	-18.38
223.869	-16.38
224.104	-30.38
224.338	-13.38
224.573	-14.38
224.808	-3.38
225.042	-5.38
225.277	-5.38
225.511	-5.38
225.746	7.62
225.98	10.62
226.215	-5.38
226.449	13.62
226.683	25.62
226.918	24.62
227.152	35.62
227.387	30.62
227.621	35.62
227.856	26.62
228.09	44.62
228.324	56.62
228.559	46.62
228.793	72.62
229.027	138.62
229.262	148.62
229.496	140.62
229.73	151.62
229.964	164.62
230.199	199.62
230.433	190.62
230.667	191.62
230.901	203.62
231.136	154.62
231.37	166.62
231.604	166.62
231.838	194.62
232.072	200.62
232.306	194.62
232.541	179.62
232.775	178.62
233.009	170.62
233.243	182.62
233.477	178.62
233.711	181.62
233.945	176.62
234.179	182.62
234.413	183.62
234.647	186.62
234.881	170.62
235.115	183.62
235.349	174.62
235.583	186.62
235.817	174.62
236.051	176.62
236.285	188.62
236.519	173.62
236.753	186.62
236.987	170.62
237.221	178.62
237.455	182.62
237.689	183.62
237.922	204.62
238.156	174.62
238.39	186.62
238.624	193.62
238.858	208.62
239.091	201.62
239.325	204.62
239.559	215.62
239.793	236.62
240.027	222.62
240.26	211.62
240.494	220.62
240.728	208.62
240.961	221.62
241.195	214.62
241.429	241.62
241.662	226.62
241.896	251.62
242.13	255.62
242.363	240.62
242.597	244.62
242.83	227.62
243.064	229.62
243.298	214.62
243.531	251.62
243.765	242.62
243.998	251.62
244.232	252.62
244.465	252.62
244.699	252.62
244.932	259.62
245.166	246.62
245.399	238.62
245.633	256.62
245.866	254.62
246.099	267.62
246.333	259.62
246.566	272.62
246.8	269.62
247.033	264.62
247.266	269.62
247.5	266.62
247.733	259.62
247.966	278.62
248.2	252.62
248.433	304.62
248.666	281.62
248.899	299.62
249.133	294.62
249.366	286.62
249.599	281.62
249.832	294.62
250.066	308.62
250.299	290.62
250.532	304.62
250.765	318.62
250.998	303.62
251.231	331.62
251.465	333.62
251.698	346.62
251.931	324.62
252.164	309.62
252.397	309.62
252.63	330.62
252.863	324.62
253.096	316.62
253.329	335.62
253.562	326.62
253.795	340.62
254.028	337.62
254.261	331.62
254.494	338.62
254.727	361.62
254.96	337.62
255.193	361.62
255.426	344.62
255.659	349.62
255.892	352.62
256.124	346.62
256.357	359.62
256.59	380.62
256.823	369.62
257.056	364.62
257.289	376.62
257.521	386.62
257.754	374.62
257.987	372.62
258.22	366.62
258.452	356.62
258.685	378.62
258.918	390.62
259.151	392.62
259.383	375.62
259.616	377.62
259.849	393.62
260.081	409.62
260.314	414.62
260.547	413.62
260.779	402.62
261.012	397.62
261.244	423.62
261.477	419.62
261.71	402.62
261.942	405.62
262.175	423.62
262.407	412.62
262.64	410.62
262.872	409.62
263.105	419.62
263.337	412.62
263.57	425.62
263.802	414.62
264.035	432.62
264.267	428.62
264.499	426.62
264.732	437.62
264.964	448.62
265.197	441.62
265.429	444.62
265.661	437.62
265.894	442.62
266.126	443.62
266.358	457.62
266.591	452.62
266.823	444.62
267.055	442.62
267.287	476.62
267.52	460.62
267.752	468.62
267.984	475.62
268.216	455.62
268.448	471.62
268.681	483.62
268.913	485.62
269.145	479.62
269.377	466.62
269.609	481.62
269.841	496.62
270.073	496.62
270.306	474.62
270.538	488.62
270.77	478.62
271.002	506.62
271.234	486.62
271.466	485.62
271.698	478.62
271.93	497.62
272.162	491.62
272.394	489.62
272.626	518.62
272.858	514.62
273.09	496.62
273.322	499.62
273.553	516.62
273.785	519.62
274.017	515.62
274.249	515.62
274.481	518.62
274.713	517.62
274.945	525.62
275.176	521.62
275.408	524.62
275.64	547.62
275.872	522.62
276.104	541.62
276.335	530.62
276.567	548.62
276.799	539.62
277.031	549.62
277.262	531.62
277.494	544.62
277.726	566.62
277.957	562.62
278.189	545.62
278.421	569.62
278.652	555.62
278.884	564.62
279.115	576.62
279.347	592.62
279.579	551.62
279.81	574.62
280.042	564.62
280.273	579.62
280.505	593.62
280.736	578.62
280.968	583.62
281.199	585.62
281.431	596.62
281.662	588.62
281.894	580.62
282.125	599.62
282.356	607.62
282.588	585.62
282.819	583.62
283.051	606.62
283.282	576.62
283.513	601.62
283.745	606.62
283.976	604.62
284.207	616.62
284.439	595.62
284.67	627.62
284.901	621.62
285.132	615.62
285.364	606.62
285.595	636.62
285.826	612.62
286.057	635.62
286.288	617.62
286.52	633.62
286.751	626.62
286.982	642.62
287.213	645.62
287.444	643.62
287.675	611.62
287.906	630.62
288.138	649.62
288.369	674.62
288.6	640.62
288.831	639.62
289.062	636.62
289.293	648.62
289.524	665.62
289.755	673.62
289.986	644.62
290.217	658.62
290.448	642.62
290.679	676.62
290.91	645.62
291.141	640.62
291.371	656.62
291.602	656.62
291.833	676.62
292.064	668.62
292.295	643.62
292.526	667.62
292.757	645.62
292.987	638.62
293.218	658.62
293.449	682.62
293.68	676.62
293.91	666.62
294.141	658.62
294.372	649.62
294.603	700.62
294.833	661.62
295.064	670.62
295.295	708.62
295.525	676.62
295.756	667.62
295.987	660.62
296.217	677.62
296.448	677.62
296.679	687.62
296.909	692.62
297.14	690.62
297.37	701.62
297.601	702.62
297.831	705.62
298.062	694.62
298.292	689.62
298.523	730.62
298.753	716.62
298.984	708.62
299.214	709.62
299.445	733.62
299.675	716.62
299.905	735.62
300.136	736.62
300.366	736.62
300.597	740.62
300.827	740.62
301.057	753.62
301.288	757.62
301.518	748.62
301.748	730.62
301.979	770.62
302.209	745.62
302.439	743.62
302.669	745.62
302.9	759.62
303.13	741.62
303.36	765.62
303.59	738.62
303.82	778.62
304.051	774.62
304.281	792.62
304.511	755.62
304.741	776.62
304.971	765.62
305.201	782.62
305.431	804.62
305.661	770.62
305.891	777.62
306.121	775.62
306.352	773.62
306.582	764.62
306.812	739.62
307.042	762.62
307.272	780.62
307.502	736.62
307.731	774.62
307.961	762.62
308.191	759.62
308.421	756.62
308.651	780.62
308.881	740.62
309.111	770.62
309.341	756.62
309.571	786.62
309.8	786.62
310.03	793.62
310.26	816.62
310.49	840.62
310.72	794.62
310.949	778.62
311.179	784.62
311.409	783.62
311.639	766.62
311.868	802.62
312.098	798.62
312.328	778.62
312.557	787.62
312.787	798.62
313.017	786.62
313.246	793.62
313.476	816.62
313.706	849.62
313.935	831.62
314.165	824.62
314.394	802.62
314.624	842.62
314.853	823.62
315.083	829.62
315.312	847.62
315.542	840.62
315.771	825.62
316.001	806.62
316.23	836.62
316.46	816.62
316.689	832.62
316.919	811.62
317.148	832.62
317.377	849.62
317.607	847.62
317.836	839.62
318.065	815.62
318.295	850.62
318.524	853.62
318.753	811.62
318.983	861.62
319.212	855.62
319.441	854.62
319.67	841.62
319.9	872.62
320.129	835.62
320.358	849.62
320.587	872.62
320.816	866.62
321.046	856.62
321.275	871.62
321.504	887.62
321.733	843.62
321.962	853.62
322.191	864.62
322.42	894.62
322.649	882.62
322.878	863.62
323.108	855.62
323.337	869.62
323.566	923.62
323.795	938.62
324.024	890.62
324.253	889.62
324.482	857.62
324.71	912.62
324.939	929.62
325.168	911.62
325.397	886.62
325.626	901.62
325.855	904.62
326.084	907.62
326.313	927.62
326.542	914.62
326.77	965.62
326.999	912.62
327.228	918.62
327.457	933.62
327.686	923.62
327.914	921.62
328.143	939.62
328.372	942.62
328.6	938.62
328.829	942.62
329.058	928.62
329.287	938.62
329.515	956.62
329.744	940.62
329.972	949.62
330.201	967.62
330.43	936.62
330.658	953.62
330.887	944.62
331.115	983.62
331.344	985.62
331.572	992.62
331.801	1006.62
332.03	1027.62
332.258	1012.62
332.486	1019.62
332.715	1039.62
332.943	1082.62
333.172	1079.62
333.4	1113.62
333.629	1100.62
333.857	1110.62
334.085	1128.62
334.314	1139.62
334.542	1134.62
334.771	1148.62
334.999	1162.62
335.227	1157.62
335.455	1141.62
335.684	1124.62
335.912	1145.62
336.14	1104.62
336.369	1122.62
336.597	1111.62
336.825	1086.62
337.053	1119.62
337.281	1142.62
337.51	1092.62
337.738	1085.62
337.966	1065.62
338.194	1108.62
338.422	1074.62
338.65	1033.62
338.878	1068.62
339.106	1068.62
339.334	1073.62
339.562	1083.62
339.79	1052.62
340.018	1037.62
340.246	1006.62
340.474	999.62
340.702	994.62
340.93	1014.62
341.158	1019.62
341.386	1068.62
341.614	1092.62
341.842	1107.62
342.07	978.62
342.298	990.62
342.526	1029.62
342.754	1004.62
342.981	992.62
343.209	1014.62
343.437	1054.62
343.665	1082.62
343.893	1110.62
344.12	1129.62
344.348	1112.62
344.576	1092.62
344.804	1121.62
345.031	1062.62
345.259	1062.62
345.487	1058.62
345.714	1044.62
345.942	1047.62
346.17	1083.62
346.397	1034.62
346.625	1001.62
346.853	1007.62
347.08	975.62
347.308	1040.62
347.535	1002.62
347.763	986.62
347.99	983.62
348.218	988.62
348.445	978.62
348.673	976.62
348.9	962.62
349.128	976.62
349.355	1007.62
349.583	1009.62
349.81	968.62
350.037	946.62
350.265	952.62
350.492	918.62
350.72	955.62
350.947	951.62
351.174	972.62
351.402	992.62
351.629	992.62
351.856	1001.62
352.083	1001.62
352.311	992.62
352.538	1011.62
352.765	1031.62
352.992	954.62
353.22	958.62
353.447	925.62
353.674	939.62
353.901	957.62
354.128	950.62
354.355	916.62
354.583	932.62
354.81	919.62
355.037	916.62
355.264	952.62
355.491	934.62
355.718	967.62
355.945	934.62
356.172	954.62
356.399	950.62
356.626	982.62
356.853	974.62
357.08	969.62
357.307	930.62
357.534	942.62
357.761	950.62
357.988	951.62
358.215	944.62
358.441	931.62
358.668	948.62
358.895	949.62
359.122	959.62
359.349	945.62
359.576	967.62
359.802	971.62
360.029	936.62
360.256	974.62
360.483	962.62
360.709	928.62
360.936	979.62
361.163	967.62
361.39	985.62
361.616	966.62
361.843	976.62
362.07	1026.62
362.296	1004.62
362.523	970.62
362.749	976.62
362.976	959.62
363.203	944.62
363.429	963.62
363.656	944.62
363.882	939.62
364.109	962.62
364.335	959.62
364.562	946.62
364.788	964.62
365.015	943.62
365.241	959.62
365.468	958.62
365.694	954.62
365.92	966.62
366.147	937.62
366.373	946.62
366.599	985.62
366.826	945.62
367.052	964.62
367.278	960.62
367.505	978.62
367.731	963.62
367.957	956.62
368.184	972.62
368.41	972.62
368.636	959.62
368.862	975.62
369.089	995.62
369.315	1029.62
369.541	998.62
369.767	979.62
369.993	1010.62
370.219	991.62
370.445	1010.62
370.672	987.62
370.898	1008.62
371.124	1008.62
371.35	1015.62
371.576	1027.62
371.802	1014.62
372.028	1061.62
372.254	1027.62
372.48	1025.62
372.706	1066.62
372.932	1067.62
373.158	1039.62
373.384	1015.62
373.61	1022.62
373.835	1056.62
374.061	1028.62
374.287	1063.62
374.513	1073.62
374.739	1026.62
374.965	1089.62
375.191	1075.62
375.416	1086.62
375.642	1051.62
375.868	1058.62
376.094	1051.62
376.319	1053.62
376.545	1050.62
376.771	1018.62
376.997	989.62
377.222	1020.62
377.448	1027.62
377.674	1007.62
377.899	1011.62
378.125	1031.62
378.35	1030.62
378.576	988.62
378.802	1035.62
379.027	1001.62
379.253	1040.62
379.478	1003.62
379.704	1028.62
379.929	1044.62
380.155	1027.62
380.38	1017.62
380.606	1003.62
380.831	1031.62
381.057	1002.62
381.282	1010.62
381.507	996.62
381.733	1070.62
381.958	1036.62
382.184	1067.62
382.409	1049.62
382.634	1055.62
382.86	1074.62
383.085	1038.62
383.31	1070.62
383.535	1087.62
383.761	1107.62
383.986	1092.62
384.211	1100.62
384.436	1123.62
384.662	1112.62
384.887	1166.62
385.112	1113.62
385.337	1144.62
385.562	1150.62
385.787	1169.62
386.013	1166.62
386.238	1191.62
386.463	1142.62
386.688	1175.62
386.913	1150.62
387.138	1194.62
387.363	1159.62
387.588	1165.62
387.813	1156.62
388.038	1166.62
388.263	1204.62
388.488	1160.62
388.713	1164.62
388.938	1166.62
389.163	1190.62
389.387	1188.62
389.612	1175.62
389.837	1198.62
390.062	1194.62
390.287	1198.62
390.512	1168.62
390.736	1212.62
390.961	1225.62
391.186	1210.62
391.411	1243.62
391.636	1266.62
391.86	1273.62
392.085	1267.62
392.31	1275.62
392.534	1275.62
392.759	1233.62
392.984	1247.62
393.208	1222.62
393.433	1248.62
393.658	1227.62
393.882	1224.62
394.107	1235.62
394.331	1272.62
394.556	1218.62
394.78	1288.62
395.005	1258.62
395.229	1253.62
395.454	1254.62
395.678	1276.62
395.903	1273.62
396.127	1270.62
396.352	1233.62
396.576	1286.62
396.801	1253.62
397.025	1290.62
397.249	1304.62
397.474	1336.62
397.698	1356.62
397.922	1393.62
398.147	1310.62
398.371	1378.62
398.595	1393.62
398.82	1418.62
399.044	1522.62
399.268	1546.62
399.492	1657.62
399.717	1748.62
399.941	1762.62
400.165	1682.62
400.389	1655.62
400.613	1554.62
400.837	1547.62
401.062	1473.62
401.286	1471.62
401.51	1447.62
401.734	1454.62
401.958	1435.62
402.182	1441.62
402.406	1420.62
402.63	1421.62
402.854	1456.62
403.078	1448.62
403.302	1476.62
403.526	1464.62
403.75	1463.62
403.974	1507.62
404.198	1468.62
404.422	1516.62
404.645	1465.62
404.869	1459.62
405.093	1471.62
405.317	1502.62
405.541	1550.62
405.765	1523.62
405.988	1489.62
406.212	1528.62
406.436	1531.62
406.66	1576.62
406.883	1571.62
407.107	1636.62
407.331	1642.62
407.555	1694.62
407.778	1710.62
408.002	1685.62
408.226	1666.62
408.449	1663.62
408.673	1610.62
408.896	1615.62
409.12	1584.62
409.344	1608.62
409.567	1570.62
409.791	1541.62
410.014	1552.62
410.238	1530.62
410.461	1521.62
410.685	1518.62
410.908	1538.62
411.132	1486.62
411.355	1456.62
411.578	1508.62
411.802	1484.62
412.025	1478.62
412.249	1492.62
412.472	1490.62
412.695	1469.62
412.919	1488.62
413.142	1457.62
413.365	1455.62
413.589	1448.62
413.812	1471.62
414.035	1424.62
414.258	1416.62
414.482	1434.62
414.705	1414.62
414.928	1427.62
415.151	1428.62
415.374	1465.62
415.597	1415.62
415.821	1432.62
416.044	1382.62
416.267	1383.62
416.49	1402.62
416.713	1366.62
416.936	1383.62
417.159	1367.62
417.382	1357.62
417.605	1363.62
417.828	1371.62
418.051	1397.62
418.274	1390.62
418.497	1359.62
418.72	1395.62
418.943	1390.62
419.166	1449.62
419.389	1546.62
419.611	1515.62
419.834	1530.62
420.057	1421.62
420.28	1385.62
420.503	1376.62
420.726	1328.62
420.948	1362.62
421.171	1400.62
421.394	1346.62
421.617	1398.62
421.839	1400.62
422.062	1413.62
422.285	1334.62
422.507	1382.62
422.73	1393.62
422.953	1392.62
423.175	1368.62
423.398	1393.62
423.621	1383.62
423.843	1376.62
424.066	1395.62
424.288	1400.62
424.511	1380.62
424.733	1360.62
424.956	1355.62
425.178	1372.62
425.401	1355.62
425.623	1353.62
425.846	1342.62
426.068	1346.62
426.291	1320.62
426.513	1360.62
426.735	1320.62
426.958	1337.62
427.18	1282.62
427.402	1295.62
427.625	1311.62
427.847	1304.62
428.069	1284.62
428.292	1316.62
428.514	1267.62
428.736	1307.62
428.958	1301.62
429.181	1282.62
429.403	1280.62
429.625	1291.62
429.847	1272.62
430.069	1260.62
430.292	1262.62
430.514	1282.62
430.736	1267.62
430.958	1293.62
431.18	1292.62
431.402	1322.62
431.624	1294.62
431.846	1280.62
432.068	1298.62
432.29	1310.62
432.512	1282.62
432.734	1305.62
432.956	1327.62
433.178	1286.62
433.4	1315.62
433.622	1345.62
433.844	1328.62
434.066	1299.62
434.287	1319.62
434.509	1359.62
434.731	1345.62
434.953	1382.62
435.175	1392.62
435.397	1428.62
435.618	1354.62
435.84	1331.62
436.062	1273.62
436.284	1298.62
436.505	1314.62
436.727	1311.62
436.949	1260.62
437.17	1302.62
437.392	1282.62
437.614	1252.62
437.835	1225.62
438.057	1234.62
438.278	1234.62
438.5	1210.62
438.721	1227.62
438.943	1246.62
439.165	1248.62
439.386	1253.62
439.608	1249.62
439.829	1265.62
440.05	1239.62
440.272	1257.62
440.493	1267.62
440.715	1319.62
440.936	1296.62
441.158	1313.62
441.379	1336.62
441.6	1378.62
441.822	1368.62
442.043	1394.62
442.264	1387.62
442.486	1362.62
442.707	1337.62
442.928	1374.62
443.149	1378.62
443.371	1374.62
443.592	1434.62
443.813	1413.62
444.034	1391.62
444.255	1455.62
444.476	1436.62
444.698	1491.62
444.919	1493.62
445.14	1598.62
445.361	1510.62
445.582	1416.62
445.803	1358.62
446.024	1360.62
446.245	1334.62
446.466	1304.62
446.687	1250.62
446.908	1264.62
447.129	1278.62
447.35	1260.62
447.571	1231.62
447.792	1203.62
448.013	1191.62
448.234	1174.62
448.455	1143.62
448.675	1147.62
448.896	1186.62
449.117	1171.62
449.338	1170.62
449.559	1173.62
449.779	1120.62
450	1148.62
450.221	1156.62
450.442	1190.62
450.662	1181.62
450.883	1169.62
451.104	1209.62
451.324	1174.62
451.545	1145.62
451.766	1154.62
451.986	1128.62
452.207	1124.62
452.428	1119.62
452.648	1147.62
452.869	1130.62
453.089	1138.62
453.31	1170.62
453.53	1109.62
453.751	1125.62
453.971	1136.62
454.192	1148.62
454.412	1147.62
454.633	1127.62
454.853	1090.62
455.073	1102.62
455.294	1139.62
455.514	1133.62
455.734	1141.62
455.955	1132.62
456.175	1139.62
456.395	1123.62
456.616	1082.62
456.836	1096.62
457.056	1080.62
457.276	1107.62
457.497	1151.62
457.717	1140.62
457.937	1163.62
458.157	1145.62
458.377	1146.62
458.598	1159.62
458.818	1230.62
459.038	1215.62
459.258	1246.62
459.478	1295.62
459.698	1390.62
459.918	1375.62
460.138	1387.62
460.358	1402.62
460.578	1393.62
460.798	1459.62
461.018	1451.62
461.238	1408.62
461.458	1404.62
461.678	1384.62
461.898	1406.62
462.118	1406.62
462.338	1476.62
462.558	1545.62
462.777	1582.62
462.997	1663.62
463.217	1682.62
463.437	1720.62
463.657	1675.62
463.876	1620.62
464.096	1584.62
464.316	1588.62
464.536	1545.62
464.755	1516.62
464.975	1487.62
465.195	1439.62
465.414	1400.62
465.634	1341.62
465.854	1288.62
466.073	1322.62
466.293	1274.62
466.512	1252.62
466.732	1247.62
466.951	1236.62
467.171	1265.62
467.391	1264.62
467.61	1225.62
467.829	1246.62
468.049	1221.62
468.268	1204.62
468.488	1195.62
468.707	1214.62
468.927	1190.62
469.146	1195.62
469.365	1198.62
469.585	1214.62
469.804	1206.62
470.023	1225.62
470.243	1225.62
470.462	1229.62
470.681	1234.62
470.901	1235.62
471.12	1227.62
471.339	1243.62
471.558	1215.62
471.777	1223.62
471.997	1243.62
472.216	1217.62
472.435	1205.62
472.654	1211.62
472.873	1174.62
473.092	1160.62
473.311	1194.62
473.53	1202.62
473.749	1198.62
473.968	1204.62
474.187	1218.62
474.406	1207.62
474.625	1181.62
474.844	1206.62
475.063	1199.62
475.282	1211.62
475.501	1209.62
475.72	1233.62
475.939	1229.62
476.158	1273.62
476.377	1253.62
476.596	1264.62
476.814	1261.62
477.033	1284.62
477.252	1290.62
477.471	1332.62
477.69	1354.62
477.908	1399.62
478.127	1362.62
478.346	1375.62
478.564	1397.62
478.783	1446.62
479.002	1482.62
479.22	1455.62
479.439	1468.62
479.658	1496.62
479.876	1456.62
480.095	1473.62
480.313	1508.62
480.532	1501.62
480.751	1520.62
480.969	1488.62
481.188	1452.62
481.406	1470.62
481.624	1451.62
481.843	1411.62
482.061	1431.62
482.28	1432.62
482.498	1387.62
482.717	1410.62
482.935	1402.62
483.153	1440.62
483.372	1459.62
483.59	1483.62
483.808	1433.62
484.027	1435.62
484.245	1444.62
484.463	1463.62
484.681	1461.62
484.9	1465.62
485.118	1480.62
485.336	1480.62
485.554	1489.62
485.772	1485.62
485.99	1454.62
486.209	1487.62
486.427	1471.62
486.645	1486.62
486.863	1487.62
487.081	1473.62
487.299	1518.62
487.517	1480.62
487.735	1518.62
487.953	1483.62
488.171	1493.62
488.389	1499.62
488.607	1468.62
488.825	1470.62
489.043	1452.62
489.261	1462.62
489.479	1475.62
489.696	1468.62
489.914	1485.62
490.132	1456.62
490.35	1475.62
490.568	1441.62
490.786	1480.62
491.003	1466.62
491.221	1483.62
491.439	1492.62
491.657	1490.62
491.874	1497.62
492.092	1489.62
492.31	1503.62
492.527	1499.62
492.745	1498.62
492.963	1504.62
493.18	1526.62
493.398	1553.62
493.615	1503.62
493.833	1535.62
494.05	1526.62
494.268	1515.62
494.485	1542.62
494.703	1553.62
494.92	1556.62
495.138	1555.62
495.355	1540.62
495.573	1547.62
495.79	1538.62
496.008	1555.62
496.225	1567.62
496.442	1610.62
496.66	1619.62
496.877	1624.62
497.094	1660.62
497.312	1697.62
497.529	1683.62
497.746	1739.62
497.963	1742.62
498.181	1850.62
498.398	1882.62
498.615	2012.62
498.832	2037.62
499.049	2126.62
499.267	2252.62
499.484	2388.62
499.701	2499.62
499.918	2635.62
500.135	2824.62
500.352	2956.62
500.569	3035.62
500.786	3061.62
501.003	2916.62
501.22	2770.62
501.437	2602.62
501.654	2466.62
501.871	2340.62
502.088	2218.62
502.305	2143.62
502.522	2052.62
502.739	1950.62
502.956	1904.62
503.172	1840.62
503.389	1753.62
503.606	1736.62
503.823	1750.62
504.04	1675.62
504.256	1666.62
504.473	1694.62
504.69	1656.62
504.907	1624.62
505.123	1603.62
505.34	1524.62
505.557	1490.62
505.773	1477.62
505.99	1462.62
506.207	1417.62
506.423	1402.62
506.64	1354.62
506.856	1384.62
507.073	1339.62
507.289	1386.62
507.506	1324.62
507.722	1314.62
507.939	1320.62
508.155	1322.62
508.372	1295.62
508.588	1269.62
508.805	1259.62
509.021	1278.62
509.238	1257.62
509.454	1250.62
509.67	1211.62
509.887	1233.62
510.103	1201.62
510.319	1208.62
510.536	1239.62
510.752	1227.62
510.968	1227.62
511.184	1203.62
511.401	1207.62
511.617	1204.62
511.833	1210.62
512.049	1206.62
512.265	1203.62
512.481	1251.62
512.698	1187.62
512.914	1192.62
513.13	1190.62
513.346	1196.62
513.562	1164.62
513.778	1227.62
513.994	1201.62
514.21	1195.62
514.426	1204.62
514.642	1200.62
514.858	1217.62
515.074	1238.62
515.29	1218.62
515.506	1226.62
515.721	1261.62
515.937	1259.62
516.153	1257.62
516.369	1290.62
516.585	1356.62
516.801	1355.62
517.016	1349.62
517.232	1420.62
517.448	1424.62
517.664	1449.62
517.879	1430.62
518.095	1451.62
518.311	1403.62
518.527	1381.62
518.742	1372.62
518.958	1302.62
519.173	1326.62
519.389	1276.62
519.605	1276.62
519.82	1242.62
520.036	1208.62
520.251	1216.62
520.467	1205.62
520.682	1174.62
520.898	1147.62
521.113	1194.62
521.329	1170.62
521.544	1143.62
521.76	1149.62
521.975	1124.62
522.19	1104.62
522.406	1116.62
522.621	1126.62
522.836	1093.62
523.052	1114.62
523.267	1091.62
523.482	1109.62
523.698	1072.62
523.913	1074.62
524.128	1102.62
524.343	1093.62
524.559	1105.62
524.774	1070.62
524.989	1102.62
525.204	1082.62
525.419	1094.62
525.634	1051.62
525.849	1045.62
526.064	1082.62
526.28	1093.62
526.495	1059.62
526.71	1040.62
526.925	1054.62
527.14	1064.62
527.355	1023.62
527.57	1035.62
527.785	1057.62
527.999	1060.62
528.214	1064.62
528.429	1032.62
528.644	1058.62
528.859	1045.62
529.074	1042.62
529.289	1063.62
529.503	1064.62
529.718	1014.62
529.933	1006.62
530.148	1040.62
530.363	1021.62
530.577	1018.62
530.792	1009.62
531.007	1014.62
531.221	1058.62
531.436	1033.62
531.651	1037.62
531.865	1030.62
532.08	1047.62
532.295	1025.62
532.509	1042.62
532.724	1012.62
532.938	1001.62
533.153	1006.62
533.367	1022.62
533.582	1030.62
533.796	1010.62
534.011	1037.62
534.225	1025.62
534.44	1002.62
534.654	1006.62
534.868	1008.62
535.083	1004.62
535.297	991.62
535.511	1015.62
535.726	1000.62
535.94	978.62
536.154	988.62
536.369	964.62
536.583	952.62
536.797	952.62
537.011	948.62
537.225	937.62
537.44	932.62
537.654	944.62
537.868	973.62
538.082	930.62
538.296	944.62
538.51	938.62
538.724	960.62
538.938	965.62
539.153	954.62
539.367	920.62
539.581	924.62
539.795	927.62
540.009	938.62
540.222	933.62
540.436	942.62
540.65	931.62
540.864	898.62
541.078	934.62
541.292	918.62
541.506	924.62
541.72	912.62
541.934	921.62
542.147	942.62
542.361	950.62
542.575	925.62
542.789	931.62
543.002	889.62
543.216	897.62
543.43	932.62
543.644	918.62
543.857	909.62
544.071	920.62
544.285	904.62
544.498	921.62
544.712	919.62
544.925	939.62
545.139	935.62
545.352	928.62
545.566	921.62
545.779	942.62
545.993	919.62
546.206	935.62
546.42	931.62
546.633	921.62
546.847	905.62
547.06	923.62
547.274	916.62
547.487	920.62
547.7	929.62
547.914	960.62
548.127	946.62
548.34	950.62
548.554	909.62
548.767	952.62
548.98	935.62
549.193	911.62
549.407	912.62
549.62	930.62
549.833	921.62
550.046	934.62
550.259	918.62
550.473	912.62
550.686	936.62
550.899	914.62
551.112	927.62
551.325	912.62
551.538	916.62
551.751	922.62
551.964	920.62
552.177	928.62
552.39	927.62
552.603	926.62
552.816	929.62
553.029	956.62
553.242	939.62
553.455	933.62
553.667	951.62
553.88	952.62
554.093	935.62
554.306	894.62
554.519	884.62
554.732	918.62
554.944	903.62
555.157	875.62
555.37	894.62
555.583	862.62
555.795	853.62
556.008	860.62
556.221	853.62
556.433	828.62
556.646	799.62
556.859	842.62
557.071	820.62
557.284	818.62
557.496	793.62
557.709	830.62
557.921	802.62
558.134	757.62
558.346	821.62
558.559	815.62
558.771	771.62
558.984	782.62
559.196	804.62
559.409	793.62
559.621	774.62
559.833	787.62
560.046	802.62
560.258	766.62
560.47	757.62
560.683	776.62
560.895	736.62
561.107	766.62
561.32	771.62
561.532	759.62
561.744	767.62
561.956	770.62
562.168	755.62
562.381	782.62
562.593	782.62
562.805	760.62
563.017	748.62
563.229	762.62
563.441	766.62
563.653	798.62
563.865	805.62
564.077	811.62
564.289	812.62
564.501	811.62
564.713	833.62
564.925	833.62
565.137	849.62
565.349	862.62
565.561	878.62
565.773	885.62
565.985	894.62
566.197	955.62
566.408	975.62
566.62	1000.62
566.832	1030.62
567.044	1104.62
567.255	1060.62
567.467	1093.62
567.679	1066.62
567.891	1123.62
568.102	1105.62
568.314	1079.62
568.526	1005.62
568.737	985.62
568.949	931.62
569.161	885.62
569.372	885.62
569.584	837.62
569.795	841.62
570.007	804.62
570.218	791.62
570.43	772.62
570.641	776.62
570.853	766.62
571.064	774.62
571.276	747.62
571.487	731.62
571.698	720.62
571.91	697.62
572.121	688.62
572.333	677.62
572.544	642.62
572.755	674.62
572.966	684.62
573.178	646.62
573.389	655.62
573.6	634.62
573.811	638.62
574.023	646.62
574.234	615.62
574.445	646.62
574.656	633.62
574.867	629.62
575.078	631.62
575.289	619.62
575.501	604.62
575.712	611.62
575.923	575.62
576.134	610.62
576.345	595.62
576.556	598.62
576.767	586.62
576.978	582.62
577.188	603.62
577.399	582.62
577.61	593.62
577.821	580.62
578.032	566.62
578.243	568.62
578.454	583.62
578.665	559.62
578.875	563.62
579.086	575.62
579.297	570.62
579.508	560.62
579.718	549.62
579.929	565.62
580.14	546.62
580.35	536.62
580.561	553.62
580.772	542.62
580.982	531.62
581.193	548.62
581.403	543.62
581.614	528.62
581.825	550.62
582.035	544.62
582.246	521.62
582.456	543.62
582.667	522.62
582.877	551.62
583.087	547.62
583.298	502.62
583.508	531.62
583.719	510.62
583.929	523.62
584.139	523.62
584.35	499.62
584.56	516.62
584.77	530.62
584.981	507.62
585.191	504.62
585.401	529.62
585.611	496.62
585.821	507.62
586.032	510.62
586.242	504.62
586.452	492.62
586.662	493.62
586.872	506.62
587.082	528.62
587.292	494.62
587.502	506.62
587.713	510.62
587.923	528.62
588.133	481.62
588.343	520.62
588.553	489.62
588.762	476.62
588.972	483.62
589.182	535.62
589.392	540.62
589.602	505.62
589.812	534.62
590.022	513.62
590.232	501.62
590.441	510.62
590.651	496.62
590.861	523.62
591.071	528.62
591.281	480.62
591.49	513.62
591.7	514.62
591.91	528.62
592.119	542.62
592.329	525.62
592.539	532.62
592.748	510.62
592.958	528.62
593.167	527.62
593.377	552.62
593.587	570.62
593.796	546.62
594.006	557.62
594.215	550.62
594.424	578.62
594.634	566.62
594.843	541.62
595.053	534.62
595.262	520.62
595.472	525.62
595.681	496.62
595.89	496.62
596.1	488.62
596.309	467.62
596.518	466.62
596.727	448.62
596.937	452.62
597.146	454.62
597.355	450.62
597.564	442.62
597.774	440.62
597.983	425.62
598.192	434.62
598.401	438.62
598.61	435.62
598.819	434.62
599.028	434.62
599.237	444.62
599.446	436.62
599.655	424.62
599.864	431.62
600.073	437.62
600.282	415.62
600.491	412.62
600.7	425.62
600.909	414.62
601.118	392.62
601.327	415.62
601.536	411.62
601.745	391.62
601.953	407.62
602.162	414.62
602.371	417.62
602.58	420.62
602.789	403.62
602.997	413.62
603.206	398.62
603.415	388.62
603.623	395.62
603.832	406.62
604.041	402.62
604.249	370.62
604.458	366.62
604.666	358.62
604.875	388.62
605.084	392.62
605.292	388.62
605.501	376.62
605.709	385.62
605.918	384.62
606.126	380.62
606.334	387.62
606.543	379.62
606.751	388.62
606.96	379.62
607.168	367.62
607.376	367.62
607.585	374.62
607.793	371.62
608.001	355.62
608.21	368.62
608.418	385.62
608.626	371.62
608.834	370.62
609.043	361.62
609.251	366.62
609.459	362.62
609.667	364.62
609.875	356.62
610.083	364.62
610.291	360.62
610.499	370.62
610.707	366.62
610.916	372.62
611.124	345.62
611.332	391.62
611.54	361.62
611.748	368.62
611.955	351.62
612.163	354.62
612.371	356.62
612.579	364.62
612.787	347.62
612.995	346.62
613.203	361.62
613.411	363.62
613.618	339.62
613.826	349.62
614.034	364.62
614.242	340.62
614.449	345.62
614.657	351.62
614.865	367.62
615.072	380.62
615.28	350.62
615.488	340.62
615.695	341.62
615.903	349.62
616.111	340.62
616.318	349.62
616.526	350.62
616.733	348.62
616.941	352.62
617.148	346.62
617.356	347.62
617.563	350.62
617.771	344.62
617.978	340.62
618.185	358.62
618.393	333.62
618.6	340.62
618.807	322.62
619.015	341.62
619.222	338.62
619.429	323.62
619.637	331.62
619.844	323.62
620.051	313.62
620.258	342.62
620.466	327.62
620.673	310.62
620.88	325.62
621.087	338.62
621.294	327.62
621.501	326.62
621.708	323.62
621.915	314.62
622.122	333.62
622.329	322.62
622.536	337.62
622.743	314.62
622.95	330.62
623.157	313.62
623.364	304.62
623.571	325.62
623.778	313.62
623.985	316.62
624.192	323.62
624.399	312.62
624.606	327.62
624.812	324.62
625.019	305.62
625.226	300.62
625.433	329.62
625.639	304.62
625.846	308.62
626.053	295.62
626.259	302.62
626.466	310.62
626.673	315.62
626.879	323.62
627.086	319.62
627.293	311.62
627.499	325.62
627.706	292.62
627.912	291.62
628.119	324.62
628.325	300.62
628.532	283.62
628.738	291.62
628.945	292.62
629.151	291.62
629.357	293.62
629.564	308.62
629.77	268.62
629.976	264.62
630.183	274.62
630.389	278.62
630.595	291.62
630.802	260.62
631.008	277.62
631.214	279.62
631.42	290.62
631.627	288.62
631.833	275.62
632.039	273.62
632.245	283.62
632.451	267.62
632.657	278.62
632.863	286.62
633.069	279.62
633.275	279.62
633.481	275.62
633.688	271.62
633.893	269.62
634.099	277.62
634.305	269.62
634.511	273.62
634.717	287.62
634.923	248.62
635.129	261.62
635.335	269.62
635.541	261.62
635.747	268.62
635.952	265.62
636.158	263.62
636.364	249.62
636.57	266.62
636.775	247.62
636.981	260.62
637.187	248.62
637.392	249.62
637.598	264.62
637.804	268.62
638.009	254.62
638.215	258.62
638.421	251.62
638.626	255.62
638.832	282.62
639.037	259.62
639.243	250.62
639.448	257.62
639.654	254.62
639.859	234.62
640.065	232.62
640.27	251.62
640.475	228.62
640.681	248.62
640.886	273.62
641.091	242.62
641.297	247.62
641.502	246.62
641.707	220.62
641.913	252.62
642.118	233.62
642.323	246.62
642.528	243.62
642.733	240.62
642.939	260.62
643.144	264.62
643.349	258.62
643.554	258.62
643.759	248.62
643.964	262.62
644.169	244.62
644.374	268.62
644.579	251.62
644.784	239.62
644.989	266.62
645.194	256.62
645.399	266.62
645.604	266.62
645.809	267.62
646.014	244.62
646.219	268.62
646.423	266.62
646.628	254.62
646.833	261.62
647.038	284.62
647.243	255.62
647.447	268.62
647.652	258.62
647.857	271.62
648.062	260.62
648.266	278.62
648.471	259.62
648.676	274.62
648.88	268.62
649.085	282.62
649.289	262.62
649.494	255.62
649.698	263.62
649.903	261.62
650.107	280.62
650.312	268.62
650.516	271.62
650.721	265.62
650.925	266.62
651.13	250.62
651.334	237.62
651.539	240.62
651.743	241.62
651.947	263.62
652.152	246.62
652.356	239.62
652.56	246.62
652.764	243.62
652.969	256.62
653.173	243.62
653.377	244.62
653.581	234.62
653.785	247.62
653.99	240.62
654.194	230.62
654.398	251.62
654.602	252.62
654.806	244.62
655.01	257.62
655.214	243.62
655.418	243.62
655.622	243.62
655.826	254.62
656.03	262.62
656.234	276.62
656.438	266.62
656.642	270.62
656.846	262.62
657.049	253.62
657.253	243.62
657.457	237.62
657.661	216.62
657.865	193.62
658.068	190.62
658.272	190.62
658.476	183.62
658.68	162.62
658.883	156.62
659.087	156.62
659.291	151.62
659.494	136.62
659.698	136.62
659.901	130.62
660.105	123.62
660.309	136.62
660.512	118.62
660.716	116.62
660.919	110.62
661.123	117.62
661.326	108.62
661.53	104.62
661.733	103.62
661.936	100.62
662.14	101.62
662.343	96.62
662.546	93.62
662.75	75.62
662.953	82.62
663.156	90.62
663.36	69.62
663.563	79.62
663.766	64.62
663.969	89.62
664.173	83.62
664.376	85.62
664.579	81.62
664.782	77.62
664.985	87.62
665.188	68.62
665.391	82.62
665.594	84.62
665.797	80.62
666	85.62
666.203	79.62
666.406	80.62
666.609	76.62
666.812	78.62
667.015	82.62
667.218	75.62
667.421	66.62
667.624	64.62
667.827	73.62
668.03	85.62
668.232	68.62
668.435	72.62
668.638	78.62
668.841	82.62
669.043	81.62
669.246	93.62
669.449	78.62
669.651	78.62
669.854	75.62
670.057	86.62
670.259	82.62
670.462	73.62
670.665	96.62
670.867	100.62
671.07	74.62
671.272	78.62
671.475	79.62
671.677	66.62
671.88	84.62
672.082	74.62
672.284	81.62
672.487	79.62
672.689	69.62
672.892	74.62
