Data from Ni(NO3)2@0.5M.TitratingCurve.Agarose3%dH2O.NegLispCup.LampEnergy10.LIBS07252019_HRD10591_17-57-37-564.txt Node
Date: Thu Jul 25 17:57:37 EDT 2019
User: cochatt
Spectrometer: HR+D1059
Trigger mode: 1
Integration Time (sec): 1.000000E-1
Scans to average: 1
Electric dark correction enabled: true
Nonlinearity correction enabled: false
Boxcar width: 0
XAxis mode: Wavelengths
Number of Pixels in Spectrum: 2048
>>>>>Begin Spectral Data<<<<<
223.165	-23.62
223.4	-23.62
223.635	-23.62
223.869	-18.62
224.104	-31.62
224.338	-14.62
224.573	5.38
224.808	-15.62
225.042	-21.62
225.277	-2.62
225.511	-2.62
225.746	9.38
225.98	16.38
226.215	9.38
226.449	22.38
226.683	14.38
226.918	22.38
227.152	31.38
227.387	46.38
227.621	25.38
227.856	38.38
228.09	33.38
228.324	49.38
228.559	41.38
228.793	78.38
229.027	99.38
229.262	96.38
229.496	107.38
229.73	105.38
229.964	129.38
230.199	135.38
230.433	149.38
230.667	132.38
230.901	133.38
231.136	144.38
231.37	146.38
231.604	144.38
231.838	157.38
232.072	152.38
232.306	150.38
232.541	138.38
232.775	154.38
233.009	142.38
233.243	126.38
233.477	146.38
233.711	152.38
233.945	148.38
234.179	149.38
234.413	152.38
234.647	153.38
234.881	158.38
235.115	166.38
235.349	154.38
235.583	148.38
235.817	152.38
236.051	142.38
236.285	135.38
236.519	161.38
236.753	142.38
236.987	181.38
237.221	163.38
237.455	155.38
237.689	152.38
237.922	177.38
238.156	151.38
238.39	156.38
238.624	141.38
238.858	146.38
239.091	155.38
239.325	161.38
239.559	179.38
239.793	170.38
240.027	166.38
240.26	164.38
240.494	177.38
240.728	159.38
240.961	173.38
241.195	175.38
241.429	170.38
241.662	171.38
241.896	176.38
242.13	177.38
242.363	185.38
242.597	179.38
242.83	181.38
243.064	200.38
243.298	186.38
243.531	203.38
243.765	187.38
243.998	187.38
244.232	199.38
244.465	203.38
244.699	193.38
244.932	206.38
245.166	199.38
245.399	193.38
245.633	207.38
245.866	177.38
246.099	216.38
246.333	195.38
246.566	220.38
246.8	205.38
247.033	228.38
247.266	212.38
247.5	227.38
247.733	227.38
247.966	230.38
248.2	232.38
248.433	212.38
248.666	247.38
248.899	232.38
249.133	241.38
249.366	231.38
249.599	245.38
249.832	233.38
250.066	240.38
250.299	239.38
250.532	232.38
250.765	265.38
250.998	285.38
251.231	259.38
251.465	268.38
251.698	266.38
251.931	267.38
252.164	274.38
252.397	269.38
252.63	261.38
252.863	267.38
253.096	273.38
253.329	259.38
253.562	277.38
253.795	286.38
254.028	287.38
254.261	281.38
254.494	308.38
254.727	295.38
254.96	277.38
255.193	287.38
255.426	294.38
255.659	309.38
255.892	305.38
256.124	306.38
256.357	309.38
256.59	302.38
256.823	303.38
257.056	309.38
257.289	324.38
257.521	324.38
257.754	326.38
257.987	323.38
258.22	322.38
258.452	322.38
258.685	315.38
258.918	332.38
259.151	348.38
259.383	331.38
259.616	331.38
259.849	342.38
260.081	323.38
260.314	341.38
260.547	339.38
260.779	353.38
261.012	354.38
261.244	347.38
261.477	344.38
261.71	360.38
261.942	375.38
262.175	383.38
262.407	363.38
262.64	346.38
262.872	359.38
263.105	349.38
263.337	365.38
263.57	354.38
263.802	367.38
264.035	361.38
264.267	377.38
264.499	375.38
264.732	379.38
264.964	378.38
265.197	394.38
265.429	383.38
265.661	387.38
265.894	390.38
266.126	381.38
266.358	380.38
266.591	377.38
266.823	373.38
267.055	378.38
267.287	394.38
267.52	392.38
267.752	411.38
267.984	384.38
268.216	394.38
268.448	397.38
268.681	406.38
268.913	402.38
269.145	378.38
269.377	397.38
269.609	411.38
269.841	409.38
270.073	412.38
270.306	411.38
270.538	408.38
270.77	421.38
271.002	384.38
271.234	406.38
271.466	399.38
271.698	414.38
271.93	413.38
272.162	419.38
272.394	400.38
272.626	424.38
272.858	424.38
273.09	416.38
273.322	419.38
273.553	418.38
273.785	439.38
274.017	431.38
274.249	455.38
274.481	439.38
274.713	444.38
274.945	447.38
275.176	443.38
275.408	442.38
275.64	475.38
275.872	447.38
276.104	441.38
276.335	467.38
276.567	482.38
276.799	474.38
277.031	465.38
277.262	460.38
277.494	467.38
277.726	448.38
277.957	465.38
278.189	455.38
278.421	451.38
278.652	453.38
278.884	469.38
279.115	466.38
279.347	480.38
279.579	468.38
279.81	476.38
280.042	490.38
280.273	493.38
280.505	484.38
280.736	480.38
280.968	460.38
281.199	484.38
281.431	487.38
281.662	480.38
281.894	485.38
282.125	484.38
282.356	504.38
282.588	482.38
282.819	482.38
283.051	511.38
283.282	495.38
283.513	485.38
283.745	497.38
283.976	493.38
284.207	518.38
284.439	518.38
284.67	503.38
284.901	513.38
285.132	525.38
285.364	507.38
285.595	495.38
285.826	488.38
286.057	511.38
286.288	528.38
286.52	540.38
286.751	529.38
286.982	512.38
287.213	528.38
287.444	500.38
287.675	538.38
287.906	519.38
288.138	531.38
288.369	526.38
288.6	525.38
288.831	543.38
289.062	531.38
289.293	495.38
289.524	513.38
289.755	523.38
289.986	537.38
290.217	531.38
290.448	505.38
290.679	539.38
290.91	531.38
291.141	511.38
291.371	557.38
291.602	526.38
291.833	529.38
292.064	537.38
292.295	549.38
292.526	543.38
292.757	543.38
292.987	528.38
293.218	528.38
293.449	540.38
293.68	544.38
293.91	530.38
294.141	536.38
294.372	547.38
294.603	535.38
294.833	543.38
295.064	539.38
295.295	553.38
295.525	559.38
295.756	535.38
295.987	549.38
296.217	535.38
296.448	539.38
296.679	549.38
296.909	561.38
297.14	532.38
297.37	568.38
297.601	563.38
297.831	574.38
298.062	571.38
298.292	570.38
298.523	555.38
298.753	574.38
298.984	577.38
299.214	582.38
299.445	577.38
299.675	583.38
299.905	579.38
300.136	584.38
300.366	576.38
300.597	602.38
300.827	595.38
301.057	596.38
301.288	599.38
301.518	604.38
301.748	625.38
301.979	617.38
302.209	587.38
302.439	596.38
302.669	615.38
302.9	605.38
303.13	629.38
303.36	609.38
303.59	619.38
303.82	618.38
304.051	637.38
304.281	629.38
304.511	612.38
304.741	607.38
304.971	622.38
305.201	639.38
305.431	666.38
305.661	641.38
305.891	644.38
306.121	643.38
306.352	634.38
306.582	609.38
306.812	623.38
307.042	627.38
307.272	637.38
307.502	621.38
307.731	628.38
307.961	639.38
308.191	641.38
308.421	628.38
308.651	618.38
308.881	627.38
309.111	649.38
309.341	629.38
309.571	628.38
309.8	651.38
310.03	649.38
310.26	684.38
310.49	659.38
310.72	671.38
310.949	642.38
311.179	652.38
311.409	664.38
311.639	651.38
311.868	657.38
312.098	673.38
312.328	663.38
312.557	656.38
312.787	664.38
313.017	673.38
313.246	675.38
313.476	692.38
313.706	693.38
313.935	691.38
314.165	661.38
314.394	705.38
314.624	714.38
314.853	683.38
315.083	676.38
315.312	703.38
315.542	712.38
315.771	692.38
316.001	682.38
316.23	720.38
316.46	728.38
316.689	730.38
316.919	723.38
317.148	706.38
317.377	717.38
317.607	717.38
317.836	722.38
318.065	733.38
318.295	708.38
318.524	732.38
318.753	734.38
318.983	739.38
319.212	755.38
319.441	744.38
319.67	751.38
319.9	728.38
320.129	721.38
320.358	751.38
320.587	761.38
320.816	729.38
321.046	755.38
321.275	742.38
321.504	764.38
321.733	757.38
321.962	730.38
322.191	777.38
322.42	777.38
322.649	775.38
322.878	768.38
323.108	771.38
323.337	803.38
323.566	803.38
323.795	797.38
324.024	810.38
324.253	821.38
324.482	795.38
324.71	787.38
324.939	804.38
325.168	831.38
325.397	805.38
325.626	815.38
325.855	853.38
326.084	857.38
326.313	825.38
326.542	836.38
326.77	831.38
326.999	831.38
327.228	815.38
327.457	816.38
327.686	843.38
327.914	832.38
328.143	869.38
328.372	813.38
328.6	835.38
328.829	845.38
329.058	865.38
329.287	839.38
329.515	842.38
329.744	839.38
329.972	889.38
330.201	873.38
330.43	873.38
330.658	868.38
330.887	848.38
331.115	857.38
331.344	871.38
331.572	887.38
331.801	882.38
332.03	889.38
332.258	895.38
332.486	893.38
332.715	909.38
332.943	915.38
333.172	904.38
333.4	915.38
333.629	930.38
333.857	916.38
334.085	955.38
334.314	953.38
334.542	966.38
334.771	943.38
334.999	958.38
335.227	945.38
335.455	985.38
335.684	956.38
335.912	952.38
336.14	982.38
336.369	957.38
336.597	972.38
336.825	1001.38
337.053	958.38
337.281	981.38
337.51	965.38
337.738	956.38
337.966	961.38
338.194	975.38
338.422	971.38
338.65	959.38
338.878	937.38
339.106	957.38
339.334	963.38
339.562	932.38
339.79	926.38
340.018	934.38
340.246	900.38
340.474	915.38
340.702	943.38
340.93	931.38
341.158	921.38
341.386	931.38
341.614	953.38
341.842	953.38
342.07	914.38
342.298	941.38
342.526	913.38
342.754	936.38
342.981	926.38
343.209	931.38
343.437	957.38
343.665	977.38
343.893	979.38
344.12	983.38
344.348	987.38
344.576	979.38
344.804	970.38
345.031	977.38
345.259	963.38
345.487	967.38
345.714	975.38
345.942	964.38
346.17	960.38
346.397	938.38
346.625	940.38
346.853	921.38
347.08	915.38
347.308	921.38
347.535	917.38
347.763	905.38
347.99	890.38
348.218	901.38
348.445	876.38
348.673	903.38
348.9	920.38
349.128	921.38
349.355	924.38
349.583	908.38
349.81	913.38
350.037	895.38
350.265	880.38
350.492	877.38
350.72	877.38
350.947	894.38
351.174	897.38
351.402	924.38
351.629	931.38
351.856	914.38
352.083	917.38
352.311	899.38
352.538	905.38
352.765	927.38
352.992	897.38
353.22	904.38
353.447	881.38
353.674	908.38
353.901	905.38
354.128	902.38
354.355	879.38
354.583	860.38
354.81	886.38
355.037	879.38
355.264	877.38
355.491	885.38
355.718	880.38
355.945	922.38
356.172	897.38
356.399	890.38
356.626	880.38
356.853	931.38
357.08	893.38
357.307	892.38
357.534	895.38
357.761	879.38
357.988	871.38
358.215	867.38
358.441	889.38
358.668	864.38
358.895	885.38
359.122	866.38
359.349	878.38
359.576	889.38
359.802	884.38
360.029	905.38
360.256	895.38
360.483	900.38
360.709	877.38
360.936	884.38
361.163	857.38
361.39	907.38
361.616	883.38
361.843	912.38
362.07	958.38
362.296	903.38
362.523	904.38
362.749	890.38
362.976	912.38
363.203	901.38
363.429	903.38
363.656	908.38
363.882	902.38
364.109	864.38
364.335	899.38
364.562	905.38
364.788	864.38
365.015	899.38
365.241	899.38
365.468	902.38
365.694	873.38
365.92	919.38
366.147	872.38
366.373	879.38
366.599	904.38
366.826	872.38
367.052	875.38
367.278	915.38
367.505	903.38
367.731	914.38
367.957	927.38
368.184	913.38
368.41	906.38
368.636	903.38
368.862	901.38
369.089	925.38
369.315	926.38
369.541	915.38
369.767	903.38
369.993	900.38
370.219	909.38
370.445	885.38
370.672	908.38
370.898	912.38
371.124	923.38
371.35	904.38
371.576	899.38
371.802	940.38
372.028	946.38
372.254	959.38
372.48	921.38
372.706	935.38
372.932	916.38
373.158	954.38
373.384	956.38
373.61	935.38
373.835	912.38
374.061	919.38
374.287	933.38
374.513	918.38
374.739	960.38
374.965	948.38
375.191	945.38
375.416	928.38
375.642	953.38
375.868	925.38
376.094	929.38
376.319	920.38
376.545	910.38
376.771	909.38
376.997	924.38
377.222	930.38
377.448	926.38
377.674	929.38
377.899	927.38
378.125	916.38
378.35	919.38
378.576	893.38
378.802	905.38
379.027	921.38
379.253	909.38
379.478	909.38
379.704	919.38
379.929	923.38
380.155	916.38
380.38	920.38
380.606	883.38
380.831	896.38
381.057	938.38
381.282	915.38
381.507	909.38
381.733	924.38
381.958	900.38
382.184	905.38
382.409	953.38
382.634	937.38
382.86	922.38
383.085	924.38
383.31	934.38
383.535	970.38
383.761	935.38
383.986	941.38
384.211	919.38
384.436	951.38
384.662	946.38
384.887	953.38
385.112	969.38
385.337	954.38
385.562	955.38
385.787	976.38
386.013	973.38
386.238	960.38
386.463	977.38
386.688	962.38
386.913	972.38
387.138	978.38
387.363	975.38
387.588	988.38
387.813	983.38
388.038	1000.38
388.263	998.38
388.488	971.38
388.713	992.38
388.938	986.38
389.163	1043.38
389.387	982.38
389.612	985.38
389.837	1003.38
390.062	993.38
390.287	1025.38
390.512	1013.38
390.736	1008.38
390.961	1028.38
391.186	1015.38
391.411	1027.38
391.636	1010.38
391.86	1020.38
392.085	1033.38
392.31	1008.38
392.534	980.38
392.759	1015.38
392.984	1010.38
393.208	1011.38
393.433	1033.38
393.658	1031.38
393.882	1034.38
394.107	1025.38
394.331	1015.38
394.556	1001.38
394.78	1015.38
395.005	1039.38
395.229	1015.38
395.454	1018.38
395.678	1021.38
395.903	1043.38
396.127	1033.38
396.352	1058.38
396.576	1067.38
396.801	1045.38
397.025	1047.38
397.249	1083.38
397.474	1081.38
397.698	1069.38
397.922	1114.38
398.147	1060.38
398.371	1057.38
398.595	1094.38
398.82	1087.38
399.044	1128.38
399.268	1150.38
399.492	1173.38
399.717	1188.38
399.941	1208.38
400.165	1203.38
400.389	1192.38
400.613	1201.38
400.837	1138.38
401.062	1145.38
401.286	1140.38
401.51	1090.38
401.734	1146.38
401.958	1091.38
402.182	1119.38
402.406	1104.38
402.63	1097.38
402.854	1110.38
403.078	1147.38
403.302	1144.38
403.526	1111.38
403.75	1113.38
403.974	1138.38
404.198	1118.38
404.422	1130.38
404.645	1142.38
404.869	1122.38
405.093	1158.38
405.317	1146.38
405.541	1165.38
405.765	1173.38
405.988	1135.38
406.212	1199.38
406.436	1160.38
406.66	1182.38
406.883	1183.38
407.107	1244.38
407.331	1217.38
407.555	1207.38
407.778	1219.38
408.002	1220.38
408.226	1195.38
408.449	1225.38
408.673	1228.38
408.896	1203.38
409.12	1224.38
409.344	1219.38
409.567	1176.38
409.791	1173.38
410.014	1186.38
410.238	1191.38
410.461	1205.38
410.685	1180.38
410.908	1149.38
411.132	1166.38
411.355	1132.38
411.578	1205.38
411.802	1164.38
412.025	1172.38
412.249	1164.38
412.472	1159.38
412.695	1151.38
412.919	1148.38
413.142	1137.38
413.365	1140.38
413.589	1128.38
413.812	1169.38
414.035	1139.38
414.258	1114.38
414.482	1117.38
414.705	1137.38
414.928	1109.38
415.151	1137.38
415.374	1112.38
415.597	1126.38
415.821	1125.38
416.044	1123.38
416.267	1084.38
416.49	1124.38
416.713	1115.38
416.936	1109.38
417.159	1083.38
417.382	1131.38
417.605	1103.38
417.828	1097.38
418.051	1100.38
418.274	1094.38
418.497	1101.38
418.72	1094.38
418.943	1092.38
419.166	1142.38
419.389	1196.38
419.611	1203.38
419.834	1143.38
420.057	1120.38
420.28	1128.38
420.503	1081.38
420.726	1084.38
420.948	1057.38
421.171	1075.38
421.394	1066.38
421.617	1090.38
421.839	1072.38
422.062	1114.38
422.285	1056.38
422.507	1113.38
422.73	1105.38
422.953	1114.38
423.175	1117.38
423.398	1104.38
423.621	1079.38
423.843	1097.38
424.066	1088.38
424.288	1101.38
424.511	1066.38
424.733	1091.38
424.956	1066.38
425.178	1090.38
425.401	1105.38
425.623	1125.38
425.846	1100.38
426.068	1087.38
426.291	1110.38
426.513	1098.38
426.735	1089.38
426.958	1080.38
427.18	1054.38
427.402	1073.38
427.625	1087.38
427.847	1074.38
428.069	1089.38
428.292	1068.38
428.514	1081.38
428.736	1066.38
428.958	1080.38
429.181	1073.38
429.403	1071.38
429.625	1087.38
429.847	1087.38
430.069	1045.38
430.292	1077.38
430.514	1050.38
430.736	1078.38
430.958	1092.38
431.18	1065.38
431.402	1077.38
431.624	1077.38
431.846	1061.38
432.068	1067.38
432.29	1069.38
432.512	1072.38
432.734	1084.38
432.956	1084.38
433.178	1088.38
433.4	1099.38
433.622	1105.38
433.844	1086.38
434.066	1098.38
434.287	1085.38
434.509	1071.38
434.731	1081.38
434.953	1108.38
435.175	1080.38
435.397	1150.38
435.618	1093.38
435.84	1091.38
436.062	1080.38
436.284	1103.38
436.505	1082.38
436.727	1125.38
436.949	1078.38
437.17	1059.38
437.392	1033.38
437.614	1072.38
437.835	1041.38
438.057	1037.38
438.278	1068.38
438.5	1042.38
438.721	1045.38
438.943	1090.38
439.165	1061.38
439.386	1061.38
439.608	1080.38
439.829	1075.38
440.05	1083.38
440.272	1072.38
440.493	1107.38
440.715	1079.38
440.936	1102.38
441.158	1068.38
441.379	1090.38
441.6	1094.38
441.822	1091.38
442.043	1106.38
442.264	1087.38
442.486	1067.38
442.707	1113.38
442.928	1107.38
443.149	1095.38
443.371	1131.38
443.592	1129.38
443.813	1113.38
444.034	1122.38
444.255	1127.38
444.476	1112.38
444.698	1140.38
444.919	1135.38
445.14	1261.38
445.361	1203.38
445.582	1163.38
445.803	1125.38
446.024	1085.38
446.245	1105.38
446.466	1096.38
446.687	1091.38
446.908	1070.38
447.129	1055.38
447.35	1023.38
447.571	1035.38
447.792	1043.38
448.013	1038.38
448.234	1043.38
448.455	1031.38
448.675	1002.38
448.896	1043.38
449.117	1032.38
449.338	1023.38
449.559	982.38
449.779	988.38
450	993.38
450.221	984.38
450.442	988.38
450.662	996.38
450.883	1005.38
451.104	1018.38
451.324	1031.38
451.545	990.38
451.766	981.38
451.986	998.38
452.207	973.38
452.428	955.38
452.648	973.38
452.869	947.38
453.089	962.38
453.31	983.38
453.53	970.38
453.751	951.38
453.971	965.38
454.192	1003.38
454.412	964.38
454.633	946.38
454.853	994.38
455.073	966.38
455.294	959.38
455.514	945.38
455.734	953.38
455.955	948.38
456.175	959.38
456.395	969.38
456.616	957.38
456.836	967.38
457.056	968.38
457.276	960.38
457.497	979.38
457.717	971.38
457.937	977.38
458.157	963.38
458.377	988.38
458.598	976.38
458.818	997.38
459.038	973.38
459.258	996.38
459.478	1034.38
459.698	1044.38
459.918	1068.38
460.138	1074.38
460.358	1056.38
460.578	1085.38
460.798	1122.38
461.018	1122.38
461.238	1104.38
461.458	1087.38
461.678	1118.38
461.898	1111.38
462.118	1131.38
462.338	1124.38
462.558	1114.38
462.777	1163.38
462.997	1179.38
463.217	1223.38
463.437	1204.38
463.657	1190.38
463.876	1178.38
464.096	1192.38
464.316	1137.38
464.536	1125.38
464.755	1166.38
464.975	1163.38
465.195	1119.38
465.414	1128.38
465.634	1105.38
465.854	1108.38
466.073	1082.38
466.293	1079.38
466.512	1068.38
466.732	1034.38
466.951	1038.38
467.171	1056.38
467.391	1080.38
467.61	1027.38
467.829	1048.38
468.049	1072.38
468.268	1040.38
468.488	1042.38
468.707	1065.38
468.927	1023.38
469.146	1043.38
469.365	1025.38
469.585	992.38
469.804	1053.38
470.023	1036.38
470.243	1030.38
470.462	1059.38
470.681	1073.38
470.901	1029.38
471.12	1051.38
471.339	1053.38
471.558	1076.38
471.777	1052.38
471.997	1026.38
472.216	1035.38
472.435	1048.38
472.654	1047.38
472.873	1018.38
473.092	1046.38
473.311	1039.38
473.53	1053.38
473.749	1080.38
473.968	1062.38
474.187	1054.38
474.406	1027.38
474.625	1052.38
474.844	1059.38
475.063	1095.38
475.282	1090.38
475.501	1095.38
475.72	1092.38
475.939	1095.38
476.158	1059.38
476.377	1107.38
476.596	1097.38
476.814	1109.38
477.033	1103.38
477.252	1110.38
477.471	1138.38
477.69	1174.38
477.908	1165.38
478.127	1155.38
478.346	1185.38
478.564	1165.38
478.783	1199.38
479.002	1197.38
479.22	1245.38
479.439	1230.38
479.658	1199.38
479.876	1220.38
480.095	1201.38
480.313	1229.38
480.532	1207.38
480.751	1224.38
480.969	1207.38
481.188	1205.38
481.406	1213.38
481.624	1204.38
481.843	1208.38
482.061	1226.38
482.28	1235.38
482.498	1219.38
482.717	1225.38
482.935	1226.38
483.153	1243.38
483.372	1259.38
483.59	1264.38
483.808	1255.38
484.027	1256.38
484.245	1287.38
484.463	1268.38
484.681	1291.38
484.9	1267.38
485.118	1268.38
485.336	1288.38
485.554	1298.38
485.772	1301.38
485.99	1276.38
486.209	1301.38
486.427	1259.38
486.645	1256.38
486.863	1281.38
487.081	1315.38
487.299	1307.38
487.517	1290.38
487.735	1300.38
487.953	1279.38
488.171	1308.38
488.389	1297.38
488.607	1278.38
488.825	1252.38
489.043	1293.38
489.261	1248.38
489.479	1281.38
489.696	1308.38
489.914	1283.38
490.132	1312.38
490.35	1319.38
490.568	1321.38
490.786	1313.38
491.003	1280.38
491.221	1317.38
491.439	1334.38
491.657	1307.38
491.874	1319.38
492.092	1338.38
492.31	1333.38
492.527	1340.38
492.745	1314.38
492.963	1332.38
493.18	1357.38
493.398	1329.38
493.615	1332.38
493.833	1330.38
494.05	1372.38
494.268	1336.38
494.485	1334.38
494.703	1325.38
494.92	1342.38
495.138	1348.38
495.355	1354.38
495.573	1364.38
495.79	1387.38
496.008	1362.38
496.225	1387.38
496.442	1402.38
496.66	1384.38
496.877	1409.38
497.094	1380.38
497.312	1458.38
497.529	1444.38
497.746	1493.38
497.963	1450.38
498.181	1508.38
498.398	1510.38
498.615	1548.38
498.832	1545.38
499.049	1639.38
499.267	1656.38
499.484	1707.38
499.701	1716.38
499.918	1790.38
500.135	1812.38
500.352	1849.38
500.569	1821.38
500.786	1849.38
501.003	1800.38
501.22	1768.38
501.437	1775.38
501.654	1701.38
501.871	1686.38
502.088	1640.38
502.305	1581.38
502.522	1574.38
502.739	1563.38
502.956	1490.38
503.172	1457.38
503.389	1425.38
503.606	1431.38
503.823	1420.38
504.04	1393.38
504.256	1375.38
504.473	1376.38
504.69	1358.38
504.907	1350.38
505.123	1319.38
505.34	1322.38
505.557	1287.38
505.773	1300.38
505.99	1269.38
506.207	1264.38
506.423	1252.38
506.64	1239.38
506.856	1220.38
507.073	1213.38
507.289	1205.38
507.506	1183.38
507.722	1199.38
507.939	1202.38
508.155	1172.38
508.372	1204.38
508.588	1169.38
508.805	1158.38
509.021	1164.38
509.238	1166.38
509.454	1135.38
509.67	1115.38
509.887	1109.38
510.103	1129.38
510.319	1115.38
510.536	1099.38
510.752	1106.38
510.968	1103.38
511.184	1124.38
511.401	1120.38
511.617	1104.38
511.833	1093.38
512.049	1080.38
512.265	1113.38
512.481	1117.38
512.698	1098.38
512.914	1078.38
513.13	1118.38
513.346	1092.38
513.562	1120.38
513.778	1095.38
513.994	1086.38
514.21	1113.38
514.426	1106.38
514.642	1089.38
514.858	1098.38
515.074	1086.38
515.29	1123.38
515.506	1105.38
515.721	1087.38
515.937	1122.38
516.153	1113.38
516.369	1124.38
516.585	1113.38
516.801	1122.38
517.016	1138.38
517.232	1149.38
517.448	1148.38
517.664	1161.38
517.879	1143.38
518.095	1160.38
518.311	1169.38
518.527	1161.38
518.742	1140.38
518.958	1116.38
519.173	1125.38
519.389	1116.38
519.605	1087.38
519.82	1115.38
520.036	1095.38
520.251	1091.38
520.467	1091.38
520.682	1063.38
520.898	1076.38
521.113	1035.38
521.329	1033.38
521.544	1036.38
521.76	1058.38
521.975	1043.38
522.19	1040.38
522.406	1040.38
522.621	1024.38
522.836	1007.38
523.052	1038.38
523.267	1023.38
523.482	1023.38
523.698	1016.38
523.913	1035.38
524.128	1011.38
524.343	1012.38
524.559	1010.38
524.774	984.38
524.989	983.38
525.204	1004.38
525.419	990.38
525.634	976.38
525.849	994.38
526.064	1004.38
526.28	984.38
526.495	991.38
526.71	964.38
526.925	966.38
527.14	986.38
527.355	966.38
527.57	957.38
527.785	977.38
527.999	978.38
528.214	983.38
528.429	968.38
528.644	980.38
528.859	998.38
529.074	964.38
529.289	1024.38
529.503	1008.38
529.718	968.38
529.933	951.38
530.148	968.38
530.363	936.38
530.577	913.38
530.792	935.38
531.007	949.38
531.221	939.38
531.436	931.38
531.651	957.38
531.865	954.38
532.08	961.38
532.295	949.38
532.509	934.38
532.724	965.38
532.938	970.38
533.153	932.38
533.367	936.38
533.582	944.38
533.796	935.38
534.011	954.38
534.225	940.38
534.44	937.38
534.654	924.38
534.868	895.38
535.083	938.38
535.297	917.38
535.511	927.38
535.726	935.38
535.94	903.38
536.154	893.38
536.369	912.38
536.583	902.38
536.797	857.38
537.011	846.38
537.225	888.38
537.44	904.38
537.654	908.38
537.868	884.38
538.082	891.38
538.296	885.38
538.51	872.38
538.724	888.38
538.938	880.38
539.153	857.38
539.367	889.38
539.581	875.38
539.795	853.38
540.009	884.38
540.222	867.38
540.436	849.38
540.65	853.38
540.864	867.38
541.078	898.38
541.292	863.38
541.506	876.38
541.72	922.38
541.934	915.38
542.147	902.38
542.361	888.38
542.575	881.38
542.789	849.38
543.002	866.38
543.216	859.38
543.43	851.38
543.644	848.38
543.857	871.38
544.071	852.38
544.285	897.38
544.498	855.38
544.712	857.38
544.925	879.38
545.139	880.38
545.352	835.38
545.566	853.38
545.779	867.38
545.993	841.38
546.206	836.38
546.42	825.38
546.633	849.38
546.847	876.38
547.06	861.38
547.274	896.38
547.487	842.38
547.7	855.38
547.914	867.38
548.127	845.38
548.34	839.38
548.554	862.38
548.767	850.38
548.98	865.38
549.193	867.38
549.407	844.38
549.62	850.38
549.833	823.38
550.046	826.38
550.259	835.38
550.473	832.38
550.686	839.38
550.899	821.38
551.112	842.38
551.325	826.38
551.538	830.38
551.751	793.38
551.964	799.38
552.177	821.38
552.39	831.38
552.603	847.38
552.816	849.38
553.029	818.38
553.242	841.38
553.455	831.38
553.667	841.38
553.88	834.38
554.093	818.38
554.306	801.38
554.519	812.38
554.732	786.38
554.944	801.38
555.157	781.38
555.37	807.38
555.583	781.38
555.795	783.38
556.008	777.38
556.221	769.38
556.433	783.38
556.646	766.38
556.859	767.38
557.071	727.38
557.284	756.38
557.496	739.38
557.709	739.38
557.921	756.38
558.134	729.38
558.346	741.38
558.559	741.38
558.771	724.38
558.984	728.38
559.196	729.38
559.409	742.38
559.621	739.38
559.833	703.38
560.046	738.38
560.258	737.38
560.47	706.38
560.683	715.38
560.895	711.38
561.107	710.38
561.32	734.38
561.532	737.38
561.744	723.38
561.956	713.38
562.168	728.38
562.381	723.38
562.593	728.38
562.805	706.38
563.017	726.38
563.229	689.38
563.441	709.38
563.653	728.38
563.865	724.38
564.077	748.38
564.289	745.38
564.501	722.38
564.713	726.38
564.925	737.38
565.137	727.38
565.349	753.38
565.561	768.38
565.773	739.38
565.985	747.38
566.197	771.38
566.408	760.38
566.62	772.38
566.832	800.38
567.044	787.38
567.255	792.38
567.467	787.38
567.679	773.38
567.891	787.38
568.102	791.38
568.314	754.38
568.526	759.38
568.737	743.38
568.949	714.38
569.161	693.38
569.372	704.38
569.584	678.38
569.795	698.38
570.007	678.38
570.218	674.38
570.43	653.38
570.641	664.38
570.853	638.38
571.064	663.38
571.276	617.38
571.487	614.38
571.698	659.38
571.91	617.38
572.121	610.38
572.333	585.38
572.544	599.38
572.755	582.38
572.966	592.38
573.178	578.38
573.389	575.38
573.6	578.38
573.811	593.38
574.023	594.38
574.234	570.38
574.445	591.38
574.656	541.38
574.867	556.38
575.078	567.38
575.289	582.38
575.501	575.38
575.712	546.38
575.923	542.38
576.134	549.38
576.345	552.38
576.556	549.38
576.767	545.38
576.978	544.38
577.188	543.38
577.399	520.38
577.61	555.38
577.821	535.38
578.032	522.38
578.243	522.38
578.454	499.38
578.665	489.38
578.875	504.38
579.086	519.38
579.297	503.38
579.508	513.38
579.718	504.38
579.929	508.38
580.14	489.38
580.35	487.38
580.561	512.38
580.772	494.38
580.982	488.38
581.193	496.38
581.403	493.38
581.614	501.38
581.825	501.38
582.035	488.38
582.246	502.38
582.456	489.38
582.667	496.38
582.877	490.38
583.087	478.38
583.298	488.38
583.508	477.38
583.719	466.38
583.929	481.38
584.139	468.38
584.35	469.38
584.56	480.38
584.77	467.38
584.981	472.38
585.191	473.38
585.401	468.38
585.611	454.38
585.821	485.38
586.032	466.38
586.242	474.38
586.452	461.38
586.662	464.38
586.872	453.38
587.082	452.38
587.292	471.38
587.502	456.38
587.713	447.38
587.923	457.38
588.133	436.38
588.343	449.38
588.553	476.38
588.762	451.38
588.972	464.38
589.182	500.38
589.392	534.38
589.602	449.38
589.812	498.38
590.022	455.38
590.232	459.38
590.441	447.38
590.651	443.38
590.861	459.38
591.071	436.38
591.281	427.38
591.49	444.38
591.7	447.38
591.91	444.38
592.119	447.38
592.329	449.38
592.539	449.38
592.748	448.38
592.958	456.38
593.167	455.38
593.377	439.38
593.587	470.38
593.796	451.38
594.006	463.38
594.215	456.38
594.424	435.38
594.634	426.38
594.843	437.38
595.053	451.38
595.262	455.38
595.472	435.38
595.681	452.38
595.89	449.38
596.1	413.38
596.309	419.38
596.518	416.38
596.727	424.38
596.937	409.38
597.146	405.38
597.355	406.38
597.564	407.38
597.774	413.38
597.983	408.38
598.192	401.38
598.401	374.38
598.61	379.38
598.819	382.38
599.028	373.38
599.237	373.38
599.446	369.38
599.655	379.38
599.864	377.38
600.073	389.38
600.282	379.38
600.491	376.38
600.7	411.38
600.909	388.38
601.118	379.38
601.327	371.38
601.536	365.38
601.745	373.38
601.953	391.38
602.162	365.38
602.371	360.38
602.58	369.38
602.789	352.38
602.997	369.38
603.206	373.38
603.415	381.38
603.623	377.38
603.832	370.38
604.041	339.38
604.249	353.38
604.458	359.38
604.666	362.38
604.875	349.38
605.084	337.38
605.292	349.38
605.501	351.38
605.709	371.38
605.918	359.38
606.126	367.38
606.334	356.38
606.543	347.38
606.751	362.38
606.96	352.38
607.168	354.38
607.376	344.38
607.585	348.38
607.793	342.38
608.001	358.38
608.21	361.38
608.418	352.38
608.626	338.38
608.834	343.38
609.043	335.38
609.251	340.38
609.459	365.38
609.667	339.38
609.875	338.38
610.083	330.38
610.291	326.38
610.499	317.38
610.707	344.38
610.916	326.38
611.124	336.38
611.332	333.38
611.54	320.38
611.748	336.38
611.955	328.38
612.163	325.38
612.371	331.38
612.579	320.38
612.787	329.38
612.995	343.38
613.203	336.38
613.411	331.38
613.618	344.38
613.826	343.38
614.034	336.38
614.242	329.38
614.449	319.38
614.657	327.38
614.865	329.38
615.072	329.38
615.28	331.38
615.488	342.38
615.695	308.38
615.903	327.38
616.111	315.38
616.318	337.38
616.526	325.38
616.733	322.38
616.941	313.38
617.148	321.38
617.356	324.38
617.563	332.38
617.771	315.38
617.978	299.38
618.185	313.38
618.393	308.38
618.6	301.38
618.807	313.38
619.015	315.38
619.222	294.38
619.429	305.38
619.637	309.38
619.844	306.38
620.051	319.38
620.258	298.38
620.466	290.38
620.673	300.38
620.88	301.38
621.087	291.38
621.294	301.38
621.501	313.38
621.708	294.38
621.915	312.38
622.122	296.38
622.329	293.38
622.536	301.38
622.743	305.38
622.95	315.38
623.157	299.38
623.364	306.38
623.571	280.38
623.778	283.38
623.985	285.38
624.192	279.38
624.399	288.38
624.606	289.38
624.812	285.38
625.019	285.38
625.226	276.38
625.433	271.38
625.639	283.38
625.846	282.38
626.053	288.38
626.259	280.38
626.466	276.38
626.673	249.38
626.879	279.38
627.086	264.38
627.293	262.38
627.499	265.38
627.706	278.38
627.912	258.38
628.119	282.38
628.325	264.38
628.532	278.38
628.738	276.38
628.945	272.38
629.151	259.38
629.357	263.38
629.564	268.38
629.77	260.38
629.976	277.38
630.183	283.38
630.389	281.38
630.595	252.38
630.802	271.38
631.008	251.38
631.214	241.38
631.42	246.38
631.627	265.38
631.833	261.38
632.039	248.38
632.245	259.38
632.451	247.38
632.657	247.38
632.863	248.38
633.069	249.38
633.275	261.38
633.481	246.38
633.688	258.38
633.893	246.38
634.099	240.38
634.305	244.38
634.511	243.38
634.717	243.38
634.923	236.38
635.129	236.38
635.335	247.38
635.541	253.38
635.747	252.38
635.952	239.38
636.158	236.38
636.364	242.38
636.57	241.38
636.775	255.38
636.981	248.38
637.187	243.38
637.392	227.38
637.598	221.38
637.804	245.38
638.009	236.38
638.215	224.38
638.421	243.38
638.626	257.38
638.832	211.38
639.037	237.38
639.243	236.38
639.448	233.38
639.654	236.38
639.859	231.38
640.065	245.38
640.27	244.38
640.475	237.38
640.681	224.38
640.886	223.38
641.091	232.38
641.297	230.38
641.502	213.38
641.707	214.38
641.913	213.38
642.118	245.38
642.323	226.38
642.528	224.38
642.733	225.38
642.939	237.38
643.144	235.38
643.349	229.38
643.554	234.38
643.759	242.38
643.964	230.38
644.169	239.38
644.374	215.38
644.579	219.38
644.784	215.38
644.989	208.38
645.194	209.38
645.399	204.38
645.604	243.38
645.809	223.38
646.014	234.38
646.219	229.38
646.423	220.38
646.628	207.38
646.833	222.38
647.038	234.38
647.243	215.38
647.447	219.38
647.652	234.38
647.857	212.38
648.062	216.38
648.266	218.38
648.471	228.38
648.676	237.38
648.88	230.38
649.085	206.38
649.289	213.38
649.494	224.38
649.698	241.38
649.903	219.38
650.107	209.38
650.312	225.38
650.516	216.38
650.721	213.38
650.925	224.38
651.13	211.38
651.334	205.38
651.539	201.38
651.743	211.38
651.947	223.38
652.152	212.38
652.356	209.38
652.56	204.38
652.764	201.38
652.969	200.38
653.173	198.38
653.377	201.38
653.581	208.38
653.785	191.38
653.99	197.38
654.194	209.38
654.398	186.38
654.602	207.38
654.806	192.38
655.01	199.38
655.214	183.38
655.418	199.38
655.622	202.38
655.826	205.38
656.03	199.38
656.234	200.38
656.438	211.38
656.642	215.38
656.846	229.38
657.049	195.38
657.253	187.38
657.457	188.38
657.661	178.38
657.865	164.38
658.068	158.38
658.272	155.38
658.476	162.38
658.68	136.38
658.883	135.38
659.087	128.38
659.291	128.38
659.494	130.38
659.698	123.38
659.901	127.38
660.105	121.38
660.309	109.38
660.512	113.38
660.716	108.38
660.919	97.38
661.123	120.38
661.326	118.38
661.53	100.38
661.733	102.38
661.936	103.38
662.14	93.38
662.343	96.38
662.546	91.38
662.75	84.38
662.953	92.38
663.156	86.38
663.36	81.38
663.563	94.38
663.766	95.38
663.969	87.38
664.173	74.38
664.376	86.38
664.579	82.38
664.782	80.38
664.985	79.38
665.188	81.38
665.391	88.38
665.594	91.38
665.797	92.38
666	75.38
666.203	84.38
666.406	95.38
666.609	72.38
666.812	101.38
667.015	96.38
667.218	94.38
667.421	74.38
667.624	83.38
667.827	87.38
668.03	79.38
668.232	76.38
668.435	95.38
668.638	64.38
668.841	84.38
669.043	71.38
669.246	79.38
669.449	71.38
669.651	79.38
669.854	71.38
670.057	87.38
670.259	75.38
670.462	81.38
670.665	80.38
670.867	84.38
671.07	89.38
671.272	92.38
671.475	91.38
671.677	96.38
671.88	87.38
672.082	87.38
672.284	96.38
672.487	83.38
672.689	103.38
672.892	91.38
