Data from Ni(NO3)2@0.5M.TitratingCurve.Agarose3%dH2O.NegLispCup.LampEnergy10.LIBS07252019_HRD10591_17-58-39-565.txt Node
Date: Thu Jul 25 17:58:39 EDT 2019
User: cochatt
Spectrometer: HR+D1059
Trigger mode: 1
Integration Time (sec): 1.000000E-1
Scans to average: 1
Electric dark correction enabled: true
Nonlinearity correction enabled: false
Boxcar width: 0
XAxis mode: Wavelengths
Number of Pixels in Spectrum: 2048
>>>>>Begin Spectral Data<<<<<
223.165	-15.25
223.4	-15.25
223.635	-15.25
223.869	-11.25
224.104	-21.25
224.338	-10.25
224.573	-14.25
224.808	-15.25
225.042	-22.25
225.277	-9.25
225.511	-2.25
225.746	-6.25
225.98	10.75
226.215	9.75
226.449	20.75
226.683	33.75
226.918	30.75
227.152	21.75
227.387	19.75
227.621	42.75
227.856	37.75
228.09	33.75
228.324	40.75
228.559	52.75
228.793	75.75
229.027	103.75
229.262	114.75
229.496	115.75
229.73	118.75
229.964	138.75
230.199	160.75
230.433	146.75
230.667	152.75
230.901	145.75
231.136	127.75
231.37	143.75
231.604	159.75
231.838	154.75
232.072	176.75
232.306	173.75
232.541	150.75
232.775	147.75
233.009	135.75
233.243	145.75
233.477	139.75
233.711	120.75
233.945	147.75
234.179	145.75
234.413	125.75
234.647	140.75
234.881	133.75
235.115	137.75
235.349	152.75
235.583	134.75
235.817	125.75
236.051	141.75
236.285	132.75
236.519	137.75
236.753	150.75
236.987	157.75
237.221	139.75
237.455	134.75
237.689	149.75
237.922	146.75
238.156	143.75
238.39	138.75
238.624	151.75
238.858	153.75
239.091	163.75
239.325	150.75
239.559	158.75
239.793	176.75
240.027	186.75
240.26	163.75
240.494	165.75
240.728	166.75
240.961	150.75
241.195	158.75
241.429	161.75
241.662	169.75
241.896	183.75
242.13	192.75
242.363	170.75
242.597	159.75
242.83	163.75
243.064	163.75
243.298	165.75
243.531	160.75
243.765	190.75
243.998	185.75
244.232	191.75
244.465	163.75
244.699	163.75
244.932	184.75
245.166	185.75
245.399	177.75
245.633	191.75
245.866	193.75
246.099	186.75
246.333	186.75
246.566	197.75
246.8	192.75
247.033	184.75
247.266	189.75
247.5	200.75
247.733	207.75
247.966	225.75
248.2	196.75
248.433	201.75
248.666	197.75
248.899	197.75
249.133	197.75
249.366	199.75
249.599	202.75
249.832	209.75
250.066	203.75
250.299	230.75
250.532	201.75
250.765	228.75
250.998	229.75
251.231	246.75
251.465	237.75
251.698	219.75
251.931	250.75
252.164	235.75
252.397	239.75
252.63	229.75
252.863	222.75
253.096	221.75
253.329	218.75
253.562	229.75
253.795	254.75
254.028	232.75
254.261	249.75
254.494	244.75
254.727	238.75
254.96	265.75
255.193	238.75
255.426	270.75
255.659	232.75
255.892	255.75
256.124	254.75
256.357	259.75
256.59	254.75
256.823	260.75
257.056	266.75
257.289	256.75
257.521	243.75
257.754	245.75
257.987	250.75
258.22	269.75
258.452	286.75
258.685	269.75
258.918	280.75
259.151	267.75
259.383	263.75
259.616	274.75
259.849	271.75
260.081	288.75
260.314	285.75
260.547	285.75
260.779	271.75
261.012	289.75
261.244	287.75
261.477	282.75
261.71	297.75
261.942	286.75
262.175	294.75
262.407	293.75
262.64	317.75
262.872	301.75
263.105	274.75
263.337	279.75
263.57	295.75
263.802	302.75
264.035	289.75
264.267	297.75
264.499	283.75
264.732	317.75
264.964	317.75
265.197	306.75
265.429	294.75
265.661	324.75
265.894	306.75
266.126	302.75
266.358	325.75
266.591	309.75
266.823	323.75
267.055	305.75
267.287	307.75
267.52	314.75
267.752	322.75
267.984	303.75
268.216	322.75
268.448	327.75
268.681	325.75
268.913	322.75
269.145	317.75
269.377	327.75
269.609	344.75
269.841	332.75
270.073	316.75
270.306	314.75
270.538	327.75
270.77	340.75
271.002	338.75
271.234	347.75
271.466	357.75
271.698	343.75
271.93	342.75
272.162	352.75
272.394	354.75
272.626	338.75
272.858	357.75
273.09	350.75
273.322	360.75
273.553	362.75
273.785	367.75
274.017	361.75
274.249	349.75
274.481	369.75
274.713	365.75
274.945	367.75
275.176	374.75
275.408	363.75
275.64	360.75
275.872	366.75
276.104	372.75
276.335	378.75
276.567	366.75
276.799	356.75
277.031	365.75
277.262	383.75
277.494	371.75
277.726	391.75
277.957	365.75
278.189	389.75
278.421	400.75
278.652	387.75
278.884	372.75
279.115	393.75
279.347	379.75
279.579	400.75
279.81	389.75
280.042	404.75
280.273	399.75
280.505	382.75
280.736	413.75
280.968	391.75
281.199	387.75
281.431	409.75
281.662	385.75
281.894	420.75
282.125	394.75
282.356	394.75
282.588	410.75
282.819	403.75
283.051	395.75
283.282	398.75
283.513	433.75
283.745	407.75
283.976	417.75
284.207	408.75
284.439	414.75
284.67	410.75
284.901	416.75
285.132	432.75
285.364	429.75
285.595	447.75
285.826	411.75
286.057	401.75
286.288	421.75
286.52	425.75
286.751	422.75
286.982	431.75
287.213	421.75
287.444	409.75
287.675	438.75
287.906	440.75
288.138	427.75
288.369	442.75
288.6	437.75
288.831	432.75
289.062	461.75
289.293	447.75
289.524	451.75
289.755	439.75
289.986	446.75
290.217	447.75
290.448	451.75
290.679	455.75
290.91	446.75
291.141	441.75
291.371	449.75
291.602	467.75
291.833	452.75
292.064	423.75
292.295	447.75
292.526	439.75
292.757	442.75
292.987	445.75
293.218	460.75
293.449	451.75
293.68	448.75
293.91	451.75
294.141	455.75
294.372	468.75
294.603	464.75
294.833	461.75
295.064	471.75
295.295	450.75
295.525	473.75
295.756	481.75
295.987	468.75
296.217	456.75
296.448	481.75
296.679	467.75
296.909	469.75
297.14	469.75
297.37	478.75
297.601	477.75
297.831	447.75
298.062	462.75
298.292	464.75
298.523	490.75
298.753	479.75
298.984	471.75
299.214	480.75
299.445	492.75
299.675	478.75
299.905	499.75
300.136	522.75
300.366	536.75
300.597	538.75
300.827	538.75
301.057	526.75
301.288	534.75
301.518	523.75
301.748	531.75
301.979	511.75
302.209	523.75
302.439	481.75
302.669	511.75
302.9	498.75
303.13	513.75
303.36	517.75
303.59	519.75
303.82	511.75
304.051	520.75
304.281	529.75
304.511	528.75
304.741	535.75
304.971	546.75
305.201	544.75
305.431	591.75
305.661	547.75
305.891	542.75
306.121	525.75
306.352	527.75
306.582	534.75
306.812	500.75
307.042	520.75
307.272	530.75
307.502	513.75
307.731	521.75
307.961	525.75
308.191	534.75
308.421	532.75
308.651	538.75
308.881	541.75
309.111	500.75
309.341	497.75
309.571	524.75
309.8	545.75
310.03	557.75
310.26	577.75
310.49	576.75
310.72	553.75
310.949	541.75
311.179	538.75
311.409	530.75
311.639	564.75
311.868	529.75
312.098	556.75
312.328	553.75
312.557	569.75
312.787	539.75
313.017	559.75
313.246	571.75
313.476	565.75
313.706	579.75
313.935	562.75
314.165	567.75
314.394	565.75
314.624	565.75
314.853	526.75
315.083	553.75
315.312	561.75
315.542	568.75
315.771	557.75
316.001	577.75
316.23	577.75
316.46	541.75
316.689	581.75
316.919	585.75
317.148	583.75
317.377	588.75
317.607	600.75
317.836	575.75
318.065	565.75
318.295	577.75
318.524	581.75
318.753	593.75
318.983	576.75
319.212	590.75
319.441	585.75
319.67	582.75
319.9	596.75
320.129	590.75
320.358	614.75
320.587	573.75
320.816	595.75
321.046	608.75
321.275	593.75
321.504	602.75
321.733	609.75
321.962	607.75
322.191	625.75
322.42	604.75
322.649	621.75
322.878	612.75
323.108	599.75
323.337	611.75
323.566	615.75
323.795	609.75
324.024	599.75
324.253	602.75
324.482	637.75
324.71	627.75
324.939	630.75
325.168	628.75
325.397	622.75
325.626	615.75
325.855	634.75
326.084	625.75
326.313	630.75
326.542	645.75
326.77	647.75
326.999	616.75
327.228	634.75
327.457	659.75
327.686	646.75
327.914	647.75
328.143	675.75
328.372	646.75
328.6	641.75
328.829	678.75
329.058	644.75
329.287	653.75
329.515	652.75
329.744	674.75
329.972	657.75
330.201	647.75
330.43	659.75
330.658	676.75
330.887	664.75
331.115	678.75
331.344	686.75
331.572	716.75
331.801	695.75
332.03	716.75
332.258	715.75
332.486	708.75
332.715	719.75
332.943	755.75
333.172	743.75
333.4	750.75
333.629	779.75
333.857	789.75
334.085	773.75
334.314	780.75
334.542	771.75
334.771	775.75
334.999	793.75
335.227	769.75
335.455	797.75
335.684	773.75
335.912	793.75
336.14	777.75
336.369	769.75
336.597	758.75
336.825	806.75
337.053	798.75
337.281	794.75
337.51	761.75
337.738	773.75
337.966	773.75
338.194	798.75
338.422	738.75
338.65	743.75
338.878	753.75
339.106	753.75
339.334	743.75
339.562	767.75
339.79	749.75
340.018	735.75
340.246	737.75
340.474	732.75
340.702	720.75
340.93	711.75
341.158	740.75
341.386	744.75
341.614	795.75
341.842	768.75
342.07	741.75
342.298	706.75
342.526	739.75
342.754	733.75
342.981	709.75
343.209	726.75
343.437	756.75
343.665	761.75
343.893	795.75
344.12	777.75
344.348	766.75
344.576	807.75
344.804	791.75
345.031	745.75
345.259	751.75
345.487	750.75
345.714	770.75
345.942	804.75
346.17	785.75
346.397	775.75
346.625	719.75
346.853	694.75
347.08	693.75
347.308	712.75
347.535	701.75
347.763	706.75
347.99	673.75
348.218	674.75
348.445	706.75
348.673	731.75
348.9	701.75
349.128	727.75
349.355	742.75
349.583	742.75
349.81	678.75
350.037	681.75
350.265	676.75
350.492	687.75
350.72	681.75
350.947	725.75
351.174	736.75
351.402	725.75
351.629	723.75
351.856	726.75
352.083	715.75
352.311	740.75
352.538	746.75
352.765	739.75
352.992	696.75
353.22	661.75
353.447	662.75
353.674	699.75
353.901	660.75
354.128	651.75
354.355	651.75
354.583	665.75
354.81	677.75
355.037	646.75
355.264	661.75
355.491	678.75
355.718	657.75
355.945	687.75
356.172	652.75
356.399	675.75
356.626	693.75
356.853	728.75
357.08	696.75
357.307	671.75
357.534	693.75
357.761	680.75
357.988	675.75
358.215	675.75
358.441	658.75
358.668	657.75
358.895	664.75
359.122	665.75
359.349	683.75
359.576	667.75
359.802	649.75
360.029	656.75
360.256	665.75
360.483	671.75
360.709	698.75
360.936	699.75
361.163	685.75
361.39	686.75
361.616	688.75
361.843	732.75
362.07	763.75
362.296	740.75
362.523	697.75
362.749	692.75
362.976	669.75
363.203	667.75
363.429	680.75
363.656	664.75
363.882	660.75
364.109	688.75
364.335	681.75
364.562	668.75
364.788	695.75
365.015	673.75
365.241	667.75
365.468	705.75
365.694	694.75
365.92	695.75
366.147	660.75
366.373	680.75
366.599	692.75
366.826	707.75
367.052	695.75
367.278	713.75
367.505	660.75
367.731	688.75
367.957	675.75
368.184	674.75
368.41	688.75
368.636	688.75
368.862	707.75
369.089	695.75
369.315	714.75
369.541	693.75
369.767	700.75
369.993	683.75
370.219	708.75
370.445	709.75
370.672	703.75
370.898	717.75
371.124	687.75
371.35	715.75
371.576	689.75
371.802	718.75
372.028	710.75
372.254	733.75
372.48	728.75
372.706	753.75
372.932	734.75
373.158	721.75
373.384	731.75
373.61	755.75
373.835	726.75
374.061	742.75
374.287	715.75
374.513	745.75
374.739	741.75
374.965	737.75
375.191	778.75
375.416	783.75
375.642	738.75
375.868	766.75
376.094	735.75
376.319	720.75
376.545	714.75
376.771	716.75
376.997	736.75
377.222	727.75
377.448	711.75
377.674	746.75
377.899	701.75
378.125	720.75
378.35	749.75
378.576	704.75
378.802	709.75
379.027	711.75
379.253	721.75
379.478	718.75
379.704	710.75
379.929	730.75
380.155	714.75
380.38	736.75
380.606	720.75
380.831	727.75
381.057	723.75
381.282	729.75
381.507	731.75
381.733	733.75
381.958	715.75
382.184	743.75
382.409	761.75
382.634	754.75
382.86	754.75
383.085	722.75
383.31	744.75
383.535	747.75
383.761	757.75
383.986	785.75
384.211	741.75
384.436	762.75
384.662	773.75
384.887	783.75
385.112	806.75
385.337	790.75
385.562	821.75
385.787	833.75
386.013	855.75
386.238	838.75
386.463	807.75
386.688	835.75
386.913	807.75
387.138	825.75
387.363	823.75
387.588	822.75
387.813	848.75
388.038	840.75
388.263	850.75
388.488	842.75
388.713	819.75
388.938	841.75
389.163	848.75
389.387	832.75
389.612	826.75
389.837	831.75
390.062	835.75
390.287	837.75
390.512	858.75
390.736	857.75
390.961	820.75
391.186	840.75
391.411	862.75
391.636	887.75
391.86	871.75
392.085	914.75
392.31	897.75
392.534	873.75
392.759	921.75
392.984	895.75
393.208	895.75
393.433	867.75
393.658	911.75
393.882	874.75
394.107	875.75
394.331	888.75
394.556	870.75
394.78	905.75
395.005	863.75
395.229	881.75
395.454	895.75
395.678	903.75
395.903	914.75
396.127	922.75
396.352	907.75
396.576	917.75
396.801	900.75
397.025	912.75
397.249	906.75
397.474	917.75
397.698	923.75
397.922	934.75
398.147	939.75
398.371	960.75
398.595	997.75
398.82	1010.75
399.044	1049.75
399.268	1085.75
399.492	1152.75
399.717	1209.75
399.941	1193.75
400.165	1135.75
400.389	1167.75
400.613	1122.75
400.837	1095.75
401.062	1049.75
401.286	1055.75
401.51	1006.75
401.734	1000.75
401.958	1031.75
402.182	1037.75
402.406	1006.75
402.63	997.75
402.854	1024.75
403.078	1015.75
403.302	1016.75
403.526	1019.75
403.75	1029.75
403.974	1029.75
404.198	1029.75
404.422	1043.75
404.645	1058.75
404.869	1034.75
405.093	1044.75
405.317	1063.75
405.541	1041.75
405.765	1082.75
405.988	1041.75
406.212	1069.75
406.436	1062.75
406.66	1097.75
406.883	1085.75
407.107	1129.75
407.331	1142.75
407.555	1167.75
407.778	1162.75
408.002	1172.75
408.226	1149.75
408.449	1151.75
408.673	1136.75
408.896	1079.75
409.12	1073.75
409.344	1100.75
409.567	1067.75
409.791	1094.75
410.014	1071.75
410.238	1050.75
410.461	1081.75
410.685	1062.75
410.908	1053.75
411.132	1061.75
411.355	1058.75
411.578	1037.75
411.802	1048.75
412.025	1030.75
412.249	1024.75
412.472	1042.75
412.695	1039.75
412.919	991.75
413.142	1070.75
413.365	990.75
413.589	1017.75
413.812	1000.75
414.035	1017.75
414.258	1013.75
414.482	977.75
414.705	993.75
414.928	1010.75
415.151	1002.75
415.374	979.75
415.597	1007.75
415.821	978.75
416.044	977.75
416.267	974.75
416.49	957.75
416.713	982.75
416.936	986.75
417.159	975.75
417.382	981.75
417.605	975.75
417.828	990.75
418.051	979.75
418.274	966.75
418.497	940.75
418.72	977.75
418.943	981.75
419.166	1021.75
419.389	1094.75
419.611	1054.75
419.834	1028.75
420.057	1013.75
420.28	985.75
420.503	951.75
420.726	959.75
420.948	963.75
421.171	947.75
421.394	994.75
421.617	964.75
421.839	997.75
422.062	967.75
422.285	949.75
422.507	986.75
422.73	949.75
422.953	986.75
423.175	951.75
423.398	983.75
423.621	965.75
423.843	982.75
424.066	962.75
424.288	972.75
424.511	962.75
424.733	952.75
424.956	978.75
425.178	948.75
425.401	969.75
425.623	980.75
425.846	969.75
426.068	961.75
426.291	954.75
426.513	946.75
426.735	942.75
426.958	952.75
427.18	925.75
427.402	965.75
427.625	950.75
427.847	911.75
428.069	897.75
428.292	925.75
428.514	922.75
428.736	912.75
428.958	934.75
429.181	907.75
429.403	883.75
429.625	903.75
429.847	907.75
430.069	934.75
430.292	927.75
430.514	904.75
430.736	919.75
430.958	933.75
431.18	956.75
431.402	945.75
431.624	931.75
431.846	917.75
432.068	921.75
432.29	914.75
432.512	907.75
432.734	928.75
432.956	920.75
433.178	947.75
433.4	962.75
433.622	960.75
433.844	964.75
434.066	951.75
434.287	958.75
434.509	964.75
434.731	966.75
434.953	963.75
435.175	992.75
435.397	1001.75
435.618	985.75
435.84	921.75
436.062	930.75
436.284	925.75
436.505	935.75
436.727	945.75
436.949	926.75
437.17	922.75
437.392	905.75
437.614	890.75
437.835	889.75
438.057	914.75
438.278	904.75
438.5	879.75
438.721	890.75
438.943	916.75
439.165	895.75
439.386	903.75
439.608	898.75
439.829	932.75
440.05	902.75
440.272	920.75
440.493	948.75
440.715	935.75
440.936	938.75
441.158	961.75
441.379	960.75
441.6	984.75
441.822	985.75
442.043	986.75
442.264	968.75
442.486	952.75
442.707	983.75
442.928	981.75
443.149	991.75
443.371	998.75
443.592	1022.75
443.813	1012.75
444.034	979.75
444.255	1021.75
444.476	1034.75
444.698	1080.75
444.919	1098.75
445.14	1139.75
445.361	1052.75
445.582	1048.75
445.803	999.75
446.024	943.75
446.245	953.75
446.466	927.75
446.687	909.75
446.908	938.75
447.129	901.75
447.35	917.75
447.571	904.75
447.792	906.75
448.013	888.75
448.234	881.75
448.455	863.75
448.675	869.75
448.896	853.75
449.117	858.75
449.338	865.75
449.559	858.75
449.779	865.75
450	820.75
450.221	861.75
450.442	859.75
450.662	837.75
450.883	863.75
451.104	898.75
451.324	847.75
451.545	875.75
451.766	869.75
451.986	849.75
452.207	845.75
452.428	851.75
452.648	855.75
452.869	817.75
453.089	843.75
453.31	840.75
453.53	814.75
453.751	810.75
453.971	806.75
454.192	840.75
454.412	850.75
454.633	799.75
454.853	811.75
455.073	821.75
455.294	820.75
455.514	824.75
455.734	811.75
455.955	848.75
456.175	832.75
456.395	812.75
456.616	793.75
456.836	841.75
457.056	814.75
457.276	826.75
457.497	818.75
457.717	846.75
457.937	854.75
458.157	813.75
458.377	841.75
458.598	870.75
458.818	874.75
459.038	862.75
459.258	920.75
459.478	950.75
459.698	986.75
459.918	992.75
460.138	1013.75
460.358	1016.75
460.578	1003.75
460.798	1087.75
461.018	1065.75
461.238	1029.75
461.458	1009.75
461.678	1016.75
461.898	1054.75
462.118	1047.75
462.338	1106.75
462.558	1139.75
462.777	1144.75
462.997	1172.75
463.217	1185.75
463.437	1255.75
463.657	1204.75
463.876	1143.75
464.096	1139.75
464.316	1103.75
464.536	1124.75
464.755	1105.75
464.975	1078.75
465.195	1037.75
465.414	1014.75
465.634	984.75
465.854	973.75
466.073	947.75
466.293	926.75
466.512	923.75
466.732	942.75
466.951	905.75
467.171	895.75
467.391	906.75
467.61	908.75
467.829	869.75
468.049	897.75
468.268	874.75
468.488	872.75
468.707	895.75
468.927	889.75
469.146	883.75
469.365	913.75
469.585	928.75
469.804	943.75
470.023	918.75
470.243	913.75
470.462	899.75
470.681	889.75
470.901	900.75
471.12	907.75
471.339	905.75
471.558	909.75
471.777	917.75
471.997	896.75
472.216	873.75
472.435	856.75
472.654	870.75
472.873	872.75
473.092	862.75
473.311	854.75
473.53	855.75
473.749	881.75
473.968	869.75
474.187	836.75
474.406	891.75
474.625	887.75
474.844	890.75
475.063	864.75
475.282	905.75
475.501	901.75
475.72	896.75
475.939	884.75
476.158	894.75
476.377	910.75
476.596	921.75
476.814	949.75
477.033	932.75
477.252	930.75
477.471	958.75
477.69	937.75
477.908	987.75
478.127	979.75
478.346	980.75
478.564	1025.75
478.783	1045.75
479.002	1059.75
479.22	1069.75
479.439	1061.75
479.658	995.75
479.876	1022.75
480.095	1062.75
480.313	1053.75
480.532	1043.75
480.751	1060.75
480.969	1023.75
481.188	1019.75
481.406	1036.75
481.624	995.75
481.843	997.75
482.061	996.75
482.28	1033.75
482.498	986.75
482.717	1033.75
482.935	996.75
483.153	1043.75
483.372	1049.75
483.59	1074.75
483.808	1009.75
484.027	1047.75
484.245	1024.75
484.463	972.75
484.681	1005.75
484.9	1019.75
485.118	1029.75
485.336	1009.75
485.554	1025.75
485.772	1011.75
485.99	1030.75
486.209	1032.75
486.427	1013.75
486.645	1032.75
486.863	1029.75
487.081	1018.75
487.299	1070.75
487.517	1050.75
487.735	1077.75
487.953	1066.75
488.171	1055.75
488.389	1029.75
488.607	1047.75
488.825	1032.75
489.043	1029.75
489.261	1056.75
489.479	1039.75
489.696	1041.75
489.914	1071.75
490.132	1052.75
490.35	1044.75
490.568	1039.75
490.786	1058.75
491.003	1019.75
491.221	1058.75
491.439	1056.75
491.657	1069.75
491.874	1093.75
492.092	1100.75
492.31	1112.75
492.527	1071.75
492.745	1103.75
492.963	1103.75
493.18	1078.75
493.398	1091.75
493.615	1106.75
493.833	1084.75
494.05	1080.75
494.268	1089.75
494.485	1094.75
494.703	1112.75
494.92	1126.75
495.138	1135.75
495.355	1124.75
495.573	1120.75
495.79	1127.75
496.008	1142.75
496.225	1137.75
496.442	1120.75
496.66	1173.75
496.877	1180.75
497.094	1240.75
497.312	1207.75
497.529	1250.75
497.746	1243.75
497.963	1325.75
498.181	1331.75
498.398	1407.75
498.615	1426.75
498.832	1481.75
499.049	1536.75
499.267	1613.75
499.484	1681.75
499.701	1750.75
499.918	1851.75
500.135	1962.75
500.352	2009.75
500.569	2077.75
500.786	2030.75
501.003	1988.75
501.22	1924.75
501.437	1833.75
501.654	1739.75
501.871	1670.75
502.088	1580.75
502.305	1529.75
502.522	1472.75
502.739	1447.75
502.956	1389.75
503.172	1339.75
503.389	1300.75
503.606	1305.75
503.823	1252.75
504.04	1242.75
504.256	1280.75
504.473	1184.75
504.69	1192.75
504.907	1149.75
505.123	1155.75
505.34	1094.75
505.557	1124.75
505.773	1088.75
505.99	1062.75
506.207	1043.75
506.423	1046.75
506.64	1010.75
506.856	986.75
507.073	982.75
507.289	1012.75
507.506	983.75
507.722	1003.75
507.939	1002.75
508.155	988.75
508.372	963.75
508.588	957.75
508.805	916.75
509.021	959.75
509.238	914.75
509.454	922.75
509.67	913.75
509.887	926.75
510.103	904.75
510.319	915.75
510.536	899.75
510.752	911.75
510.968	920.75
511.184	879.75
511.401	869.75
511.617	886.75
511.833	897.75
512.049	897.75
512.265	887.75
512.481	888.75
512.698	907.75
512.914	895.75
513.13	920.75
513.346	917.75
513.562	877.75
513.778	907.75
513.994	882.75
514.21	925.75
514.426	917.75
514.642	875.75
514.858	911.75
515.074	924.75
515.29	905.75
515.506	922.75
515.721	938.75
515.937	941.75
516.153	935.75
516.369	949.75
516.585	999.75
516.801	979.75
517.016	1011.75
517.232	1019.75
517.448	1007.75
517.664	1029.75
517.879	1006.75
518.095	1009.75
518.311	1030.75
518.527	971.75
518.742	980.75
518.958	968.75
519.173	965.75
519.389	927.75
519.605	949.75
519.82	890.75
520.036	925.75
520.251	883.75
520.467	882.75
520.682	866.75
520.898	857.75
521.113	862.75
521.329	868.75
521.544	865.75
521.76	867.75
521.975	855.75
522.19	831.75
522.406	833.75
522.621	814.75
522.836	829.75
523.052	830.75
523.267	831.75
523.482	835.75
523.698	815.75
523.913	794.75
524.128	815.75
524.343	811.75
524.559	814.75
524.774	789.75
524.989	814.75
525.204	809.75
525.419	808.75
525.634	780.75
525.849	824.75
526.064	792.75
526.28	824.75
526.495	794.75
526.71	804.75
526.925	782.75
527.14	799.75
527.355	787.75
527.57	770.75
527.785	768.75
527.999	783.75
528.214	792.75
528.429	767.75
528.644	793.75
528.859	801.75
529.074	806.75
529.289	790.75
529.503	768.75
529.718	790.75
529.933	758.75
530.148	765.75
530.363	815.75
530.577	738.75
530.792	793.75
531.007	755.75
531.221	764.75
531.436	784.75
531.651	751.75
531.865	762.75
532.08	757.75
532.295	773.75
532.509	764.75
532.724	760.75
532.938	778.75
533.153	756.75
533.367	737.75
533.582	761.75
533.796	769.75
534.011	763.75
534.225	752.75
534.44	738.75
534.654	754.75
534.868	739.75
535.083	746.75
535.297	751.75
535.511	755.75
535.726	749.75
535.94	733.75
536.154	741.75
536.369	742.75
536.583	757.75
536.797	742.75
537.011	738.75
537.225	706.75
537.44	709.75
537.654	714.75
537.868	744.75
538.082	712.75
538.296	706.75
538.51	716.75
538.724	731.75
538.938	723.75
539.153	705.75
539.367	722.75
539.581	689.75
539.795	706.75
540.009	730.75
540.222	703.75
540.436	725.75
540.65	680.75
540.864	698.75
541.078	698.75
541.292	729.75
541.506	717.75
541.72	703.75
541.934	702.75
542.147	712.75
542.361	721.75
542.575	693.75
542.789	680.75
543.002	701.75
543.216	685.75
543.43	721.75
543.644	681.75
543.857	698.75
544.071	702.75
544.285	712.75
544.498	722.75
544.712	726.75
544.925	703.75
545.139	687.75
545.352	704.75
545.566	707.75
545.779	721.75
545.993	713.75
546.206	723.75
546.42	705.75
546.633	695.75
546.847	727.75
547.06	697.75
547.274	740.75
547.487	707.75
547.7	689.75
547.914	733.75
548.127	722.75
548.34	735.75
548.554	727.75
548.767	718.75
548.98	721.75
549.193	695.75
549.407	682.75
549.62	683.75
549.833	706.75
550.046	719.75
550.259	711.75
550.473	702.75
550.686	711.75
550.899	673.75
551.112	679.75
551.325	706.75
551.538	683.75
551.751	697.75
551.964	710.75
552.177	694.75
552.39	695.75
552.603	717.75
552.816	695.75
553.029	720.75
553.242	701.75
553.455	729.75
553.667	735.75
553.88	697.75
554.093	704.75
554.306	692.75
554.519	673.75
554.732	667.75
554.944	675.75
555.157	686.75
555.37	644.75
555.583	649.75
555.795	665.75
556.008	637.75
556.221	647.75
556.433	632.75
556.646	612.75
556.859	638.75
557.071	641.75
557.284	599.75
557.496	605.75
557.709	618.75
557.921	622.75
558.134	617.75
558.346	625.75
558.559	603.75
558.771	607.75
558.984	622.75
559.196	595.75
559.409	591.75
559.621	619.75
559.833	599.75
560.046	601.75
560.258	605.75
560.47	599.75
560.683	600.75
560.895	597.75
561.107	599.75
561.32	600.75
561.532	610.75
561.744	599.75
561.956	587.75
562.168	600.75
562.381	590.75
562.593	617.75
562.805	605.75
563.017	588.75
563.229	615.75
563.441	609.75
563.653	610.75
563.865	584.75
564.077	615.75
564.289	610.75
564.501	646.75
564.713	644.75
564.925	646.75
565.137	630.75
565.349	657.75
565.561	679.75
565.773	669.75
565.985	693.75
566.197	714.75
566.408	739.75
566.62	773.75
566.832	798.75
567.044	795.75
567.255	773.75
567.467	781.75
567.679	798.75
567.891	806.75
568.102	792.75
568.314	788.75
568.526	755.75
568.737	744.75
568.949	677.75
569.161	646.75
569.372	633.75
569.584	634.75
569.795	621.75
570.007	627.75
570.218	586.75
570.43	579.75
570.641	570.75
570.853	571.75
571.064	604.75
571.276	578.75
571.487	555.75
571.698	558.75
571.91	546.75
572.121	559.75
572.333	542.75
572.544	517.75
572.755	501.75
572.966	520.75
573.178	516.75
573.389	497.75
573.6	490.75
573.811	486.75
574.023	501.75
574.234	469.75
574.445	489.75
574.656	486.75
574.867	468.75
575.078	488.75
575.289	475.75
575.501	468.75
575.712	454.75
575.923	470.75
576.134	468.75
576.345	447.75
576.556	462.75
576.767	449.75
576.978	447.75
577.188	454.75
577.399	464.75
577.61	433.75
577.821	435.75
578.032	444.75
578.243	442.75
578.454	453.75
578.665	453.75
578.875	437.75
579.086	433.75
579.297	426.75
579.508	439.75
579.718	454.75
579.929	441.75
580.14	408.75
580.35	417.75
580.561	401.75
580.772	422.75
580.982	440.75
581.193	413.75
581.403	419.75
581.614	424.75
581.825	407.75
582.035	407.75
582.246	412.75
582.456	420.75
582.667	407.75
582.877	423.75
583.087	413.75
583.298	403.75
583.508	385.75
583.719	413.75
583.929	384.75
584.139	400.75
584.35	380.75
584.56	393.75
584.77	403.75
584.981	416.75
585.191	402.75
585.401	395.75
585.611	398.75
585.821	407.75
586.032	375.75
586.242	386.75
586.452	393.75
586.662	387.75
586.872	372.75
587.082	385.75
587.292	403.75
587.502	390.75
587.713	401.75
587.923	393.75
588.133	410.75
588.343	409.75
588.553	381.75
588.762	398.75
588.972	388.75
589.182	444.75
589.392	425.75
589.602	397.75
589.812	424.75
590.022	403.75
590.232	379.75
590.441	400.75
590.651	388.75
590.861	369.75
591.071	405.75
591.281	389.75
591.49	394.75
591.7	408.75
591.91	407.75
592.119	399.75
592.329	408.75
592.539	409.75
592.748	443.75
592.958	433.75
593.167	411.75
593.377	409.75
593.587	414.75
593.796	415.75
594.006	411.75
594.215	426.75
594.424	402.75
594.634	400.75
594.843	417.75
595.053	411.75
595.262	406.75
595.472	371.75
595.681	381.75
595.89	374.75
596.1	389.75
596.309	369.75
596.518	358.75
596.727	367.75
596.937	355.75
597.146	354.75
597.355	360.75
597.564	353.75
597.774	374.75
597.983	323.75
598.192	345.75
598.401	343.75
598.61	351.75
598.819	331.75
599.028	340.75
599.237	331.75
599.446	325.75
599.655	359.75
599.864	323.75
600.073	341.75
600.282	323.75
600.491	321.75
600.7	330.75
600.909	326.75
601.118	324.75
601.327	330.75
601.536	325.75
601.745	306.75
601.953	322.75
602.162	337.75
602.371	330.75
602.58	309.75
602.789	330.75
602.997	319.75
603.206	319.75
603.415	305.75
603.623	301.75
603.832	302.75
604.041	307.75
604.249	312.75
604.458	311.75
604.666	311.75
604.875	291.75
605.084	287.75
605.292	314.75
605.501	303.75
605.709	319.75
605.918	300.75
606.126	303.75
606.334	313.75
606.543	313.75
606.751	295.75
606.96	294.75
607.168	307.75
607.376	299.75
607.585	311.75
607.793	301.75
608.001	284.75
608.21	302.75
608.418	306.75
608.626	306.75
608.834	293.75
609.043	283.75
609.251	287.75
609.459	301.75
609.667	294.75
609.875	293.75
610.083	291.75
610.291	271.75
610.499	290.75
610.707	273.75
610.916	290.75
611.124	300.75
611.332	282.75
611.54	273.75
611.748	275.75
611.955	299.75
612.163	297.75
612.371	288.75
612.579	275.75
612.787	283.75
612.995	274.75
613.203	293.75
613.411	279.75
613.618	286.75
613.826	267.75
614.034	274.75
614.242	277.75
614.449	272.75
614.657	291.75
614.865	264.75
615.072	262.75
615.28	270.75
615.488	275.75
615.695	293.75
615.903	275.75
616.111	289.75
616.318	279.75
616.526	279.75
616.733	281.75
616.941	290.75
617.148	265.75
617.356	274.75
617.563	281.75
617.771	285.75
617.978	264.75
618.185	267.75
618.393	275.75
618.6	280.75
618.807	278.75
619.015	263.75
619.222	272.75
619.429	271.75
619.637	271.75
619.844	275.75
620.051	263.75
620.258	266.75
620.466	247.75
620.673	263.75
620.88	272.75
621.087	280.75
621.294	252.75
621.501	248.75
621.708	271.75
621.915	264.75
622.122	249.75
622.329	255.75
622.536	261.75
622.743	254.75
622.95	257.75
623.157	265.75
623.364	257.75
623.571	251.75
623.778	265.75
623.985	240.75
624.192	239.75
624.399	263.75
624.606	236.75
624.812	257.75
625.019	241.75
625.226	253.75
625.433	240.75
625.639	263.75
625.846	248.75
626.053	237.75
626.259	249.75
626.466	234.75
626.673	234.75
626.879	237.75
627.086	255.75
627.293	241.75
627.499	225.75
627.706	239.75
627.912	229.75
628.119	263.75
628.325	244.75
628.532	240.75
628.738	233.75
628.945	245.75
629.151	264.75
629.357	233.75
629.564	239.75
629.77	223.75
629.976	227.75
630.183	248.75
630.389	216.75
630.595	239.75
630.802	254.75
631.008	228.75
631.214	222.75
631.42	247.75
631.627	254.75
631.833	228.75
632.039	208.75
632.245	223.75
632.451	209.75
632.657	224.75
632.863	214.75
633.069	226.75
633.275	239.75
633.481	243.75
633.688	213.75
633.893	216.75
634.099	235.75
634.305	217.75
634.511	206.75
634.717	217.75
634.923	227.75
635.129	235.75
635.335	218.75
635.541	213.75
635.747	203.75
635.952	215.75
636.158	227.75
636.364	221.75
636.57	216.75
636.775	211.75
636.981	208.75
637.187	206.75
637.392	212.75
637.598	210.75
637.804	211.75
638.009	206.75
638.215	206.75
638.421	219.75
638.626	212.75
638.832	210.75
639.037	205.75
639.243	221.75
639.448	218.75
639.654	228.75
639.859	192.75
640.065	199.75
640.27	196.75
640.475	202.75
640.681	203.75
640.886	222.75
641.091	203.75
641.297	213.75
641.502	207.75
641.707	189.75
641.913	195.75
642.118	205.75
642.323	189.75
642.528	209.75
642.733	216.75
642.939	202.75
643.144	205.75
643.349	195.75
643.554	200.75
643.759	204.75
643.964	221.75
644.169	191.75
644.374	189.75
644.579	202.75
644.784	196.75
644.989	193.75
645.194	208.75
645.399	197.75
645.604	193.75
645.809	202.75
646.014	201.75
646.219	196.75
646.423	189.75
646.628	211.75
646.833	211.75
647.038	201.75
647.243	206.75
647.447	210.75
647.652	189.75
647.857	193.75
648.062	215.75
648.266	208.75
648.471	215.75
648.676	215.75
648.88	210.75
649.085	194.75
649.289	183.75
649.494	212.75
649.698	205.75
649.903	197.75
650.107	190.75
650.312	202.75
650.516	182.75
650.721	182.75
650.925	193.75
651.13	173.75
651.334	200.75
651.539	195.75
651.743	186.75
651.947	186.75
652.152	187.75
652.356	174.75
652.56	182.75
652.764	178.75
652.969	186.75
653.173	161.75
653.377	173.75
653.581	175.75
653.785	179.75
653.99	181.75
654.194	187.75
654.398	193.75
654.602	166.75
654.806	171.75
655.01	177.75
655.214	181.75
655.418	161.75
655.622	185.75
655.826	173.75
656.03	178.75
656.234	173.75
656.438	181.75
656.642	179.75
656.846	177.75
657.049	153.75
657.253	158.75
657.457	153.75
657.661	144.75
657.865	139.75
658.068	148.75
658.272	143.75
658.476	135.75
658.68	123.75
658.883	114.75
659.087	122.75
659.291	123.75
659.494	112.75
659.698	120.75
659.901	104.75
660.105	108.75
660.309	101.75
660.512	96.75
660.716	99.75
660.919	98.75
661.123	115.75
661.326	101.75
661.53	96.75
661.733	109.75
661.936	89.75
662.14	95.75
662.343	89.75
662.546	90.75
662.75	87.75
662.953	94.75
663.156	94.75
663.36	95.75
663.563	79.75
663.766	86.75
663.969	90.75
664.173	80.75
664.376	78.75
664.579	79.75
664.782	67.75
664.985	89.75
665.188	88.75
665.391	80.75
665.594	75.75
665.797	79.75
666	91.75
666.203	94.75
666.406	77.75
666.609	81.75
666.812	77.75
667.015	69.75
667.218	80.75
667.421	79.75
667.624	81.75
667.827	91.75
668.03	88.75
668.232	75.75
668.435	80.75
668.638	86.75
668.841	85.75
669.043	75.75
669.246	94.75
669.449	74.75
669.651	75.75
669.854	82.75
670.057	73.75
670.259	78.75
670.462	74.75
670.665	72.75
670.867	78.75
671.07	81.75
671.272	95.75
671.475	80.75
671.677	87.75
671.88	93.75
672.082	86.75
672.284	75.75
672.487	90.75
672.689	71.75
672.892	82.75
