Data from Ni(NO3)2@0.5M.TitratingCurve.Agarose3%dH2O.NegLispCup.LampEnergy10.LIBS07252019_HRD10591_17-59-40-564.txt Node
Date: Thu Jul 25 17:59:40 EDT 2019
User: cochatt
Spectrometer: HR+D1059
Trigger mode: 1
Integration Time (sec): 1.000000E-1
Scans to average: 1
Electric dark correction enabled: true
Nonlinearity correction enabled: false
Boxcar width: 0
XAxis mode: Wavelengths
Number of Pixels in Spectrum: 2048
>>>>>Begin Spectral Data<<<<<
223.165	-26.19
223.4	-26.19
223.635	-26.19
223.869	-17.19
224.104	-22.19
224.338	-12.19
224.573	-2.19
224.808	-3.19
225.042	-16.19
225.277	7.81
225.511	-4.19
225.746	-3.19
225.98	10.81
226.215	14.81
226.449	2.81
226.683	17.81
226.918	13.81
227.152	38.81
227.387	39.81
227.621	32.81
227.856	30.81
228.09	57.81
228.324	50.81
228.559	54.81
228.793	63.81
229.027	90.81
229.262	91.81
229.496	95.81
229.73	86.81
229.964	105.81
230.199	107.81
230.433	115.81
230.667	114.81
230.901	111.81
231.136	101.81
231.37	107.81
231.604	118.81
231.838	123.81
232.072	109.81
232.306	123.81
232.541	109.81
232.775	116.81
233.009	120.81
233.243	112.81
233.477	101.81
233.711	109.81
233.945	98.81
234.179	113.81
234.413	109.81
234.647	109.81
234.881	104.81
235.115	117.81
235.349	121.81
235.583	120.81
235.817	111.81
236.051	129.81
236.285	104.81
236.519	106.81
236.753	111.81
236.987	125.81
237.221	113.81
237.455	129.81
237.689	104.81
237.922	106.81
238.156	104.81
238.39	127.81
238.624	113.81
238.858	127.81
239.091	117.81
239.325	110.81
239.559	117.81
239.793	123.81
240.027	142.81
240.26	137.81
240.494	108.81
240.728	122.81
240.961	125.81
241.195	128.81
241.429	128.81
241.662	117.81
241.896	125.81
242.13	141.81
242.363	112.81
242.597	116.81
242.83	124.81
243.064	134.81
243.298	108.81
243.531	117.81
243.765	139.81
243.998	132.81
244.232	137.81
244.465	127.81
244.699	128.81
244.932	130.81
245.166	131.81
245.399	137.81
245.633	134.81
245.866	127.81
246.099	141.81
246.333	120.81
246.566	139.81
246.8	131.81
247.033	130.81
247.266	132.81
247.5	140.81
247.733	156.81
247.966	139.81
248.2	150.81
248.433	135.81
248.666	140.81
248.899	131.81
249.133	130.81
249.366	144.81
249.599	138.81
249.832	128.81
250.066	141.81
250.299	145.81
250.532	126.81
250.765	135.81
250.998	149.81
251.231	151.81
251.465	157.81
251.698	150.81
251.931	153.81
252.164	161.81
252.397	156.81
252.63	155.81
252.863	154.81
253.096	171.81
253.329	168.81
253.562	143.81
253.795	156.81
254.028	152.81
254.261	158.81
254.494	155.81
254.727	165.81
254.96	162.81
255.193	161.81
255.426	155.81
255.659	167.81
255.892	164.81
256.124	163.81
256.357	185.81
256.59	151.81
256.823	175.81
257.056	164.81
257.289	168.81
257.521	170.81
257.754	159.81
257.987	172.81
258.22	174.81
258.452	171.81
258.685	149.81
258.918	158.81
259.151	158.81
259.383	166.81
259.616	168.81
259.849	187.81
260.081	179.81
260.314	185.81
260.547	163.81
260.779	183.81
261.012	185.81
261.244	175.81
261.477	189.81
261.71	177.81
261.942	166.81
262.175	188.81
262.407	191.81
262.64	190.81
262.872	199.81
263.105	167.81
263.337	189.81
263.57	179.81
263.802	190.81
264.035	187.81
264.267	183.81
264.499	182.81
264.732	195.81
264.964	182.81
265.197	188.81
265.429	185.81
265.661	199.81
265.894	185.81
266.126	201.81
266.358	205.81
266.591	204.81
266.823	200.81
267.055	187.81
267.287	187.81
267.52	195.81
267.752	204.81
267.984	189.81
268.216	185.81
268.448	215.81
268.681	197.81
268.913	186.81
269.145	201.81
269.377	195.81
269.609	197.81
269.841	190.81
270.073	200.81
270.306	203.81
270.538	207.81
270.77	200.81
271.002	212.81
271.234	201.81
271.466	208.81
271.698	200.81
271.93	189.81
272.162	199.81
272.394	209.81
272.626	222.81
272.858	205.81
273.09	212.81
273.322	198.81
273.553	199.81
273.785	217.81
274.017	196.81
274.249	229.81
274.481	219.81
274.713	224.81
274.945	217.81
275.176	217.81
275.408	205.81
275.64	222.81
275.872	213.81
276.104	243.81
276.335	229.81
276.567	212.81
276.799	207.81
277.031	234.81
277.262	215.81
277.494	203.81
277.726	220.81
277.957	216.81
278.189	254.81
278.421	235.81
278.652	230.81
278.884	226.81
279.115	219.81
279.347	221.81
279.579	231.81
279.81	238.81
280.042	219.81
280.273	236.81
280.505	235.81
280.736	235.81
280.968	216.81
281.199	221.81
281.431	231.81
281.662	220.81
281.894	221.81
282.125	228.81
282.356	233.81
282.588	243.81
282.819	240.81
283.051	254.81
283.282	250.81
283.513	246.81
283.745	235.81
283.976	234.81
284.207	241.81
284.439	227.81
284.67	232.81
284.901	247.81
285.132	243.81
285.364	244.81
285.595	227.81
285.826	243.81
286.057	238.81
286.288	251.81
286.52	238.81
286.751	247.81
286.982	249.81
287.213	273.81
287.444	243.81
287.675	245.81
287.906	237.81
288.138	243.81
288.369	236.81
288.6	251.81
288.831	257.81
289.062	255.81
289.293	262.81
289.524	256.81
289.755	255.81
289.986	248.81
290.217	261.81
290.448	251.81
290.679	271.81
290.91	252.81
291.141	251.81
291.371	261.81
291.602	253.81
291.833	262.81
292.064	269.81
292.295	251.81
292.526	260.81
292.757	248.81
292.987	247.81
293.218	233.81
293.449	266.81
293.68	261.81
293.91	243.81
294.141	277.81
294.372	263.81
294.603	260.81
294.833	261.81
295.064	262.81
295.295	259.81
295.525	239.81
295.756	270.81
295.987	263.81
296.217	255.81
296.448	263.81
296.679	268.81
296.909	268.81
297.14	262.81
297.37	268.81
297.601	262.81
297.831	272.81
298.062	278.81
298.292	279.81
298.523	270.81
298.753	283.81
298.984	263.81
299.214	260.81
299.445	278.81
299.675	259.81
299.905	295.81
300.136	270.81
300.366	287.81
300.597	300.81
300.827	295.81
301.057	296.81
301.288	286.81
301.518	293.81
301.748	277.81
301.979	292.81
302.209	275.81
302.439	270.81
302.669	279.81
302.9	294.81
303.13	268.81
303.36	280.81
303.59	296.81
303.82	292.81
304.051	295.81
304.281	296.81
304.511	290.81
304.741	284.81
304.971	304.81
305.201	319.81
305.431	304.81
305.661	287.81
305.891	317.81
306.121	308.81
306.352	291.81
306.582	276.81
306.812	284.81
307.042	286.81
307.272	298.81
307.502	308.81
307.731	319.81
307.961	304.81
308.191	296.81
308.421	284.81
308.651	284.81
308.881	300.81
309.111	288.81
309.341	283.81
309.571	296.81
309.8	317.81
310.03	285.81
310.26	320.81
310.49	317.81
310.72	297.81
310.949	309.81
311.179	299.81
311.409	301.81
311.639	297.81
311.868	321.81
312.098	283.81
312.328	300.81
312.557	317.81
312.787	298.81
313.017	309.81
313.246	329.81
313.476	307.81
313.706	309.81
313.935	326.81
314.165	322.81
314.394	315.81
314.624	296.81
314.853	319.81
315.083	307.81
315.312	311.81
315.542	300.81
315.771	301.81
316.001	300.81
316.23	326.81
316.46	295.81
316.689	309.81
316.919	327.81
317.148	304.81
317.377	311.81
317.607	315.81
317.836	313.81
318.065	310.81
318.295	315.81
318.524	326.81
318.753	330.81
318.983	315.81
319.212	329.81
319.441	333.81
319.67	322.81
319.9	311.81
320.129	313.81
320.358	316.81
320.587	331.81
320.816	327.81
321.046	331.81
321.275	337.81
321.504	326.81
321.733	317.81
321.962	315.81
322.191	338.81
322.42	324.81
322.649	327.81
322.878	325.81
323.108	316.81
323.337	326.81
323.566	312.81
323.795	323.81
324.024	330.81
324.253	340.81
324.482	317.81
324.71	338.81
324.939	339.81
325.168	327.81
325.397	334.81
325.626	330.81
325.855	333.81
326.084	321.81
326.313	355.81
326.542	339.81
326.77	336.81
326.999	325.81
327.228	343.81
327.457	349.81
327.686	345.81
327.914	375.81
328.143	357.81
328.372	339.81
328.6	326.81
328.829	331.81
329.058	342.81
329.287	350.81
329.515	359.81
329.744	367.81
329.972	355.81
330.201	355.81
330.43	367.81
330.658	362.81
330.887	356.81
331.115	373.81
331.344	352.81
331.572	357.81
331.801	367.81
332.03	373.81
332.258	369.81
332.486	372.81
332.715	385.81
332.943	364.81
333.172	389.81
333.4	411.81
333.629	391.81
333.857	397.81
334.085	410.81
334.314	432.81
334.542	411.81
334.771	401.81
334.999	402.81
335.227	393.81
335.455	405.81
335.684	412.81
335.912	407.81
336.14	395.81
336.369	399.81
336.597	423.81
336.825	402.81
337.053	393.81
337.281	415.81
337.51	377.81
337.738	391.81
337.966	411.81
338.194	411.81
338.422	384.81
338.65	383.81
338.878	382.81
339.106	353.81
339.334	379.81
339.562	378.81
339.79	373.81
340.018	394.81
340.246	377.81
340.474	391.81
340.702	376.81
340.93	375.81
341.158	369.81
341.386	399.81
341.614	397.81
341.842	381.81
342.07	380.81
342.298	388.81
342.526	374.81
342.754	366.81
342.981	359.81
343.209	377.81
343.437	403.81
343.665	391.81
343.893	423.81
344.12	407.81
344.348	402.81
344.576	400.81
344.804	395.81
345.031	379.81
345.259	374.81
345.487	395.81
345.714	379.81
345.942	381.81
346.17	394.81
346.397	395.81
346.625	375.81
346.853	374.81
347.08	356.81
347.308	375.81
347.535	360.81
347.763	359.81
347.99	359.81
348.218	348.81
348.445	350.81
348.673	357.81
348.9	356.81
349.128	350.81
349.355	384.81
349.583	368.81
349.81	353.81
350.037	369.81
350.265	356.81
350.492	370.81
350.72	346.81
350.947	357.81
351.174	363.81
351.402	385.81
351.629	395.81
351.856	393.81
352.083	367.81
352.311	374.81
352.538	369.81
352.765	371.81
352.992	371.81
353.22	371.81
353.447	337.81
353.674	365.81
353.901	356.81
354.128	353.81
354.355	364.81
354.583	364.81
354.81	365.81
355.037	358.81
355.264	352.81
355.491	353.81
355.718	360.81
355.945	367.81
356.172	356.81
356.399	358.81
356.626	359.81
356.853	347.81
357.08	360.81
357.307	374.81
357.534	359.81
357.761	363.81
357.988	351.81
358.215	357.81
358.441	346.81
358.668	342.81
358.895	349.81
359.122	342.81
359.349	358.81
359.576	351.81
359.802	346.81
360.029	358.81
360.256	361.81
360.483	364.81
360.709	367.81
360.936	351.81
361.163	356.81
361.39	343.81
361.616	367.81
361.843	371.81
362.07	377.81
362.296	375.81
362.523	347.81
362.749	366.81
362.976	343.81
363.203	352.81
363.429	360.81
363.656	365.81
363.882	336.81
364.109	354.81
364.335	352.81
364.562	368.81
364.788	362.81
365.015	338.81
365.241	367.81
365.468	361.81
365.694	368.81
365.92	349.81
366.147	352.81
366.373	376.81
366.599	378.81
366.826	376.81
367.052	365.81
367.278	360.81
367.505	352.81
367.731	366.81
367.957	371.81
368.184	350.81
368.41	364.81
368.636	369.81
368.862	363.81
369.089	375.81
369.315	358.81
369.541	373.81
369.767	369.81
369.993	381.81
370.219	362.81
370.445	379.81
370.672	369.81
370.898	360.81
371.124	377.81
371.35	381.81
371.576	387.81
371.802	379.81
372.028	373.81
372.254	402.81
372.48	383.81
372.706	383.81
372.932	389.81
373.158	368.81
373.384	385.81
373.61	417.81
373.835	381.81
374.061	376.81
374.287	389.81
374.513	385.81
374.739	407.81
374.965	412.81
375.191	368.81
375.416	384.81
375.642	392.81
375.868	380.81
376.094	368.81
376.319	389.81
376.545	363.81
376.771	377.81
376.997	363.81
377.222	371.81
377.448	367.81
377.674	368.81
377.899	370.81
378.125	381.81
378.35	385.81
378.576	378.81
378.802	380.81
379.027	363.81
379.253	384.81
379.478	357.81
379.704	373.81
379.929	373.81
380.155	380.81
380.38	383.81
380.606	375.81
380.831	369.81
381.057	391.81
381.282	377.81
381.507	377.81
381.733	381.81
381.958	379.81
382.184	384.81
382.409	395.81
382.634	399.81
382.86	375.81
383.085	394.81
383.31	398.81
383.535	404.81
383.761	414.81
383.986	409.81
384.211	413.81
384.436	425.81
384.662	409.81
384.887	413.81
385.112	403.81
385.337	431.81
385.562	422.81
385.787	423.81
386.013	429.81
386.238	432.81
386.463	425.81
386.688	407.81
386.913	420.81
387.138	402.81
387.363	435.81
387.588	420.81
387.813	417.81
388.038	445.81
388.263	443.81
388.488	416.81
388.713	422.81
388.938	440.81
389.163	427.81
389.387	428.81
389.612	424.81
389.837	427.81
390.062	432.81
390.287	420.81
390.512	441.81
390.736	425.81
390.961	419.81
391.186	438.81
391.411	454.81
391.636	467.81
391.86	437.81
392.085	465.81
392.31	445.81
392.534	447.81
392.759	456.81
392.984	432.81
393.208	428.81
393.433	443.81
393.658	444.81
393.882	438.81
394.107	440.81
394.331	433.81
394.556	447.81
394.78	458.81
395.005	462.81
395.229	448.81
395.454	442.81
395.678	452.81
395.903	441.81
396.127	475.81
396.352	462.81
396.576	446.81
396.801	443.81
397.025	448.81
397.249	460.81
397.474	469.81
397.698	455.81
397.922	465.81
398.147	482.81
398.371	464.81
398.595	508.81
398.82	504.81
399.044	527.81
399.268	533.81
399.492	580.81
399.717	617.81
399.941	601.81
400.165	579.81
400.389	560.81
400.613	537.81
400.837	529.81
401.062	512.81
401.286	521.81
401.51	490.81
401.734	496.81
401.958	515.81
402.182	523.81
402.406	507.81
402.63	501.81
402.854	513.81
403.078	505.81
403.302	526.81
403.526	532.81
403.75	514.81
403.974	531.81
404.198	522.81
404.422	521.81
404.645	544.81
404.869	526.81
405.093	542.81
405.317	504.81
405.541	524.81
405.765	551.81
405.988	539.81
406.212	552.81
406.436	527.81
406.66	519.81
406.883	538.81
407.107	560.81
407.331	592.81
407.555	593.81
407.778	580.81
408.002	591.81
408.226	568.81
408.449	577.81
408.673	566.81
408.896	560.81
409.12	558.81
409.344	583.81
409.567	533.81
409.791	550.81
410.014	524.81
410.238	523.81
410.461	513.81
410.685	534.81
410.908	520.81
411.132	523.81
411.355	518.81
411.578	529.81
411.802	530.81
412.025	534.81
412.249	537.81
412.472	517.81
412.695	522.81
412.919	541.81
413.142	483.81
413.365	535.81
413.589	528.81
413.812	528.81
414.035	530.81
414.258	481.81
414.482	503.81
414.705	500.81
414.928	513.81
415.151	516.81
415.374	506.81
415.597	530.81
415.821	495.81
416.044	474.81
416.267	503.81
416.49	484.81
416.713	510.81
416.936	531.81
417.159	505.81
417.382	482.81
417.605	486.81
417.828	486.81
418.051	496.81
418.274	503.81
418.497	492.81
418.72	500.81
418.943	538.81
419.166	536.81
419.389	560.81
419.611	538.81
419.834	535.81
420.057	524.81
420.28	512.81
420.503	490.81
420.726	498.81
420.948	496.81
421.171	500.81
421.394	479.81
421.617	488.81
421.839	513.81
422.062	501.81
422.285	473.81
422.507	504.81
422.73	488.81
422.953	490.81
423.175	503.81
423.398	494.81
423.621	493.81
423.843	518.81
424.066	526.81
424.288	495.81
424.511	507.81
424.733	484.81
424.956	500.81
425.178	491.81
425.401	509.81
425.623	483.81
425.846	484.81
426.068	495.81
426.291	475.81
426.513	483.81
426.735	469.81
426.958	471.81
427.18	470.81
427.402	485.81
427.625	483.81
427.847	463.81
428.069	490.81
428.292	468.81
428.514	477.81
428.736	474.81
428.958	451.81
429.181	485.81
429.403	469.81
429.625	460.81
429.847	453.81
430.069	490.81
430.292	485.81
430.514	452.81
430.736	481.81
430.958	469.81
431.18	473.81
431.402	475.81
431.624	451.81
431.846	457.81
432.068	465.81
432.29	470.81
432.512	485.81
432.734	468.81
432.956	509.81
433.178	504.81
433.4	501.81
433.622	490.81
433.844	494.81
434.066	480.81
434.287	488.81
434.509	473.81
434.731	490.81
434.953	499.81
435.175	516.81
435.397	515.81
435.618	499.81
435.84	494.81
436.062	465.81
436.284	475.81
436.505	472.81
436.727	477.81
436.949	480.81
437.17	477.81
437.392	477.81
437.614	471.81
437.835	443.81
438.057	446.81
438.278	452.81
438.5	455.81
438.721	478.81
438.943	478.81
439.165	444.81
439.386	462.81
439.608	473.81
439.829	476.81
440.05	462.81
440.272	484.81
440.493	463.81
440.715	485.81
440.936	461.81
441.158	476.81
441.379	499.81
441.6	509.81
441.822	508.81
442.043	507.81
442.264	499.81
442.486	502.81
442.707	501.81
442.928	500.81
443.149	494.81
443.371	511.81
443.592	535.81
443.813	520.81
444.034	494.81
444.255	509.81
444.476	541.81
444.698	545.81
444.919	573.81
445.14	654.81
445.361	588.81
445.582	522.81
445.803	514.81
446.024	501.81
446.245	493.81
446.466	512.81
446.687	482.81
446.908	488.81
447.129	478.81
447.35	447.81
447.571	473.81
447.792	452.81
448.013	446.81
448.234	448.81
448.455	454.81
448.675	470.81
448.896	459.81
449.117	463.81
449.338	444.81
449.559	427.81
449.779	465.81
450	437.81
450.221	426.81
450.442	449.81
450.662	422.81
450.883	460.81
451.104	455.81
451.324	463.81
451.545	425.81
451.766	432.81
451.986	444.81
452.207	419.81
452.428	424.81
452.648	442.81
452.869	422.81
453.089	430.81
453.31	452.81
453.53	427.81
453.751	429.81
453.971	427.81
454.192	434.81
454.412	441.81
454.633	419.81
454.853	436.81
455.073	408.81
455.294	429.81
455.514	424.81
455.734	425.81
455.955	449.81
456.175	445.81
456.395	423.81
456.616	416.81
456.836	408.81
457.056	421.81
457.276	413.81
457.497	417.81
457.717	441.81
457.937	406.81
458.157	411.81
458.377	429.81
458.598	427.81
458.818	432.81
459.038	427.81
459.258	449.81
459.478	462.81
459.698	506.81
459.918	491.81
460.138	481.81
460.358	512.81
460.578	518.81
460.798	538.81
461.018	499.81
461.238	527.81
461.458	518.81
461.678	513.81
461.898	507.81
462.118	508.81
462.338	540.81
462.558	560.81
462.777	569.81
462.997	583.81
463.217	606.81
463.437	624.81
463.657	597.81
463.876	572.81
464.096	559.81
464.316	576.81
464.536	569.81
464.755	544.81
464.975	541.81
465.195	528.81
465.414	510.81
465.634	485.81
465.854	488.81
466.073	488.81
466.293	476.81
466.512	447.81
466.732	447.81
466.951	464.81
467.171	473.81
467.391	478.81
467.61	474.81
467.829	455.81
468.049	433.81
468.268	452.81
468.488	447.81
468.707	441.81
468.927	456.81
469.146	476.81
469.365	472.81
469.585	443.81
469.804	452.81
470.023	449.81
470.243	451.81
470.462	455.81
470.681	458.81
470.901	453.81
471.12	493.81
471.339	469.81
471.558	473.81
471.777	470.81
471.997	443.81
472.216	471.81
472.435	471.81
472.654	438.81
472.873	443.81
473.092	438.81
473.311	445.81
473.53	421.81
473.749	460.81
473.968	454.81
474.187	446.81
474.406	446.81
474.625	461.81
474.844	453.81
475.063	456.81
475.282	449.81
475.501	468.81
475.72	467.81
475.939	461.81
476.158	458.81
476.377	464.81
476.596	479.81
476.814	483.81
477.033	477.81
477.252	472.81
477.471	471.81
477.69	495.81
477.908	500.81
478.127	516.81
478.346	502.81
478.564	528.81
478.783	517.81
479.002	561.81
479.22	565.81
479.439	531.81
479.658	539.81
479.876	544.81
480.095	540.81
480.313	544.81
480.532	539.81
480.751	551.81
480.969	549.81
481.188	508.81
481.406	526.81
481.624	521.81
481.843	506.81
482.061	499.81
482.28	531.81
482.498	510.81
482.717	532.81
482.935	529.81
483.153	529.81
483.372	541.81
483.59	591.81
483.808	527.81
484.027	548.81
484.245	541.81
484.463	529.81
484.681	551.81
484.9	549.81
485.118	542.81
485.336	539.81
485.554	544.81
485.772	539.81
485.99	541.81
486.209	575.81
486.427	533.81
486.645	550.81
486.863	568.81
487.081	536.81
487.299	537.81
487.517	548.81
487.735	527.81
487.953	577.81
488.171	577.81
488.389	518.81
488.607	563.81
488.825	529.81
489.043	558.81
489.261	525.81
489.479	559.81
489.696	545.81
489.914	536.81
490.132	547.81
490.35	555.81
490.568	528.81
490.786	552.81
491.003	577.81
491.221	542.81
491.439	583.81
491.657	560.81
491.874	554.81
492.092	579.81
492.31	556.81
492.527	542.81
492.745	575.81
492.963	556.81
493.18	564.81
493.398	552.81
493.615	542.81
493.833	576.81
494.05	560.81
494.268	571.81
494.485	571.81
494.703	572.81
494.92	571.81
495.138	571.81
495.355	574.81
495.573	585.81
495.79	569.81
496.008	554.81
496.225	577.81
496.442	600.81
496.66	596.81
496.877	603.81
497.094	604.81
497.312	586.81
497.529	610.81
497.746	597.81
497.963	621.81
498.181	621.81
498.398	653.81
498.615	670.81
498.832	686.81
499.049	728.81
499.267	755.81
499.484	791.81
499.701	831.81
499.918	865.81
500.135	969.81
500.352	1018.81
500.569	1029.81
500.786	1025.81
501.003	954.81
501.22	935.81
501.437	870.81
501.654	809.81
501.871	793.81
502.088	758.81
502.305	691.81
502.522	707.81
502.739	664.81
502.956	632.81
503.172	627.81
503.389	636.81
503.606	643.81
503.823	632.81
504.04	607.81
504.256	587.81
504.473	577.81
504.69	581.81
504.907	598.81
505.123	587.81
505.34	560.81
505.557	521.81
505.773	517.81
505.99	505.81
506.207	517.81
506.423	518.81
506.64	517.81
506.856	472.81
507.073	479.81
507.289	492.81
507.506	487.81
507.722	477.81
507.939	456.81
508.155	476.81
508.372	484.81
508.588	486.81
508.805	465.81
509.021	471.81
509.238	452.81
509.454	464.81
509.67	463.81
509.887	464.81
510.103	463.81
510.319	457.81
510.536	449.81
510.752	421.81
510.968	458.81
511.184	442.81
511.401	441.81
511.617	435.81
511.833	433.81
512.049	446.81
512.265	458.81
512.481	463.81
512.698	453.81
512.914	435.81
513.13	448.81
513.346	443.81
513.562	440.81
513.778	430.81
513.994	439.81
514.21	452.81
514.426	460.81
514.642	443.81
514.858	446.81
515.074	454.81
515.29	483.81
515.506	444.81
515.721	463.81
515.937	455.81
516.153	477.81
516.369	464.81
516.585	485.81
516.801	478.81
517.016	489.81
517.232	508.81
517.448	507.81
517.664	515.81
517.879	524.81
518.095	526.81
518.311	522.81
518.527	476.81
518.742	468.81
518.958	475.81
519.173	475.81
519.389	467.81
519.605	462.81
519.82	447.81
520.036	462.81
520.251	445.81
520.467	444.81
520.682	415.81
520.898	459.81
521.113	459.81
521.329	448.81
521.544	434.81
521.76	440.81
521.975	441.81
522.19	427.81
522.406	447.81
522.621	409.81
522.836	433.81
523.052	425.81
523.267	422.81
523.482	400.81
523.698	404.81
523.913	424.81
524.128	417.81
524.343	418.81
524.559	414.81
524.774	422.81
524.989	415.81
525.204	434.81
525.419	401.81
525.634	389.81
525.849	395.81
526.064	412.81
526.28	411.81
526.495	394.81
526.71	391.81
526.925	385.81
527.14	388.81
527.355	395.81
527.57	414.81
527.785	411.81
527.999	396.81
528.214	391.81
528.429	405.81
528.644	412.81
528.859	424.81
529.074	396.81
529.289	393.81
529.503	411.81
529.718	375.81
529.933	397.81
530.148	407.81
530.363	411.81
530.577	384.81
530.792	405.81
531.007	380.81
531.221	381.81
531.436	416.81
531.651	376.81
531.865	392.81
532.08	392.81
532.295	401.81
532.509	392.81
532.724	373.81
532.938	393.81
533.153	431.81
533.367	403.81
533.582	390.81
533.796	379.81
534.011	380.81
534.225	381.81
534.44	385.81
534.654	376.81
534.868	387.81
535.083	384.81
535.297	393.81
535.511	386.81
535.726	392.81
535.94	376.81
536.154	373.81
536.369	374.81
536.583	381.81
536.797	373.81
537.011	368.81
537.225	361.81
537.44	394.81
537.654	387.81
537.868	355.81
538.082	373.81
538.296	376.81
538.51	360.81
538.724	381.81
538.938	382.81
539.153	361.81
539.367	383.81
539.581	353.81
539.795	356.81
540.009	381.81
540.222	359.81
540.436	359.81
540.65	367.81
540.864	357.81
541.078	352.81
541.292	371.81
541.506	381.81
541.72	352.81
541.934	374.81
542.147	398.81
542.361	380.81
542.575	357.81
542.789	361.81
543.002	360.81
543.216	353.81
543.43	374.81
543.644	341.81
543.857	362.81
544.071	381.81
544.285	387.81
544.498	391.81
544.712	380.81
544.925	373.81
545.139	365.81
545.352	368.81
545.566	367.81
545.779	374.81
545.993	371.81
546.206	371.81
546.42	356.81
546.633	357.81
546.847	352.81
547.06	375.81
547.274	361.81
547.487	377.81
547.7	373.81
547.914	395.81
548.127	370.81
548.34	377.81
548.554	374.81
548.767	370.81
548.98	369.81
549.193	371.81
549.407	367.81
549.62	363.81
549.833	373.81
550.046	368.81
550.259	381.81
550.473	350.81
550.686	359.81
550.899	380.81
551.112	383.81
551.325	358.81
551.538	364.81
551.751	366.81
551.964	356.81
552.177	363.81
552.39	356.81
552.603	359.81
552.816	361.81
553.029	380.81
553.242	380.81
553.455	368.81
553.667	376.81
553.88	401.81
554.093	369.81
554.306	375.81
554.519	354.81
554.732	339.81
554.944	337.81
555.157	372.81
555.37	344.81
555.583	344.81
555.795	349.81
556.008	343.81
556.221	337.81
556.433	337.81
556.646	326.81
556.859	364.81
557.071	336.81
557.284	333.81
557.496	340.81
557.709	334.81
557.921	336.81
558.134	320.81
558.346	322.81
558.559	335.81
558.771	321.81
558.984	330.81
559.196	327.81
559.409	334.81
559.621	320.81
559.833	319.81
560.046	323.81
560.258	315.81
560.47	309.81
560.683	308.81
560.895	323.81
561.107	310.81
561.32	319.81
561.532	316.81
561.744	320.81
561.956	304.81
562.168	340.81
562.381	318.81
562.593	313.81
562.805	331.81
563.017	314.81
563.229	332.81
563.441	312.81
563.653	319.81
563.865	324.81
564.077	314.81
564.289	315.81
564.501	322.81
564.713	327.81
564.925	352.81
565.137	348.81
565.349	326.81
565.561	337.81
565.773	349.81
565.985	371.81
566.197	368.81
566.408	370.81
566.62	385.81
566.832	386.81
567.044	407.81
567.255	401.81
567.467	386.81
567.679	421.81
567.891	413.81
568.102	414.81
568.314	405.81
568.526	379.81
568.737	359.81
568.949	348.81
569.161	324.81
569.372	347.81
569.584	320.81
569.795	325.81
570.007	308.81
570.218	308.81
570.43	301.81
570.641	312.81
570.853	295.81
571.064	295.81
571.276	303.81
571.487	312.81
571.698	287.81
571.91	265.81
572.121	289.81
572.333	263.81
572.544	288.81
572.755	269.81
572.966	286.81
573.178	260.81
573.389	267.81
573.6	263.81
573.811	265.81
574.023	272.81
574.234	260.81
574.445	251.81
574.656	265.81
574.867	247.81
575.078	264.81
575.289	257.81
575.501	260.81
575.712	238.81
575.923	257.81
576.134	266.81
576.345	272.81
576.556	270.81
576.767	264.81
576.978	240.81
577.188	243.81
577.399	249.81
577.61	228.81
577.821	243.81
578.032	237.81
578.243	233.81
578.454	243.81
578.665	247.81
578.875	222.81
579.086	243.81
579.297	235.81
579.508	237.81
579.718	220.81
579.929	247.81
580.14	241.81
580.35	225.81
580.561	232.81
580.772	247.81
580.982	246.81
581.193	258.81
581.403	240.81
581.614	239.81
581.825	225.81
582.035	234.81
582.246	229.81
582.456	226.81
582.667	240.81
582.877	237.81
583.087	230.81
583.298	239.81
583.508	245.81
583.719	207.81
583.929	216.81
584.139	207.81
584.35	217.81
584.56	220.81
584.77	238.81
584.981	230.81
585.191	226.81
585.401	215.81
585.611	238.81
585.821	224.81
586.032	216.81
586.242	207.81
586.452	219.81
586.662	217.81
586.872	219.81
587.082	230.81
587.292	222.81
587.502	227.81
587.713	212.81
587.923	227.81
588.133	229.81
588.343	213.81
588.553	258.81
588.762	217.81
588.972	200.81
589.182	228.81
589.392	223.81
589.602	221.81
589.812	227.81
590.022	215.81
590.232	207.81
590.441	215.81
590.651	219.81
590.861	216.81
591.071	224.81
591.281	228.81
591.49	231.81
591.7	233.81
591.91	232.81
592.119	216.81
592.329	228.81
592.539	212.81
592.748	246.81
592.958	233.81
593.167	239.81
593.377	231.81
593.587	235.81
593.796	235.81
594.006	220.81
594.215	233.81
594.424	238.81
594.634	233.81
594.843	234.81
595.053	228.81
595.262	218.81
595.472	217.81
595.681	208.81
595.89	224.81
596.1	215.81
596.309	223.81
596.518	215.81
596.727	224.81
596.937	200.81
597.146	212.81
597.355	207.81
597.564	202.81
597.774	207.81
597.983	216.81
598.192	199.81
598.401	206.81
598.61	203.81
598.819	197.81
599.028	199.81
599.237	211.81
599.446	204.81
599.655	190.81
599.864	205.81
600.073	182.81
600.282	187.81
600.491	197.81
600.7	191.81
600.909	199.81
601.118	175.81
601.327	187.81
601.536	192.81
601.745	190.81
601.953	207.81
602.162	200.81
602.371	179.81
602.58	173.81
602.789	197.81
602.997	189.81
603.206	199.81
603.415	193.81
603.623	180.81
603.832	180.81
604.041	174.81
604.249	191.81
604.458	186.81
604.666	183.81
604.875	194.81
605.084	191.81
605.292	181.81
605.501	183.81
605.709	189.81
605.918	193.81
606.126	208.81
606.334	196.81
606.543	187.81
606.751	198.81
606.96	188.81
607.168	180.81
607.376	190.81
607.585	192.81
607.793	175.81
608.001	175.81
608.21	181.81
608.418	176.81
608.626	181.81
608.834	179.81
609.043	170.81
609.251	189.81
609.459	183.81
609.667	186.81
609.875	188.81
610.083	187.81
610.291	185.81
610.499	182.81
610.707	181.81
610.916	169.81
611.124	163.81
611.332	186.81
611.54	187.81
611.748	174.81
611.955	184.81
612.163	175.81
612.371	193.81
612.579	181.81
612.787	170.81
612.995	175.81
613.203	183.81
613.411	182.81
613.618	183.81
613.826	164.81
614.034	165.81
614.242	172.81
614.449	182.81
614.657	185.81
614.865	175.81
615.072	195.81
615.28	177.81
615.488	170.81
615.695	185.81
615.903	168.81
616.111	169.81
616.318	184.81
616.526	176.81
616.733	169.81
616.941	176.81
617.148	168.81
617.356	166.81
617.563	181.81
617.771	161.81
617.978	165.81
618.185	181.81
618.393	170.81
618.6	164.81
618.807	179.81
619.015	165.81
619.222	189.81
619.429	176.81
619.637	169.81
619.844	171.81
620.051	156.81
620.258	177.81
620.466	171.81
620.673	166.81
620.88	159.81
621.087	172.81
621.294	169.81
621.501	158.81
621.708	175.81
621.915	161.81
622.122	173.81
622.329	158.81
622.536	163.81
622.743	169.81
622.95	167.81
623.157	156.81
623.364	161.81
623.571	164.81
623.778	170.81
623.985	166.81
624.192	173.81
624.399	157.81
624.606	164.81
624.812	165.81
625.019	179.81
625.226	161.81
625.433	168.81
625.639	162.81
625.846	157.81
626.053	150.81
626.259	159.81
626.466	161.81
626.673	170.81
626.879	164.81
627.086	179.81
627.293	163.81
627.499	173.81
627.706	142.81
627.912	145.81
628.119	156.81
628.325	164.81
628.532	148.81
628.738	155.81
628.945	133.81
629.151	156.81
629.357	149.81
629.564	147.81
629.77	168.81
629.976	135.81
630.183	163.81
630.389	152.81
630.595	158.81
630.802	144.81
631.008	146.81
631.214	157.81
631.42	157.81
631.627	150.81
631.833	139.81
632.039	129.81
632.245	134.81
632.451	163.81
632.657	152.81
632.863	148.81
633.069	155.81
633.275	156.81
633.481	137.81
633.688	147.81
633.893	149.81
634.099	155.81
634.305	156.81
634.511	139.81
634.717	139.81
634.923	134.81
635.129	136.81
635.335	153.81
635.541	144.81
635.747	139.81
635.952	145.81
636.158	165.81
636.364	155.81
636.57	136.81
636.775	144.81
636.981	143.81
637.187	145.81
637.392	149.81
637.598	140.81
637.804	160.81
638.009	156.81
638.215	151.81
638.421	144.81
638.626	142.81
638.832	141.81
639.037	135.81
639.243	149.81
639.448	149.81
639.654	149.81
639.859	150.81
640.065	149.81
640.27	144.81
640.475	151.81
640.681	152.81
640.886	152.81
641.091	155.81
641.297	132.81
641.502	127.81
641.707	141.81
641.913	131.81
642.118	139.81
642.323	148.81
642.528	121.81
642.733	159.81
642.939	127.81
643.144	136.81
643.349	137.81
643.554	132.81
643.759	140.81
643.964	138.81
644.169	155.81
644.374	137.81
644.579	129.81
644.784	131.81
644.989	161.81
645.194	139.81
645.399	127.81
645.604	133.81
645.809	153.81
646.014	155.81
646.219	141.81
646.423	149.81
646.628	140.81
646.833	140.81
647.038	144.81
647.243	149.81
647.447	156.81
647.652	146.81
647.857	147.81
648.062	142.81
648.266	155.81
648.471	158.81
648.676	137.81
648.88	139.81
649.085	153.81
649.289	146.81
649.494	139.81
649.698	139.81
649.903	139.81
650.107	134.81
650.312	157.81
650.516	135.81
650.721	144.81
650.925	153.81
651.13	157.81
651.334	135.81
651.539	145.81
651.743	140.81
651.947	131.81
652.152	146.81
652.356	153.81
652.56	131.81
652.764	135.81
652.969	147.81
653.173	145.81
653.377	152.81
653.581	139.81
653.785	138.81
653.99	151.81
654.194	141.81
654.398	144.81
654.602	143.81
654.806	159.81
655.01	141.81
655.214	153.81
655.418	155.81
655.622	137.81
655.826	142.81
656.03	145.81
656.234	149.81
656.438	161.81
656.642	139.81
656.846	151.81
657.049	141.81
657.253	137.81
657.457	131.81
657.661	125.81
657.865	132.81
658.068	118.81
658.272	126.81
658.476	106.81
658.68	115.81
658.883	127.81
659.087	111.81
659.291	110.81
659.494	99.81
659.698	112.81
659.901	110.81
660.105	104.81
660.309	92.81
660.512	98.81
660.716	97.81
660.919	96.81
661.123	106.81
661.326	88.81
661.53	84.81
661.733	86.81
661.936	104.81
662.14	81.81
662.343	92.81
662.546	83.81
662.75	91.81
662.953	85.81
663.156	95.81
663.36	88.81
663.563	86.81
663.766	84.81
663.969	81.81
664.173	87.81
664.376	93.81
664.579	80.81
664.782	72.81
664.985	74.81
665.188	87.81
665.391	75.81
665.594	86.81
665.797	84.81
666	86.81
666.203	86.81
666.406	73.81
666.609	82.81
666.812	86.81
667.015	79.81
667.218	85.81
667.421	80.81
667.624	82.81
667.827	100.81
668.03	93.81
668.232	86.81
668.435	85.81
668.638	77.81
668.841	91.81
669.043	89.81
669.246	84.81
669.449	87.81
669.651	84.81
669.854	80.81
670.057	91.81
670.259	77.81
670.462	79.81
670.665	77.81
670.867	81.81
671.07	80.81
671.272	95.81
671.475	82.81
671.677	76.81
671.88	71.81
672.082	87.81
672.284	81.81
672.487	76.81
672.689	78.81
672.892	76.81
