Data from Ni(NO3)2@0.125M.TitratingCurve.Agarose3%dH2O.NegLispCup.LampEnergy10.LIBS07252019_HRD10591_18-08-24-567.txt Node
Date: Thu Jul 25 18:08:24 EDT 2019
User: cochatt
Spectrometer: HR+D1059
Trigger mode: 1
Integration Time (sec): 1.000000E-1
Scans to average: 1
Electric dark correction enabled: true
Nonlinearity correction enabled: false
Boxcar width: 0
XAxis mode: Wavelengths
Number of Pixels in Spectrum: 2048
>>>>>Begin Spectral Data<<<<<
223.165	-11.38
223.4	-11.38
223.635	-11.38
223.869	-22.38
224.104	-25.38
224.338	-20.38
224.573	-13.38
224.808	-10.38
225.042	7.62
225.277	-3.38
225.511	-0.38
225.746	4.62
225.98	-0.38
226.215	6.62
226.449	11.62
226.683	31.62
226.918	21.62
227.152	23.62
227.387	39.62
227.621	34.62
227.856	47.62
228.09	49.62
228.324	36.62
228.559	55.62
228.793	66.62
229.027	121.62
229.262	142.62
229.496	146.62
229.73	123.62
229.964	153.62
230.199	168.62
230.433	162.62
230.667	165.62
230.901	183.62
231.136	138.62
231.37	150.62
231.604	148.62
231.838	187.62
232.072	189.62
232.306	186.62
232.541	182.62
232.775	183.62
233.009	175.62
233.243	186.62
233.477	201.62
233.711	174.62
233.945	175.62
234.179	182.62
234.413	171.62
234.647	183.62
234.881	178.62
235.115	178.62
235.349	183.62
235.583	186.62
235.817	171.62
236.051	191.62
236.285	180.62
236.519	177.62
236.753	196.62
236.987	198.62
237.221	192.62
237.455	208.62
237.689	198.62
237.922	193.62
238.156	201.62
238.39	203.62
238.624	183.62
238.858	193.62
239.091	206.62
239.325	210.62
239.559	206.62
239.793	226.62
240.027	235.62
240.26	214.62
240.494	210.62
240.728	214.62
240.961	214.62
241.195	225.62
241.429	235.62
241.662	237.62
241.896	240.62
242.13	227.62
242.363	238.62
242.597	222.62
242.83	252.62
243.064	236.62
243.298	248.62
243.531	263.62
243.765	244.62
243.998	272.62
244.232	277.62
244.465	259.62
244.699	282.62
244.932	255.62
245.166	263.62
245.399	271.62
245.633	278.62
245.866	288.62
246.099	278.62
246.333	287.62
246.566	276.62
246.8	281.62
247.033	291.62
247.266	274.62
247.5	292.62
247.733	291.62
247.966	283.62
248.2	311.62
248.433	297.62
248.666	304.62
248.899	303.62
249.133	309.62
249.366	312.62
249.599	315.62
249.832	320.62
250.066	337.62
250.299	330.62
250.532	336.62
250.765	342.62
250.998	327.62
251.231	332.62
251.465	351.62
251.698	362.62
251.931	358.62
252.164	353.62
252.397	366.62
252.63	347.62
252.863	360.62
253.096	371.62
253.329	373.62
253.562	362.62
253.795	358.62
254.028	370.62
254.261	395.62
254.494	383.62
254.727	378.62
254.96	378.62
255.193	383.62
255.426	396.62
255.659	378.62
255.892	392.62
256.124	383.62
256.357	386.62
256.59	393.62
256.823	398.62
257.056	412.62
257.289	419.62
257.521	386.62
257.754	413.62
257.987	397.62
258.22	431.62
258.452	408.62
258.685	404.62
258.918	440.62
259.151	416.62
259.383	433.62
259.616	430.62
259.849	435.62
260.081	447.62
260.314	415.62
260.547	431.62
260.779	445.62
261.012	432.62
261.244	459.62
261.477	446.62
261.71	436.62
261.942	463.62
262.175	443.62
262.407	451.62
262.64	458.62
262.872	466.62
263.105	456.62
263.337	440.62
263.57	473.62
263.802	469.62
264.035	483.62
264.267	469.62
264.499	469.62
264.732	463.62
264.964	482.62
265.197	468.62
265.429	488.62
265.661	469.62
265.894	482.62
266.126	475.62
266.358	469.62
266.591	499.62
266.823	478.62
267.055	498.62
267.287	482.62
267.52	516.62
267.752	525.62
267.984	512.62
268.216	516.62
268.448	496.62
268.681	508.62
268.913	525.62
269.145	522.62
269.377	507.62
269.609	514.62
269.841	519.62
270.073	522.62
270.306	539.62
270.538	507.62
270.77	508.62
271.002	548.62
271.234	535.62
271.466	535.62
271.698	534.62
271.93	532.62
272.162	560.62
272.394	522.62
272.626	538.62
272.858	539.62
273.09	540.62
273.322	561.62
273.553	539.62
273.785	562.62
274.017	560.62
274.249	563.62
274.481	542.62
274.713	573.62
274.945	595.62
275.176	567.62
275.408	599.62
275.64	587.62
275.872	608.62
276.104	593.62
276.335	575.62
276.567	591.62
276.799	575.62
277.031	596.62
277.262	584.62
277.494	599.62
277.726	576.62
277.957	590.62
278.189	575.62
278.421	606.62
278.652	606.62
278.884	600.62
279.115	596.62
279.347	619.62
279.579	632.62
279.81	628.62
280.042	628.62
280.273	619.62
280.505	626.62
280.736	625.62
280.968	654.62
281.199	637.62
281.431	649.62
281.662	632.62
281.894	640.62
282.125	632.62
282.356	678.62
282.588	638.62
282.819	640.62
283.051	658.62
283.282	651.62
283.513	674.62
283.745	654.62
283.976	675.62
284.207	668.62
284.439	672.62
284.67	665.62
284.901	664.62
285.132	682.62
285.364	664.62
285.595	703.62
285.826	651.62
286.057	656.62
286.288	703.62
286.52	706.62
286.751	692.62
286.982	688.62
287.213	689.62
287.444	690.62
287.675	712.62
287.906	708.62
288.138	700.62
288.369	710.62
288.6	700.62
288.831	725.62
289.062	692.62
289.293	694.62
289.524	722.62
289.755	707.62
289.986	737.62
290.217	724.62
290.448	739.62
290.679	738.62
290.91	726.62
291.141	717.62
291.371	716.62
291.602	729.62
291.833	726.62
292.064	742.62
292.295	725.62
292.526	735.62
292.757	713.62
292.987	717.62
293.218	709.62
293.449	738.62
293.68	740.62
293.91	742.62
294.141	734.62
294.372	736.62
294.603	735.62
294.833	744.62
295.064	744.62
295.295	733.62
295.525	742.62
295.756	729.62
295.987	738.62
296.217	743.62
296.448	756.62
296.679	748.62
296.909	763.62
297.14	755.62
297.37	785.62
297.601	775.62
297.831	788.62
298.062	770.62
298.292	784.62
298.523	822.62
298.753	815.62
298.984	772.62
299.214	768.62
299.445	786.62
299.675	808.62
299.905	787.62
300.136	802.62
300.366	811.62
300.597	825.62
300.827	836.62
301.057	833.62
301.288	839.62
301.518	853.62
301.748	829.62
301.979	844.62
302.209	810.62
302.439	832.62
302.669	850.62
302.9	826.62
303.13	792.62
303.36	804.62
303.59	831.62
303.82	824.62
304.051	814.62
304.281	823.62
304.511	843.62
304.741	809.62
304.971	827.62
305.201	823.62
305.431	850.62
305.661	844.62
305.891	852.62
306.121	802.62
306.352	822.62
306.582	807.62
306.812	791.62
307.042	808.62
307.272	812.62
307.502	778.62
307.731	815.62
307.961	827.62
308.191	803.62
308.421	805.62
308.651	818.62
308.881	798.62
309.111	818.62
309.341	810.62
309.571	828.62
309.8	835.62
310.03	833.62
310.26	845.62
310.49	836.62
310.72	827.62
310.949	834.62
311.179	825.62
311.409	852.62
311.639	826.62
311.868	852.62
312.098	835.62
312.328	840.62
312.557	847.62
312.787	855.62
313.017	853.62
313.246	866.62
313.476	871.62
313.706	870.62
313.935	890.62
314.165	916.62
314.394	895.62
314.624	904.62
314.853	887.62
315.083	885.62
315.312	880.62
315.542	890.62
315.771	883.62
316.001	882.62
316.23	872.62
316.46	850.62
316.689	891.62
316.919	841.62
317.148	874.62
317.377	893.62
317.607	870.62
317.836	876.62
318.065	887.62
318.295	868.62
318.524	859.62
318.753	852.62
318.983	905.62
319.212	890.62
319.441	876.62
319.67	879.62
319.9	883.62
320.129	860.62
320.358	905.62
320.587	858.62
320.816	884.62
321.046	882.62
321.275	901.62
321.504	902.62
321.733	880.62
321.962	888.62
322.191	912.62
322.42	880.62
322.649	847.62
322.878	874.62
323.108	914.62
323.337	921.62
323.566	916.62
323.795	932.62
324.024	926.62
324.253	935.62
324.482	964.62
324.71	932.62
324.939	939.62
325.168	951.62
325.397	937.62
325.626	970.62
325.855	980.62
326.084	1000.62
326.313	1012.62
326.542	1010.62
326.77	1007.62
326.999	963.62
327.228	968.62
327.457	975.62
327.686	960.62
327.914	1004.62
328.143	1006.62
328.372	985.62
328.6	969.62
328.829	981.62
329.058	985.62
329.287	1002.62
329.515	1033.62
329.744	1014.62
329.972	1032.62
330.201	1026.62
330.43	1023.62
330.658	1052.62
330.887	1044.62
331.115	1052.62
331.344	1039.62
331.572	1060.62
331.801	1098.62
332.03	1122.62
332.258	1147.62
332.486	1174.62
332.715	1208.62
332.943	1242.62
333.172	1311.62
333.4	1372.62
333.629	1395.62
333.857	1414.62
334.085	1403.62
334.314	1360.62
334.542	1324.62
334.771	1300.62
334.999	1328.62
335.227	1320.62
335.455	1288.62
335.684	1268.62
335.912	1230.62
336.14	1224.62
336.369	1254.62
336.597	1250.62
336.825	1241.62
337.053	1226.62
337.281	1194.62
337.51	1192.62
337.738	1178.62
337.966	1151.62
338.194	1169.62
338.422	1148.62
338.65	1141.62
338.878	1131.62
339.106	1120.62
339.334	1149.62
339.562	1099.62
339.79	1088.62
340.018	1076.62
340.246	1088.62
340.474	1044.62
340.702	1072.62
340.93	1068.62
341.158	1100.62
341.386	1112.62
341.614	1091.62
341.842	1095.62
342.07	1059.62
342.298	1042.62
342.526	1066.62
342.754	1065.62
342.981	1087.62
343.209	1098.62
343.437	1141.62
343.665	1244.62
343.893	1306.62
344.12	1364.62
344.348	1306.62
344.576	1238.62
344.804	1204.62
345.031	1141.62
345.259	1106.62
345.487	1104.62
345.714	1082.62
345.942	1091.62
346.17	1098.62
346.397	1036.62
346.625	1027.62
346.853	1023.62
347.08	1054.62
347.308	1035.62
347.535	1041.62
347.763	1064.62
347.99	1050.62
348.218	1074.62
348.445	1048.62
348.673	1045.62
348.9	1044.62
349.128	1043.62
349.355	1041.62
349.583	1033.62
349.81	1046.62
350.037	1006.62
350.265	1019.62
350.492	1002.62
350.72	992.62
350.947	994.62
351.174	997.62
351.402	1023.62
351.629	1044.62
351.856	1009.62
352.083	1015.62
352.311	996.62
352.538	1006.62
352.765	998.62
352.992	970.62
353.22	959.62
353.447	978.62
353.674	969.62
353.901	991.62
354.128	972.62
354.355	984.62
354.583	994.62
354.81	998.62
355.037	989.62
355.264	999.62
355.491	972.62
355.718	998.62
355.945	986.62
356.172	991.62
356.399	1010.62
356.626	1032.62
356.853	1002.62
357.08	998.62
357.307	985.62
357.534	977.62
357.761	987.62
357.988	978.62
358.215	987.62
358.441	970.62
358.668	972.62
358.895	1001.62
359.122	959.62
359.349	999.62
359.576	1002.62
359.802	998.62
360.029	992.62
360.256	983.62
360.483	996.62
360.709	977.62
360.936	1000.62
361.163	1022.62
361.39	984.62
361.616	987.62
361.843	1008.62
362.07	1032.62
362.296	1015.62
362.523	980.62
362.749	1022.62
362.976	974.62
363.203	984.62
363.429	965.62
363.656	972.62
363.882	980.62
364.109	986.62
364.335	981.62
364.562	978.62
364.788	976.62
365.015	984.62
365.241	963.62
365.468	955.62
365.694	961.62
365.92	948.62
366.147	967.62
366.373	1002.62
366.599	1004.62
366.826	961.62
367.052	965.62
367.278	967.62
367.505	975.62
367.731	986.62
367.957	971.62
368.184	985.62
368.41	995.62
368.636	989.62
368.862	992.62
369.089	1003.62
369.315	1007.62
369.541	1006.62
369.767	1008.62
369.993	1007.62
370.219	985.62
370.445	1010.62
370.672	1047.62
370.898	1063.62
371.124	1005.62
371.35	1087.62
371.576	1084.62
371.802	1060.62
372.028	1063.62
372.254	1081.62
372.48	1047.62
372.706	1082.62
372.932	1100.62
373.158	1117.62
373.384	1046.62
373.61	1056.62
373.835	1063.62
374.061	1051.62
374.287	1062.62
374.513	1064.62
374.739	1111.62
374.965	1187.62
375.191	1189.62
375.416	1171.62
375.642	1152.62
375.868	1126.62
376.094	1108.62
376.319	1077.62
376.545	1044.62
376.771	1068.62
376.997	1051.62
377.222	1076.62
377.448	1072.62
377.674	1040.62
377.899	1017.62
378.125	1062.62
378.35	1037.62
378.576	1045.62
378.802	1027.62
379.027	1032.62
379.253	1031.62
379.478	1056.62
379.704	1018.62
379.929	1046.62
380.155	1034.62
380.38	1000.62
380.606	1047.62
380.831	1035.62
381.057	1023.62
381.282	1016.62
381.507	1028.62
381.733	1087.62
381.958	1067.62
382.184	1065.62
382.409	1073.62
382.634	1093.62
382.86	1095.62
383.085	1128.62
383.31	1124.62
383.535	1168.62
383.761	1152.62
383.986	1190.62
384.211	1209.62
384.436	1229.62
384.662	1247.62
384.887	1258.62
385.112	1268.62
385.337	1302.62
385.562	1286.62
385.787	1275.62
386.013	1294.62
386.238	1302.62
386.463	1272.62
386.688	1299.62
386.913	1279.62
387.138	1221.62
387.363	1243.62
387.588	1236.62
387.813	1258.62
388.038	1264.62
388.263	1252.62
388.488	1266.62
388.713	1252.62
388.938	1287.62
389.163	1214.62
389.387	1218.62
389.612	1217.62
389.837	1231.62
390.062	1219.62
390.287	1248.62
390.512	1233.62
390.736	1267.62
390.961	1272.62
391.186	1302.62
391.411	1310.62
391.636	1357.62
391.86	1427.62
392.085	1474.62
392.31	1402.62
392.534	1369.62
392.759	1366.62
392.984	1328.62
393.208	1327.62
393.433	1328.62
393.658	1327.62
393.882	1343.62
394.107	1326.62
394.331	1340.62
394.556	1360.62
394.78	1384.62
395.005	1379.62
395.229	1369.62
395.454	1396.62
395.678	1474.62
395.903	1445.62
396.127	1389.62
396.352	1367.62
396.576	1359.62
396.801	1352.62
397.025	1362.62
397.249	1357.62
397.474	1384.62
397.698	1412.62
397.922	1449.62
398.147	1418.62
398.371	1469.62
398.595	1488.62
398.82	1557.62
399.044	1692.62
399.268	1876.62
399.492	2167.62
399.717	2426.62
399.941	2429.62
400.165	2206.62
400.389	1938.62
400.613	1795.62
400.837	1704.62
401.062	1658.62
401.286	1652.62
401.51	1603.62
401.734	1587.62
401.958	1652.62
402.182	1635.62
402.406	1673.62
402.63	1690.62
402.854	1722.62
403.078	1752.62
403.302	1755.62
403.526	1783.62
403.75	1840.62
403.974	1888.62
404.198	1858.62
404.422	1867.62
404.645	1886.62
404.869	1816.62
405.093	1821.62
405.317	1794.62
405.541	1801.62
405.765	1764.62
405.988	1765.62
406.212	1800.62
406.436	1778.62
406.66	1818.62
406.883	1840.62
407.107	1930.62
407.331	2041.62
407.555	2084.62
407.778	2083.62
408.002	2044.62
408.226	1938.62
408.449	1909.62
408.673	1878.62
408.896	1825.62
409.12	1833.62
409.344	1810.62
409.567	1825.62
409.791	1833.62
410.014	1797.62
410.238	1799.62
410.461	1787.62
410.685	1728.62
410.908	1704.62
411.132	1697.62
411.355	1696.62
411.578	1640.62
411.802	1631.62
412.025	1705.62
412.249	1714.62
412.472	1704.62
412.695	1640.62
412.919	1646.62
413.142	1577.62
413.365	1556.62
413.589	1623.62
413.812	1631.62
414.035	1566.62
414.258	1576.62
414.482	1587.62
414.705	1652.62
414.928	1582.62
415.151	1632.62
415.374	1611.62
415.597	1578.62
415.821	1582.62
416.044	1543.62
416.267	1584.62
416.49	1552.62
416.713	1587.62
416.936	1580.62
417.159	1534.62
417.382	1561.62
417.605	1556.62
417.828	1566.62
418.051	1588.62
418.274	1632.62
418.497	1592.62
418.72	1655.62
418.943	1670.62
419.166	1761.62
419.389	1892.62
419.611	1850.62
419.834	1728.62
420.057	1679.62
420.28	1600.62
420.503	1558.62
420.726	1558.62
420.948	1603.62
421.171	1600.62
421.394	1608.62
421.617	1585.62
421.839	1598.62
422.062	1600.62
422.285	1596.62
422.507	1626.62
422.73	1618.62
422.953	1605.62
423.175	1674.62
423.398	1668.62
423.621	1685.62
423.843	1726.62
424.066	1708.62
424.288	1684.62
424.511	1673.62
424.733	1650.62
424.956	1664.62
425.178	1637.62
425.401	1632.62
425.623	1619.62
425.846	1584.62
426.068	1559.62
426.291	1572.62
426.513	1541.62
426.735	1506.62
426.958	1517.62
427.18	1489.62
427.402	1466.62
427.625	1489.62
427.847	1432.62
428.069	1426.62
428.292	1424.62
428.514	1433.62
428.736	1410.62
428.958	1447.62
429.181	1386.62
429.403	1400.62
429.625	1424.62
429.847	1415.62
430.069	1406.62
430.292	1400.62
430.514	1391.62
430.736	1378.62
430.958	1392.62
431.18	1382.62
431.402	1379.62
431.624	1426.62
431.846	1415.62
432.068	1431.62
432.29	1438.62
432.512	1404.62
432.734	1443.62
432.956	1463.62
433.178	1478.62
433.4	1445.62
433.622	1456.62
433.844	1474.62
434.066	1456.62
434.287	1483.62
434.509	1517.62
434.731	1584.62
434.953	1615.62
435.175	1643.62
435.397	1616.62
435.618	1546.62
435.84	1495.62
436.062	1428.62
436.284	1448.62
436.505	1421.62
436.727	1444.62
436.949	1467.62
437.17	1450.62
437.392	1417.62
437.614	1407.62
437.835	1417.62
438.057	1384.62
438.278	1333.62
438.5	1338.62
438.721	1386.62
438.943	1364.62
439.165	1400.62
439.386	1366.62
439.608	1397.62
439.829	1409.62
440.05	1403.62
440.272	1469.62
440.493	1446.62
440.715	1476.62
440.936	1510.62
441.158	1524.62
441.379	1545.62
441.6	1616.62
441.822	1672.62
442.043	1657.62
442.264	1599.62
442.486	1603.62
442.707	1612.62
442.928	1577.62
443.149	1610.62
443.371	1578.62
443.592	1596.62
443.813	1604.62
444.034	1637.62
444.255	1704.62
444.476	1796.62
444.698	1859.62
444.919	1988.62
445.14	2078.62
445.361	1852.62
445.582	1702.62
445.803	1600.62
446.024	1535.62
446.245	1538.62
446.466	1477.62
446.687	1423.62
446.908	1472.62
447.129	1394.62
447.35	1385.62
447.571	1399.62
447.792	1345.62
448.013	1341.62
448.234	1311.62
448.455	1322.62
448.675	1302.62
448.896	1335.62
449.117	1321.62
449.338	1301.62
449.559	1272.62
449.779	1286.62
450	1315.62
450.221	1296.62
450.442	1304.62
450.662	1356.62
450.883	1349.62
451.104	1363.62
451.324	1351.62
451.545	1321.62
451.766	1336.62
451.986	1323.62
452.207	1332.62
452.428	1339.62
452.648	1323.62
452.869	1305.62
453.089	1326.62
453.31	1319.62
453.53	1268.62
453.751	1259.62
453.971	1226.62
454.192	1281.62
454.412	1210.62
454.633	1248.62
454.853	1232.62
455.073	1216.62
455.294	1240.62
455.514	1219.62
455.734	1206.62
455.955	1178.62
456.175	1224.62
456.395	1209.62
456.616	1231.62
456.836	1252.62
457.056	1233.62
457.276	1217.62
457.497	1223.62
457.717	1217.62
457.937	1225.62
458.157	1233.62
458.377	1249.62
458.598	1281.62
458.818	1347.62
459.038	1375.62
459.258	1399.62
459.478	1479.62
459.698	1507.62
459.918	1549.62
460.138	1610.62
460.358	1713.62
460.578	1725.62
460.798	1741.62
461.018	1758.62
461.238	1698.62
461.458	1716.62
461.678	1632.62
461.898	1715.62
462.118	1724.62
462.338	1817.62
462.558	1873.62
462.777	1950.62
462.997	2143.62
463.217	2344.62
463.437	2323.62
463.657	2160.62
463.876	2024.62
464.096	2063.62
464.316	1998.62
464.536	1994.62
464.755	1932.62
464.975	1914.62
465.195	1759.62
465.414	1667.62
465.634	1598.62
465.854	1527.62
466.073	1484.62
466.293	1432.62
466.512	1385.62
466.732	1352.62
466.951	1397.62
467.171	1392.62
467.391	1411.62
467.61	1378.62
467.829	1363.62
468.049	1365.62
468.268	1310.62
468.488	1320.62
468.707	1324.62
468.927	1326.62
469.146	1310.62
469.365	1354.62
469.585	1351.62
469.804	1393.62
470.023	1406.62
470.243	1424.62
470.462	1432.62
470.681	1431.62
470.901	1442.62
471.12	1404.62
471.339	1371.62
471.558	1385.62
471.777	1362.62
471.997	1366.62
472.216	1319.62
472.435	1308.62
472.654	1301.62
472.873	1299.62
473.092	1294.62
473.311	1282.62
473.53	1263.62
473.749	1294.62
473.968	1282.62
474.187	1227.62
474.406	1239.62
474.625	1258.62
474.844	1284.62
475.063	1266.62
475.282	1264.62
475.501	1279.62
475.72	1292.62
475.939	1297.62
476.158	1318.62
476.377	1342.62
476.596	1292.62
476.814	1356.62
477.033	1352.62
477.252	1354.62
477.471	1379.62
477.69	1451.62
477.908	1483.62
478.127	1498.62
478.346	1547.62
478.564	1570.62
478.783	1618.62
479.002	1610.62
479.22	1659.62
479.439	1620.62
479.658	1619.62
479.876	1655.62
480.095	1657.62
480.313	1719.62
480.532	1788.62
480.751	1739.62
480.969	1691.62
481.188	1610.62
481.406	1556.62
481.624	1525.62
481.843	1475.62
482.061	1439.62
482.28	1470.62
482.498	1447.62
482.717	1412.62
482.935	1437.62
483.153	1445.62
483.372	1458.62
483.59	1489.62
483.808	1464.62
484.027	1451.62
484.245	1447.62
484.463	1464.62
484.681	1471.62
484.9	1490.62
485.118	1515.62
485.336	1464.62
485.554	1558.62
485.772	1571.62
485.99	1544.62
486.209	1560.62
486.427	1556.62
486.645	1533.62
486.863	1520.62
487.081	1522.62
487.299	1517.62
487.517	1526.62
487.735	1573.62
487.953	1555.62
488.171	1577.62
488.389	1539.62
488.607	1511.62
488.825	1507.62
489.043	1514.62
489.261	1522.62
489.479	1532.62
489.696	1537.62
489.914	1521.62
490.132	1537.62
490.35	1525.62
490.568	1561.62
490.786	1548.62
491.003	1537.62
491.221	1582.62
491.439	1504.62
491.657	1556.62
491.874	1559.62
492.092	1554.62
492.31	1608.62
492.527	1569.62
492.745	1580.62
492.963	1616.62
493.18	1579.62
493.398	1590.62
493.615	1590.62
493.833	1610.62
494.05	1634.62
494.268	1640.62
494.485	1655.62
494.703	1650.62
494.92	1654.62
495.138	1614.62
495.355	1661.62
495.573	1617.62
495.79	1638.62
496.008	1692.62
496.225	1677.62
496.442	1707.62
496.66	1735.62
496.877	1726.62
497.094	1770.62
497.312	1806.62
497.529	1846.62
497.746	1897.62
497.963	1920.62
498.181	2046.62
498.398	2148.62
498.615	2215.62
498.832	2387.62
499.049	2608.62
499.267	2789.62
499.484	3133.62
499.701	3491.62
499.918	3868.62
500.135	4372.62
500.352	4917.62
500.569	5120.62
500.786	5046.62
501.003	4778.62
501.22	4285.62
501.437	3753.62
501.654	3336.62
501.871	3013.62
502.088	2750.62
502.305	2529.62
502.522	2506.62
502.739	2290.62
502.956	2194.62
503.172	2130.62
503.389	2046.62
503.606	1953.62
503.823	1942.62
504.04	1905.62
504.256	1951.62
504.473	1990.62
504.69	2027.62
504.907	1974.62
505.123	1838.62
505.34	1746.62
505.557	1649.62
505.773	1592.62
505.99	1570.62
506.207	1563.62
506.423	1528.62
506.64	1510.62
506.856	1477.62
507.073	1494.62
507.289	1443.62
507.506	1477.62
507.722	1475.62
507.939	1465.62
508.155	1435.62
508.372	1420.62
508.588	1389.62
508.805	1339.62
509.021	1376.62
509.238	1357.62
509.454	1348.62
509.67	1350.62
509.887	1347.62
510.103	1315.62
510.319	1324.62
510.536	1339.62
510.752	1310.62
510.968	1318.62
511.184	1314.62
511.401	1342.62
511.617	1313.62
511.833	1310.62
512.049	1299.62
512.265	1310.62
512.481	1299.62
512.698	1269.62
512.914	1334.62
513.13	1288.62
513.346	1264.62
513.562	1308.62
513.778	1343.62
513.994	1284.62
514.21	1331.62
514.426	1307.62
514.642	1318.62
514.858	1321.62
515.074	1349.62
515.29	1392.62
515.506	1386.62
515.721	1401.62
515.937	1401.62
516.153	1467.62
516.369	1467.62
516.585	1532.62
516.801	1554.62
517.016	1659.62
517.232	1734.62
517.448	1808.62
517.664	1872.62
517.879	1915.62
518.095	1896.62
518.311	1858.62
518.527	1752.62
518.742	1662.62
518.958	1592.62
519.173	1522.62
519.389	1511.62
519.605	1472.62
519.82	1402.62
520.036	1381.62
520.251	1358.62
520.467	1328.62
520.682	1314.62
520.898	1324.62
521.113	1309.62
521.329	1258.62
521.544	1255.62
521.76	1297.62
521.975	1235.62
522.19	1227.62
522.406	1258.62
522.621	1232.62
522.836	1226.62
523.052	1253.62
523.267	1203.62
523.482	1193.62
523.698	1207.62
523.913	1195.62
524.128	1220.62
524.343	1207.62
524.559	1178.62
524.774	1159.62
524.989	1168.62
525.204	1190.62
525.419	1191.62
525.634	1169.62
525.849	1181.62
526.064	1145.62
526.28	1172.62
526.495	1177.62
526.71	1170.62
526.925	1164.62
527.14	1148.62
527.355	1153.62
527.57	1179.62
527.785	1169.62
527.999	1177.62
528.214	1169.62
528.429	1175.62
528.644	1152.62
528.859	1170.62
529.074	1154.62
529.289	1194.62
529.503	1183.62
529.718	1180.62
529.933	1141.62
530.148	1162.62
530.363	1174.62
530.577	1144.62
530.792	1153.62
531.007	1162.62
531.221	1152.62
531.436	1152.62
531.651	1182.62
531.865	1190.62
532.08	1154.62
532.295	1169.62
532.509	1150.62
532.724	1153.62
532.938	1145.62
533.153	1145.62
533.367	1146.62
533.582	1154.62
533.796	1138.62
534.011	1153.62
534.225	1138.62
534.44	1150.62
534.654	1141.62
534.868	1152.62
535.083	1105.62
535.297	1130.62
535.511	1113.62
535.726	1120.62
535.94	1114.62
536.154	1117.62
536.369	1082.62
536.583	1078.62
536.797	1077.62
537.011	1087.62
537.225	1053.62
537.44	1059.62
537.654	1072.62
537.868	1065.62
538.082	1062.62
538.296	1051.62
538.51	1065.62
538.724	1078.62
538.938	1027.62
539.153	1057.62
539.367	1040.62
539.581	1052.62
539.795	1043.62
540.009	1048.62
540.222	1027.62
540.436	1002.62
540.65	1050.62
540.864	1035.62
541.078	1041.62
541.292	1076.62
541.506	1057.62
541.72	1046.62
541.934	1056.62
542.147	1045.62
542.361	1073.62
542.575	1030.62
542.789	1032.62
543.002	1010.62
543.216	1015.62
543.43	1008.62
543.644	994.62
543.857	1022.62
544.071	1046.62
544.285	1054.62
544.498	1043.62
544.712	1050.62
544.925	1070.62
545.139	1049.62
545.352	1073.62
545.566	1103.62
545.779	1054.62
545.993	1087.62
546.206	1082.62
546.42	1051.62
546.633	1102.62
546.847	1079.62
547.06	1067.62
547.274	1086.62
547.487	1081.62
547.7	1090.62
547.914	1099.62
548.127	1105.62
548.34	1102.62
548.554	1076.62
548.767	1057.62
548.98	1064.62
549.193	1086.62
549.407	1099.62
549.62	1121.62
549.833	1114.62
550.046	1135.62
550.259	1094.62
550.473	1080.62
550.686	1057.62
550.899	1071.62
551.112	1043.62
551.325	1051.62
551.538	1029.62
551.751	1041.62
551.964	1050.62
552.177	1061.62
552.39	1115.62
552.603	1137.62
552.816	1094.62
553.029	1117.62
553.242	1139.62
553.455	1195.62
553.667	1194.62
553.88	1190.62
554.093	1160.62
554.306	1107.62
554.519	1095.62
554.732	1079.62
554.944	1034.62
555.157	1044.62
555.37	1019.62
555.583	1009.62
555.795	985.62
556.008	954.62
556.221	961.62
556.433	946.62
556.646	935.62
556.859	916.62
557.071	919.62
557.284	907.62
557.496	919.62
557.709	910.62
557.921	894.62
558.134	900.62
558.346	883.62
558.559	920.62
558.771	899.62
558.984	872.62
559.196	869.62
559.409	872.62
559.621	869.62
559.833	865.62
560.046	842.62
560.258	868.62
560.47	872.62
560.683	869.62
560.895	866.62
561.107	875.62
561.32	876.62
561.532	868.62
561.744	871.62
561.956	856.62
562.168	832.62
562.381	842.62
562.593	895.62
562.805	861.62
563.017	855.62
563.229	858.62
563.441	866.62
563.653	884.62
563.865	912.62
564.077	898.62
564.289	897.62
564.501	913.62
564.713	926.62
564.925	932.62
565.137	947.62
565.349	956.62
565.561	1008.62
565.773	1052.62
565.985	1083.62
566.197	1174.62
566.408	1247.62
566.62	1358.62
566.832	1451.62
567.044	1472.62
567.255	1472.62
567.467	1541.62
567.679	1630.62
567.891	1722.62
568.102	1762.62
568.314	1646.62
568.526	1513.62
568.737	1401.62
568.949	1251.62
569.161	1120.62
569.372	1082.62
569.584	1024.62
569.795	971.62
570.007	923.62
570.218	943.62
570.43	922.62
570.641	913.62
570.853	884.62
571.064	905.62
571.276	920.62
571.487	859.62
571.698	873.62
571.91	799.62
572.121	785.62
572.333	755.62
572.544	763.62
572.755	769.62
572.966	767.62
573.178	732.62
573.389	738.62
573.6	712.62
573.811	691.62
574.023	712.62
574.234	719.62
574.445	688.62
574.656	701.62
574.867	696.62
575.078	737.62
575.289	702.62
575.501	704.62
575.712	673.62
575.923	666.62
576.134	648.62
576.345	680.62
576.556	675.62
576.767	666.62
576.978	671.62
577.188	654.62
577.399	653.62
577.61	665.62
577.821	640.62
578.032	623.62
578.243	619.62
578.454	625.62
578.665	654.62
578.875	610.62
579.086	620.62
579.297	617.62
579.508	609.62
579.718	613.62
579.929	609.62
580.14	614.62
580.35	618.62
580.561	614.62
580.772	588.62
580.982	595.62
581.193	572.62
581.403	604.62
581.614	605.62
581.825	584.62
582.035	576.62
582.246	593.62
582.456	584.62
582.667	607.62
582.877	602.62
583.087	562.62
583.298	592.62
583.508	587.62
583.719	590.62
583.929	588.62
584.139	572.62
584.35	582.62
584.56	567.62
584.77	574.62
584.981	585.62
585.191	570.62
585.401	586.62
585.611	571.62
585.821	588.62
586.032	579.62
586.242	539.62
586.452	566.62
586.662	550.62
586.872	552.62
587.082	568.62
587.292	542.62
587.502	552.62
587.713	569.62
587.923	568.62
588.133	554.62
588.343	568.62
588.553	561.62
588.762	547.62
588.972	550.62
589.182	589.62
589.392	564.62
589.602	536.62
589.812	550.62
590.022	559.62
590.232	561.62
590.441	567.62
590.651	565.62
590.861	582.62
591.071	571.62
591.281	592.62
591.49	624.62
591.7	606.62
591.91	612.62
592.119	608.62
592.329	620.62
592.539	662.62
592.748	647.62
592.958	687.62
593.167	715.62
593.377	714.62
593.587	731.62
593.796	710.62
594.006	734.62
594.215	756.62
594.424	719.62
594.634	746.62
594.843	700.62
595.053	672.62
595.262	647.62
595.472	630.62
595.681	594.62
595.89	582.62
596.1	578.62
596.309	546.62
596.518	537.62
596.727	550.62
596.937	523.62
597.146	522.62
597.355	511.62
597.564	520.62
597.774	494.62
597.983	497.62
598.192	458.62
598.401	484.62
598.61	483.62
598.819	480.62
599.028	479.62
599.237	478.62
599.446	463.62
599.655	479.62
599.864	473.62
600.073	489.62
600.282	482.62
600.491	460.62
600.7	473.62
600.909	445.62
601.118	478.62
601.327	444.62
601.536	459.62
601.745	444.62
601.953	464.62
602.162	458.62
602.371	443.62
602.58	431.62
602.789	454.62
602.997	442.62
603.206	441.62
603.415	449.62
603.623	448.62
603.832	449.62
604.041	436.62
604.249	439.62
604.458	434.62
604.666	422.62
604.875	432.62
605.084	434.62
605.292	408.62
605.501	434.62
605.709	423.62
605.918	429.62
606.126	422.62
606.334	414.62
606.543	416.62
606.751	419.62
606.96	450.62
607.168	412.62
607.376	416.62
607.585	416.62
607.793	430.62
608.001	420.62
608.21	418.62
608.418	415.62
608.626	403.62
608.834	404.62
609.043	416.62
609.251	399.62
609.459	404.62
609.667	403.62
609.875	396.62
610.083	400.62
610.291	406.62
610.499	400.62
610.707	419.62
610.916	403.62
611.124	389.62
611.332	421.62
611.54	407.62
611.748	394.62
611.955	392.62
612.163	395.62
612.371	385.62
612.579	394.62
612.787	409.62
612.995	400.62
613.203	396.62
613.411	396.62
613.618	403.62
613.826	404.62
614.034	381.62
614.242	392.62
614.449	401.62
614.657	409.62
614.865	382.62
615.072	386.62
615.28	392.62
615.488	380.62
615.695	384.62
615.903	367.62
616.111	376.62
616.318	392.62
616.526	382.62
616.733	386.62
616.941	370.62
617.148	369.62
617.356	376.62
617.563	397.62
617.771	392.62
617.978	383.62
618.185	376.62
618.393	386.62
618.6	384.62
618.807	395.62
619.015	391.62
619.222	379.62
619.429	389.62
619.637	369.62
619.844	388.62
620.051	402.62
620.258	379.62
620.466	382.62
620.673	356.62
620.88	356.62
621.087	352.62
621.294	346.62
621.501	354.62
621.708	352.62
621.915	359.62
622.122	340.62
622.329	378.62
622.536	361.62
622.743	378.62
622.95	369.62
623.157	339.62
623.364	350.62
623.571	358.62
623.778	344.62
623.985	361.62
624.192	331.62
624.399	343.62
624.606	342.62
624.812	351.62
625.019	346.62
625.226	346.62
625.433	325.62
625.639	322.62
625.846	315.62
626.053	334.62
626.259	330.62
626.466	329.62
626.673	346.62
626.879	326.62
627.086	325.62
627.293	320.62
627.499	330.62
627.706	305.62
627.912	325.62
628.119	303.62
628.325	307.62
628.532	329.62
628.738	294.62
628.945	304.62
629.151	312.62
629.357	323.62
629.564	327.62
629.77	321.62
629.976	314.62
630.183	312.62
630.389	303.62
630.595	310.62
630.802	304.62
631.008	304.62
631.214	307.62
631.42	304.62
631.627	292.62
631.833	297.62
632.039	314.62
632.245	285.62
632.451	288.62
632.657	288.62
632.863	280.62
633.069	304.62
633.275	291.62
633.481	276.62
633.688	287.62
633.893	282.62
634.099	291.62
634.305	293.62
634.511	280.62
634.717	279.62
634.923	261.62
635.129	285.62
635.335	281.62
635.541	269.62
635.747	280.62
635.952	269.62
636.158	279.62
636.364	266.62
636.57	277.62
636.775	273.62
636.981	280.62
637.187	272.62
637.392	278.62
637.598	269.62
637.804	275.62
638.009	289.62
638.215	272.62
638.421	246.62
638.626	273.62
638.832	285.62
639.037	273.62
639.243	250.62
639.448	276.62
639.654	278.62
639.859	256.62
640.065	259.62
640.27	251.62
640.475	265.62
640.681	256.62
640.886	245.62
641.091	263.62
641.297	266.62
641.502	258.62
641.707	239.62
641.913	246.62
642.118	238.62
642.323	239.62
642.528	248.62
642.733	252.62
642.939	240.62
643.144	259.62
643.349	244.62
643.554	240.62
643.759	267.62
643.964	234.62
644.169	246.62
644.374	244.62
644.579	262.62
644.784	240.62
644.989	262.62
645.194	239.62
645.399	233.62
645.604	220.62
645.809	239.62
646.014	241.62
646.219	219.62
646.423	247.62
646.628	241.62
646.833	259.62
647.038	258.62
647.243	244.62
647.447	254.62
647.652	233.62
647.857	249.62
648.062	254.62
648.266	266.62
648.471	265.62
648.676	257.62
648.88	247.62
649.085	258.62
649.289	246.62
649.494	233.62
649.698	252.62
649.903	238.62
650.107	243.62
650.312	230.62
650.516	217.62
650.721	223.62
650.925	211.62
651.13	221.62
651.334	203.62
651.539	206.62
651.743	211.62
651.947	225.62
652.152	222.62
652.356	208.62
652.56	193.62
652.764	192.62
652.969	208.62
653.173	192.62
653.377	179.62
653.581	183.62
653.785	188.62
653.99	186.62
654.194	183.62
654.398	168.62
654.602	172.62
654.806	178.62
655.01	168.62
655.214	170.62
655.418	177.62
655.622	159.62
655.826	147.62
656.03	167.62
656.234	155.62
656.438	155.62
656.642	160.62
656.846	162.62
657.049	139.62
657.253	160.62
657.457	157.62
657.661	142.62
657.865	144.62
658.068	139.62
658.272	130.62
658.476	129.62
658.68	117.62
658.883	101.62
659.087	110.62
659.291	120.62
659.494	125.62
659.698	103.62
659.901	108.62
660.105	100.62
660.309	95.62
660.512	104.62
660.716	101.62
660.919	96.62
661.123	96.62
661.326	103.62
661.53	90.62
661.733	100.62
661.936	104.62
662.14	83.62
662.343	94.62
662.546	94.62
662.75	92.62
662.953	81.62
663.156	76.62
663.36	85.62
663.563	81.62
663.766	66.62
663.969	87.62
664.173	78.62
664.376	92.62
664.579	75.62
664.782	83.62
664.985	81.62
665.188	74.62
665.391	89.62
665.594	90.62
665.797	78.62
666	93.62
666.203	77.62
666.406	83.62
666.609	94.62
666.812	81.62
667.015	66.62
667.218	75.62
667.421	81.62
667.624	72.62
667.827	80.62
668.03	88.62
668.232	86.62
668.435	87.62
668.638	86.62
668.841	78.62
669.043	94.62
669.246	91.62
669.449	78.62
669.651	75.62
669.854	78.62
670.057	76.62
670.259	96.62
670.462	74.62
670.665	86.62
670.867	81.62
671.07	86.62
671.272	97.62
671.475	80.62
671.677	89.62
671.88	89.62
672.082	99.62
672.284	94.62
672.487	73.62
672.689	77.62
672.892	64.62
