Data from Ni(NO3)2@0.0625M.TitratingCurve.Agarose3%dH2O.NegLispCup.LampEnergy10.LIBS07252019_HRD10591_18-14-24-570.txt Node
Date: Thu Jul 25 18:14:24 EDT 2019
User: cochatt
Spectrometer: HR+D1059
Trigger mode: 1
Integration Time (sec): 1.000000E-1
Scans to average: 1
Electric dark correction enabled: true
Nonlinearity correction enabled: false
Boxcar width: 0
XAxis mode: Wavelengths
Number of Pixels in Spectrum: 2048
>>>>>Begin Spectral Data<<<<<
223.165	-12.38
223.4	-12.38
223.635	-12.38
223.869	-13.38
224.104	-19.38
224.338	-19.38
224.573	-27.38
224.808	-10.38
225.042	0.62
225.277	-0.38
225.511	-3.38
225.746	7.62
225.98	4.62
226.215	23.62
226.449	17.62
226.683	8.62
226.918	15.62
227.152	27.62
227.387	50.62
227.621	45.62
227.856	49.62
228.09	44.62
228.324	50.62
228.559	54.62
228.793	70.62
229.027	113.62
229.262	116.62
229.496	97.62
229.73	120.62
229.964	136.62
230.199	135.62
230.433	127.62
230.667	116.62
230.901	125.62
231.136	126.62
231.37	147.62
231.604	137.62
231.838	143.62
232.072	145.62
232.306	125.62
232.541	147.62
232.775	141.62
233.009	143.62
233.243	154.62
233.477	151.62
233.711	140.62
233.945	135.62
234.179	151.62
234.413	145.62
234.647	149.62
234.881	147.62
235.115	148.62
235.349	144.62
235.583	161.62
235.817	156.62
236.051	138.62
236.285	157.62
236.519	149.62
236.753	160.62
236.987	155.62
237.221	161.62
237.455	163.62
237.689	166.62
237.922	154.62
238.156	159.62
238.39	163.62
238.624	157.62
238.858	164.62
239.091	168.62
239.325	171.62
239.559	173.62
239.793	178.62
240.027	159.62
240.26	177.62
240.494	175.62
240.728	190.62
240.961	178.62
241.195	182.62
241.429	181.62
241.662	169.62
241.896	193.62
242.13	186.62
242.363	185.62
242.597	209.62
242.83	201.62
243.064	207.62
243.298	201.62
243.531	204.62
243.765	206.62
243.998	193.62
244.232	198.62
244.465	201.62
244.699	209.62
244.932	201.62
245.166	217.62
245.399	211.62
245.633	220.62
245.866	224.62
246.099	222.62
246.333	227.62
246.566	229.62
246.8	211.62
247.033	222.62
247.266	233.62
247.5	209.62
247.733	250.62
247.966	247.62
248.2	227.62
248.433	219.62
248.666	226.62
248.899	237.62
249.133	248.62
249.366	230.62
249.599	246.62
249.832	240.62
250.066	251.62
250.299	240.62
250.532	246.62
250.765	239.62
250.998	273.62
251.231	262.62
251.465	255.62
251.698	258.62
251.931	274.62
252.164	276.62
252.397	276.62
252.63	274.62
252.863	263.62
253.096	262.62
253.329	269.62
253.562	251.62
253.795	265.62
254.028	265.62
254.261	261.62
254.494	272.62
254.727	250.62
254.96	273.62
255.193	272.62
255.426	310.62
255.659	279.62
255.892	291.62
256.124	268.62
256.357	284.62
256.59	288.62
256.823	271.62
257.056	277.62
257.289	307.62
257.521	296.62
257.754	291.62
257.987	291.62
258.22	289.62
258.452	278.62
258.685	307.62
258.918	291.62
259.151	313.62
259.383	319.62
259.616	317.62
259.849	306.62
260.081	309.62
260.314	298.62
260.547	303.62
260.779	319.62
261.012	296.62
261.244	335.62
261.477	340.62
261.71	321.62
261.942	305.62
262.175	323.62
262.407	319.62
262.64	317.62
262.872	316.62
263.105	333.62
263.337	328.62
263.57	351.62
263.802	322.62
264.035	313.62
264.267	338.62
264.499	339.62
264.732	331.62
264.964	345.62
265.197	336.62
265.429	346.62
265.661	368.62
265.894	340.62
266.126	343.62
266.358	347.62
266.591	344.62
266.823	350.62
267.055	353.62
267.287	364.62
267.52	341.62
267.752	328.62
267.984	364.62
268.216	359.62
268.448	363.62
268.681	337.62
268.913	364.62
269.145	364.62
269.377	355.62
269.609	367.62
269.841	358.62
270.073	367.62
270.306	381.62
270.538	372.62
270.77	368.62
271.002	387.62
271.234	394.62
271.466	359.62
271.698	369.62
271.93	358.62
272.162	395.62
272.394	392.62
272.626	369.62
272.858	396.62
273.09	378.62
273.322	376.62
273.553	396.62
273.785	367.62
274.017	405.62
274.249	390.62
274.481	396.62
274.713	391.62
274.945	402.62
275.176	411.62
275.408	412.62
275.64	407.62
275.872	412.62
276.104	411.62
276.335	415.62
276.567	401.62
276.799	423.62
277.031	412.62
277.262	420.62
277.494	422.62
277.726	427.62
277.957	404.62
278.189	415.62
278.421	427.62
278.652	427.62
278.884	444.62
279.115	431.62
279.347	437.62
279.579	445.62
279.81	410.62
280.042	433.62
280.273	436.62
280.505	443.62
280.736	434.62
280.968	459.62
281.199	471.62
281.431	442.62
281.662	463.62
281.894	458.62
282.125	453.62
282.356	479.62
282.588	469.62
282.819	455.62
283.051	471.62
283.282	479.62
283.513	478.62
283.745	459.62
283.976	452.62
284.207	443.62
284.439	453.62
284.67	467.62
284.901	481.62
285.132	481.62
285.364	479.62
285.595	474.62
285.826	473.62
286.057	475.62
286.288	480.62
286.52	500.62
286.751	490.62
286.982	499.62
287.213	497.62
287.444	497.62
287.675	490.62
287.906	509.62
288.138	499.62
288.369	510.62
288.6	498.62
288.831	488.62
289.062	513.62
289.293	488.62
289.524	522.62
289.755	512.62
289.986	536.62
290.217	510.62
290.448	517.62
290.679	502.62
290.91	485.62
291.141	501.62
291.371	513.62
291.602	516.62
291.833	524.62
292.064	520.62
292.295	496.62
292.526	514.62
292.757	509.62
292.987	516.62
293.218	520.62
293.449	509.62
293.68	497.62
293.91	520.62
294.141	513.62
294.372	525.62
294.603	502.62
294.833	541.62
295.064	540.62
295.295	533.62
295.525	530.62
295.756	548.62
295.987	534.62
296.217	545.62
296.448	550.62
296.679	555.62
296.909	559.62
297.14	520.62
297.37	534.62
297.601	533.62
297.831	545.62
298.062	580.62
298.292	567.62
298.523	601.62
298.753	601.62
298.984	567.62
299.214	553.62
299.445	573.62
299.675	585.62
299.905	579.62
300.136	569.62
300.366	591.62
300.597	570.62
300.827	574.62
301.057	578.62
301.288	596.62
301.518	576.62
301.748	574.62
301.979	614.62
302.209	604.62
302.439	582.62
302.669	579.62
302.9	591.62
303.13	548.62
303.36	585.62
303.59	595.62
303.82	565.62
304.051	581.62
304.281	568.62
304.511	587.62
304.741	567.62
304.971	593.62
305.201	586.62
305.431	548.62
305.661	573.62
305.891	566.62
306.121	564.62
306.352	560.62
306.582	586.62
306.812	574.62
307.042	564.62
307.272	522.62
307.502	552.62
307.731	573.62
307.961	555.62
308.191	554.62
308.421	547.62
308.651	580.62
308.881	548.62
309.111	565.62
309.341	534.62
309.571	569.62
309.8	551.62
310.03	599.62
310.26	561.62
310.49	565.62
310.72	576.62
310.949	565.62
311.179	564.62
311.409	567.62
311.639	582.62
311.868	588.62
312.098	584.62
312.328	601.62
312.557	592.62
312.787	618.62
313.017	587.62
313.246	601.62
313.476	600.62
313.706	613.62
313.935	619.62
314.165	608.62
314.394	596.62
314.624	607.62
314.853	613.62
315.083	588.62
315.312	594.62
315.542	587.62
315.771	595.62
316.001	608.62
316.23	586.62
316.46	603.62
316.689	579.62
316.919	601.62
317.148	596.62
317.377	594.62
317.607	602.62
317.836	592.62
318.065	574.62
318.295	608.62
318.524	592.62
318.753	579.62
318.983	597.62
319.212	570.62
319.441	597.62
319.67	609.62
319.9	593.62
320.129	616.62
320.358	597.62
320.587	600.62
320.816	576.62
321.046	575.62
321.275	602.62
321.504	610.62
321.733	599.62
321.962	570.62
322.191	600.62
322.42	612.62
322.649	608.62
322.878	616.62
323.108	615.62
323.337	605.62
323.566	623.62
323.795	609.62
324.024	627.62
324.253	586.62
324.482	609.62
324.71	619.62
324.939	637.62
325.168	623.62
325.397	619.62
325.626	626.62
325.855	623.62
326.084	660.62
326.313	652.62
326.542	663.62
326.77	669.62
326.999	660.62
327.228	646.62
327.457	628.62
327.686	650.62
327.914	641.62
328.143	649.62
328.372	664.62
328.6	671.62
328.829	653.62
329.058	639.62
329.287	645.62
329.515	638.62
329.744	652.62
329.972	675.62
330.201	648.62
330.43	692.62
330.658	663.62
330.887	675.62
331.115	691.62
331.344	676.62
331.572	699.62
331.801	698.62
332.03	731.62
332.258	735.62
332.486	760.62
332.715	775.62
332.943	793.62
333.172	856.62
333.4	895.62
333.629	894.62
333.857	910.62
334.085	888.62
334.314	858.62
334.542	832.62
334.771	826.62
334.999	823.62
335.227	807.62
335.455	792.62
335.684	807.62
335.912	791.62
336.14	791.62
336.369	778.62
336.597	791.62
336.825	806.62
337.053	778.62
337.281	770.62
337.51	768.62
337.738	739.62
337.966	733.62
338.194	720.62
338.422	720.62
338.65	692.62
338.878	730.62
339.106	717.62
339.334	708.62
339.562	717.62
339.79	649.62
340.018	673.62
340.246	687.62
340.474	686.62
340.702	682.62
340.93	684.62
341.158	697.62
341.386	697.62
341.614	687.62
341.842	669.62
342.07	663.62
342.298	669.62
342.526	646.62
342.754	672.62
342.981	692.62
343.209	688.62
343.437	705.62
343.665	758.62
343.893	816.62
344.12	872.62
344.348	810.62
344.576	799.62
344.804	762.62
345.031	732.62
345.259	732.62
345.487	686.62
345.714	683.62
345.942	681.62
346.17	669.62
346.397	669.62
346.625	667.62
346.853	652.62
347.08	657.62
347.308	665.62
347.535	691.62
347.763	676.62
347.99	676.62
348.218	676.62
348.445	678.62
348.673	670.62
348.9	663.62
349.128	665.62
349.355	652.62
349.583	652.62
349.81	649.62
350.037	619.62
350.265	621.62
350.492	630.62
350.72	627.62
350.947	621.62
351.174	643.62
351.402	633.62
351.629	631.62
351.856	661.62
352.083	634.62
352.311	644.62
352.538	641.62
352.765	654.62
352.992	620.62
353.22	641.62
353.447	633.62
353.674	616.62
353.901	623.62
354.128	647.62
354.355	629.62
354.583	651.62
354.81	643.62
355.037	641.62
355.264	644.62
355.491	636.62
355.718	663.62
355.945	637.62
356.172	667.62
356.399	640.62
356.626	653.62
356.853	616.62
357.08	649.62
357.307	658.62
357.534	626.62
357.761	643.62
357.988	664.62
358.215	629.62
358.441	614.62
358.668	635.62
358.895	630.62
359.122	613.62
359.349	642.62
359.576	625.62
359.802	662.62
360.029	634.62
360.256	630.62
360.483	621.62
360.709	633.62
360.936	641.62
361.163	621.62
361.39	614.62
361.616	651.62
361.843	635.62
362.07	627.62
362.296	618.62
362.523	603.62
362.749	628.62
362.976	640.62
363.203	646.62
363.429	641.62
363.656	656.62
363.882	620.62
364.109	645.62
364.335	647.62
364.562	642.62
364.788	618.62
365.015	632.62
365.241	630.62
365.468	632.62
365.694	646.62
365.92	627.62
366.147	621.62
366.373	617.62
366.599	632.62
366.826	631.62
367.052	634.62
367.278	639.62
367.505	639.62
367.731	636.62
367.957	617.62
368.184	633.62
368.41	647.62
368.636	634.62
368.862	663.62
369.089	656.62
369.315	638.62
369.541	636.62
369.767	649.62
369.993	641.62
370.219	656.62
370.445	656.62
370.672	678.62
370.898	672.62
371.124	677.62
371.35	683.62
371.576	700.62
371.802	698.62
372.028	682.62
372.254	712.62
372.48	698.62
372.706	712.62
372.932	712.62
373.158	714.62
373.384	719.62
373.61	718.62
373.835	697.62
374.061	699.62
374.287	717.62
374.513	719.62
374.739	738.62
374.965	748.62
375.191	788.62
375.416	760.62
375.642	742.62
375.868	752.62
376.094	759.62
376.319	727.62
376.545	701.62
376.771	716.62
376.997	696.62
377.222	717.62
377.448	691.62
377.674	721.62
377.899	682.62
378.125	668.62
378.35	689.62
378.576	685.62
378.802	696.62
379.027	679.62
379.253	689.62
379.478	700.62
379.704	679.62
379.929	697.62
380.155	678.62
380.38	691.62
380.606	691.62
380.831	679.62
381.057	693.62
381.282	717.62
381.507	673.62
381.733	698.62
381.958	707.62
382.184	700.62
382.409	705.62
382.634	725.62
382.86	721.62
383.085	731.62
383.31	757.62
383.535	755.62
383.761	786.62
383.986	790.62
384.211	785.62
384.436	811.62
384.662	814.62
384.887	837.62
385.112	852.62
385.337	843.62
385.562	849.62
385.787	845.62
386.013	853.62
386.238	842.62
386.463	855.62
386.688	859.62
386.913	813.62
387.138	826.62
387.363	805.62
387.588	800.62
387.813	807.62
388.038	825.62
388.263	828.62
388.488	844.62
388.713	824.62
388.938	825.62
389.163	795.62
389.387	835.62
389.612	806.62
389.837	842.62
390.062	801.62
390.287	812.62
390.512	803.62
390.736	810.62
390.961	831.62
391.186	835.62
391.411	868.62
391.636	917.62
391.86	935.62
392.085	950.62
392.31	958.62
392.534	920.62
392.759	927.62
392.984	884.62
393.208	873.62
393.433	901.62
393.658	883.62
393.882	899.62
394.107	901.62
394.331	875.62
394.556	921.62
394.78	882.62
395.005	906.62
395.229	895.62
395.454	905.62
395.678	960.62
395.903	959.62
396.127	906.62
396.352	891.62
396.576	860.62
396.801	876.62
397.025	870.62
397.249	888.62
397.474	945.62
397.698	936.62
397.922	933.62
398.147	934.62
398.371	943.62
398.595	977.62
398.82	1013.62
399.044	1057.62
399.268	1230.62
399.492	1413.62
399.717	1651.62
399.941	1668.62
400.165	1410.62
400.389	1280.62
400.613	1142.62
400.837	1089.62
401.062	1058.62
401.286	1077.62
401.51	1047.62
401.734	1035.62
401.958	1067.62
402.182	1081.62
402.406	1094.62
402.63	1105.62
402.854	1123.62
403.078	1143.62
403.302	1171.62
403.526	1213.62
403.75	1224.62
403.974	1252.62
404.198	1248.62
404.422	1259.62
404.645	1229.62
404.869	1196.62
405.093	1196.62
405.317	1168.62
405.541	1156.62
405.765	1159.62
405.988	1125.62
406.212	1146.62
406.436	1134.62
406.66	1181.62
406.883	1204.62
407.107	1288.62
407.331	1345.62
407.555	1396.62
407.778	1368.62
408.002	1317.62
408.226	1287.62
408.449	1269.62
408.673	1222.62
408.896	1199.62
409.12	1169.62
409.344	1204.62
409.567	1213.62
409.791	1229.62
410.014	1223.62
410.238	1215.62
410.461	1205.62
410.685	1204.62
410.908	1168.62
411.132	1105.62
411.355	1091.62
411.578	1115.62
411.802	1073.62
412.025	1089.62
412.249	1103.62
412.472	1103.62
412.695	1082.62
412.919	1032.62
413.142	1041.62
413.365	1049.62
413.589	1072.62
413.812	1033.62
414.035	1041.62
414.258	1035.62
414.482	1055.62
414.705	1071.62
414.928	1108.62
415.151	1051.62
415.374	1048.62
415.597	1044.62
415.821	1021.62
416.044	1025.62
416.267	1003.62
416.49	1014.62
416.713	1055.62
416.936	1051.62
417.159	1041.62
417.382	1014.62
417.605	1003.62
417.828	1035.62
418.051	1068.62
418.274	1079.62
418.497	1053.62
418.72	1069.62
418.943	1069.62
419.166	1119.62
419.389	1209.62
419.611	1203.62
419.834	1125.62
420.057	1110.62
420.28	1059.62
420.503	1019.62
420.726	1012.62
420.948	1034.62
421.171	1014.62
421.394	1040.62
421.617	1029.62
421.839	1056.62
422.062	1055.62
422.285	1039.62
422.507	1080.62
422.73	1045.62
422.953	1084.62
423.175	1103.62
423.398	1092.62
423.621	1102.62
423.843	1119.62
424.066	1110.62
424.288	1122.62
424.511	1128.62
424.733	1077.62
424.956	1094.62
425.178	1073.62
425.401	1035.62
425.623	1063.62
425.846	1009.62
426.068	1019.62
426.291	987.62
426.513	992.62
426.735	940.62
426.958	946.62
427.18	933.62
427.402	957.62
427.625	933.62
427.847	906.62
428.069	923.62
428.292	941.62
428.514	929.62
428.736	899.62
428.958	923.62
429.181	915.62
429.403	916.62
429.625	910.62
429.847	883.62
430.069	910.62
430.292	896.62
430.514	899.62
430.736	910.62
430.958	918.62
431.18	893.62
431.402	883.62
431.624	887.62
431.846	930.62
432.068	945.62
432.29	961.62
432.512	914.62
432.734	927.62
432.956	906.62
433.178	926.62
433.4	915.62
433.622	927.62
433.844	947.62
434.066	923.62
434.287	969.62
434.509	986.62
434.731	1023.62
434.953	1045.62
435.175	1057.62
435.397	1048.62
435.618	977.62
435.84	978.62
436.062	917.62
436.284	946.62
436.505	957.62
436.727	890.62
436.949	928.62
437.17	921.62
437.392	919.62
437.614	915.62
437.835	893.62
438.057	888.62
438.278	884.62
438.5	871.62
438.721	880.62
438.943	903.62
439.165	875.62
439.386	934.62
439.608	935.62
439.829	888.62
440.05	925.62
440.272	921.62
440.493	915.62
440.715	930.62
440.936	954.62
441.158	988.62
441.379	990.62
441.6	1025.62
441.822	1065.62
442.043	1067.62
442.264	1027.62
442.486	1028.62
442.707	1010.62
442.928	1052.62
443.149	1037.62
443.371	1028.62
443.592	1041.62
443.813	1083.62
444.034	1083.62
444.255	1081.62
444.476	1124.62
444.698	1212.62
444.919	1289.62
445.14	1391.62
445.361	1196.62
445.582	1099.62
445.803	1006.62
446.024	973.62
446.245	943.62
446.466	963.62
446.687	938.62
446.908	938.62
447.129	921.62
447.35	914.62
447.571	885.62
447.792	885.62
448.013	865.62
448.234	854.62
448.455	879.62
448.675	863.62
448.896	866.62
449.117	832.62
449.338	851.62
449.559	809.62
449.779	837.62
450	835.62
450.221	853.62
450.442	831.62
450.662	884.62
450.883	835.62
451.104	903.62
451.324	921.62
451.545	885.62
451.766	890.62
451.986	879.62
452.207	861.62
452.428	849.62
452.648	859.62
452.869	829.62
453.089	855.62
453.31	850.62
453.53	823.62
453.751	853.62
453.971	841.62
454.192	843.62
454.412	794.62
454.633	797.62
454.853	833.62
455.073	816.62
455.294	802.62
455.514	817.62
455.734	835.62
455.955	778.62
456.175	773.62
456.395	815.62
456.616	794.62
456.836	805.62
457.056	806.62
457.276	808.62
457.497	791.62
457.717	802.62
457.937	803.62
458.157	807.62
458.377	841.62
458.598	821.62
458.818	829.62
459.038	890.62
459.258	929.62
459.478	928.62
459.698	969.62
459.918	999.62
460.138	1008.62
460.358	1089.62
460.578	1100.62
460.798	1132.62
461.018	1107.62
461.238	1077.62
461.458	1108.62
461.678	1105.62
461.898	1140.62
462.118	1112.62
462.338	1169.62
462.558	1232.62
462.777	1257.62
462.997	1360.62
463.217	1554.62
463.437	1569.62
463.657	1419.62
463.876	1322.62
464.096	1299.62
464.316	1333.62
464.536	1376.62
464.755	1286.62
464.975	1249.62
465.195	1128.62
465.414	1071.62
465.634	1012.62
465.854	975.62
466.073	967.62
466.293	958.62
466.512	947.62
466.732	910.62
466.951	912.62
467.171	923.62
467.391	904.62
467.61	915.62
467.829	873.62
468.049	894.62
468.268	853.62
468.488	860.62
468.707	853.62
468.927	850.62
469.146	844.62
469.365	869.62
469.585	842.62
469.804	912.62
470.023	940.62
470.243	920.62
470.462	917.62
470.681	962.62
470.901	957.62
471.12	933.62
471.339	900.62
471.558	893.62
471.777	873.62
471.997	846.62
472.216	888.62
472.435	877.62
472.654	844.62
472.873	821.62
473.092	842.62
473.311	840.62
473.53	826.62
473.749	813.62
473.968	819.62
474.187	840.62
474.406	829.62
474.625	810.62
474.844	820.62
475.063	824.62
475.282	844.62
475.501	838.62
475.72	861.62
475.939	861.62
476.158	869.62
476.377	850.62
476.596	873.62
476.814	879.62
477.033	884.62
477.252	908.62
477.471	920.62
477.69	946.62
477.908	931.62
478.127	996.62
478.346	1007.62
478.564	1009.62
478.783	1030.62
479.002	1045.62
479.22	1055.62
479.439	1060.62
479.658	1046.62
479.876	1019.62
480.095	1046.62
480.313	1064.62
480.532	1163.62
480.751	1153.62
480.969	1092.62
481.188	1032.62
481.406	1004.62
481.624	992.62
481.843	975.62
482.061	959.62
482.28	927.62
482.498	940.62
482.717	959.62
482.935	929.62
483.153	891.62
483.372	958.62
483.59	942.62
483.808	954.62
484.027	917.62
484.245	955.62
484.463	980.62
484.681	981.62
484.9	991.62
485.118	1004.62
485.336	993.62
485.554	1016.62
485.772	985.62
485.99	1013.62
486.209	1023.62
486.427	993.62
486.645	1011.62
486.863	1041.62
487.081	1006.62
487.299	1003.62
487.517	1041.62
487.735	1008.62
487.953	986.62
488.171	994.62
488.389	995.62
488.607	980.62
488.825	984.62
489.043	979.62
489.261	956.62
489.479	1024.62
489.696	980.62
489.914	993.62
490.132	1002.62
490.35	990.62
490.568	960.62
490.786	1001.62
491.003	996.62
491.221	1023.62
491.439	992.62
491.657	988.62
491.874	998.62
492.092	1003.62
492.31	965.62
492.527	1007.62
492.745	1045.62
492.963	1036.62
493.18	1024.62
493.398	1028.62
493.615	1066.62
493.833	1049.62
494.05	1047.62
494.268	1060.62
494.485	1057.62
494.703	1056.62
494.92	1031.62
495.138	1035.62
495.355	1026.62
495.573	1077.62
495.79	1071.62
496.008	1113.62
496.225	1077.62
496.442	1061.62
496.66	1060.62
496.877	1128.62
497.094	1109.62
497.312	1161.62
497.529	1149.62
497.746	1203.62
497.963	1205.62
498.181	1272.62
498.398	1311.62
498.615	1391.62
498.832	1476.62
499.049	1655.62
499.267	1731.62
499.484	1940.62
499.701	2173.62
499.918	2388.62
500.135	2762.62
500.352	3269.62
500.569	3498.62
500.786	3426.62
501.003	3137.62
501.22	2723.62
501.437	2409.62
501.654	2076.62
501.871	1872.62
502.088	1740.62
502.305	1604.62
502.522	1514.62
502.739	1455.62
502.956	1390.62
503.172	1348.62
503.389	1265.62
503.606	1229.62
503.823	1185.62
504.04	1197.62
504.256	1184.62
504.473	1274.62
504.69	1309.62
504.907	1291.62
505.123	1170.62
505.34	1113.62
505.557	1048.62
505.773	1079.62
505.99	1023.62
506.207	989.62
506.423	956.62
506.64	964.62
506.856	969.62
507.073	947.62
507.289	929.62
507.506	953.62
507.722	934.62
507.939	948.62
508.155	915.62
508.372	909.62
508.588	888.62
508.805	896.62
509.021	883.62
509.238	863.62
509.454	891.62
509.67	850.62
509.887	894.62
510.103	869.62
510.319	861.62
510.536	854.62
510.752	843.62
510.968	849.62
511.184	891.62
511.401	844.62
511.617	843.62
511.833	849.62
512.049	850.62
512.265	852.62
512.481	866.62
512.698	848.62
512.914	843.62
513.13	891.62
513.346	868.62
513.562	851.62
513.778	851.62
513.994	860.62
514.21	888.62
514.426	865.62
514.642	886.62
514.858	871.62
515.074	885.62
515.29	892.62
515.506	894.62
515.721	890.62
515.937	914.62
516.153	923.62
516.369	970.62
516.585	968.62
516.801	1031.62
517.016	1061.62
517.232	1121.62
517.448	1163.62
517.664	1203.62
517.879	1254.62
518.095	1224.62
518.311	1221.62
518.527	1149.62
518.742	1107.62
518.958	1055.62
519.173	996.62
519.389	981.62
519.605	958.62
519.82	950.62
520.036	893.62
520.251	931.62
520.467	888.62
520.682	880.62
520.898	864.62
521.113	875.62
521.329	853.62
521.544	860.62
521.76	843.62
521.975	807.62
522.19	823.62
522.406	823.62
522.621	831.62
522.836	808.62
523.052	815.62
523.267	793.62
523.482	790.62
523.698	794.62
523.913	820.62
524.128	799.62
524.343	790.62
524.559	803.62
524.774	820.62
524.989	795.62
525.204	795.62
525.419	796.62
525.634	773.62
525.849	783.62
526.064	781.62
526.28	761.62
526.495	817.62
526.71	793.62
526.925	778.62
527.14	787.62
527.355	771.62
527.57	783.62
527.785	787.62
527.999	788.62
528.214	794.62
528.429	782.62
528.644	800.62
528.859	790.62
529.074	785.62
529.289	797.62
529.503	794.62
529.718	788.62
529.933	790.62
530.148	806.62
530.363	784.62
530.577	781.62
530.792	795.62
531.007	769.62
531.221	807.62
531.436	775.62
531.651	786.62
531.865	787.62
532.08	783.62
532.295	782.62
532.509	775.62
532.724	781.62
532.938	803.62
533.153	778.62
533.367	774.62
533.582	771.62
533.796	770.62
534.011	778.62
534.225	780.62
534.44	755.62
534.654	758.62
534.868	783.62
535.083	793.62
535.297	773.62
535.511	765.62
535.726	763.62
535.94	756.62
536.154	746.62
536.369	751.62
536.583	744.62
536.797	738.62
537.011	741.62
537.225	719.62
537.44	733.62
537.654	706.62
537.868	739.62
538.082	715.62
538.296	695.62
538.51	737.62
538.724	754.62
538.938	714.62
539.153	703.62
539.367	731.62
539.581	718.62
539.795	700.62
540.009	722.62
540.222	700.62
540.436	693.62
540.65	696.62
540.864	699.62
541.078	685.62
541.292	700.62
541.506	694.62
541.72	671.62
541.934	689.62
542.147	693.62
542.361	698.62
542.575	687.62
542.789	693.62
543.002	675.62
543.216	680.62
543.43	715.62
543.644	683.62
543.857	684.62
544.071	691.62
544.285	716.62
544.498	719.62
544.712	699.62
544.925	699.62
545.139	722.62
545.352	710.62
545.566	724.62
545.779	721.62
545.993	722.62
546.206	716.62
546.42	697.62
546.633	717.62
546.847	723.62
547.06	706.62
547.274	697.62
547.487	692.62
547.7	715.62
547.914	697.62
548.127	704.62
548.34	724.62
548.554	717.62
548.767	716.62
548.98	716.62
549.193	700.62
549.407	731.62
549.62	724.62
549.833	724.62
550.046	724.62
550.259	731.62
550.473	709.62
550.686	691.62
550.899	687.62
551.112	691.62
551.325	680.62
551.538	685.62
551.751	674.62
551.964	719.62
552.177	711.62
552.39	698.62
552.603	738.62
552.816	744.62
553.029	777.62
553.242	791.62
553.455	799.62
553.667	804.62
553.88	794.62
554.093	780.62
554.306	731.62
554.519	715.62
554.732	710.62
554.944	688.62
555.157	679.62
555.37	693.62
555.583	654.62
555.795	657.62
556.008	653.62
556.221	645.62
556.433	623.62
556.646	616.62
556.859	587.62
557.071	601.62
557.284	590.62
557.496	628.62
557.709	625.62
557.921	603.62
558.134	599.62
558.346	611.62
558.559	581.62
558.771	595.62
558.984	593.62
559.196	587.62
559.409	590.62
559.621	608.62
559.833	603.62
560.046	588.62
560.258	572.62
560.47	614.62
560.683	603.62
560.895	606.62
561.107	598.62
561.32	584.62
561.532	610.62
561.744	612.62
561.956	584.62
562.168	599.62
562.381	599.62
562.593	607.62
562.805	587.62
563.017	631.62
563.229	587.62
563.441	623.62
563.653	593.62
563.865	618.62
564.077	602.62
564.289	600.62
564.501	619.62
564.713	627.62
564.925	634.62
565.137	648.62
565.349	659.62
565.561	659.62
565.773	712.62
565.985	727.62
566.197	756.62
566.408	799.62
566.62	914.62
566.832	980.62
567.044	1002.62
567.255	1022.62
567.467	1031.62
567.679	1077.62
567.891	1208.62
568.102	1229.62
568.314	1187.62
568.526	1027.62
568.737	939.62
568.949	837.62
569.161	771.62
569.372	721.62
569.584	683.62
569.795	665.62
570.007	658.62
570.218	620.62
570.43	616.62
570.641	610.62
570.853	612.62
571.064	623.62
571.276	635.62
571.487	612.62
571.698	576.62
571.91	565.62
572.121	554.62
572.333	519.62
572.544	537.62
572.755	504.62
572.966	513.62
573.178	527.62
573.389	505.62
573.6	497.62
573.811	496.62
574.023	498.62
574.234	486.62
574.445	488.62
574.656	469.62
574.867	496.62
575.078	508.62
575.289	502.62
575.501	496.62
575.712	475.62
575.923	487.62
576.134	495.62
576.345	474.62
576.556	468.62
576.767	478.62
576.978	462.62
577.188	466.62
577.399	464.62
577.61	451.62
577.821	466.62
578.032	443.62
578.243	455.62
578.454	431.62
578.665	427.62
578.875	442.62
579.086	440.62
579.297	455.62
579.508	436.62
579.718	420.62
579.929	439.62
580.14	433.62
580.35	426.62
580.561	434.62
580.772	431.62
580.982	433.62
581.193	426.62
581.403	413.62
581.614	426.62
581.825	424.62
582.035	417.62
582.246	412.62
582.456	397.62
582.667	416.62
582.877	431.62
583.087	449.62
583.298	427.62
583.508	402.62
583.719	408.62
583.929	424.62
584.139	428.62
584.35	414.62
584.56	396.62
584.77	384.62
584.981	379.62
585.191	411.62
585.401	398.62
585.611	391.62
585.821	395.62
586.032	412.62
586.242	404.62
586.452	412.62
586.662	388.62
586.872	373.62
587.082	382.62
587.292	387.62
587.502	409.62
587.713	401.62
587.923	385.62
588.133	390.62
588.343	404.62
588.553	411.62
588.762	400.62
588.972	389.62
589.182	387.62
589.392	381.62
589.602	406.62
589.812	394.62
590.022	392.62
590.232	423.62
590.441	401.62
590.651	406.62
590.861	393.62
591.071	421.62
591.281	387.62
591.49	405.62
591.7	392.62
591.91	428.62
592.119	426.62
592.329	443.62
592.539	449.62
592.748	482.62
592.958	510.62
593.167	514.62
593.377	521.62
593.587	506.62
593.796	520.62
594.006	524.62
594.215	548.62
594.424	539.62
594.634	524.62
594.843	488.62
595.053	461.62
595.262	467.62
595.472	423.62
595.681	428.62
595.89	408.62
596.1	416.62
596.309	368.62
596.518	379.62
596.727	397.62
596.937	361.62
597.146	375.62
597.355	367.62
597.564	379.62
597.774	372.62
597.983	353.62
598.192	350.62
598.401	346.62
598.61	316.62
598.819	358.62
599.028	319.62
599.237	356.62
599.446	344.62
599.655	345.62
599.864	333.62
600.073	337.62
600.282	329.62
600.491	337.62
600.7	327.62
600.909	340.62
601.118	328.62
601.327	327.62
601.536	340.62
601.745	345.62
601.953	331.62
602.162	327.62
602.371	315.62
602.58	330.62
602.789	343.62
602.997	334.62
603.206	346.62
603.415	319.62
603.623	309.62
603.832	314.62
604.041	307.62
604.249	311.62
604.458	325.62
604.666	317.62
604.875	324.62
605.084	335.62
605.292	328.62
605.501	312.62
605.709	307.62
605.918	315.62
606.126	323.62
606.334	292.62
606.543	297.62
606.751	310.62
606.96	316.62
607.168	318.62
607.376	292.62
607.585	320.62
607.793	320.62
608.001	320.62
608.21	305.62
608.418	293.62
608.626	298.62
608.834	316.62
609.043	314.62
609.251	314.62
609.459	310.62
609.667	320.62
609.875	305.62
610.083	296.62
610.291	291.62
610.499	307.62
610.707	295.62
610.916	306.62
611.124	310.62
611.332	296.62
611.54	303.62
611.748	309.62
611.955	316.62
612.163	299.62
612.371	283.62
612.579	306.62
612.787	284.62
612.995	287.62
613.203	306.62
613.411	284.62
613.618	280.62
613.826	290.62
614.034	295.62
614.242	293.62
614.449	284.62
614.657	298.62
614.865	275.62
615.072	293.62
615.28	289.62
615.488	295.62
615.695	295.62
615.903	291.62
616.111	293.62
616.318	307.62
616.526	268.62
616.733	313.62
616.941	299.62
617.148	298.62
617.356	292.62
617.563	306.62
617.771	289.62
617.978	303.62
618.185	307.62
618.393	287.62
618.6	299.62
618.807	287.62
619.015	304.62
619.222	291.62
619.429	303.62
619.637	292.62
619.844	291.62
620.051	282.62
620.258	279.62
620.466	279.62
620.673	286.62
620.88	276.62
621.087	278.62
621.294	279.62
621.501	265.62
621.708	275.62
621.915	243.62
622.122	273.62
622.329	283.62
622.536	283.62
622.743	256.62
622.95	275.62
623.157	259.62
623.364	270.62
623.571	242.62
623.778	272.62
623.985	257.62
624.192	259.62
624.399	239.62
624.606	257.62
624.812	263.62
625.019	248.62
625.226	253.62
625.433	247.62
625.639	245.62
625.846	235.62
626.053	246.62
626.259	249.62
626.466	247.62
626.673	235.62
626.879	245.62
627.086	239.62
627.293	245.62
627.499	260.62
627.706	242.62
627.912	235.62
628.119	246.62
628.325	230.62
628.532	237.62
628.738	229.62
628.945	221.62
629.151	244.62
629.357	232.62
629.564	233.62
629.77	225.62
629.976	241.62
630.183	234.62
630.389	234.62
630.595	242.62
630.802	232.62
631.008	224.62
631.214	242.62
631.42	195.62
631.627	233.62
631.833	233.62
632.039	219.62
632.245	225.62
632.451	227.62
632.657	215.62
632.863	211.62
633.069	202.62
633.275	213.62
633.481	201.62
633.688	210.62
633.893	218.62
634.099	219.62
634.305	213.62
634.511	215.62
634.717	225.62
634.923	232.62
635.129	213.62
635.335	220.62
635.541	230.62
635.747	213.62
635.952	208.62
636.158	204.62
636.364	212.62
636.57	207.62
636.775	200.62
636.981	214.62
637.187	209.62
637.392	228.62
637.598	203.62
637.804	208.62
638.009	209.62
638.215	213.62
638.421	212.62
638.626	194.62
638.832	203.62
639.037	202.62
639.243	197.62
639.448	211.62
639.654	200.62
639.859	213.62
640.065	185.62
640.27	203.62
640.475	195.62
640.681	200.62
640.886	207.62
641.091	202.62
641.297	194.62
641.502	194.62
641.707	205.62
641.913	209.62
642.118	201.62
642.323	198.62
642.528	183.62
642.733	188.62
642.939	195.62
643.144	186.62
643.349	177.62
643.554	177.62
643.759	194.62
643.964	191.62
644.169	193.62
644.374	194.62
644.579	187.62
644.784	183.62
644.989	198.62
645.194	191.62
645.399	173.62
645.604	190.62
645.809	183.62
646.014	192.62
646.219	184.62
646.423	185.62
646.628	184.62
646.833	207.62
647.038	184.62
647.243	202.62
647.447	196.62
647.652	194.62
647.857	196.62
648.062	200.62
648.266	203.62
648.471	212.62
648.676	201.62
648.88	199.62
649.085	217.62
649.289	193.62
649.494	183.62
649.698	184.62
649.903	196.62
650.107	190.62
650.312	193.62
650.516	184.62
650.721	177.62
650.925	173.62
651.13	164.62
651.334	163.62
651.539	178.62
651.743	172.62
651.947	141.62
652.152	160.62
652.356	155.62
652.56	165.62
652.764	156.62
652.969	155.62
653.173	151.62
653.377	133.62
653.581	144.62
653.785	138.62
653.99	150.62
654.194	136.62
654.398	137.62
654.602	144.62
654.806	136.62
655.01	149.62
655.214	138.62
655.418	145.62
655.622	116.62
655.826	149.62
656.03	136.62
656.234	126.62
656.438	127.62
656.642	140.62
656.846	147.62
657.049	137.62
657.253	128.62
657.457	105.62
657.661	120.62
657.865	112.62
658.068	122.62
658.272	116.62
658.476	95.62
658.68	108.62
658.883	106.62
659.087	102.62
659.291	104.62
659.494	91.62
659.698	112.62
659.901	106.62
660.105	80.62
660.309	85.62
660.512	99.62
660.716	88.62
660.919	103.62
661.123	89.62
661.326	102.62
661.53	98.62
661.733	100.62
661.936	98.62
662.14	82.62
662.343	83.62
662.546	98.62
662.75	79.62
662.953	95.62
663.156	81.62
663.36	70.62
663.563	76.62
663.766	85.62
663.969	102.62
664.173	87.62
664.376	100.62
664.579	88.62
664.782	81.62
664.985	83.62
665.188	72.62
665.391	83.62
665.594	73.62
665.797	71.62
666	78.62
666.203	91.62
666.406	73.62
666.609	90.62
666.812	87.62
667.015	79.62
667.218	71.62
667.421	71.62
667.624	83.62
667.827	85.62
668.03	67.62
668.232	69.62
668.435	77.62
668.638	69.62
668.841	83.62
669.043	69.62
669.246	89.62
669.449	88.62
669.651	87.62
669.854	64.62
670.057	88.62
670.259	81.62
670.462	69.62
670.665	81.62
670.867	84.62
671.07	68.62
671.272	87.62
671.475	77.62
671.677	84.62
671.88	85.62
672.082	71.62
672.284	69.62
672.487	89.62
672.689	79.62
672.892	81.62
