Data from Ni(NO3)2@0.0625M.TitratingCurve.Agarose3%dH2O.NegLispCup.LampEnergy10.LIBS07252019_HRD10591_18-14-01-569.txt Node
Date: Thu Jul 25 18:14:01 EDT 2019
User: cochatt
Spectrometer: HR+D1059
Trigger mode: 1
Integration Time (sec): 1.000000E-1
Scans to average: 1
Electric dark correction enabled: true
Nonlinearity correction enabled: false
Boxcar width: 0
XAxis mode: Wavelengths
Number of Pixels in Spectrum: 2048
>>>>>Begin Spectral Data<<<<<
223.165	-11.5
223.4	-11.5
223.635	-11.5
223.869	-19.5
224.104	-27.5
224.338	3.5
224.573	-2.5
224.808	-8.5
225.042	-19.5
225.277	-9.5
225.511	-2.5
225.746	-8.5
225.98	-14.5
226.215	15.5
226.449	21.5
226.683	23.5
226.918	21.5
227.152	38.5
227.387	31.5
227.621	43.5
227.856	43.5
228.09	38.5
228.324	41.5
228.559	59.5
228.793	64.5
229.027	92.5
229.262	108.5
229.496	112.5
229.73	113.5
229.964	100.5
230.199	117.5
230.433	117.5
230.667	117.5
230.901	116.5
231.136	114.5
231.37	113.5
231.604	116.5
231.838	117.5
232.072	120.5
232.306	131.5
232.541	120.5
232.775	124.5
233.009	129.5
233.243	134.5
233.477	129.5
233.711	122.5
233.945	121.5
234.179	116.5
234.413	141.5
234.647	136.5
234.881	136.5
235.115	120.5
235.349	117.5
235.583	128.5
235.817	140.5
236.051	128.5
236.285	131.5
236.519	120.5
236.753	112.5
236.987	113.5
237.221	124.5
237.455	128.5
237.689	123.5
237.922	138.5
238.156	137.5
238.39	138.5
238.624	126.5
238.858	131.5
239.091	137.5
239.325	135.5
239.559	148.5
239.793	140.5
240.027	136.5
240.26	136.5
240.494	139.5
240.728	148.5
240.961	154.5
241.195	144.5
241.429	134.5
241.662	166.5
241.896	135.5
242.13	147.5
242.363	158.5
242.597	157.5
242.83	157.5
243.064	152.5
243.298	184.5
243.531	170.5
243.765	155.5
243.998	160.5
244.232	159.5
244.465	162.5
244.699	179.5
244.932	179.5
245.166	164.5
245.399	166.5
245.633	167.5
245.866	179.5
246.099	165.5
246.333	177.5
246.566	183.5
246.8	170.5
247.033	167.5
247.266	169.5
247.5	173.5
247.733	190.5
247.966	171.5
248.2	197.5
248.433	178.5
248.666	186.5
248.899	175.5
249.133	192.5
249.366	175.5
249.599	198.5
249.832	183.5
250.066	188.5
250.299	177.5
250.532	197.5
250.765	204.5
250.998	197.5
251.231	193.5
251.465	188.5
251.698	211.5
251.931	204.5
252.164	207.5
252.397	211.5
252.63	213.5
252.863	212.5
253.096	221.5
253.329	246.5
253.562	236.5
253.795	204.5
254.028	204.5
254.261	229.5
254.494	221.5
254.727	207.5
254.96	216.5
255.193	203.5
255.426	207.5
255.659	217.5
255.892	215.5
256.124	225.5
256.357	213.5
256.59	236.5
256.823	227.5
257.056	223.5
257.289	234.5
257.521	231.5
257.754	213.5
257.987	224.5
258.22	247.5
258.452	228.5
258.685	223.5
258.918	236.5
259.151	229.5
259.383	231.5
259.616	222.5
259.849	233.5
260.081	259.5
260.314	248.5
260.547	231.5
260.779	242.5
261.012	247.5
261.244	246.5
261.477	242.5
261.71	254.5
261.942	251.5
262.175	259.5
262.407	244.5
262.64	231.5
262.872	256.5
263.105	265.5
263.337	240.5
263.57	246.5
263.802	249.5
264.035	261.5
264.267	267.5
264.499	268.5
264.732	245.5
264.964	262.5
265.197	245.5
265.429	255.5
265.661	263.5
265.894	266.5
266.126	253.5
266.358	272.5
266.591	272.5
266.823	280.5
267.055	278.5
267.287	283.5
267.52	263.5
267.752	290.5
267.984	269.5
268.216	283.5
268.448	274.5
268.681	278.5
268.913	280.5
269.145	279.5
269.377	284.5
269.609	285.5
269.841	292.5
270.073	265.5
270.306	291.5
270.538	284.5
270.77	259.5
271.002	273.5
271.234	290.5
271.466	292.5
271.698	282.5
271.93	284.5
272.162	279.5
272.394	289.5
272.626	291.5
272.858	282.5
273.09	287.5
273.322	295.5
273.553	285.5
273.785	298.5
274.017	304.5
274.249	305.5
274.481	303.5
274.713	320.5
274.945	308.5
275.176	290.5
275.408	299.5
275.64	293.5
275.872	326.5
276.104	313.5
276.335	315.5
276.567	305.5
276.799	308.5
277.031	309.5
277.262	305.5
277.494	306.5
277.726	311.5
277.957	315.5
278.189	323.5
278.421	333.5
278.652	328.5
278.884	334.5
279.115	312.5
279.347	323.5
279.579	327.5
279.81	336.5
280.042	331.5
280.273	347.5
280.505	307.5
280.736	329.5
280.968	335.5
281.199	347.5
281.431	356.5
281.662	345.5
281.894	343.5
282.125	357.5
282.356	356.5
282.588	342.5
282.819	352.5
283.051	363.5
283.282	343.5
283.513	346.5
283.745	340.5
283.976	354.5
284.207	347.5
284.439	326.5
284.67	362.5
284.901	372.5
285.132	379.5
285.364	369.5
285.595	359.5
285.826	381.5
286.057	361.5
286.288	375.5
286.52	344.5
286.751	360.5
286.982	376.5
287.213	349.5
287.444	358.5
287.675	372.5
287.906	365.5
288.138	377.5
288.369	387.5
288.6	380.5
288.831	371.5
289.062	371.5
289.293	373.5
289.524	376.5
289.755	389.5
289.986	385.5
290.217	380.5
290.448	383.5
290.679	396.5
290.91	388.5
291.141	396.5
291.371	415.5
291.602	400.5
291.833	405.5
292.064	401.5
292.295	384.5
292.526	381.5
292.757	387.5
292.987	375.5
293.218	362.5
293.449	396.5
293.68	393.5
293.91	392.5
294.141	390.5
294.372	387.5
294.603	401.5
294.833	383.5
295.064	397.5
295.295	393.5
295.525	394.5
295.756	410.5
295.987	386.5
296.217	406.5
296.448	403.5
296.679	401.5
296.909	404.5
297.14	408.5
297.37	430.5
297.601	426.5
297.831	432.5
298.062	419.5
298.292	431.5
298.523	421.5
298.753	436.5
298.984	417.5
299.214	434.5
299.445	428.5
299.675	433.5
299.905	427.5
300.136	408.5
300.366	434.5
300.597	405.5
300.827	453.5
301.057	443.5
301.288	429.5
301.518	439.5
301.748	441.5
301.979	443.5
302.209	450.5
302.439	447.5
302.669	464.5
302.9	431.5
303.13	436.5
303.36	422.5
303.59	439.5
303.82	442.5
304.051	420.5
304.281	414.5
304.511	435.5
304.741	426.5
304.971	424.5
305.201	435.5
305.431	418.5
305.661	424.5
305.891	424.5
306.121	436.5
306.352	417.5
306.582	415.5
306.812	436.5
307.042	435.5
307.272	429.5
307.502	407.5
307.731	415.5
307.961	426.5
308.191	435.5
308.421	424.5
308.651	423.5
308.881	410.5
309.111	418.5
309.341	455.5
309.571	426.5
309.8	412.5
310.03	442.5
310.26	422.5
310.49	440.5
310.72	438.5
310.949	431.5
311.179	449.5
311.409	433.5
311.639	446.5
311.868	448.5
312.098	440.5
312.328	451.5
312.557	443.5
312.787	444.5
313.017	441.5
313.246	443.5
313.476	462.5
313.706	447.5
313.935	441.5
314.165	477.5
314.394	481.5
314.624	459.5
314.853	463.5
315.083	473.5
315.312	446.5
315.542	452.5
315.771	444.5
316.001	461.5
316.23	442.5
316.46	455.5
316.689	445.5
316.919	423.5
317.148	443.5
317.377	457.5
317.607	444.5
317.836	451.5
318.065	439.5
318.295	452.5
318.524	431.5
318.753	436.5
318.983	433.5
319.212	461.5
319.441	455.5
319.67	455.5
319.9	456.5
320.129	443.5
320.358	448.5
320.587	422.5
320.816	447.5
321.046	442.5
321.275	460.5
321.504	442.5
321.733	450.5
321.962	456.5
322.191	455.5
322.42	447.5
322.649	453.5
322.878	448.5
323.108	445.5
323.337	461.5
323.566	449.5
323.795	455.5
324.024	463.5
324.253	440.5
324.482	462.5
324.71	465.5
324.939	472.5
325.168	459.5
325.397	461.5
325.626	462.5
325.855	485.5
326.084	496.5
326.313	499.5
326.542	487.5
326.77	486.5
326.999	499.5
327.228	478.5
327.457	501.5
327.686	471.5
327.914	479.5
328.143	508.5
328.372	486.5
328.6	473.5
328.829	490.5
329.058	509.5
329.287	489.5
329.515	511.5
329.744	477.5
329.972	488.5
330.201	485.5
330.43	479.5
330.658	502.5
330.887	527.5
331.115	502.5
331.344	517.5
331.572	541.5
331.801	529.5
332.03	516.5
332.258	551.5
332.486	573.5
332.715	588.5
332.943	603.5
333.172	644.5
333.4	666.5
333.629	687.5
333.857	705.5
334.085	663.5
334.314	643.5
334.542	634.5
334.771	634.5
334.999	621.5
335.227	615.5
335.455	628.5
335.684	609.5
335.912	615.5
336.14	602.5
336.369	615.5
336.597	609.5
336.825	585.5
337.053	581.5
337.281	587.5
337.51	557.5
337.738	561.5
337.966	567.5
338.194	536.5
338.422	523.5
338.65	531.5
338.878	538.5
339.106	509.5
339.334	530.5
339.562	541.5
339.79	534.5
340.018	517.5
340.246	482.5
340.474	503.5
340.702	511.5
340.93	512.5
341.158	513.5
341.386	520.5
341.614	508.5
341.842	551.5
342.07	533.5
342.298	483.5
342.526	515.5
342.754	517.5
342.981	516.5
343.209	504.5
343.437	533.5
343.665	566.5
343.893	633.5
344.12	658.5
344.348	607.5
344.576	575.5
344.804	563.5
345.031	531.5
345.259	534.5
345.487	517.5
345.714	508.5
345.942	520.5
346.17	517.5
346.397	526.5
346.625	516.5
346.853	505.5
347.08	504.5
347.308	512.5
347.535	534.5
347.763	547.5
347.99	528.5
348.218	525.5
348.445	511.5
348.673	496.5
348.9	505.5
349.128	510.5
349.355	522.5
349.583	495.5
349.81	476.5
350.037	488.5
350.265	499.5
350.492	483.5
350.72	473.5
350.947	474.5
351.174	468.5
351.402	482.5
351.629	478.5
351.856	479.5
352.083	480.5
352.311	489.5
352.538	497.5
352.765	465.5
352.992	485.5
353.22	481.5
353.447	495.5
353.674	467.5
353.901	474.5
354.128	460.5
354.355	484.5
354.583	482.5
354.81	470.5
355.037	489.5
355.264	464.5
355.491	477.5
355.718	475.5
355.945	496.5
356.172	477.5
356.399	490.5
356.626	469.5
356.853	474.5
357.08	498.5
357.307	482.5
357.534	487.5
357.761	500.5
357.988	479.5
358.215	478.5
358.441	484.5
358.668	492.5
358.895	489.5
359.122	487.5
359.349	493.5
359.576	471.5
359.802	485.5
360.029	490.5
360.256	500.5
360.483	481.5
360.709	476.5
360.936	496.5
361.163	493.5
361.39	455.5
361.616	501.5
361.843	484.5
362.07	481.5
362.296	496.5
362.523	485.5
362.749	469.5
362.976	496.5
363.203	497.5
363.429	486.5
363.656	483.5
363.882	483.5
364.109	472.5
364.335	507.5
364.562	490.5
364.788	466.5
365.015	464.5
365.241	456.5
365.468	477.5
365.694	481.5
365.92	487.5
366.147	482.5
366.373	486.5
366.599	493.5
366.826	469.5
367.052	471.5
367.278	495.5
367.505	498.5
367.731	490.5
367.957	469.5
368.184	482.5
368.41	497.5
368.636	515.5
368.862	511.5
369.089	514.5
369.315	495.5
369.541	490.5
369.767	495.5
369.993	490.5
370.219	516.5
370.445	522.5
370.672	522.5
370.898	513.5
371.124	519.5
371.35	529.5
371.576	525.5
371.802	512.5
372.028	521.5
372.254	529.5
372.48	533.5
372.706	538.5
372.932	563.5
373.158	552.5
373.384	552.5
373.61	551.5
373.835	529.5
374.061	528.5
374.287	534.5
374.513	536.5
374.739	557.5
374.965	583.5
375.191	602.5
375.416	589.5
375.642	570.5
375.868	553.5
376.094	531.5
376.319	545.5
376.545	553.5
376.771	522.5
376.997	527.5
377.222	523.5
377.448	530.5
377.674	540.5
377.899	519.5
378.125	538.5
378.35	530.5
378.576	523.5
378.802	528.5
379.027	526.5
379.253	519.5
379.478	502.5
379.704	522.5
379.929	541.5
380.155	503.5
380.38	538.5
380.606	535.5
380.831	518.5
381.057	521.5
381.282	542.5
381.507	524.5
381.733	522.5
381.958	536.5
382.184	527.5
382.409	563.5
382.634	554.5
382.86	565.5
383.085	547.5
383.31	565.5
383.535	591.5
383.761	583.5
383.986	608.5
384.211	619.5
384.436	611.5
384.662	624.5
384.887	649.5
385.112	635.5
385.337	626.5
385.562	634.5
385.787	647.5
386.013	641.5
386.238	658.5
386.463	642.5
386.688	640.5
386.913	639.5
387.138	614.5
387.363	635.5
387.588	612.5
387.813	607.5
388.038	610.5
388.263	656.5
388.488	636.5
388.713	615.5
388.938	618.5
389.163	596.5
389.387	621.5
389.612	591.5
389.837	606.5
390.062	611.5
390.287	615.5
390.512	617.5
390.736	613.5
390.961	644.5
391.186	631.5
391.411	663.5
391.636	715.5
391.86	708.5
392.085	716.5
392.31	707.5
392.534	681.5
392.759	669.5
392.984	675.5
393.208	678.5
393.433	651.5
393.658	664.5
393.882	667.5
394.107	699.5
394.331	721.5
394.556	655.5
394.78	665.5
395.005	705.5
395.229	679.5
395.454	697.5
395.678	715.5
395.903	717.5
396.127	700.5
396.352	698.5
396.576	676.5
396.801	629.5
397.025	657.5
397.249	668.5
397.474	705.5
397.698	700.5
397.922	679.5
398.147	703.5
398.371	713.5
398.595	754.5
398.82	751.5
399.044	808.5
399.268	911.5
399.492	1082.5
399.717	1240.5
399.941	1238.5
400.165	1068.5
400.389	943.5
400.613	869.5
400.837	802.5
401.062	789.5
401.286	808.5
401.51	773.5
401.734	757.5
401.958	812.5
402.182	808.5
402.406	833.5
402.63	834.5
402.854	825.5
403.078	872.5
403.302	888.5
403.526	908.5
403.75	930.5
403.974	946.5
404.198	964.5
404.422	949.5
404.645	937.5
404.869	905.5
405.093	902.5
405.317	890.5
405.541	897.5
405.765	877.5
405.988	874.5
406.212	868.5
406.436	865.5
406.66	893.5
406.883	900.5
407.107	952.5
407.331	1036.5
407.555	1063.5
407.778	1015.5
408.002	992.5
408.226	965.5
408.449	938.5
408.673	937.5
408.896	896.5
409.12	907.5
409.344	924.5
409.567	940.5
409.791	965.5
410.014	915.5
410.238	910.5
410.461	888.5
410.685	908.5
410.908	880.5
411.132	819.5
411.355	833.5
411.578	818.5
411.802	815.5
412.025	829.5
412.249	861.5
412.472	863.5
412.695	819.5
412.919	797.5
413.142	796.5
413.365	811.5
413.589	785.5
413.812	763.5
414.035	755.5
414.258	764.5
414.482	809.5
414.705	801.5
414.928	826.5
415.151	801.5
415.374	799.5
415.597	760.5
415.821	779.5
416.044	789.5
416.267	779.5
416.49	776.5
416.713	760.5
416.936	780.5
417.159	772.5
417.382	792.5
417.605	786.5
417.828	799.5
418.051	795.5
418.274	793.5
418.497	808.5
418.72	804.5
418.943	815.5
419.166	873.5
419.389	933.5
419.611	891.5
419.834	855.5
420.057	841.5
420.28	822.5
420.503	781.5
420.726	776.5
420.948	757.5
421.171	793.5
421.394	767.5
421.617	785.5
421.839	811.5
422.062	789.5
422.285	818.5
422.507	792.5
422.73	810.5
422.953	817.5
423.175	816.5
423.398	835.5
423.621	832.5
423.843	837.5
424.066	849.5
424.288	876.5
424.511	835.5
424.733	832.5
424.956	827.5
425.178	787.5
425.401	805.5
425.623	771.5
425.846	779.5
426.068	764.5
426.291	761.5
426.513	743.5
426.735	753.5
426.958	710.5
427.18	711.5
427.402	724.5
427.625	734.5
427.847	701.5
428.069	713.5
428.292	715.5
428.514	696.5
428.736	691.5
428.958	691.5
429.181	687.5
429.403	683.5
429.625	667.5
429.847	674.5
430.069	704.5
430.292	685.5
430.514	690.5
430.736	694.5
430.958	682.5
431.18	663.5
431.402	693.5
431.624	693.5
431.846	699.5
432.068	717.5
432.29	722.5
432.512	695.5
432.734	698.5
432.956	693.5
433.178	700.5
433.4	683.5
433.622	719.5
433.844	729.5
434.066	729.5
434.287	713.5
434.509	759.5
434.731	795.5
434.953	786.5
435.175	801.5
435.397	796.5
435.618	750.5
435.84	755.5
436.062	698.5
436.284	700.5
436.505	710.5
436.727	699.5
436.949	699.5
437.17	715.5
437.392	681.5
437.614	719.5
437.835	680.5
438.057	700.5
438.278	689.5
438.5	672.5
438.721	649.5
438.943	690.5
439.165	684.5
439.386	698.5
439.608	711.5
439.829	730.5
440.05	695.5
440.272	713.5
440.493	714.5
440.715	721.5
440.936	738.5
441.158	738.5
441.379	768.5
441.6	822.5
441.822	815.5
442.043	784.5
442.264	769.5
442.486	773.5
442.707	812.5
442.928	791.5
443.149	811.5
443.371	810.5
443.592	805.5
443.813	805.5
444.034	818.5
444.255	802.5
444.476	857.5
444.698	905.5
444.919	977.5
445.14	1037.5
445.361	934.5
445.582	835.5
445.803	781.5
446.024	757.5
446.245	742.5
446.466	726.5
446.687	745.5
446.908	722.5
447.129	691.5
447.35	701.5
447.571	693.5
447.792	652.5
448.013	691.5
448.234	653.5
448.455	680.5
448.675	658.5
448.896	654.5
449.117	661.5
449.338	649.5
449.559	652.5
449.779	659.5
450	649.5
450.221	671.5
450.442	675.5
450.662	671.5
450.883	680.5
451.104	678.5
451.324	689.5
451.545	689.5
451.766	679.5
451.986	666.5
452.207	664.5
452.428	678.5
452.648	669.5
452.869	650.5
453.089	639.5
453.31	658.5
453.53	664.5
453.751	639.5
453.971	644.5
454.192	637.5
454.412	639.5
454.633	639.5
454.853	646.5
455.073	643.5
455.294	603.5
455.514	610.5
455.734	599.5
455.955	579.5
456.175	614.5
456.395	617.5
456.616	622.5
456.836	611.5
457.056	616.5
457.276	604.5
457.497	621.5
457.717	627.5
457.937	620.5
458.157	631.5
458.377	641.5
458.598	627.5
458.818	652.5
459.038	670.5
459.258	700.5
459.478	736.5
459.698	759.5
459.918	744.5
460.138	774.5
460.358	853.5
460.578	822.5
460.798	855.5
461.018	838.5
461.238	845.5
461.458	828.5
461.678	839.5
461.898	843.5
462.118	864.5
462.338	868.5
462.558	948.5
462.777	971.5
462.997	1048.5
463.217	1174.5
463.437	1219.5
463.657	1074.5
463.876	1007.5
464.096	988.5
464.316	1006.5
464.536	1023.5
464.755	962.5
464.975	935.5
465.195	895.5
465.414	839.5
465.634	809.5
465.854	755.5
466.073	730.5
466.293	714.5
466.512	689.5
466.732	688.5
466.951	701.5
467.171	704.5
467.391	736.5
467.61	691.5
467.829	696.5
468.049	691.5
468.268	679.5
468.488	673.5
468.707	659.5
468.927	651.5
469.146	658.5
469.365	672.5
469.585	707.5
469.804	699.5
470.023	711.5
470.243	689.5
470.462	690.5
470.681	718.5
470.901	722.5
471.12	692.5
471.339	680.5
471.558	659.5
471.777	676.5
471.997	663.5
472.216	667.5
472.435	662.5
472.654	642.5
472.873	654.5
473.092	656.5
473.311	626.5
473.53	619.5
473.749	643.5
473.968	627.5
474.187	640.5
474.406	641.5
474.625	655.5
474.844	661.5
475.063	649.5
475.282	661.5
475.501	632.5
475.72	657.5
475.939	665.5
476.158	672.5
476.377	660.5
476.596	664.5
476.814	671.5
477.033	683.5
477.252	702.5
477.471	695.5
477.69	710.5
477.908	711.5
478.127	768.5
478.346	779.5
478.564	769.5
478.783	775.5
479.002	803.5
479.22	792.5
479.439	805.5
479.658	779.5
479.876	792.5
480.095	792.5
480.313	831.5
480.532	885.5
480.751	851.5
480.969	823.5
481.188	783.5
481.406	764.5
481.624	745.5
481.843	745.5
482.061	698.5
482.28	722.5
482.498	721.5
482.717	725.5
482.935	727.5
483.153	728.5
483.372	733.5
483.59	738.5
483.808	723.5
484.027	734.5
484.245	741.5
484.463	736.5
484.681	731.5
484.9	744.5
485.118	775.5
485.336	751.5
485.554	773.5
485.772	780.5
485.99	791.5
486.209	795.5
486.427	778.5
486.645	804.5
486.863	781.5
487.081	761.5
487.299	770.5
487.517	764.5
487.735	763.5
487.953	749.5
488.171	755.5
488.389	761.5
488.607	752.5
488.825	742.5
489.043	753.5
489.261	765.5
489.479	729.5
489.696	754.5
489.914	741.5
490.132	759.5
490.35	772.5
490.568	770.5
490.786	767.5
491.003	753.5
491.221	776.5
491.439	779.5
491.657	734.5
491.874	785.5
492.092	773.5
492.31	780.5
492.527	779.5
492.745	782.5
492.963	781.5
493.18	778.5
493.398	771.5
493.615	801.5
493.833	793.5
494.05	802.5
494.268	800.5
494.485	836.5
494.703	824.5
494.92	789.5
495.138	787.5
495.355	829.5
495.573	819.5
495.79	812.5
496.008	827.5
496.225	816.5
496.442	809.5
496.66	832.5
496.877	849.5
497.094	854.5
497.312	867.5
497.529	885.5
497.746	902.5
497.963	913.5
498.181	963.5
498.398	992.5
498.615	1079.5
498.832	1123.5
499.049	1210.5
499.267	1313.5
499.484	1465.5
499.701	1666.5
499.918	1827.5
500.135	2139.5
500.352	2484.5
500.569	2649.5
500.786	2554.5
501.003	2356.5
501.22	2072.5
501.437	1807.5
501.654	1562.5
501.871	1413.5
502.088	1289.5
502.305	1231.5
502.522	1146.5
502.739	1113.5
502.956	1039.5
503.172	991.5
503.389	947.5
503.606	951.5
503.823	913.5
504.04	929.5
504.256	914.5
504.473	973.5
504.69	989.5
504.907	975.5
505.123	891.5
505.34	833.5
505.557	785.5
505.773	797.5
505.99	776.5
506.207	758.5
506.423	752.5
506.64	728.5
506.856	717.5
507.073	711.5
507.289	714.5
507.506	752.5
507.722	695.5
507.939	715.5
508.155	704.5
508.372	695.5
508.588	673.5
508.805	683.5
509.021	671.5
509.238	679.5
509.454	660.5
509.67	663.5
509.887	656.5
510.103	685.5
510.319	670.5
510.536	663.5
510.752	662.5
510.968	693.5
511.184	668.5
511.401	665.5
511.617	664.5
511.833	680.5
512.049	660.5
512.265	676.5
512.481	671.5
512.698	641.5
512.914	670.5
513.13	650.5
513.346	657.5
513.562	655.5
513.778	660.5
513.994	663.5
514.21	690.5
514.426	678.5
514.642	642.5
514.858	668.5
515.074	680.5
515.29	680.5
515.506	693.5
515.721	693.5
515.937	692.5
516.153	734.5
516.369	723.5
516.585	746.5
516.801	785.5
517.016	830.5
517.232	860.5
517.448	899.5
517.664	921.5
517.879	959.5
518.095	963.5
518.311	935.5
518.527	879.5
518.742	844.5
518.958	785.5
519.173	773.5
519.389	743.5
519.605	730.5
519.82	695.5
520.036	695.5
520.251	698.5
520.467	692.5
520.682	691.5
520.898	673.5
521.113	659.5
521.329	662.5
521.544	642.5
521.76	651.5
521.975	622.5
522.19	653.5
522.406	631.5
522.621	629.5
522.836	617.5
523.052	616.5
523.267	638.5
523.482	651.5
523.698	617.5
523.913	637.5
524.128	647.5
524.343	608.5
524.559	623.5
524.774	608.5
524.989	633.5
525.204	609.5
525.419	623.5
525.634	606.5
525.849	603.5
526.064	616.5
526.28	605.5
526.495	609.5
526.71	610.5
526.925	605.5
527.14	590.5
527.355	596.5
527.57	624.5
527.785	596.5
527.999	612.5
528.214	602.5
528.429	630.5
528.644	603.5
528.859	624.5
529.074	591.5
529.289	627.5
529.503	620.5
529.718	604.5
529.933	609.5
530.148	587.5
530.363	604.5
530.577	591.5
530.792	619.5
531.007	610.5
531.221	634.5
531.436	614.5
531.651	613.5
531.865	604.5
532.08	626.5
532.295	607.5
532.509	621.5
532.724	611.5
532.938	605.5
533.153	605.5
533.367	627.5
533.582	616.5
533.796	591.5
534.011	608.5
534.225	602.5
534.44	603.5
534.654	605.5
534.868	592.5
535.083	589.5
535.297	605.5
535.511	593.5
535.726	596.5
535.94	612.5
536.154	580.5
536.369	584.5
536.583	581.5
536.797	557.5
537.011	571.5
537.225	563.5
537.44	555.5
537.654	565.5
537.868	575.5
538.082	556.5
538.296	548.5
538.51	556.5
538.724	547.5
538.938	531.5
539.153	543.5
539.367	555.5
539.581	567.5
539.795	540.5
540.009	563.5
540.222	548.5
540.436	537.5
540.65	535.5
540.864	543.5
541.078	543.5
541.292	540.5
541.506	547.5
541.72	521.5
541.934	554.5
542.147	548.5
542.361	555.5
542.575	530.5
542.789	529.5
543.002	533.5
543.216	533.5
543.43	533.5
543.644	547.5
543.857	524.5
544.071	539.5
544.285	547.5
544.498	542.5
544.712	546.5
544.925	517.5
545.139	558.5
545.352	563.5
545.566	563.5
545.779	547.5
545.993	568.5
546.206	544.5
546.42	559.5
546.633	566.5
546.847	574.5
547.06	547.5
547.274	544.5
547.487	553.5
547.7	569.5
547.914	533.5
548.127	583.5
548.34	563.5
548.554	545.5
548.767	565.5
548.98	540.5
549.193	561.5
549.407	565.5
549.62	580.5
549.833	592.5
550.046	582.5
550.259	554.5
550.473	550.5
550.686	549.5
550.899	533.5
551.112	544.5
551.325	555.5
551.538	555.5
551.751	544.5
551.964	556.5
552.177	552.5
552.39	555.5
552.603	576.5
552.816	579.5
553.029	599.5
553.242	603.5
553.455	613.5
553.667	620.5
553.88	630.5
554.093	588.5
554.306	578.5
554.519	583.5
554.732	540.5
554.944	554.5
555.157	529.5
555.37	516.5
555.583	519.5
555.795	500.5
556.008	493.5
556.221	506.5
556.433	505.5
556.646	475.5
556.859	476.5
557.071	494.5
557.284	490.5
557.496	495.5
557.709	475.5
557.921	459.5
558.134	499.5
558.346	466.5
558.559	467.5
558.771	460.5
558.984	475.5
559.196	473.5
559.409	449.5
559.621	469.5
559.833	460.5
560.046	458.5
560.258	459.5
560.47	455.5
560.683	476.5
560.895	460.5
561.107	465.5
561.32	461.5
561.532	463.5
561.744	461.5
561.956	472.5
562.168	476.5
562.381	465.5
562.593	461.5
562.805	477.5
563.017	462.5
563.229	468.5
563.441	477.5
563.653	459.5
563.865	461.5
564.077	446.5
564.289	480.5
564.501	476.5
564.713	492.5
564.925	505.5
565.137	503.5
565.349	517.5
565.561	536.5
565.773	547.5
565.985	575.5
566.197	595.5
566.408	612.5
566.62	672.5
566.832	747.5
567.044	791.5
567.255	773.5
567.467	776.5
567.679	822.5
567.891	909.5
568.102	943.5
568.314	887.5
568.526	799.5
568.737	721.5
568.949	653.5
569.161	597.5
569.372	542.5
569.584	502.5
569.795	511.5
570.007	481.5
570.218	479.5
570.43	495.5
570.641	458.5
570.853	465.5
571.064	497.5
571.276	495.5
571.487	480.5
571.698	440.5
571.91	442.5
572.121	424.5
572.333	414.5
572.544	427.5
572.755	423.5
572.966	419.5
573.178	378.5
573.389	400.5
573.6	397.5
573.811	401.5
574.023	407.5
574.234	397.5
574.445	404.5
574.656	384.5
574.867	392.5
575.078	397.5
575.289	374.5
575.501	373.5
575.712	374.5
575.923	372.5
576.134	375.5
576.345	374.5
576.556	362.5
576.767	357.5
576.978	361.5
577.188	377.5
577.399	371.5
577.61	353.5
577.821	350.5
578.032	372.5
578.243	375.5
578.454	332.5
578.665	352.5
578.875	352.5
579.086	347.5
579.297	352.5
579.508	347.5
579.718	339.5
579.929	358.5
580.14	340.5
580.35	351.5
580.561	351.5
580.772	354.5
580.982	339.5
581.193	341.5
581.403	352.5
581.614	340.5
581.825	340.5
582.035	330.5
582.246	331.5
582.456	323.5
582.667	332.5
582.877	328.5
583.087	334.5
583.298	327.5
583.508	321.5
583.719	333.5
583.929	341.5
584.139	334.5
584.35	331.5
584.56	343.5
584.77	328.5
584.981	319.5
585.191	339.5
585.401	334.5
585.611	320.5
585.821	324.5
586.032	340.5
586.242	310.5
586.452	323.5
586.662	319.5
586.872	329.5
587.082	307.5
587.292	301.5
587.502	333.5
587.713	310.5
587.923	315.5
588.133	318.5
588.343	343.5
588.553	311.5
588.762	320.5
588.972	316.5
589.182	327.5
589.392	324.5
589.602	319.5
589.812	319.5
590.022	310.5
590.232	308.5
590.441	332.5
590.651	303.5
590.861	329.5
591.071	311.5
591.281	324.5
591.49	341.5
591.7	338.5
591.91	351.5
592.119	325.5
592.329	347.5
592.539	336.5
592.748	385.5
592.958	365.5
593.167	389.5
593.377	388.5
593.587	415.5
593.796	401.5
594.006	401.5
594.215	431.5
594.424	410.5
594.634	390.5
594.843	389.5
595.053	371.5
595.262	356.5
595.472	343.5
595.681	324.5
595.89	322.5
596.1	323.5
596.309	334.5
596.518	322.5
596.727	300.5
596.937	309.5
597.146	300.5
597.355	298.5
597.564	284.5
597.774	301.5
597.983	290.5
598.192	272.5
598.401	290.5
598.61	289.5
598.819	279.5
599.028	283.5
599.237	265.5
599.446	280.5
599.655	277.5
599.864	290.5
600.073	271.5
600.282	269.5
600.491	270.5
600.7	268.5
600.909	295.5
601.118	275.5
601.327	263.5
601.536	285.5
601.745	265.5
601.953	273.5
602.162	294.5
602.371	277.5
602.58	281.5
602.789	264.5
602.997	279.5
603.206	255.5
603.415	252.5
603.623	265.5
603.832	260.5
604.041	267.5
604.249	248.5
604.458	259.5
604.666	252.5
604.875	271.5
605.084	247.5
605.292	239.5
605.501	242.5
605.709	259.5
605.918	278.5
606.126	258.5
606.334	251.5
606.543	247.5
606.751	255.5
606.96	261.5
607.168	256.5
607.376	248.5
607.585	247.5
607.793	241.5
608.001	255.5
608.21	226.5
608.418	242.5
608.626	253.5
608.834	257.5
609.043	267.5
609.251	239.5
609.459	255.5
609.667	257.5
609.875	240.5
610.083	235.5
610.291	246.5
610.499	237.5
610.707	234.5
610.916	233.5
611.124	242.5
611.332	239.5
611.54	259.5
611.748	244.5
611.955	228.5
612.163	228.5
612.371	243.5
612.579	235.5
612.787	232.5
612.995	232.5
613.203	236.5
613.411	231.5
613.618	232.5
613.826	243.5
614.034	235.5
614.242	227.5
614.449	211.5
614.657	230.5
614.865	243.5
615.072	250.5
615.28	242.5
615.488	239.5
615.695	237.5
615.903	243.5
616.111	240.5
616.318	243.5
616.526	238.5
616.733	249.5
616.941	242.5
617.148	239.5
617.356	262.5
617.563	256.5
617.771	277.5
617.978	247.5
618.185	240.5
618.393	248.5
618.6	244.5
618.807	229.5
619.015	233.5
619.222	223.5
619.429	240.5
619.637	224.5
619.844	244.5
620.051	220.5
620.258	240.5
620.466	221.5
620.673	210.5
620.88	215.5
621.087	231.5
621.294	234.5
621.501	223.5
621.708	224.5
621.915	218.5
622.122	226.5
622.329	227.5
622.536	224.5
622.743	215.5
622.95	221.5
623.157	220.5
623.364	220.5
623.571	218.5
623.778	203.5
623.985	197.5
624.192	214.5
624.399	207.5
624.606	201.5
624.812	220.5
625.019	205.5
625.226	208.5
625.433	211.5
625.639	200.5
625.846	217.5
626.053	197.5
626.259	207.5
626.466	208.5
626.673	210.5
626.879	205.5
627.086	201.5
627.293	201.5
627.499	210.5
627.706	204.5
627.912	207.5
628.119	189.5
628.325	203.5
628.532	213.5
628.738	215.5
628.945	200.5
629.151	205.5
629.357	217.5
629.564	213.5
629.77	200.5
629.976	185.5
630.183	196.5
630.389	200.5
630.595	193.5
630.802	179.5
631.008	199.5
631.214	201.5
631.42	199.5
631.627	202.5
631.833	192.5
632.039	191.5
632.245	177.5
632.451	181.5
632.657	198.5
632.863	203.5
633.069	185.5
633.275	200.5
633.481	179.5
633.688	202.5
633.893	183.5
634.099	199.5
634.305	175.5
634.511	172.5
634.717	175.5
634.923	172.5
635.129	175.5
635.335	169.5
635.541	188.5
635.747	192.5
635.952	171.5
636.158	174.5
636.364	169.5
636.57	175.5
636.775	175.5
636.981	181.5
637.187	177.5
637.392	173.5
637.598	191.5
637.804	172.5
638.009	184.5
638.215	168.5
638.421	173.5
638.626	176.5
638.832	175.5
639.037	181.5
639.243	163.5
639.448	172.5
639.654	173.5
639.859	158.5
640.065	170.5
640.27	161.5
640.475	164.5
640.681	167.5
640.886	181.5
641.091	167.5
641.297	184.5
641.502	173.5
641.707	150.5
641.913	164.5
642.118	168.5
642.323	153.5
642.528	163.5
642.733	169.5
642.939	164.5
643.144	163.5
643.349	160.5
643.554	174.5
643.759	170.5
643.964	162.5
644.169	178.5
644.374	160.5
644.579	168.5
644.784	159.5
644.989	180.5
645.194	167.5
645.399	159.5
645.604	165.5
645.809	172.5
646.014	176.5
646.219	165.5
646.423	160.5
646.628	155.5
646.833	154.5
647.038	174.5
647.243	168.5
647.447	184.5
647.652	171.5
647.857	187.5
648.062	167.5
648.266	189.5
648.471	183.5
648.676	183.5
648.88	164.5
649.085	167.5
649.289	167.5
649.494	165.5
649.698	149.5
649.903	156.5
650.107	147.5
650.312	156.5
650.516	154.5
650.721	142.5
650.925	153.5
651.13	145.5
651.334	150.5
651.539	148.5
651.743	138.5
651.947	141.5
652.152	154.5
652.356	138.5
652.56	155.5
652.764	145.5
652.969	131.5
653.173	136.5
653.377	138.5
653.581	139.5
653.785	131.5
653.99	144.5
654.194	135.5
654.398	121.5
654.602	121.5
654.806	113.5
655.01	145.5
655.214	119.5
655.418	126.5
655.622	123.5
655.826	130.5
656.03	114.5
656.234	117.5
656.438	121.5
656.642	131.5
656.846	112.5
657.049	103.5
657.253	101.5
657.457	115.5
657.661	112.5
657.865	86.5
658.068	101.5
658.272	100.5
658.476	95.5
658.68	99.5
658.883	100.5
659.087	100.5
659.291	95.5
659.494	101.5
659.698	95.5
659.901	93.5
660.105	101.5
660.309	92.5
660.512	89.5
660.716	105.5
660.919	110.5
661.123	107.5
661.326	86.5
661.53	92.5
661.733	91.5
661.936	91.5
662.14	73.5
662.343	83.5
662.546	69.5
662.75	89.5
662.953	82.5
663.156	83.5
663.36	90.5
663.563	76.5
663.766	99.5
663.969	75.5
664.173	82.5
664.376	82.5
664.579	76.5
664.782	89.5
664.985	86.5
665.188	61.5
665.391	78.5
665.594	79.5
665.797	88.5
666	84.5
666.203	62.5
666.406	77.5
666.609	76.5
666.812	82.5
667.015	81.5
667.218	78.5
667.421	90.5
667.624	87.5
667.827	81.5
668.03	81.5
668.232	77.5
668.435	91.5
668.638	83.5
668.841	80.5
669.043	78.5
669.246	91.5
669.449	83.5
669.651	92.5
669.854	84.5
670.057	78.5
670.259	68.5
670.462	83.5
670.665	91.5
670.867	89.5
671.07	78.5
671.272	79.5
671.475	81.5
671.677	95.5
671.88	79.5
672.082	84.5
672.284	94.5
672.487	90.5
672.689	80.5
672.892	67.5
