Data from Ni(NO3)2@0.0625M.TitratingCurve.Agarose3%dH2O.NegLispCup.LampEnergy10.LIBS07252019_HRD10591_18-14-38-569.txt Node
Date: Thu Jul 25 18:14:38 EDT 2019
User: cochatt
Spectrometer: HR+D1059
Trigger mode: 1
Integration Time (sec): 1.000000E-1
Scans to average: 1
Electric dark correction enabled: true
Nonlinearity correction enabled: false
Boxcar width: 0
XAxis mode: Wavelengths
Number of Pixels in Spectrum: 2048
>>>>>Begin Spectral Data<<<<<
223.165	-18.94
223.4	-18.94
223.635	-18.94
223.869	-31.94
224.104	-25.94
224.338	2.06
224.573	-13.94
224.808	6.06
225.042	-8.94
225.277	-5.94
225.511	-7.94
225.746	11.06
225.98	11.06
226.215	11.06
226.449	17.06
226.683	18.06
226.918	22.06
227.152	15.06
227.387	36.06
227.621	22.06
227.856	43.06
228.09	44.06
228.324	43.06
228.559	57.06
228.793	86.06
229.027	93.06
229.262	117.06
229.496	98.06
229.73	104.06
229.964	123.06
230.199	132.06
230.433	128.06
230.667	113.06
230.901	124.06
231.136	131.06
231.37	142.06
231.604	140.06
231.838	135.06
232.072	126.06
232.306	128.06
232.541	140.06
232.775	152.06
233.009	153.06
233.243	136.06
233.477	151.06
233.711	161.06
233.945	162.06
234.179	135.06
234.413	159.06
234.647	141.06
234.881	140.06
235.115	141.06
235.349	147.06
235.583	126.06
235.817	139.06
236.051	138.06
236.285	134.06
236.519	140.06
236.753	141.06
236.987	146.06
237.221	150.06
237.455	154.06
237.689	134.06
237.922	160.06
238.156	154.06
238.39	150.06
238.624	172.06
238.858	160.06
239.091	164.06
239.325	163.06
239.559	150.06
239.793	158.06
240.027	167.06
240.26	156.06
240.494	152.06
240.728	180.06
240.961	185.06
241.195	171.06
241.429	176.06
241.662	187.06
241.896	162.06
242.13	191.06
242.363	186.06
242.597	200.06
242.83	178.06
243.064	192.06
243.298	187.06
243.531	174.06
243.765	200.06
243.998	178.06
244.232	179.06
244.465	185.06
244.699	187.06
244.932	212.06
245.166	207.06
245.399	203.06
245.633	205.06
245.866	199.06
246.099	200.06
246.333	228.06
246.566	217.06
246.8	209.06
247.033	217.06
247.266	230.06
247.5	220.06
247.733	219.06
247.966	230.06
248.2	206.06
248.433	223.06
248.666	226.06
248.899	226.06
249.133	221.06
249.366	226.06
249.599	236.06
249.832	236.06
250.066	244.06
250.299	228.06
250.532	246.06
250.765	228.06
250.998	224.06
251.231	247.06
251.465	258.06
251.698	252.06
251.931	241.06
252.164	248.06
252.397	256.06
252.63	261.06
252.863	242.06
253.096	270.06
253.329	271.06
253.562	244.06
253.795	253.06
254.028	247.06
254.261	268.06
254.494	269.06
254.727	252.06
254.96	255.06
255.193	262.06
255.426	259.06
255.659	259.06
255.892	256.06
256.124	277.06
256.357	278.06
256.59	274.06
256.823	276.06
257.056	271.06
257.289	276.06
257.521	280.06
257.754	276.06
257.987	284.06
258.22	271.06
258.452	293.06
258.685	281.06
258.918	284.06
259.151	278.06
259.383	286.06
259.616	299.06
259.849	291.06
260.081	292.06
260.314	311.06
260.547	292.06
260.779	305.06
261.012	290.06
261.244	308.06
261.477	280.06
261.71	294.06
261.942	308.06
262.175	296.06
262.407	301.06
262.64	309.06
262.872	312.06
263.105	310.06
263.337	312.06
263.57	320.06
263.802	322.06
264.035	299.06
264.267	304.06
264.499	309.06
264.732	327.06
264.964	320.06
265.197	334.06
265.429	324.06
265.661	332.06
265.894	329.06
266.126	328.06
266.358	338.06
266.591	334.06
266.823	347.06
267.055	358.06
267.287	347.06
267.52	340.06
267.752	340.06
267.984	349.06
268.216	344.06
268.448	335.06
268.681	351.06
268.913	342.06
269.145	348.06
269.377	354.06
269.609	336.06
269.841	347.06
270.073	354.06
270.306	344.06
270.538	340.06
270.77	335.06
271.002	333.06
271.234	358.06
271.466	354.06
271.698	369.06
271.93	352.06
272.162	351.06
272.394	357.06
272.626	365.06
272.858	357.06
273.09	351.06
273.322	374.06
273.553	355.06
273.785	356.06
274.017	387.06
274.249	366.06
274.481	364.06
274.713	376.06
274.945	374.06
275.176	376.06
275.408	374.06
275.64	372.06
275.872	377.06
276.104	374.06
276.335	380.06
276.567	379.06
276.799	381.06
277.031	378.06
277.262	389.06
277.494	392.06
277.726	396.06
277.957	393.06
278.189	393.06
278.421	379.06
278.652	402.06
278.884	403.06
279.115	401.06
279.347	397.06
279.579	405.06
279.81	440.06
280.042	402.06
280.273	407.06
280.505	419.06
280.736	414.06
280.968	425.06
281.199	427.06
281.431	416.06
281.662	448.06
281.894	435.06
282.125	456.06
282.356	449.06
282.588	453.06
282.819	433.06
283.051	439.06
283.282	426.06
283.513	432.06
283.745	450.06
283.976	429.06
284.207	425.06
284.439	445.06
284.67	431.06
284.901	446.06
285.132	442.06
285.364	471.06
285.595	445.06
285.826	448.06
286.057	452.06
286.288	452.06
286.52	456.06
286.751	469.06
286.982	437.06
287.213	451.06
287.444	454.06
287.675	481.06
287.906	468.06
288.138	470.06
288.369	481.06
288.6	464.06
288.831	466.06
289.062	471.06
289.293	460.06
289.524	494.06
289.755	442.06
289.986	488.06
290.217	485.06
290.448	484.06
290.679	482.06
290.91	474.06
291.141	481.06
291.371	470.06
291.602	501.06
291.833	482.06
292.064	486.06
292.295	497.06
292.526	499.06
292.757	472.06
292.987	502.06
293.218	493.06
293.449	471.06
293.68	504.06
293.91	497.06
294.141	488.06
294.372	486.06
294.603	477.06
294.833	501.06
295.064	484.06
295.295	496.06
295.525	499.06
295.756	489.06
295.987	500.06
296.217	526.06
296.448	515.06
296.679	503.06
296.909	509.06
297.14	521.06
297.37	519.06
297.601	538.06
297.831	518.06
298.062	523.06
298.292	516.06
298.523	538.06
298.753	570.06
298.984	547.06
299.214	529.06
299.445	535.06
299.675	539.06
299.905	536.06
300.136	542.06
300.366	544.06
300.597	541.06
300.827	524.06
301.057	563.06
301.288	568.06
301.518	548.06
301.748	575.06
301.979	564.06
302.209	541.06
302.439	550.06
302.669	553.06
302.9	538.06
303.13	531.06
303.36	552.06
303.59	539.06
303.82	548.06
304.051	530.06
304.281	536.06
304.511	560.06
304.741	567.06
304.971	560.06
305.201	545.06
305.431	538.06
305.661	537.06
305.891	532.06
306.121	534.06
306.352	534.06
306.582	537.06
306.812	536.06
307.042	518.06
307.272	527.06
307.502	503.06
307.731	531.06
307.961	542.06
308.191	547.06
308.421	535.06
308.651	532.06
308.881	526.06
309.111	544.06
309.341	544.06
309.571	529.06
309.8	512.06
310.03	533.06
310.26	544.06
310.49	534.06
310.72	516.06
310.949	525.06
311.179	535.06
311.409	522.06
311.639	556.06
311.868	562.06
312.098	541.06
312.328	562.06
312.557	565.06
312.787	533.06
313.017	541.06
313.246	566.06
313.476	578.06
313.706	580.06
313.935	575.06
314.165	572.06
314.394	583.06
314.624	592.06
314.853	583.06
315.083	569.06
315.312	577.06
315.542	589.06
315.771	564.06
316.001	564.06
316.23	550.06
316.46	569.06
316.689	554.06
316.919	549.06
317.148	564.06
317.377	573.06
317.607	551.06
317.836	542.06
318.065	573.06
318.295	570.06
318.524	569.06
318.753	540.06
318.983	535.06
319.212	546.06
319.441	530.06
319.67	566.06
319.9	559.06
320.129	546.06
320.358	536.06
320.587	554.06
320.816	546.06
321.046	576.06
321.275	561.06
321.504	563.06
321.733	549.06
321.962	579.06
322.191	559.06
322.42	575.06
322.649	571.06
322.878	562.06
323.108	546.06
323.337	546.06
323.566	584.06
323.795	582.06
324.024	569.06
324.253	580.06
324.482	572.06
324.71	564.06
324.939	605.06
325.168	580.06
325.397	582.06
325.626	590.06
325.855	590.06
326.084	613.06
326.313	616.06
326.542	625.06
326.77	636.06
326.999	616.06
327.228	605.06
327.457	629.06
327.686	606.06
327.914	602.06
328.143	613.06
328.372	613.06
328.6	607.06
328.829	628.06
329.058	619.06
329.287	610.06
329.515	619.06
329.744	616.06
329.972	635.06
330.201	620.06
330.43	607.06
330.658	617.06
330.887	648.06
331.115	642.06
331.344	648.06
331.572	665.06
331.801	664.06
332.03	668.06
332.258	721.06
332.486	720.06
332.715	734.06
332.943	780.06
333.172	802.06
333.4	868.06
333.629	859.06
333.857	858.06
334.085	842.06
334.314	804.06
334.542	786.06
334.771	771.06
334.999	794.06
335.227	775.06
335.455	788.06
335.684	759.06
335.912	762.06
336.14	759.06
336.369	741.06
336.597	735.06
336.825	766.06
337.053	726.06
337.281	744.06
337.51	730.06
337.738	699.06
337.966	700.06
338.194	680.06
338.422	641.06
338.65	652.06
338.878	665.06
339.106	652.06
339.334	661.06
339.562	688.06
339.79	638.06
340.018	637.06
340.246	645.06
340.474	634.06
340.702	650.06
340.93	650.06
341.158	659.06
341.386	651.06
341.614	667.06
341.842	653.06
342.07	646.06
342.298	651.06
342.526	638.06
342.754	656.06
342.981	642.06
343.209	655.06
343.437	702.06
343.665	731.06
343.893	788.06
344.12	812.06
344.348	777.06
344.576	736.06
344.804	705.06
345.031	650.06
345.259	668.06
345.487	657.06
345.714	644.06
345.942	644.06
346.17	657.06
346.397	640.06
346.625	651.06
346.853	638.06
347.08	629.06
347.308	650.06
347.535	648.06
347.763	661.06
347.99	666.06
348.218	638.06
348.445	647.06
348.673	630.06
348.9	636.06
349.128	637.06
349.355	618.06
349.583	607.06
349.81	638.06
350.037	606.06
350.265	600.06
350.492	601.06
350.72	588.06
350.947	613.06
351.174	619.06
351.402	621.06
351.629	592.06
351.856	612.06
352.083	594.06
352.311	607.06
352.538	607.06
352.765	600.06
352.992	583.06
353.22	604.06
353.447	585.06
353.674	601.06
353.901	602.06
354.128	629.06
354.355	583.06
354.583	602.06
354.81	609.06
355.037	615.06
355.264	610.06
355.491	605.06
355.718	606.06
355.945	608.06
356.172	625.06
356.399	593.06
356.626	611.06
356.853	612.06
357.08	603.06
357.307	601.06
357.534	609.06
357.761	616.06
357.988	615.06
358.215	590.06
358.441	592.06
358.668	605.06
358.895	591.06
359.122	596.06
359.349	610.06
359.576	596.06
359.802	587.06
360.029	616.06
360.256	598.06
360.483	608.06
360.709	612.06
360.936	604.06
361.163	599.06
361.39	604.06
361.616	627.06
361.843	615.06
362.07	626.06
362.296	609.06
362.523	613.06
362.749	604.06
362.976	612.06
363.203	571.06
363.429	590.06
363.656	613.06
363.882	612.06
364.109	608.06
364.335	580.06
364.562	598.06
364.788	572.06
365.015	614.06
365.241	620.06
365.468	596.06
365.694	608.06
365.92	601.06
366.147	603.06
366.373	594.06
366.599	625.06
366.826	602.06
367.052	610.06
367.278	596.06
367.505	579.06
367.731	602.06
367.957	608.06
368.184	606.06
368.41	609.06
368.636	615.06
368.862	607.06
369.089	623.06
369.315	627.06
369.541	619.06
369.767	632.06
369.993	619.06
370.219	612.06
370.445	627.06
370.672	641.06
370.898	629.06
371.124	631.06
371.35	666.06
371.576	656.06
371.802	673.06
372.028	662.06
372.254	664.06
372.48	642.06
372.706	682.06
372.932	686.06
373.158	689.06
373.384	642.06
373.61	664.06
373.835	693.06
374.061	636.06
374.287	658.06
374.513	676.06
374.739	701.06
374.965	714.06
375.191	736.06
375.416	737.06
375.642	716.06
375.868	708.06
376.094	710.06
376.319	682.06
376.545	689.06
376.771	663.06
376.997	668.06
377.222	668.06
377.448	654.06
377.674	673.06
377.899	664.06
378.125	649.06
378.35	659.06
378.576	662.06
378.802	619.06
379.027	652.06
379.253	666.06
379.478	633.06
379.704	657.06
379.929	650.06
380.155	646.06
380.38	633.06
380.606	660.06
380.831	667.06
381.057	655.06
381.282	683.06
381.507	655.06
381.733	660.06
381.958	666.06
382.184	692.06
382.409	683.06
382.634	688.06
382.86	700.06
383.085	726.06
383.31	728.06
383.535	719.06
383.761	723.06
383.986	773.06
384.211	787.06
384.436	778.06
384.662	813.06
384.887	799.06
385.112	795.06
385.337	797.06
385.562	805.06
385.787	795.06
386.013	812.06
386.238	798.06
386.463	781.06
386.688	794.06
386.913	784.06
387.138	786.06
387.363	802.06
387.588	777.06
387.813	762.06
388.038	784.06
388.263	797.06
388.488	782.06
388.713	778.06
388.938	769.06
389.163	781.06
389.387	740.06
389.612	783.06
389.837	738.06
390.062	777.06
390.287	748.06
390.512	781.06
390.736	800.06
390.961	777.06
391.186	827.06
391.411	816.06
391.636	830.06
391.86	856.06
392.085	894.06
392.31	863.06
392.534	850.06
392.759	844.06
392.984	814.06
393.208	847.06
393.433	848.06
393.658	823.06
393.882	832.06
394.107	836.06
394.331	839.06
394.556	862.06
394.78	852.06
395.005	856.06
395.229	838.06
395.454	869.06
395.678	887.06
395.903	894.06
396.127	893.06
396.352	858.06
396.576	826.06
396.801	815.06
397.025	832.06
397.249	855.06
397.474	876.06
397.698	887.06
397.922	874.06
398.147	911.06
398.371	896.06
398.595	931.06
398.82	966.06
399.044	1018.06
399.268	1138.06
399.492	1355.06
399.717	1572.06
399.941	1570.06
400.165	1368.06
400.389	1206.06
400.613	1109.06
400.837	1032.06
401.062	1004.06
401.286	988.06
401.51	989.06
401.734	993.06
401.958	1012.06
402.182	994.06
402.406	1028.06
402.63	1058.06
402.854	1046.06
403.078	1088.06
403.302	1105.06
403.526	1111.06
403.75	1158.06
403.974	1136.06
404.198	1174.06
404.422	1175.06
404.645	1127.06
404.869	1172.06
405.093	1140.06
405.317	1095.06
405.541	1108.06
405.765	1101.06
405.988	1090.06
406.212	1069.06
406.436	1124.06
406.66	1113.06
406.883	1112.06
407.107	1221.06
407.331	1281.06
407.555	1320.06
407.778	1307.06
408.002	1284.06
408.226	1205.06
408.449	1194.06
408.673	1166.06
408.896	1136.06
409.12	1130.06
409.344	1152.06
409.567	1144.06
409.791	1170.06
410.014	1125.06
410.238	1133.06
410.461	1132.06
410.685	1117.06
410.908	1082.06
411.132	1080.06
411.355	1054.06
411.578	1031.06
411.802	1020.06
412.025	1048.06
412.249	1014.06
412.472	1058.06
412.695	1011.06
412.919	991.06
413.142	997.06
413.365	994.06
413.589	993.06
413.812	976.06
414.035	964.06
414.258	952.06
414.482	1006.06
414.705	1042.06
414.928	1022.06
415.151	995.06
415.374	1040.06
415.597	976.06
415.821	964.06
416.044	972.06
416.267	947.06
416.49	954.06
416.713	938.06
416.936	992.06
417.159	945.06
417.382	977.06
417.605	970.06
417.828	997.06
418.051	974.06
418.274	997.06
418.497	975.06
418.72	1011.06
418.943	1002.06
419.166	1072.06
419.389	1141.06
419.611	1120.06
419.834	1076.06
420.057	1011.06
420.28	1004.06
420.503	986.06
420.726	969.06
420.948	972.06
421.171	960.06
421.394	970.06
421.617	948.06
421.839	974.06
422.062	997.06
422.285	981.06
422.507	1011.06
422.73	1016.06
422.953	1039.06
423.175	1018.06
423.398	1066.06
423.621	1046.06
423.843	1074.06
424.066	1076.06
424.288	1053.06
424.511	1064.06
424.733	1019.06
424.956	994.06
425.178	989.06
425.401	983.06
425.623	969.06
425.846	955.06
426.068	973.06
426.291	929.06
426.513	933.06
426.735	918.06
426.958	912.06
427.18	902.06
427.402	891.06
427.625	890.06
427.847	882.06
428.069	870.06
428.292	872.06
428.514	858.06
428.736	878.06
428.958	885.06
429.181	861.06
429.403	836.06
429.625	846.06
429.847	848.06
430.069	858.06
430.292	859.06
430.514	857.06
430.736	857.06
430.958	828.06
431.18	859.06
431.402	863.06
431.624	837.06
431.846	866.06
432.068	891.06
432.29	902.06
432.512	901.06
432.734	878.06
432.956	867.06
433.178	898.06
433.4	861.06
433.622	895.06
433.844	900.06
434.066	887.06
434.287	902.06
434.509	942.06
434.731	973.06
434.953	1034.06
435.175	997.06
435.397	999.06
435.618	954.06
435.84	930.06
436.062	888.06
436.284	866.06
436.505	863.06
436.727	883.06
436.949	902.06
437.17	889.06
437.392	844.06
437.614	872.06
437.835	818.06
438.057	837.06
438.278	839.06
438.5	830.06
438.721	826.06
438.943	887.06
439.165	852.06
439.386	856.06
439.608	899.06
439.829	865.06
440.05	885.06
440.272	853.06
440.493	910.06
440.715	890.06
440.936	886.06
441.158	932.06
441.379	933.06
441.6	998.06
441.822	1030.06
442.043	1030.06
442.264	963.06
442.486	976.06
442.707	987.06
442.928	984.06
443.149	980.06
443.371	966.06
443.592	985.06
443.813	983.06
444.034	1004.06
444.255	1060.06
444.476	1088.06
444.698	1178.06
444.919	1221.06
445.14	1300.06
445.361	1132.06
445.582	1063.06
445.803	972.06
446.024	944.06
446.245	904.06
446.466	900.06
446.687	882.06
446.908	909.06
447.129	849.06
447.35	875.06
447.571	832.06
447.792	816.06
448.013	851.06
448.234	812.06
448.455	804.06
448.675	833.06
448.896	820.06
449.117	792.06
449.338	818.06
449.559	791.06
449.779	788.06
450	806.06
450.221	806.06
450.442	831.06
450.662	833.06
450.883	840.06
451.104	842.06
451.324	819.06
451.545	854.06
451.766	835.06
451.986	838.06
452.207	805.06
452.428	838.06
452.648	825.06
452.869	807.06
453.089	798.06
453.31	792.06
453.53	812.06
453.751	800.06
453.971	805.06
454.192	794.06
454.412	769.06
454.633	793.06
454.853	781.06
455.073	761.06
455.294	792.06
455.514	774.06
455.734	764.06
455.955	745.06
456.175	768.06
456.395	744.06
456.616	731.06
456.836	753.06
457.056	750.06
457.276	764.06
457.497	752.06
457.717	765.06
457.937	759.06
458.157	800.06
458.377	774.06
458.598	786.06
458.818	813.06
459.038	821.06
459.258	848.06
459.478	908.06
459.698	952.06
459.918	934.06
460.138	987.06
460.358	1049.06
460.578	1063.06
460.798	1047.06
461.018	1075.06
461.238	1033.06
461.458	1068.06
461.678	1035.06
461.898	1010.06
462.118	1062.06
462.338	1128.06
462.558	1144.06
462.777	1187.06
462.997	1301.06
463.217	1448.06
463.437	1511.06
463.657	1316.06
463.876	1212.06
464.096	1235.06
464.316	1248.06
464.536	1268.06
464.755	1228.06
464.975	1149.06
465.195	1067.06
465.414	1035.06
465.634	948.06
465.854	919.06
466.073	929.06
466.293	907.06
466.512	883.06
466.732	889.06
466.951	849.06
467.171	868.06
467.391	863.06
467.61	872.06
467.829	867.06
468.049	840.06
468.268	832.06
468.488	835.06
468.707	797.06
468.927	822.06
469.146	826.06
469.365	815.06
469.585	821.06
469.804	873.06
470.023	908.06
470.243	909.06
470.462	906.06
470.681	891.06
470.901	902.06
471.12	872.06
471.339	865.06
471.558	855.06
471.777	830.06
471.997	804.06
472.216	821.06
472.435	796.06
472.654	801.06
472.873	800.06
473.092	786.06
473.311	775.06
473.53	808.06
473.749	787.06
473.968	795.06
474.187	797.06
474.406	804.06
474.625	813.06
474.844	784.06
475.063	789.06
475.282	790.06
475.501	818.06
475.72	814.06
475.939	819.06
476.158	848.06
476.377	825.06
476.596	828.06
476.814	849.06
477.033	831.06
477.252	868.06
477.471	867.06
477.69	888.06
477.908	904.06
478.127	944.06
478.346	971.06
478.564	957.06
478.783	964.06
479.002	1021.06
479.22	1009.06
479.439	984.06
479.658	986.06
479.876	971.06
480.095	1016.06
480.313	1068.06
480.532	1088.06
480.751	1062.06
480.969	1036.06
481.188	989.06
481.406	968.06
481.624	957.06
481.843	905.06
482.061	895.06
482.28	892.06
482.498	893.06
482.717	905.06
482.935	899.06
483.153	884.06
483.372	902.06
483.59	902.06
483.808	911.06
484.027	928.06
484.245	933.06
484.463	895.06
484.681	937.06
484.9	930.06
485.118	934.06
485.336	954.06
485.554	967.06
485.772	968.06
485.99	963.06
486.209	968.06
486.427	967.06
486.645	949.06
486.863	946.06
487.081	977.06
487.299	984.06
487.517	954.06
487.735	962.06
487.953	969.06
488.171	938.06
488.389	944.06
488.607	930.06
488.825	953.06
489.043	930.06
489.261	928.06
489.479	960.06
489.696	936.06
489.914	958.06
490.132	956.06
490.35	936.06
490.568	976.06
490.786	988.06
491.003	940.06
491.221	965.06
491.439	964.06
491.657	948.06
491.874	973.06
492.092	954.06
492.31	958.06
492.527	994.06
492.745	976.06
492.963	990.06
493.18	989.06
493.398	984.06
493.615	993.06
493.833	1026.06
494.05	999.06
494.268	1024.06
494.485	1014.06
494.703	1002.06
494.92	1032.06
495.138	1009.06
495.355	998.06
495.573	1046.06
495.79	1015.06
496.008	1026.06
496.225	1033.06
496.442	1039.06
496.66	1076.06
496.877	1059.06
497.094	1082.06
497.312	1088.06
497.529	1120.06
497.746	1151.06
497.963	1173.06
498.181	1224.06
498.398	1280.06
498.615	1343.06
498.832	1418.06
499.049	1530.06
499.267	1690.06
499.484	1816.06
499.701	2030.06
499.918	2281.06
500.135	2596.06
500.352	3054.06
500.569	3179.06
500.786	3205.06
501.003	2949.06
501.22	2619.06
501.437	2268.06
501.654	1982.06
501.871	1784.06
502.088	1620.06
502.305	1536.06
502.522	1442.06
502.739	1396.06
502.956	1339.06
503.172	1261.06
503.389	1194.06
503.606	1148.06
503.823	1149.06
504.04	1127.06
504.256	1139.06
504.473	1211.06
504.69	1222.06
504.907	1215.06
505.123	1148.06
505.34	1070.06
505.557	1028.06
505.773	984.06
505.99	965.06
506.207	940.06
506.423	948.06
506.64	913.06
506.856	918.06
507.073	898.06
507.289	894.06
507.506	907.06
507.722	886.06
507.939	881.06
508.155	869.06
508.372	884.06
508.588	861.06
508.805	868.06
509.021	867.06
509.238	856.06
509.454	822.06
509.67	861.06
509.887	822.06
510.103	827.06
510.319	853.06
510.536	829.06
510.752	822.06
510.968	808.06
511.184	818.06
511.401	822.06
511.617	817.06
511.833	806.06
512.049	810.06
512.265	805.06
512.481	829.06
512.698	821.06
512.914	831.06
513.13	842.06
513.346	838.06
513.562	820.06
513.778	805.06
513.994	825.06
514.21	832.06
514.426	821.06
514.642	837.06
514.858	853.06
515.074	836.06
515.29	842.06
515.506	860.06
515.721	862.06
515.937	875.06
516.153	902.06
516.369	906.06
516.585	925.06
516.801	989.06
517.016	1019.06
517.232	1059.06
517.448	1141.06
517.664	1158.06
517.879	1188.06
518.095	1147.06
518.311	1160.06
518.527	1075.06
518.742	1056.06
518.958	991.06
519.173	978.06
519.389	952.06
519.605	906.06
519.82	874.06
520.036	857.06
520.251	873.06
520.467	864.06
520.682	841.06
520.898	840.06
521.113	802.06
521.329	834.06
521.544	802.06
521.76	794.06
521.975	789.06
522.19	786.06
522.406	782.06
522.621	761.06
522.836	752.06
523.052	786.06
523.267	779.06
523.482	759.06
523.698	739.06
523.913	752.06
524.128	755.06
524.343	782.06
524.559	775.06
524.774	753.06
524.989	761.06
525.204	749.06
525.419	746.06
525.634	763.06
525.849	772.06
526.064	760.06
526.28	745.06
526.495	739.06
526.71	750.06
526.925	730.06
527.14	752.06
527.355	767.06
527.57	754.06
527.785	768.06
527.999	746.06
528.214	764.06
528.429	781.06
528.644	766.06
528.859	745.06
529.074	757.06
529.289	773.06
529.503	732.06
529.718	738.06
529.933	750.06
530.148	742.06
530.363	770.06
530.577	742.06
530.792	740.06
531.007	761.06
531.221	752.06
531.436	756.06
531.651	765.06
531.865	780.06
532.08	739.06
532.295	757.06
532.509	722.06
532.724	737.06
532.938	730.06
533.153	760.06
533.367	756.06
533.582	758.06
533.796	757.06
534.011	750.06
534.225	742.06
534.44	722.06
534.654	733.06
534.868	735.06
535.083	734.06
535.297	728.06
535.511	731.06
535.726	734.06
535.94	749.06
536.154	735.06
536.369	720.06
536.583	721.06
536.797	707.06
537.011	721.06
537.225	735.06
537.44	721.06
537.654	689.06
537.868	680.06
538.082	681.06
538.296	678.06
538.51	688.06
538.724	708.06
538.938	669.06
539.153	690.06
539.367	707.06
539.581	662.06
539.795	651.06
540.009	678.06
540.222	681.06
540.436	677.06
540.65	672.06
540.864	664.06
541.078	653.06
541.292	681.06
541.506	652.06
541.72	656.06
541.934	669.06
542.147	664.06
542.361	663.06
542.575	668.06
542.789	647.06
543.002	668.06
543.216	664.06
543.43	652.06
543.644	644.06
543.857	672.06
544.071	673.06
544.285	675.06
544.498	683.06
544.712	657.06
544.925	652.06
545.139	661.06
545.352	689.06
545.566	679.06
545.779	675.06
545.993	686.06
546.206	701.06
546.42	702.06
546.633	674.06
546.847	684.06
547.06	670.06
547.274	670.06
547.487	669.06
547.7	670.06
547.914	655.06
548.127	690.06
548.34	708.06
548.554	696.06
548.767	698.06
548.98	692.06
549.193	667.06
549.407	675.06
549.62	708.06
549.833	718.06
550.046	701.06
550.259	676.06
550.473	664.06
550.686	687.06
550.899	683.06
551.112	692.06
551.325	660.06
551.538	666.06
551.751	662.06
551.964	667.06
552.177	678.06
552.39	661.06
552.603	713.06
552.816	720.06
553.029	736.06
553.242	762.06
553.455	759.06
553.667	755.06
553.88	770.06
554.093	728.06
554.306	668.06
554.519	717.06
554.732	684.06
554.944	677.06
555.157	676.06
555.37	636.06
555.583	642.06
555.795	666.06
556.008	611.06
556.221	612.06
556.433	628.06
556.646	586.06
556.859	604.06
557.071	595.06
557.284	606.06
557.496	582.06
557.709	576.06
557.921	587.06
558.134	589.06
558.346	591.06
558.559	595.06
558.771	587.06
558.984	571.06
559.196	556.06
559.409	556.06
559.621	560.06
559.833	577.06
560.046	569.06
560.258	560.06
560.47	582.06
560.683	566.06
560.895	560.06
561.107	560.06
561.32	578.06
561.532	584.06
561.744	568.06
561.956	564.06
562.168	574.06
562.381	568.06
562.593	572.06
562.805	572.06
563.017	586.06
563.229	577.06
563.441	588.06
563.653	585.06
563.865	583.06
564.077	581.06
564.289	574.06
564.501	594.06
564.713	596.06
564.925	609.06
565.137	597.06
565.349	633.06
565.561	660.06
565.773	663.06
565.985	702.06
566.197	721.06
566.408	769.06
566.62	877.06
566.832	946.06
567.044	952.06
567.255	977.06
567.467	963.06
567.679	1024.06
567.891	1108.06
568.102	1210.06
568.314	1104.06
568.526	987.06
568.737	884.06
568.949	812.06
569.161	755.06
569.372	670.06
569.584	644.06
569.795	621.06
570.007	623.06
570.218	587.06
570.43	576.06
570.641	592.06
570.853	602.06
571.064	608.06
571.276	616.06
571.487	584.06
571.698	565.06
571.91	544.06
572.121	552.06
572.333	506.06
572.544	502.06
572.755	499.06
572.966	486.06
573.178	517.06
573.389	490.06
573.6	487.06
573.811	502.06
574.023	460.06
574.234	475.06
574.445	468.06
574.656	481.06
574.867	496.06
575.078	482.06
575.289	470.06
575.501	475.06
575.712	467.06
575.923	444.06
576.134	460.06
576.345	468.06
576.556	468.06
576.767	445.06
576.978	460.06
577.188	452.06
577.399	444.06
577.61	411.06
577.821	431.06
578.032	434.06
578.243	450.06
578.454	419.06
578.665	442.06
578.875	444.06
579.086	423.06
579.297	405.06
579.508	421.06
579.718	438.06
579.929	427.06
580.14	403.06
580.35	392.06
580.561	410.06
580.772	418.06
580.982	396.06
581.193	412.06
581.403	416.06
581.614	410.06
581.825	419.06
582.035	425.06
582.246	408.06
582.456	401.06
582.667	405.06
582.877	403.06
583.087	414.06
583.298	392.06
583.508	398.06
583.719	402.06
583.929	399.06
584.139	404.06
584.35	378.06
584.56	357.06
584.77	398.06
584.981	394.06
585.191	401.06
585.401	390.06
585.611	378.06
585.821	401.06
586.032	392.06
586.242	398.06
586.452	393.06
586.662	393.06
586.872	401.06
587.082	378.06
587.292	389.06
587.502	385.06
587.713	385.06
587.923	393.06
588.133	403.06
588.343	402.06
588.553	390.06
588.762	388.06
588.972	379.06
589.182	408.06
589.392	383.06
589.602	380.06
589.812	371.06
590.022	395.06
590.232	397.06
590.441	389.06
590.651	371.06
590.861	392.06
591.071	381.06
591.281	388.06
591.49	397.06
591.7	408.06
591.91	422.06
592.119	396.06
592.329	428.06
592.539	446.06
592.748	462.06
592.958	440.06
593.167	453.06
593.377	496.06
593.587	484.06
593.796	499.06
594.006	490.06
594.215	515.06
594.424	510.06
594.634	495.06
594.843	450.06
595.053	462.06
595.262	422.06
595.472	413.06
595.681	404.06
595.89	408.06
596.1	404.06
596.309	385.06
596.518	381.06
596.727	354.06
596.937	364.06
597.146	364.06
597.355	361.06
597.564	380.06
597.774	348.06
597.983	336.06
598.192	348.06
598.401	345.06
598.61	333.06
598.819	336.06
599.028	347.06
599.237	342.06
599.446	320.06
599.655	343.06
599.864	332.06
600.073	318.06
600.282	325.06
600.491	335.06
600.7	322.06
600.909	339.06
601.118	345.06
601.327	327.06
601.536	318.06
601.745	320.06
601.953	320.06
602.162	334.06
602.371	314.06
602.58	334.06
602.789	304.06
602.997	352.06
603.206	329.06
603.415	321.06
603.623	324.06
603.832	298.06
604.041	314.06
604.249	302.06
604.458	311.06
604.666	312.06
604.875	300.06
605.084	282.06
605.292	294.06
605.501	293.06
605.709	317.06
605.918	308.06
606.126	293.06
606.334	300.06
606.543	307.06
606.751	312.06
606.96	296.06
607.168	306.06
607.376	294.06
607.585	311.06
607.793	304.06
608.001	320.06
608.21	300.06
608.418	262.06
608.626	296.06
608.834	290.06
609.043	296.06
609.251	292.06
609.459	276.06
609.667	294.06
609.875	284.06
610.083	305.06
610.291	311.06
610.499	295.06
610.707	272.06
610.916	265.06
611.124	291.06
611.332	284.06
611.54	268.06
611.748	279.06
611.955	286.06
612.163	298.06
612.371	284.06
612.579	287.06
612.787	277.06
612.995	282.06
613.203	291.06
613.411	294.06
613.618	269.06
613.826	273.06
614.034	270.06
614.242	263.06
614.449	269.06
614.657	285.06
614.865	296.06
615.072	270.06
615.28	294.06
615.488	282.06
615.695	306.06
615.903	295.06
616.111	276.06
616.318	301.06
616.526	296.06
616.733	295.06
616.941	289.06
617.148	291.06
617.356	281.06
617.563	275.06
617.771	290.06
617.978	301.06
618.185	291.06
618.393	302.06
618.6	281.06
618.807	274.06
619.015	288.06
619.222	286.06
619.429	286.06
619.637	252.06
619.844	266.06
620.051	273.06
620.258	271.06
620.466	281.06
620.673	233.06
620.88	251.06
621.087	254.06
621.294	269.06
621.501	270.06
621.708	258.06
621.915	264.06
622.122	274.06
622.329	272.06
622.536	258.06
622.743	277.06
622.95	266.06
623.157	251.06
623.364	269.06
623.571	255.06
623.778	246.06
623.985	241.06
624.192	248.06
624.399	233.06
624.606	259.06
624.812	247.06
625.019	258.06
625.226	260.06
625.433	253.06
625.639	261.06
625.846	226.06
626.053	224.06
626.259	240.06
626.466	233.06
626.673	238.06
626.879	235.06
627.086	235.06
627.293	199.06
627.499	233.06
627.706	226.06
627.912	243.06
628.119	240.06
628.325	243.06
628.532	246.06
628.738	233.06
628.945	235.06
629.151	222.06
629.357	228.06
629.564	232.06
629.77	230.06
629.976	224.06
630.183	234.06
630.389	237.06
630.595	225.06
630.802	215.06
631.008	213.06
631.214	220.06
631.42	223.06
631.627	218.06
631.833	213.06
632.039	209.06
632.245	219.06
632.451	213.06
632.657	219.06
632.863	211.06
633.069	228.06
633.275	214.06
633.481	208.06
633.688	203.06
633.893	212.06
634.099	203.06
634.305	204.06
634.511	215.06
634.717	203.06
634.923	233.06
635.129	211.06
635.335	218.06
635.541	197.06
635.747	221.06
635.952	194.06
636.158	207.06
636.364	199.06
636.57	203.06
636.775	196.06
636.981	211.06
637.187	211.06
637.392	196.06
637.598	204.06
637.804	201.06
638.009	188.06
638.215	214.06
638.421	180.06
638.626	190.06
638.832	218.06
639.037	192.06
639.243	197.06
639.448	220.06
639.654	197.06
639.859	169.06
640.065	196.06
640.27	185.06
640.475	178.06
640.681	201.06
640.886	195.06
641.091	184.06
641.297	222.06
641.502	195.06
641.707	196.06
641.913	184.06
642.118	177.06
642.323	182.06
642.528	202.06
642.733	198.06
642.939	188.06
643.144	193.06
643.349	192.06
643.554	203.06
643.759	188.06
643.964	188.06
644.169	173.06
644.374	183.06
644.579	187.06
644.784	200.06
644.989	190.06
645.194	181.06
645.399	180.06
645.604	189.06
645.809	203.06
646.014	190.06
646.219	184.06
646.423	180.06
646.628	188.06
646.833	200.06
647.038	177.06
647.243	198.06
647.447	188.06
647.652	182.06
647.857	195.06
648.062	204.06
648.266	197.06
648.471	203.06
648.676	206.06
648.88	186.06
649.085	186.06
649.289	203.06
649.494	190.06
649.698	193.06
649.903	183.06
650.107	164.06
650.312	166.06
650.516	174.06
650.721	187.06
650.925	156.06
651.13	159.06
651.334	165.06
651.539	176.06
651.743	178.06
651.947	161.06
652.152	147.06
652.356	160.06
652.56	162.06
652.764	144.06
652.969	148.06
653.173	146.06
653.377	150.06
653.581	165.06
653.785	136.06
653.99	138.06
654.194	133.06
654.398	163.06
654.602	143.06
654.806	161.06
655.01	139.06
655.214	125.06
655.418	152.06
655.622	146.06
655.826	134.06
656.03	144.06
656.234	133.06
656.438	147.06
656.642	149.06
656.846	141.06
657.049	126.06
657.253	140.06
657.457	126.06
657.661	129.06
657.865	112.06
658.068	125.06
658.272	110.06
658.476	102.06
658.68	108.06
658.883	106.06
659.087	110.06
659.291	108.06
659.494	104.06
659.698	104.06
659.901	106.06
660.105	71.06
660.309	92.06
660.512	92.06
660.716	93.06
660.919	86.06
661.123	89.06
661.326	96.06
661.53	85.06
661.733	84.06
661.936	85.06
662.14	83.06
662.343	97.06
662.546	79.06
662.75	84.06
662.953	77.06
663.156	82.06
663.36	72.06
663.563	90.06
663.766	90.06
663.969	76.06
664.173	86.06
664.376	68.06
664.579	91.06
664.782	78.06
664.985	72.06
665.188	92.06
665.391	94.06
665.594	88.06
665.797	87.06
666	72.06
666.203	88.06
666.406	80.06
666.609	79.06
666.812	71.06
667.015	83.06
667.218	91.06
667.421	72.06
667.624	86.06
667.827	76.06
668.03	80.06
668.232	75.06
668.435	77.06
668.638	80.06
668.841	80.06
669.043	91.06
669.246	86.06
669.449	73.06
669.651	90.06
669.854	86.06
670.057	75.06
670.259	79.06
670.462	98.06
670.665	61.06
670.867	88.06
671.07	83.06
671.272	76.06
671.475	82.06
671.677	90.06
671.88	83.06
672.082	77.06
672.284	74.06
672.487	82.06
672.689	88.06
672.892	96.06
