Data from Ni(NO3)2@0.5M.TitratingCurve.Agarose3%dH2O.NegLispCup.LampEnergy10.LIBS07252019_HRD10591_17-59-11-564.txt Node
Date: Thu Jul 25 17:59:11 EDT 2019
User: cochatt
Spectrometer: HR+D1059
Trigger mode: 1
Integration Time (sec): 1.000000E-1
Scans to average: 1
Electric dark correction enabled: true
Nonlinearity correction enabled: false
Boxcar width: 0
XAxis mode: Wavelengths
Number of Pixels in Spectrum: 2048
>>>>>Begin Spectral Data<<<<<
223.165	-4.12
223.4	-4.12
223.635	-4.12
223.869	-23.12
224.104	1.88
224.338	-12.12
224.573	-10.12
224.808	-11.12
225.042	-16.12
225.277	0.88
225.511	-20.12
225.746	-0.12
225.98	8.88
226.215	7.88
226.449	4.88
226.683	23.88
226.918	27.88
227.152	20.88
227.387	32.88
227.621	39.88
227.856	33.88
228.09	57.88
228.324	47.88
228.559	61.88
228.793	64.88
229.027	98.88
229.262	106.88
229.496	76.88
229.73	90.88
229.964	124.88
230.199	126.88
230.433	132.88
230.667	128.88
230.901	120.88
231.136	122.88
231.37	105.88
231.604	120.88
231.838	154.88
232.072	133.88
232.306	131.88
232.541	126.88
232.775	125.88
233.009	125.88
233.243	108.88
233.477	124.88
233.711	126.88
233.945	124.88
234.179	127.88
234.413	138.88
234.647	117.88
234.881	127.88
235.115	138.88
235.349	124.88
235.583	109.88
235.817	117.88
236.051	124.88
236.285	125.88
236.519	110.88
236.753	132.88
236.987	110.88
237.221	128.88
237.455	132.88
237.689	131.88
237.922	140.88
238.156	152.88
238.39	136.88
238.624	135.88
238.858	129.88
239.091	141.88
239.325	131.88
239.559	145.88
239.793	152.88
240.027	159.88
240.26	133.88
240.494	143.88
240.728	136.88
240.961	140.88
241.195	134.88
241.429	148.88
241.662	142.88
241.896	158.88
242.13	167.88
242.363	156.88
242.597	150.88
242.83	153.88
243.064	146.88
243.298	137.88
243.531	147.88
243.765	161.88
243.998	160.88
244.232	157.88
244.465	143.88
244.699	151.88
244.932	150.88
245.166	150.88
245.399	164.88
245.633	145.88
245.866	176.88
246.099	160.88
246.333	156.88
246.566	151.88
246.8	159.88
247.033	168.88
247.266	155.88
247.5	142.88
247.733	143.88
247.966	170.88
248.2	162.88
248.433	179.88
248.666	186.88
248.899	170.88
249.133	162.88
249.366	151.88
249.599	151.88
249.832	175.88
250.066	181.88
250.299	172.88
250.532	174.88
250.765	176.88
250.998	183.88
251.231	212.88
251.465	195.88
251.698	193.88
251.931	206.88
252.164	194.88
252.397	184.88
252.63	190.88
252.863	178.88
253.096	192.88
253.329	185.88
253.562	187.88
253.795	192.88
254.028	195.88
254.261	173.88
254.494	207.88
254.727	209.88
254.96	206.88
255.193	200.88
255.426	200.88
255.659	208.88
255.892	179.88
256.124	207.88
256.357	202.88
256.59	202.88
256.823	207.88
257.056	217.88
257.289	220.88
257.521	204.88
257.754	210.88
257.987	216.88
258.22	212.88
258.452	197.88
258.685	208.88
258.918	193.88
259.151	226.88
259.383	223.88
259.616	199.88
259.849	212.88
260.081	210.88
260.314	208.88
260.547	207.88
260.779	230.88
261.012	225.88
261.244	239.88
261.477	225.88
261.71	213.88
261.942	213.88
262.175	243.88
262.407	215.88
262.64	217.88
262.872	229.88
263.105	229.88
263.337	240.88
263.57	232.88
263.802	236.88
264.035	230.88
264.267	236.88
264.499	246.88
264.732	234.88
264.964	244.88
265.197	231.88
265.429	236.88
265.661	236.88
265.894	246.88
266.126	233.88
266.358	233.88
266.591	231.88
266.823	251.88
267.055	244.88
267.287	242.88
267.52	238.88
267.752	247.88
267.984	260.88
268.216	243.88
268.448	254.88
268.681	230.88
268.913	254.88
269.145	260.88
269.377	251.88
269.609	254.88
269.841	243.88
270.073	243.88
270.306	238.88
270.538	262.88
270.77	255.88
271.002	252.88
271.234	268.88
271.466	261.88
271.698	254.88
271.93	258.88
272.162	262.88
272.394	277.88
272.626	272.88
272.858	273.88
273.09	269.88
273.322	285.88
273.553	285.88
273.785	281.88
274.017	277.88
274.249	270.88
274.481	287.88
274.713	287.88
274.945	290.88
275.176	290.88
275.408	300.88
275.64	289.88
275.872	278.88
276.104	294.88
276.335	280.88
276.567	286.88
276.799	274.88
277.031	283.88
277.262	286.88
277.494	304.88
277.726	300.88
277.957	274.88
278.189	296.88
278.421	284.88
278.652	291.88
278.884	290.88
279.115	300.88
279.347	300.88
279.579	301.88
279.81	300.88
280.042	310.88
280.273	326.88
280.505	314.88
280.736	307.88
280.968	294.88
281.199	314.88
281.431	324.88
281.662	310.88
281.894	302.88
282.125	298.88
282.356	300.88
282.588	299.88
282.819	323.88
283.051	309.88
283.282	323.88
283.513	320.88
283.745	307.88
283.976	303.88
284.207	316.88
284.439	333.88
284.67	308.88
284.901	329.88
285.132	332.88
285.364	331.88
285.595	322.88
285.826	319.88
286.057	325.88
286.288	342.88
286.52	331.88
286.751	311.88
286.982	315.88
287.213	327.88
287.444	326.88
287.675	327.88
287.906	336.88
288.138	331.88
288.369	348.88
288.6	322.88
288.831	342.88
289.062	359.88
289.293	338.88
289.524	330.88
289.755	347.88
289.986	324.88
290.217	354.88
290.448	345.88
290.679	341.88
290.91	339.88
291.141	336.88
291.371	332.88
291.602	348.88
291.833	333.88
292.064	335.88
292.295	342.88
292.526	332.88
292.757	351.88
292.987	355.88
293.218	347.88
293.449	349.88
293.68	332.88
293.91	346.88
294.141	356.88
294.372	350.88
294.603	340.88
294.833	348.88
295.064	344.88
295.295	348.88
295.525	349.88
295.756	356.88
295.987	350.88
296.217	370.88
296.448	367.88
296.679	361.88
296.909	333.88
297.14	354.88
297.37	374.88
297.601	347.88
297.831	353.88
298.062	354.88
298.292	381.88
298.523	379.88
298.753	398.88
298.984	365.88
299.214	369.88
299.445	371.88
299.675	381.88
299.905	394.88
300.136	387.88
300.366	406.88
300.597	405.88
300.827	390.88
301.057	397.88
301.288	379.88
301.518	398.88
301.748	412.88
301.979	383.88
302.209	382.88
302.439	386.88
302.669	396.88
302.9	371.88
303.13	401.88
303.36	417.88
303.59	420.88
303.82	403.88
304.051	407.88
304.281	390.88
304.511	389.88
304.741	386.88
304.971	415.88
305.201	411.88
305.431	414.88
305.661	400.88
305.891	421.88
306.121	396.88
306.352	408.88
306.582	400.88
306.812	388.88
307.042	392.88
307.272	376.88
307.502	381.88
307.731	399.88
307.961	370.88
308.191	398.88
308.421	406.88
308.651	386.88
308.881	381.88
309.111	393.88
309.341	401.88
309.571	399.88
309.8	402.88
310.03	409.88
310.26	423.88
310.49	431.88
310.72	412.88
310.949	401.88
311.179	401.88
311.409	407.88
311.639	403.88
311.868	391.88
312.098	412.88
312.328	420.88
312.557	424.88
312.787	426.88
313.017	418.88
313.246	431.88
313.476	417.88
313.706	424.88
313.935	434.88
314.165	444.88
314.394	400.88
314.624	416.88
314.853	431.88
315.083	425.88
315.312	440.88
315.542	442.88
315.771	428.88
316.001	413.88
316.23	440.88
316.46	429.88
316.689	440.88
316.919	420.88
317.148	418.88
317.377	425.88
317.607	441.88
317.836	430.88
318.065	407.88
318.295	441.88
318.524	414.88
318.753	427.88
318.983	421.88
319.212	421.88
319.441	444.88
319.67	430.88
319.9	423.88
320.129	446.88
320.358	445.88
320.587	435.88
320.816	442.88
321.046	441.88
321.275	439.88
321.504	434.88
321.733	440.88
321.962	467.88
322.191	456.88
322.42	447.88
322.649	447.88
322.878	448.88
323.108	451.88
323.337	462.88
323.566	468.88
323.795	477.88
324.024	454.88
324.253	458.88
324.482	468.88
324.71	468.88
324.939	456.88
325.168	481.88
325.397	457.88
325.626	469.88
325.855	464.88
326.084	454.88
326.313	469.88
326.542	491.88
326.77	460.88
326.999	461.88
327.228	476.88
327.457	486.88
327.686	483.88
327.914	482.88
328.143	462.88
328.372	472.88
328.6	471.88
328.829	488.88
329.058	486.88
329.287	474.88
329.515	491.88
329.744	492.88
329.972	470.88
330.201	498.88
330.43	495.88
330.658	485.88
330.887	494.88
331.115	491.88
331.344	505.88
331.572	496.88
331.801	524.88
332.03	527.88
332.258	526.88
332.486	508.88
332.715	534.88
332.943	544.88
333.172	547.88
333.4	551.88
333.629	585.88
333.857	572.88
334.085	573.88
334.314	569.88
334.542	572.88
334.771	585.88
334.999	576.88
335.227	590.88
335.455	550.88
335.684	601.88
335.912	603.88
336.14	587.88
336.369	588.88
336.597	575.88
336.825	584.88
337.053	576.88
337.281	586.88
337.51	564.88
337.738	584.88
337.966	564.88
338.194	562.88
338.422	543.88
338.65	535.88
338.878	528.88
339.106	576.88
339.334	556.88
339.562	558.88
339.79	532.88
340.018	527.88
340.246	532.88
340.474	504.88
340.702	508.88
340.93	531.88
341.158	560.88
341.386	570.88
341.614	585.88
341.842	540.88
342.07	545.88
342.298	516.88
342.526	535.88
342.754	525.88
342.981	517.88
343.209	528.88
343.437	559.88
343.665	585.88
343.893	579.88
344.12	570.88
344.348	576.88
344.576	577.88
344.804	607.88
345.031	553.88
345.259	549.88
345.487	535.88
345.714	547.88
345.942	567.88
346.17	544.88
346.397	543.88
346.625	532.88
346.853	520.88
347.08	533.88
347.308	518.88
347.535	495.88
347.763	509.88
347.99	513.88
348.218	490.88
348.445	495.88
348.673	506.88
348.9	480.88
349.128	529.88
349.355	510.88
349.583	534.88
349.81	525.88
350.037	484.88
350.265	494.88
350.492	501.88
350.72	506.88
350.947	500.88
351.174	499.88
351.402	558.88
351.629	546.88
351.856	518.88
352.083	507.88
352.311	529.88
352.538	559.88
352.765	538.88
352.992	503.88
353.22	512.88
353.447	493.88
353.674	484.88
353.901	496.88
354.128	486.88
354.355	505.88
354.583	468.88
354.81	474.88
355.037	501.88
355.264	500.88
355.491	482.88
355.718	493.88
355.945	494.88
356.172	512.88
356.399	500.88
356.626	493.88
356.853	520.88
357.08	506.88
357.307	494.88
357.534	485.88
357.761	511.88
357.988	500.88
358.215	508.88
358.441	501.88
358.668	486.88
358.895	493.88
359.122	485.88
359.349	480.88
359.576	507.88
359.802	491.88
360.029	501.88
360.256	491.88
360.483	467.88
360.709	505.88
360.936	493.88
361.163	519.88
361.39	486.88
361.616	498.88
361.843	538.88
362.07	541.88
362.296	530.88
362.523	523.88
362.749	516.88
362.976	487.88
363.203	477.88
363.429	475.88
363.656	488.88
363.882	507.88
364.109	503.88
364.335	518.88
364.562	497.88
364.788	508.88
365.015	525.88
365.241	479.88
365.468	495.88
365.694	499.88
365.92	505.88
366.147	490.88
366.373	495.88
366.599	512.88
366.826	486.88
367.052	500.88
367.278	486.88
367.505	514.88
367.731	523.88
367.957	503.88
368.184	530.88
368.41	504.88
368.636	535.88
368.862	514.88
369.089	507.88
369.315	534.88
369.541	507.88
369.767	505.88
369.993	502.88
370.219	517.88
370.445	540.88
370.672	560.88
370.898	507.88
371.124	528.88
371.35	543.88
371.576	525.88
371.802	548.88
372.028	532.88
372.254	528.88
372.48	542.88
372.706	548.88
372.932	554.88
373.158	543.88
373.384	550.88
373.61	550.88
373.835	542.88
374.061	541.88
374.287	541.88
374.513	554.88
374.739	569.88
374.965	548.88
375.191	545.88
375.416	556.88
375.642	541.88
375.868	549.88
376.094	547.88
376.319	536.88
376.545	544.88
376.771	543.88
376.997	546.88
377.222	534.88
377.448	538.88
377.674	534.88
377.899	505.88
378.125	528.88
378.35	516.88
378.576	517.88
378.802	543.88
379.027	532.88
379.253	532.88
379.478	531.88
379.704	527.88
379.929	509.88
380.155	537.88
380.38	540.88
380.606	536.88
380.831	527.88
381.057	542.88
381.282	519.88
381.507	546.88
381.733	525.88
381.958	548.88
382.184	546.88
382.409	515.88
382.634	554.88
382.86	547.88
383.085	546.88
383.31	561.88
383.535	587.88
383.761	553.88
383.986	561.88
384.211	572.88
384.436	590.88
384.662	578.88
384.887	616.88
385.112	582.88
385.337	589.88
385.562	603.88
385.787	607.88
386.013	631.88
386.238	608.88
386.463	624.88
386.688	646.88
386.913	621.88
387.138	620.88
387.363	631.88
387.588	603.88
387.813	599.88
388.038	628.88
388.263	614.88
388.488	618.88
388.713	620.88
388.938	610.88
389.163	594.88
389.387	638.88
389.612	628.88
389.837	624.88
390.062	612.88
390.287	606.88
390.512	611.88
390.736	620.88
390.961	640.88
391.186	636.88
391.411	642.88
391.636	618.88
391.86	658.88
392.085	668.88
392.31	685.88
392.534	671.88
392.759	667.88
392.984	647.88
393.208	652.88
393.433	656.88
393.658	660.88
393.882	645.88
394.107	622.88
394.331	638.88
394.556	638.88
394.78	653.88
395.005	642.88
395.229	662.88
395.454	656.88
395.678	656.88
395.903	661.88
396.127	655.88
396.352	667.88
396.576	654.88
396.801	674.88
397.025	670.88
397.249	705.88
397.474	656.88
397.698	687.88
397.922	711.88
398.147	684.88
398.371	667.88
398.595	739.88
398.82	726.88
399.044	764.88
399.268	834.88
399.492	846.88
399.717	892.88
399.941	888.88
400.165	876.88
400.389	834.88
400.613	819.88
400.837	782.88
401.062	772.88
401.286	756.88
401.51	742.88
401.734	764.88
401.958	739.88
402.182	750.88
402.406	738.88
402.63	733.88
402.854	751.88
403.078	743.88
403.302	781.88
403.526	785.88
403.75	771.88
403.974	776.88
404.198	773.88
404.422	773.88
404.645	793.88
404.869	751.88
405.093	742.88
405.317	771.88
405.541	788.88
405.765	768.88
405.988	760.88
406.212	786.88
406.436	792.88
406.66	811.88
406.883	811.88
407.107	837.88
407.331	888.88
407.555	851.88
407.778	888.88
408.002	866.88
408.226	874.88
408.449	867.88
408.673	828.88
408.896	811.88
409.12	815.88
409.344	816.88
409.567	834.88
409.791	811.88
410.014	810.88
410.238	793.88
410.461	798.88
410.685	787.88
410.908	774.88
411.132	796.88
411.355	777.88
411.578	761.88
411.802	743.88
412.025	770.88
412.249	797.88
412.472	778.88
412.695	764.88
412.919	787.88
413.142	779.88
413.365	763.88
413.589	768.88
413.812	728.88
414.035	741.88
414.258	772.88
414.482	719.88
414.705	732.88
414.928	755.88
415.151	766.88
415.374	745.88
415.597	742.88
415.821	707.88
416.044	723.88
416.267	732.88
416.49	740.88
416.713	728.88
416.936	759.88
417.159	723.88
417.382	716.88
417.605	707.88
417.828	717.88
418.051	759.88
418.274	745.88
418.497	732.88
418.72	745.88
418.943	739.88
419.166	783.88
419.389	814.88
419.611	792.88
419.834	758.88
420.057	749.88
420.28	711.88
420.503	731.88
420.726	732.88
420.948	706.88
421.171	718.88
421.394	725.88
421.617	726.88
421.839	755.88
422.062	701.88
422.285	716.88
422.507	744.88
422.73	718.88
422.953	715.88
423.175	716.88
423.398	719.88
423.621	728.88
423.843	740.88
424.066	759.88
424.288	741.88
424.511	710.88
424.733	722.88
424.956	738.88
425.178	748.88
425.401	739.88
425.623	719.88
425.846	671.88
426.068	711.88
426.291	706.88
426.513	714.88
426.735	726.88
426.958	722.88
427.18	665.88
427.402	687.88
427.625	691.88
427.847	675.88
428.069	696.88
428.292	690.88
428.514	693.88
428.736	708.88
428.958	696.88
429.181	664.88
429.403	687.88
429.625	680.88
429.847	679.88
430.069	676.88
430.292	694.88
430.514	678.88
430.736	684.88
430.958	677.88
431.18	681.88
431.402	683.88
431.624	693.88
431.846	690.88
432.068	692.88
432.29	661.88
432.512	679.88
432.734	724.88
432.956	716.88
433.178	700.88
433.4	713.88
433.622	736.88
433.844	718.88
434.066	709.88
434.287	721.88
434.509	733.88
434.731	718.88
434.953	727.88
435.175	751.88
435.397	731.88
435.618	732.88
435.84	724.88
436.062	677.88
436.284	708.88
436.505	696.88
436.727	692.88
436.949	685.88
437.17	702.88
437.392	640.88
437.614	672.88
437.835	646.88
438.057	670.88
438.278	634.88
438.5	646.88
438.721	690.88
438.943	683.88
439.165	664.88
439.386	674.88
439.608	691.88
439.829	684.88
440.05	704.88
440.272	685.88
440.493	716.88
440.715	697.88
440.936	707.88
441.158	718.88
441.379	707.88
441.6	754.88
441.822	732.88
442.043	731.88
442.264	714.88
442.486	746.88
442.707	733.88
442.928	720.88
443.149	743.88
443.371	730.88
443.592	768.88
443.813	752.88
444.034	736.88
444.255	756.88
444.476	779.88
444.698	827.88
444.919	820.88
445.14	868.88
445.361	842.88
445.582	777.88
445.803	757.88
446.024	727.88
446.245	733.88
446.466	737.88
446.687	710.88
446.908	704.88
447.129	679.88
447.35	708.88
447.571	682.88
447.792	646.88
448.013	661.88
448.234	657.88
448.455	646.88
448.675	637.88
448.896	643.88
449.117	649.88
449.338	670.88
449.559	628.88
449.779	628.88
450	619.88
450.221	629.88
450.442	652.88
450.662	650.88
450.883	635.88
451.104	672.88
451.324	642.88
451.545	644.88
451.766	638.88
451.986	628.88
452.207	601.88
452.428	638.88
452.648	631.88
452.869	602.88
453.089	638.88
453.31	647.88
453.53	623.88
453.751	589.88
453.971	618.88
454.192	651.88
454.412	626.88
454.633	629.88
454.853	596.88
455.073	623.88
455.294	595.88
455.514	587.88
455.734	647.88
455.955	648.88
456.175	630.88
456.395	619.88
456.616	599.88
456.836	593.88
457.056	602.88
457.276	603.88
457.497	615.88
457.717	633.88
457.937	656.88
458.157	646.88
458.377	626.88
458.598	621.88
458.818	660.88
459.038	658.88
459.258	670.88
459.478	715.88
459.698	748.88
459.918	751.88
460.138	751.88
460.358	767.88
460.578	745.88
460.798	768.88
461.018	790.88
461.238	778.88
461.458	765.88
461.678	749.88
461.898	789.88
462.118	766.88
462.338	770.88
462.558	834.88
462.777	853.88
462.997	874.88
463.217	892.88
463.437	922.88
463.657	901.88
463.876	874.88
464.096	840.88
464.316	877.88
464.536	858.88
464.755	830.88
464.975	802.88
465.195	776.88
465.414	762.88
465.634	733.88
465.854	701.88
466.073	700.88
466.293	717.88
466.512	685.88
466.732	671.88
466.951	659.88
467.171	667.88
467.391	661.88
467.61	676.88
467.829	662.88
468.049	637.88
468.268	645.88
468.488	645.88
468.707	661.88
468.927	671.88
469.146	681.88
469.365	670.88
469.585	644.88
469.804	650.88
470.023	674.88
470.243	664.88
470.462	664.88
470.681	694.88
470.901	678.88
471.12	636.88
471.339	665.88
471.558	664.88
471.777	661.88
471.997	669.88
472.216	666.88
472.435	640.88
472.654	644.88
472.873	650.88
473.092	661.88
473.311	646.88
473.53	646.88
473.749	658.88
473.968	668.88
474.187	653.88
474.406	650.88
474.625	631.88
474.844	656.88
475.063	685.88
475.282	658.88
475.501	684.88
475.72	666.88
475.939	639.88
476.158	674.88
476.377	692.88
476.596	672.88
476.814	668.88
477.033	676.88
477.252	689.88
477.471	714.88
477.69	723.88
477.908	730.88
478.127	745.88
478.346	712.88
478.564	738.88
478.783	766.88
479.002	772.88
479.22	784.88
479.439	780.88
479.658	768.88
479.876	776.88
480.095	757.88
480.313	794.88
480.532	772.88
480.751	791.88
480.969	779.88
481.188	792.88
481.406	756.88
481.624	751.88
481.843	738.88
482.061	745.88
482.28	730.88
482.498	720.88
482.717	731.88
482.935	720.88
483.153	746.88
483.372	774.88
483.59	778.88
483.808	758.88
484.027	780.88
484.245	754.88
484.463	761.88
484.681	760.88
484.9	758.88
485.118	761.88
485.336	784.88
485.554	772.88
485.772	784.88
485.99	792.88
486.209	782.88
486.427	761.88
486.645	794.88
486.863	777.88
487.081	791.88
487.299	742.88
487.517	753.88
487.735	793.88
487.953	785.88
488.171	808.88
488.389	776.88
488.607	805.88
488.825	780.88
489.043	765.88
489.261	753.88
489.479	762.88
489.696	767.88
489.914	796.88
490.132	756.88
490.35	792.88
490.568	786.88
490.786	797.88
491.003	781.88
491.221	791.88
491.439	783.88
491.657	812.88
491.874	819.88
492.092	822.88
492.31	824.88
492.527	816.88
492.745	824.88
492.963	804.88
493.18	814.88
493.398	823.88
493.615	820.88
493.833	808.88
494.05	806.88
494.268	803.88
494.485	812.88
494.703	832.88
494.92	819.88
495.138	824.88
495.355	843.88
495.573	836.88
495.79	856.88
496.008	869.88
496.225	850.88
496.442	842.88
496.66	855.88
496.877	876.88
497.094	866.88
497.312	910.88
497.529	938.88
497.746	944.88
497.963	952.88
498.181	999.88
498.398	984.88
498.615	1033.88
498.832	1076.88
499.049	1092.88
499.267	1205.88
499.484	1233.88
499.701	1325.88
499.918	1394.88
500.135	1513.88
500.352	1538.88
500.569	1588.88
500.786	1574.88
501.003	1538.88
501.22	1455.88
501.437	1337.88
501.654	1294.88
501.871	1240.88
502.088	1156.88
502.305	1100.88
502.522	1068.88
502.739	1067.88
502.956	1019.88
503.172	981.88
503.389	950.88
503.606	917.88
503.823	922.88
504.04	907.88
504.256	897.88
504.473	896.88
504.69	879.88
504.907	866.88
505.123	868.88
505.34	822.88
505.557	812.88
505.773	776.88
505.99	790.88
506.207	774.88
506.423	746.88
506.64	766.88
506.856	734.88
507.073	715.88
507.289	730.88
507.506	718.88
507.722	724.88
507.939	700.88
508.155	708.88
508.372	695.88
508.588	694.88
508.805	701.88
509.021	718.88
509.238	674.88
509.454	670.88
509.67	661.88
509.887	668.88
510.103	661.88
510.319	680.88
510.536	668.88
510.752	652.88
510.968	659.88
511.184	658.88
511.401	645.88
511.617	657.88
511.833	658.88
512.049	651.88
512.265	646.88
512.481	634.88
512.698	623.88
512.914	654.88
513.13	669.88
513.346	637.88
513.562	654.88
513.778	640.88
513.994	661.88
514.21	652.88
514.426	662.88
514.642	642.88
514.858	669.88
515.074	638.88
515.29	683.88
515.506	682.88
515.721	696.88
515.937	716.88
516.153	709.88
516.369	698.88
516.585	706.88
516.801	713.88
517.016	728.88
517.232	735.88
517.448	750.88
517.664	749.88
517.879	746.88
518.095	776.88
518.311	746.88
518.527	743.88
518.742	747.88
518.958	716.88
519.173	680.88
519.389	703.88
519.605	682.88
519.82	683.88
520.036	646.88
520.251	650.88
520.467	658.88
520.682	647.88
520.898	627.88
521.113	647.88
521.329	642.88
521.544	628.88
521.76	646.88
521.975	616.88
522.19	609.88
522.406	615.88
522.621	614.88
522.836	603.88
523.052	607.88
523.267	590.88
523.482	605.88
523.698	591.88
523.913	574.88
524.128	587.88
524.343	579.88
524.559	602.88
524.774	622.88
524.989	606.88
525.204	604.88
525.419	601.88
525.634	603.88
525.849	616.88
526.064	582.88
526.28	589.88
526.495	599.88
526.71	564.88
526.925	575.88
527.14	570.88
527.355	588.88
527.57	550.88
527.785	588.88
527.999	571.88
528.214	586.88
528.429	575.88
528.644	604.88
528.859	595.88
529.074	579.88
529.289	579.88
529.503	581.88
529.718	578.88
529.933	575.88
530.148	571.88
530.363	591.88
530.577	571.88
530.792	578.88
531.007	551.88
531.221	571.88
531.436	580.88
531.651	575.88
531.865	562.88
532.08	583.88
532.295	574.88
532.509	548.88
532.724	555.88
532.938	561.88
533.153	573.88
533.367	566.88
533.582	549.88
533.796	570.88
534.011	566.88
534.225	544.88
534.44	556.88
534.654	563.88
534.868	540.88
535.083	578.88
535.297	540.88
535.511	547.88
535.726	542.88
535.94	542.88
536.154	525.88
536.369	520.88
536.583	551.88
536.797	516.88
537.011	519.88
537.225	540.88
537.44	545.88
537.654	531.88
537.868	530.88
538.082	513.88
538.296	516.88
538.51	518.88
538.724	517.88
538.938	550.88
539.153	533.88
539.367	526.88
539.581	531.88
539.795	517.88
540.009	511.88
540.222	542.88
540.436	535.88
540.65	500.88
540.864	530.88
541.078	519.88
541.292	538.88
541.506	536.88
541.72	528.88
541.934	562.88
542.147	550.88
542.361	534.88
542.575	524.88
542.789	524.88
543.002	523.88
543.216	522.88
543.43	516.88
543.644	500.88
543.857	514.88
544.071	520.88
544.285	533.88
544.498	516.88
544.712	531.88
544.925	530.88
545.139	521.88
545.352	511.88
545.566	528.88
545.779	528.88
545.993	503.88
546.206	534.88
546.42	543.88
546.633	548.88
546.847	517.88
547.06	529.88
547.274	541.88
547.487	528.88
547.7	520.88
547.914	549.88
548.127	515.88
548.34	542.88
548.554	532.88
548.767	512.88
548.98	508.88
549.193	539.88
549.407	528.88
549.62	525.88
549.833	540.88
550.046	533.88
550.259	512.88
550.473	526.88
550.686	543.88
550.899	516.88
551.112	524.88
551.325	532.88
551.538	509.88
551.751	526.88
551.964	500.88
552.177	522.88
552.39	525.88
552.603	528.88
552.816	560.88
553.029	534.88
553.242	554.88
553.455	529.88
553.667	556.88
553.88	552.88
554.093	531.88
554.306	527.88
554.519	503.88
554.732	511.88
554.944	508.88
555.157	501.88
555.37	492.88
555.583	508.88
555.795	501.88
556.008	492.88
556.221	498.88
556.433	466.88
556.646	458.88
556.859	470.88
557.071	472.88
557.284	462.88
557.496	498.88
557.709	446.88
557.921	462.88
558.134	467.88
558.346	466.88
558.559	477.88
558.771	467.88
558.984	459.88
559.196	445.88
559.409	443.88
559.621	448.88
559.833	456.88
560.046	465.88
560.258	443.88
560.47	453.88
560.683	438.88
560.895	444.88
561.107	439.88
561.32	440.88
561.532	442.88
561.744	451.88
561.956	451.88
562.168	449.88
562.381	448.88
562.593	447.88
562.805	458.88
563.017	440.88
563.229	462.88
563.441	456.88
563.653	449.88
563.865	466.88
564.077	470.88
564.289	464.88
564.501	429.88
564.713	464.88
564.925	491.88
565.137	458.88
565.349	487.88
565.561	507.88
565.773	496.88
565.985	526.88
566.197	526.88
566.408	515.88
566.62	557.88
566.832	581.88
567.044	597.88
567.255	599.88
567.467	575.88
567.679	589.88
567.891	610.88
568.102	603.88
568.314	586.88
568.526	559.88
568.737	550.88
568.949	541.88
569.161	504.88
569.372	496.88
569.584	476.88
569.795	474.88
570.007	456.88
570.218	447.88
570.43	434.88
570.641	431.88
570.853	434.88
571.064	426.88
571.276	422.88
571.487	441.88
571.698	391.88
571.91	420.88
572.121	401.88
572.333	400.88
572.544	390.88
572.755	390.88
572.966	377.88
573.178	392.88
573.389	366.88
573.6	354.88
573.811	364.88
574.023	385.88
574.234	370.88
574.445	371.88
574.656	362.88
574.867	357.88
575.078	356.88
575.289	355.88
575.501	355.88
575.712	360.88
575.923	341.88
576.134	351.88
576.345	350.88
576.556	352.88
576.767	343.88
576.978	340.88
577.188	334.88
577.399	348.88
577.61	328.88
577.821	339.88
578.032	343.88
578.243	340.88
578.454	335.88
578.665	326.88
578.875	336.88
579.086	335.88
579.297	333.88
579.508	325.88
579.718	328.88
579.929	316.88
580.14	326.88
580.35	314.88
580.561	315.88
580.772	330.88
580.982	324.88
581.193	312.88
581.403	319.88
581.614	299.88
581.825	324.88
582.035	318.88
582.246	310.88
582.456	316.88
582.667	327.88
582.877	330.88
583.087	311.88
583.298	298.88
583.508	306.88
583.719	333.88
583.929	308.88
584.139	297.88
584.35	300.88
584.56	314.88
584.77	310.88
584.981	299.88
585.191	326.88
585.401	314.88
585.611	318.88
585.821	294.88
586.032	302.88
586.242	318.88
586.452	314.88
586.662	327.88
586.872	301.88
587.082	291.88
587.292	318.88
587.502	300.88
587.713	305.88
587.923	312.88
588.133	283.88
588.343	283.88
588.553	297.88
588.762	302.88
588.972	307.88
589.182	320.88
589.392	310.88
589.602	312.88
589.812	329.88
590.022	306.88
590.232	316.88
590.441	321.88
590.651	308.88
590.861	288.88
591.071	306.88
591.281	312.88
591.49	311.88
591.7	303.88
591.91	319.88
592.119	313.88
592.329	330.88
592.539	307.88
592.748	324.88
592.958	338.88
593.167	320.88
593.377	333.88
593.587	343.88
593.796	336.88
594.006	341.88
594.215	335.88
594.424	348.88
594.634	333.88
594.843	320.88
595.053	316.88
595.262	314.88
595.472	296.88
595.681	308.88
595.89	296.88
596.1	288.88
596.309	297.88
596.518	285.88
596.727	282.88
596.937	296.88
597.146	296.88
597.355	276.88
597.564	264.88
597.774	290.88
597.983	281.88
598.192	275.88
598.401	291.88
598.61	270.88
598.819	253.88
599.028	270.88
599.237	272.88
599.446	255.88
599.655	271.88
599.864	259.88
600.073	252.88
600.282	244.88
600.491	248.88
600.7	261.88
600.909	260.88
601.118	261.88
601.327	263.88
601.536	261.88
601.745	238.88
601.953	242.88
602.162	258.88
602.371	244.88
602.58	273.88
602.789	251.88
602.997	258.88
603.206	239.88
603.415	256.88
603.623	261.88
603.832	228.88
604.041	253.88
604.249	241.88
604.458	244.88
604.666	239.88
604.875	242.88
605.084	230.88
605.292	240.88
605.501	247.88
605.709	245.88
605.918	241.88
606.126	234.88
606.334	243.88
606.543	225.88
606.751	244.88
606.96	239.88
607.168	242.88
607.376	232.88
607.585	238.88
607.793	245.88
608.001	232.88
608.21	230.88
608.418	256.88
608.626	241.88
608.834	234.88
609.043	227.88
609.251	235.88
609.459	243.88
609.667	232.88
609.875	242.88
610.083	226.88
610.291	228.88
610.499	221.88
610.707	242.88
610.916	221.88
611.124	234.88
611.332	253.88
611.54	240.88
611.748	239.88
611.955	243.88
612.163	238.88
612.371	226.88
612.579	226.88
612.787	217.88
612.995	237.88
613.203	242.88
613.411	242.88
613.618	214.88
613.826	224.88
614.034	231.88
614.242	226.88
614.449	204.88
614.657	216.88
614.865	231.88
615.072	203.88
615.28	222.88
615.488	221.88
615.695	218.88
615.903	214.88
616.111	236.88
616.318	226.88
616.526	218.88
616.733	235.88
616.941	240.88
617.148	231.88
617.356	232.88
617.563	218.88
617.771	226.88
617.978	222.88
618.185	228.88
618.393	208.88
618.6	218.88
618.807	208.88
619.015	222.88
619.222	221.88
619.429	219.88
619.637	219.88
619.844	222.88
620.051	212.88
620.258	218.88
620.466	209.88
620.673	207.88
620.88	213.88
621.087	211.88
621.294	224.88
621.501	206.88
621.708	226.88
621.915	213.88
622.122	203.88
622.329	207.88
622.536	223.88
622.743	190.88
622.95	210.88
623.157	196.88
623.364	221.88
623.571	210.88
623.778	209.88
623.985	225.88
624.192	190.88
624.399	210.88
624.606	212.88
624.812	212.88
625.019	202.88
625.226	216.88
625.433	214.88
625.639	200.88
625.846	206.88
626.053	191.88
626.259	195.88
626.466	206.88
626.673	187.88
626.879	194.88
627.086	193.88
627.293	205.88
627.499	205.88
627.706	204.88
627.912	197.88
628.119	193.88
628.325	201.88
628.532	199.88
628.738	192.88
628.945	200.88
629.151	203.88
629.357	184.88
629.564	187.88
629.77	194.88
629.976	177.88
630.183	199.88
630.389	178.88
630.595	204.88
630.802	201.88
631.008	174.88
631.214	185.88
631.42	192.88
631.627	201.88
631.833	197.88
632.039	175.88
632.245	194.88
632.451	197.88
632.657	201.88
632.863	209.88
633.069	186.88
633.275	209.88
633.481	199.88
633.688	202.88
633.893	196.88
634.099	178.88
634.305	181.88
634.511	184.88
634.717	186.88
634.923	182.88
635.129	183.88
635.335	165.88
635.541	179.88
635.747	182.88
635.952	176.88
636.158	174.88
636.364	183.88
636.57	174.88
636.775	191.88
636.981	178.88
637.187	181.88
637.392	196.88
637.598	178.88
637.804	183.88
638.009	182.88
638.215	185.88
638.421	189.88
638.626	174.88
638.832	190.88
639.037	175.88
639.243	176.88
639.448	187.88
639.654	194.88
639.859	179.88
640.065	165.88
640.27	165.88
640.475	174.88
640.681	184.88
640.886	175.88
641.091	198.88
641.297	186.88
641.502	185.88
641.707	173.88
641.913	171.88
642.118	165.88
642.323	171.88
642.528	164.88
642.733	175.88
642.939	178.88
643.144	173.88
643.349	177.88
643.554	194.88
643.759	179.88
643.964	184.88
644.169	178.88
644.374	169.88
644.579	170.88
644.784	165.88
644.989	171.88
645.194	157.88
645.399	162.88
645.604	172.88
645.809	171.88
646.014	154.88
646.219	178.88
646.423	162.88
646.628	187.88
646.833	188.88
647.038	175.88
647.243	179.88
647.447	157.88
647.652	171.88
647.857	181.88
648.062	194.88
648.266	171.88
648.471	188.88
648.676	162.88
648.88	187.88
649.085	173.88
649.289	173.88
649.494	182.88
649.698	167.88
649.903	186.88
650.107	165.88
650.312	183.88
650.516	155.88
650.721	175.88
650.925	178.88
651.13	150.88
651.334	153.88
651.539	169.88
651.743	178.88
651.947	156.88
652.152	180.88
652.356	171.88
652.56	156.88
652.764	155.88
652.969	142.88
653.173	163.88
653.377	158.88
653.581	170.88
653.785	145.88
653.99	145.88
654.194	168.88
654.398	167.88
654.602	151.88
654.806	160.88
655.01	153.88
655.214	159.88
655.418	154.88
655.622	174.88
655.826	158.88
656.03	151.88
656.234	157.88
656.438	178.88
656.642	179.88
656.846	148.88
657.049	142.88
657.253	150.88
657.457	147.88
657.661	151.88
657.865	142.88
658.068	117.88
658.272	133.88
658.476	138.88
658.68	138.88
658.883	114.88
659.087	118.88
659.291	123.88
659.494	108.88
659.698	106.88
659.901	100.88
660.105	101.88
660.309	102.88
660.512	101.88
660.716	102.88
660.919	117.88
661.123	115.88
661.326	81.88
661.53	105.88
661.733	93.88
661.936	87.88
662.14	85.88
662.343	90.88
662.546	82.88
662.75	87.88
662.953	85.88
663.156	91.88
663.36	76.88
663.563	91.88
663.766	72.88
663.969	91.88
664.173	92.88
664.376	84.88
664.579	89.88
664.782	95.88
664.985	80.88
665.188	77.88
665.391	92.88
665.594	88.88
665.797	94.88
666	93.88
666.203	70.88
666.406	80.88
666.609	81.88
666.812	94.88
667.015	90.88
667.218	87.88
667.421	77.88
667.624	69.88
667.827	84.88
668.03	70.88
668.232	82.88
668.435	91.88
668.638	87.88
668.841	106.88
669.043	90.88
669.246	72.88
669.449	93.88
669.651	90.88
669.854	84.88
670.057	91.88
670.259	91.88
670.462	95.88
670.665	84.88
670.867	82.88
671.07	77.88
671.272	89.88
671.475	85.88
671.677	93.88
671.88	77.88
672.082	91.88
672.284	94.88
672.487	93.88
672.689	88.88
672.892	80.88
