Data from Ni(NO3)2@0.0625M.TitratingCurve.Agarose3%dH2O.NegLispCup.LampEnergy10.LIBS07252019_HRD10591_18-14-42-569.txt Node
Date: Thu Jul 25 18:14:42 EDT 2019
User: cochatt
Spectrometer: HR+D1059
Trigger mode: 1
Integration Time (sec): 1.000000E-1
Scans to average: 1
Electric dark correction enabled: true
Nonlinearity correction enabled: false
Boxcar width: 0
XAxis mode: Wavelengths
Number of Pixels in Spectrum: 2048
>>>>>Begin Spectral Data<<<<<
223.165	-19.06
223.4	-19.06
223.635	-19.06
223.869	-33.06
224.104	-20.06
224.338	-20.06
224.573	-3.06
224.808	-3.06
225.042	-9.06
225.277	-4.06
225.511	1.94
225.746	2.94
225.98	-0.06
226.215	10.94
226.449	10.94
226.683	18.94
226.918	25.94
227.152	39.94
227.387	46.94
227.621	36.94
227.856	50.94
228.09	43.94
228.324	39.94
228.559	52.94
228.793	69.94
229.027	114.94
229.262	108.94
229.496	103.94
229.73	114.94
229.964	126.94
230.199	113.94
230.433	119.94
230.667	125.94
230.901	119.94
231.136	120.94
231.37	140.94
231.604	132.94
231.838	146.94
232.072	131.94
232.306	136.94
232.541	137.94
232.775	125.94
233.009	142.94
233.243	133.94
233.477	143.94
233.711	127.94
233.945	142.94
234.179	152.94
234.413	155.94
234.647	145.94
234.881	144.94
235.115	148.94
235.349	134.94
235.583	149.94
235.817	147.94
236.051	163.94
236.285	147.94
236.519	139.94
236.753	150.94
236.987	161.94
237.221	151.94
237.455	147.94
237.689	159.94
237.922	156.94
238.156	159.94
238.39	158.94
238.624	145.94
238.858	167.94
239.091	158.94
239.325	156.94
239.559	162.94
239.793	165.94
240.027	173.94
240.26	165.94
240.494	171.94
240.728	161.94
240.961	181.94
241.195	184.94
241.429	177.94
241.662	176.94
241.896	185.94
242.13	185.94
242.363	178.94
242.597	185.94
242.83	187.94
243.064	183.94
243.298	194.94
243.531	198.94
243.765	195.94
243.998	198.94
244.232	189.94
244.465	210.94
244.699	198.94
244.932	186.94
245.166	213.94
245.399	197.94
245.633	222.94
245.866	207.94
246.099	213.94
246.333	203.94
246.566	210.94
246.8	212.94
247.033	203.94
247.266	204.94
247.5	232.94
247.733	219.94
247.966	214.94
248.2	229.94
248.433	212.94
248.666	217.94
248.899	226.94
249.133	212.94
249.366	229.94
249.599	223.94
249.832	233.94
250.066	224.94
250.299	234.94
250.532	253.94
250.765	249.94
250.998	237.94
251.231	225.94
251.465	233.94
251.698	235.94
251.931	233.94
252.164	245.94
252.397	257.94
252.63	232.94
252.863	251.94
253.096	253.94
253.329	260.94
253.562	262.94
253.795	254.94
254.028	252.94
254.261	255.94
254.494	268.94
254.727	270.94
254.96	258.94
255.193	274.94
255.426	266.94
255.659	250.94
255.892	282.94
256.124	269.94
256.357	268.94
256.59	285.94
256.823	265.94
257.056	270.94
257.289	271.94
257.521	286.94
257.754	280.94
257.987	286.94
258.22	298.94
258.452	292.94
258.685	303.94
258.918	280.94
259.151	295.94
259.383	294.94
259.616	278.94
259.849	285.94
260.081	280.94
260.314	312.94
260.547	305.94
260.779	302.94
261.012	292.94
261.244	295.94
261.477	314.94
261.71	312.94
261.942	312.94
262.175	296.94
262.407	314.94
262.64	282.94
262.872	310.94
263.105	298.94
263.337	304.94
263.57	307.94
263.802	313.94
264.035	310.94
264.267	317.94
264.499	319.94
264.732	308.94
264.964	341.94
265.197	331.94
265.429	322.94
265.661	331.94
265.894	341.94
266.126	330.94
266.358	329.94
266.591	334.94
266.823	327.94
267.055	346.94
267.287	347.94
267.52	334.94
267.752	345.94
267.984	348.94
268.216	341.94
268.448	325.94
268.681	325.94
268.913	346.94
269.145	358.94
269.377	341.94
269.609	363.94
269.841	365.94
270.073	337.94
270.306	333.94
270.538	341.94
270.77	350.94
271.002	356.94
271.234	359.94
271.466	355.94
271.698	346.94
271.93	351.94
272.162	345.94
272.394	364.94
272.626	374.94
272.858	366.94
273.09	357.94
273.322	372.94
273.553	369.94
273.785	368.94
274.017	383.94
274.249	385.94
274.481	374.94
274.713	389.94
274.945	378.94
275.176	384.94
275.408	399.94
275.64	365.94
275.872	392.94
276.104	407.94
276.335	384.94
276.567	389.94
276.799	391.94
277.031	385.94
277.262	392.94
277.494	397.94
277.726	395.94
277.957	407.94
278.189	387.94
278.421	407.94
278.652	405.94
278.884	401.94
279.115	402.94
279.347	416.94
279.579	411.94
279.81	404.94
280.042	421.94
280.273	434.94
280.505	409.94
280.736	407.94
280.968	416.94
281.199	422.94
281.431	409.94
281.662	435.94
281.894	429.94
282.125	434.94
282.356	453.94
282.588	443.94
282.819	440.94
283.051	452.94
283.282	436.94
283.513	435.94
283.745	445.94
283.976	455.94
284.207	444.94
284.439	448.94
284.67	455.94
284.901	449.94
285.132	449.94
285.364	457.94
285.595	425.94
285.826	463.94
286.057	455.94
286.288	473.94
286.52	465.94
286.751	461.94
286.982	474.94
287.213	469.94
287.444	476.94
287.675	470.94
287.906	483.94
288.138	467.94
288.369	458.94
288.6	493.94
288.831	513.94
289.062	505.94
289.293	454.94
289.524	514.94
289.755	474.94
289.986	506.94
290.217	501.94
290.448	489.94
290.679	490.94
290.91	496.94
291.141	499.94
291.371	498.94
291.602	506.94
291.833	495.94
292.064	493.94
292.295	483.94
292.526	484.94
292.757	487.94
292.987	480.94
293.218	485.94
293.449	501.94
293.68	506.94
293.91	514.94
294.141	494.94
294.372	497.94
294.603	520.94
294.833	509.94
295.064	499.94
295.295	493.94
295.525	513.94
295.756	511.94
295.987	527.94
296.217	526.94
296.448	519.94
296.679	511.94
296.909	521.94
297.14	507.94
297.37	531.94
297.601	546.94
297.831	550.94
298.062	546.94
298.292	532.94
298.523	558.94
298.753	548.94
298.984	543.94
299.214	559.94
299.445	549.94
299.675	545.94
299.905	526.94
300.136	529.94
300.366	546.94
300.597	552.94
300.827	543.94
301.057	570.94
301.288	586.94
301.518	609.94
301.748	582.94
301.979	553.94
302.209	577.94
302.439	551.94
302.669	565.94
302.9	560.94
303.13	549.94
303.36	546.94
303.59	570.94
303.82	549.94
304.051	551.94
304.281	573.94
304.511	571.94
304.741	553.94
304.971	545.94
305.201	552.94
305.431	577.94
305.661	563.94
305.891	560.94
306.121	542.94
306.352	556.94
306.582	542.94
306.812	562.94
307.042	550.94
307.272	580.94
307.502	557.94
307.731	559.94
307.961	533.94
308.191	549.94
308.421	532.94
308.651	571.94
308.881	552.94
309.111	565.94
309.341	544.94
309.571	553.94
309.8	547.94
310.03	545.94
310.26	548.94
310.49	562.94
310.72	581.94
310.949	569.94
311.179	573.94
311.409	581.94
311.639	565.94
311.868	572.94
312.098	579.94
312.328	594.94
312.557	586.94
312.787	592.94
313.017	575.94
313.246	565.94
313.476	597.94
313.706	614.94
313.935	591.94
314.165	604.94
314.394	616.94
314.624	615.94
314.853	596.94
315.083	593.94
315.312	600.94
315.542	593.94
315.771	605.94
316.001	595.94
316.23	547.94
316.46	586.94
316.689	578.94
316.919	584.94
317.148	585.94
317.377	577.94
317.607	581.94
317.836	584.94
318.065	581.94
318.295	571.94
318.524	594.94
318.753	574.94
318.983	573.94
319.212	583.94
319.441	590.94
319.67	590.94
319.9	580.94
320.129	607.94
320.358	597.94
320.587	597.94
320.816	581.94
321.046	602.94
321.275	605.94
321.504	605.94
321.733	582.94
321.962	595.94
322.191	593.94
322.42	566.94
322.649	588.94
322.878	582.94
323.108	603.94
323.337	602.94
323.566	595.94
323.795	618.94
324.024	604.94
324.253	615.94
324.482	603.94
324.71	599.94
324.939	612.94
325.168	606.94
325.397	609.94
325.626	607.94
325.855	611.94
326.084	630.94
326.313	637.94
326.542	649.94
326.77	645.94
326.999	655.94
327.228	632.94
327.457	650.94
327.686	632.94
327.914	651.94
328.143	661.94
328.372	643.94
328.6	626.94
328.829	658.94
329.058	650.94
329.287	664.94
329.515	648.94
329.744	655.94
329.972	639.94
330.201	655.94
330.43	658.94
330.658	665.94
330.887	659.94
331.115	679.94
331.344	708.94
331.572	689.94
331.801	703.94
332.03	681.94
332.258	727.94
332.486	761.94
332.715	794.94
332.943	827.94
333.172	850.94
333.4	871.94
333.629	906.94
333.857	919.94
334.085	895.94
334.314	863.94
334.542	853.94
334.771	816.94
334.999	813.94
335.227	805.94
335.455	821.94
335.684	810.94
335.912	785.94
336.14	806.94
336.369	801.94
336.597	813.94
336.825	786.94
337.053	784.94
337.281	767.94
337.51	747.94
337.738	756.94
337.966	716.94
338.194	712.94
338.422	723.94
338.65	738.94
338.878	694.94
339.106	730.94
339.334	718.94
339.562	701.94
339.79	703.94
340.018	682.94
340.246	654.94
340.474	701.94
340.702	696.94
340.93	681.94
341.158	682.94
341.386	678.94
341.614	674.94
341.842	678.94
342.07	670.94
342.298	675.94
342.526	669.94
342.754	680.94
342.981	671.94
343.209	722.94
343.437	728.94
343.665	769.94
343.893	825.94
344.12	857.94
344.348	803.94
344.576	773.94
344.804	731.94
345.031	718.94
345.259	672.94
345.487	681.94
345.714	673.94
345.942	670.94
346.17	656.94
346.397	649.94
346.625	643.94
346.853	662.94
347.08	656.94
347.308	655.94
347.535	648.94
347.763	672.94
347.99	662.94
348.218	666.94
348.445	666.94
348.673	658.94
348.9	633.94
349.128	641.94
349.355	632.94
349.583	643.94
349.81	651.94
350.037	647.94
350.265	637.94
350.492	626.94
350.72	649.94
350.947	640.94
351.174	639.94
351.402	653.94
351.629	621.94
351.856	633.94
352.083	628.94
352.311	637.94
352.538	621.94
352.765	623.94
352.992	632.94
353.22	627.94
353.447	609.94
353.674	615.94
353.901	617.94
354.128	629.94
354.355	636.94
354.583	641.94
354.81	638.94
355.037	631.94
355.264	632.94
355.491	633.94
355.718	642.94
355.945	646.94
356.172	655.94
356.399	647.94
356.626	656.94
356.853	649.94
357.08	665.94
357.307	646.94
357.534	650.94
357.761	643.94
357.988	651.94
358.215	656.94
358.441	633.94
358.668	641.94
358.895	635.94
359.122	644.94
359.349	624.94
359.576	657.94
359.802	660.94
360.029	633.94
360.256	626.94
360.483	636.94
360.709	631.94
360.936	633.94
361.163	642.94
361.39	637.94
361.616	629.94
361.843	623.94
362.07	617.94
362.296	641.94
362.523	645.94
362.749	633.94
362.976	627.94
363.203	669.94
363.429	641.94
363.656	656.94
363.882	647.94
364.109	635.94
364.335	636.94
364.562	616.94
364.788	627.94
365.015	617.94
365.241	635.94
365.468	632.94
365.694	653.94
365.92	634.94
366.147	613.94
366.373	621.94
366.599	629.94
366.826	638.94
367.052	613.94
367.278	633.94
367.505	638.94
367.731	649.94
367.957	625.94
368.184	638.94
368.41	633.94
368.636	657.94
368.862	655.94
369.089	629.94
369.315	646.94
369.541	655.94
369.767	669.94
369.993	657.94
370.219	664.94
370.445	683.94
370.672	678.94
370.898	693.94
371.124	685.94
371.35	718.94
371.576	687.94
371.802	708.94
372.028	694.94
372.254	694.94
372.48	689.94
372.706	695.94
372.932	742.94
373.158	707.94
373.384	714.94
373.61	702.94
373.835	725.94
374.061	713.94
374.287	721.94
374.513	721.94
374.739	742.94
374.965	775.94
375.191	763.94
375.416	770.94
375.642	743.94
375.868	729.94
376.094	716.94
376.319	722.94
376.545	691.94
376.771	679.94
376.997	716.94
377.222	679.94
377.448	701.94
377.674	686.94
377.899	698.94
378.125	683.94
378.35	718.94
378.576	711.94
378.802	671.94
379.027	679.94
379.253	685.94
379.478	697.94
379.704	673.94
379.929	682.94
380.155	681.94
380.38	694.94
380.606	691.94
380.831	689.94
381.057	697.94
381.282	703.94
381.507	705.94
381.733	712.94
381.958	702.94
382.184	712.94
382.409	692.94
382.634	717.94
382.86	743.94
383.085	756.94
383.31	769.94
383.535	768.94
383.761	783.94
383.986	801.94
384.211	802.94
384.436	851.94
384.662	861.94
384.887	843.94
385.112	829.94
385.337	837.94
385.562	865.94
385.787	862.94
386.013	855.94
386.238	846.94
386.463	852.94
386.688	852.94
386.913	816.94
387.138	824.94
387.363	830.94
387.588	822.94
387.813	827.94
388.038	861.94
388.263	806.94
388.488	846.94
388.713	814.94
388.938	804.94
389.163	830.94
389.387	831.94
389.612	820.94
389.837	799.94
390.062	791.94
390.287	806.94
390.512	817.94
390.736	838.94
390.961	819.94
391.186	853.94
391.411	902.94
391.636	953.94
391.86	945.94
392.085	946.94
392.31	978.94
392.534	935.94
392.759	898.94
392.984	889.94
393.208	865.94
393.433	899.94
393.658	903.94
393.882	893.94
394.107	906.94
394.331	891.94
394.556	899.94
394.78	902.94
395.005	917.94
395.229	909.94
395.454	936.94
395.678	953.94
395.903	961.94
396.127	958.94
396.352	901.94
396.576	862.94
396.801	892.94
397.025	883.94
397.249	912.94
397.474	925.94
397.698	951.94
397.922	936.94
398.147	930.94
398.371	968.94
398.595	968.94
398.82	1049.94
399.044	1136.94
399.268	1216.94
399.492	1450.94
399.717	1676.94
399.941	1617.94
400.165	1371.94
400.389	1228.94
400.613	1147.94
400.837	1112.94
401.062	1093.94
401.286	1047.94
401.51	1023.94
401.734	1077.94
401.958	1074.94
402.182	1075.94
402.406	1090.94
402.63	1124.94
402.854	1137.94
403.078	1157.94
403.302	1217.94
403.526	1206.94
403.75	1233.94
403.974	1258.94
404.198	1253.94
404.422	1253.94
404.645	1224.94
404.869	1228.94
405.093	1213.94
405.317	1159.94
405.541	1168.94
405.765	1163.94
405.988	1152.94
406.212	1111.94
406.436	1142.94
406.66	1166.94
406.883	1226.94
407.107	1275.94
407.331	1360.94
407.555	1382.94
407.778	1387.94
408.002	1392.94
408.226	1275.94
408.449	1272.94
408.673	1206.94
408.896	1204.94
409.12	1173.94
409.344	1203.94
409.567	1191.94
409.791	1226.94
410.014	1207.94
410.238	1209.94
410.461	1201.94
410.685	1167.94
410.908	1153.94
411.132	1142.94
411.355	1085.94
411.578	1106.94
411.802	1072.94
412.025	1122.94
412.249	1134.94
412.472	1109.94
412.695	1077.94
412.919	1053.94
413.142	1059.94
413.365	1051.94
413.589	1061.94
413.812	1066.94
414.035	1035.94
414.258	1039.94
414.482	1056.94
414.705	1041.94
414.928	1059.94
415.151	1061.94
415.374	1069.94
415.597	1031.94
415.821	1027.94
416.044	1045.94
416.267	1021.94
416.49	1017.94
416.713	1052.94
416.936	1051.94
417.159	1029.94
417.382	1044.94
417.605	1034.94
417.828	1043.94
418.051	1056.94
418.274	1066.94
418.497	1054.94
418.72	1041.94
418.943	1056.94
419.166	1151.94
419.389	1224.94
419.611	1173.94
419.834	1125.94
420.057	1096.94
420.28	1071.94
420.503	1063.94
420.726	1038.94
420.948	1077.94
421.171	1050.94
421.394	1050.94
421.617	996.94
421.839	1032.94
422.062	1046.94
422.285	1045.94
422.507	1064.94
422.73	1065.94
422.953	1092.94
423.175	1094.94
423.398	1099.94
423.621	1099.94
423.843	1128.94
424.066	1114.94
424.288	1127.94
424.511	1098.94
424.733	1082.94
424.956	1089.94
425.178	1036.94
425.401	1045.94
425.623	1005.94
425.846	984.94
426.068	983.94
426.291	978.94
426.513	992.94
426.735	977.94
426.958	981.94
427.18	962.94
427.402	960.94
427.625	943.94
427.847	930.94
428.069	923.94
428.292	928.94
428.514	919.94
428.736	897.94
428.958	902.94
429.181	903.94
429.403	867.94
429.625	884.94
429.847	883.94
430.069	891.94
430.292	898.94
430.514	890.94
430.736	883.94
430.958	882.94
431.18	881.94
431.402	906.94
431.624	923.94
431.846	953.94
432.068	941.94
432.29	963.94
432.512	897.94
432.734	903.94
432.956	921.94
433.178	931.94
433.4	913.94
433.622	918.94
433.844	918.94
434.066	952.94
434.287	954.94
434.509	997.94
434.731	1001.94
434.953	1052.94
435.175	1051.94
435.397	1038.94
435.618	962.94
435.84	970.94
436.062	907.94
436.284	915.94
436.505	878.94
436.727	916.94
436.949	938.94
437.17	934.94
437.392	918.94
437.614	917.94
437.835	891.94
438.057	898.94
438.278	874.94
438.5	890.94
438.721	868.94
438.943	891.94
439.165	864.94
439.386	881.94
439.608	874.94
439.829	899.94
440.05	905.94
440.272	906.94
440.493	889.94
440.715	941.94
440.936	939.94
441.158	953.94
441.379	1023.94
441.6	1053.94
441.822	1097.94
442.043	1053.94
442.264	1000.94
442.486	1026.94
442.707	1027.94
442.928	1013.94
443.149	1040.94
443.371	1022.94
443.592	1053.94
443.813	1046.94
444.034	1064.94
444.255	1099.94
444.476	1162.94
444.698	1249.94
444.919	1289.94
445.14	1307.94
445.361	1136.94
445.582	1054.94
445.803	1025.94
446.024	962.94
446.245	965.94
446.466	941.94
446.687	936.94
446.908	944.94
447.129	921.94
447.35	915.94
447.571	888.94
447.792	859.94
448.013	873.94
448.234	869.94
448.455	854.94
448.675	877.94
448.896	834.94
449.117	814.94
449.338	838.94
449.559	833.94
449.779	821.94
450	799.94
450.221	831.94
450.442	822.94
450.662	839.94
450.883	871.94
451.104	894.94
451.324	883.94
451.545	882.94
451.766	890.94
451.986	874.94
452.207	835.94
452.428	841.94
452.648	836.94
452.869	839.94
453.089	826.94
453.31	867.94
453.53	828.94
453.751	806.94
453.971	814.94
454.192	823.94
454.412	787.94
454.633	798.94
454.853	797.94
455.073	789.94
455.294	806.94
455.514	768.94
455.734	778.94
455.955	800.94
456.175	790.94
456.395	768.94
456.616	771.94
456.836	778.94
457.056	782.94
457.276	751.94
457.497	778.94
457.717	783.94
457.937	799.94
458.157	771.94
458.377	791.94
458.598	804.94
458.818	843.94
459.038	889.94
459.258	875.94
459.478	937.94
459.698	967.94
459.918	980.94
460.138	1010.94
460.358	1088.94
460.578	1065.94
460.798	1099.94
461.018	1144.94
461.238	1093.94
461.458	1085.94
461.678	1064.94
461.898	1069.94
462.118	1146.94
462.338	1177.94
462.558	1201.94
462.777	1216.94
462.997	1375.94
463.217	1513.94
463.437	1504.94
463.657	1345.94
463.876	1265.94
464.096	1278.94
464.316	1324.94
464.536	1301.94
464.755	1230.94
464.975	1206.94
465.195	1129.94
465.414	1073.94
465.634	1012.94
465.854	979.94
466.073	937.94
466.293	918.94
466.512	904.94
466.732	899.94
466.951	893.94
467.171	930.94
467.391	908.94
467.61	902.94
467.829	888.94
468.049	863.94
468.268	842.94
468.488	862.94
468.707	854.94
468.927	827.94
469.146	825.94
469.365	870.94
469.585	840.94
469.804	867.94
470.023	882.94
470.243	915.94
470.462	895.94
470.681	926.94
470.901	919.94
471.12	902.94
471.339	868.94
471.558	873.94
471.777	860.94
471.997	851.94
472.216	837.94
472.435	845.94
472.654	823.94
472.873	793.94
473.092	817.94
473.311	802.94
473.53	785.94
473.749	807.94
473.968	796.94
474.187	826.94
474.406	787.94
474.625	819.94
474.844	807.94
475.063	826.94
475.282	827.94
475.501	839.94
475.72	847.94
475.939	834.94
476.158	826.94
476.377	847.94
476.596	841.94
476.814	878.94
477.033	867.94
477.252	880.94
477.471	900.94
477.69	924.94
477.908	937.94
478.127	964.94
478.346	956.94
478.564	1001.94
478.783	992.94
479.002	1008.94
479.22	1041.94
479.439	1026.94
479.658	1012.94
479.876	1032.94
480.095	1052.94
480.313	1086.94
480.532	1139.94
480.751	1128.94
480.969	1057.94
481.188	1028.94
481.406	974.94
481.624	948.94
481.843	949.94
482.061	917.94
482.28	917.94
482.498	928.94
482.717	914.94
482.935	913.94
483.153	925.94
483.372	950.94
483.59	915.94
483.808	929.94
484.027	948.94
484.245	938.94
484.463	957.94
484.681	955.94
484.9	945.94
485.118	999.94
485.336	942.94
485.554	972.94
485.772	990.94
485.99	980.94
486.209	1019.94
486.427	1005.94
486.645	975.94
486.863	976.94
487.081	951.94
487.299	989.94
487.517	966.94
487.735	957.94
487.953	978.94
488.171	955.94
488.389	965.94
488.607	969.94
488.825	963.94
489.043	938.94
489.261	952.94
489.479	978.94
489.696	952.94
489.914	962.94
490.132	982.94
490.35	1000.94
490.568	978.94
490.786	963.94
491.003	967.94
491.221	971.94
491.439	1003.94
491.657	962.94
491.874	969.94
492.092	960.94
492.31	1003.94
492.527	967.94
492.745	997.94
492.963	1002.94
493.18	990.94
493.398	985.94
493.615	1013.94
493.833	1037.94
494.05	1017.94
494.268	1037.94
494.485	1057.94
494.703	1026.94
494.92	1039.94
495.138	1042.94
495.355	984.94
495.573	1000.94
495.79	1020.94
496.008	1039.94
496.225	1063.94
496.442	1050.94
496.66	1053.94
496.877	1095.94
497.094	1108.94
497.312	1114.94
497.529	1150.94
497.746	1183.94
497.963	1230.94
498.181	1237.94
498.398	1273.94
498.615	1365.94
498.832	1518.94
499.049	1621.94
499.267	1743.94
499.484	1939.94
499.701	2172.94
499.918	2373.94
500.135	2726.94
500.352	3288.94
500.569	3383.94
500.786	3380.94
501.003	3042.94
501.22	2695.94
501.437	2343.94
501.654	2015.94
501.871	1789.94
502.088	1704.94
502.305	1577.94
502.522	1473.94
502.739	1437.94
502.956	1338.94
503.172	1316.94
503.389	1222.94
503.606	1197.94
503.823	1150.94
504.04	1177.94
504.256	1167.94
504.473	1211.94
504.69	1287.94
504.907	1227.94
505.123	1130.94
505.34	1059.94
505.557	1028.94
505.773	1029.94
505.99	1022.94
506.207	953.94
506.423	934.94
506.64	941.94
506.856	914.94
507.073	911.94
507.289	904.94
507.506	890.94
507.722	896.94
507.939	877.94
508.155	874.94
508.372	884.94
508.588	879.94
508.805	864.94
509.021	851.94
509.238	865.94
509.454	867.94
509.67	859.94
509.887	834.94
510.103	845.94
510.319	826.94
510.536	847.94
510.752	821.94
510.968	852.94
511.184	844.94
511.401	824.94
511.617	818.94
511.833	813.94
512.049	840.94
512.265	859.94
512.481	850.94
512.698	809.94
512.914	829.94
513.13	808.94
513.346	851.94
513.562	830.94
513.778	843.94
513.994	846.94
514.21	816.94
514.426	835.94
514.642	847.94
514.858	867.94
515.074	872.94
515.29	874.94
515.506	866.94
515.721	905.94
515.937	888.94
516.153	887.94
516.369	967.94
516.585	969.94
516.801	994.94
517.016	1055.94
517.232	1109.94
517.448	1132.94
517.664	1184.94
517.879	1225.94
518.095	1207.94
518.311	1180.94
518.527	1111.94
518.742	1086.94
518.958	1009.94
519.173	970.94
519.389	949.94
519.605	935.94
519.82	892.94
520.036	886.94
520.251	845.94
520.467	846.94
520.682	851.94
520.898	857.94
521.113	829.94
521.329	825.94
521.544	796.94
521.76	822.94
521.975	792.94
522.19	816.94
522.406	772.94
522.621	807.94
522.836	770.94
523.052	777.94
523.267	751.94
523.482	755.94
523.698	771.94
523.913	760.94
524.128	749.94
524.343	768.94
524.559	777.94
524.774	759.94
524.989	776.94
525.204	754.94
525.419	771.94
525.634	751.94
525.849	725.94
526.064	735.94
526.28	779.94
526.495	740.94
526.71	730.94
526.925	727.94
527.14	750.94
527.355	734.94
527.57	750.94
527.785	733.94
527.999	756.94
528.214	752.94
528.429	731.94
528.644	769.94
528.859	729.94
529.074	767.94
529.289	753.94
529.503	742.94
529.718	754.94
529.933	735.94
530.148	737.94
530.363	769.94
530.577	767.94
530.792	762.94
531.007	767.94
531.221	755.94
531.436	771.94
531.651	742.94
531.865	763.94
532.08	769.94
532.295	769.94
532.509	732.94
532.724	765.94
532.938	785.94
533.153	763.94
533.367	771.94
533.582	708.94
533.796	727.94
534.011	746.94
534.225	741.94
534.44	752.94
534.654	740.94
534.868	723.94
535.083	733.94
535.297	749.94
535.511	719.94
535.726	712.94
535.94	731.94
536.154	730.94
536.369	716.94
536.583	708.94
536.797	703.94
537.011	675.94
537.225	695.94
537.44	673.94
537.654	698.94
537.868	690.94
538.082	696.94
538.296	685.94
538.51	678.94
538.724	674.94
538.938	671.94
539.153	689.94
539.367	672.94
539.581	664.94
539.795	681.94
540.009	661.94
540.222	686.94
540.436	676.94
540.65	653.94
540.864	655.94
541.078	669.94
541.292	689.94
541.506	665.94
541.72	678.94
541.934	679.94
542.147	685.94
542.361	638.94
542.575	663.94
542.789	641.94
543.002	631.94
543.216	641.94
543.43	659.94
543.644	648.94
543.857	678.94
544.071	664.94
544.285	680.94
544.498	662.94
544.712	636.94
544.925	669.94
545.139	679.94
545.352	713.94
545.566	726.94
545.779	687.94
545.993	704.94
546.206	689.94
546.42	668.94
546.633	680.94
546.847	670.94
547.06	649.94
547.274	682.94
547.487	666.94
547.7	690.94
547.914	663.94
548.127	676.94
548.34	706.94
548.554	678.94
548.767	679.94
548.98	675.94
549.193	662.94
549.407	685.94
549.62	713.94
549.833	733.94
550.046	696.94
550.259	690.94
550.473	678.94
550.686	695.94
550.899	658.94
551.112	661.94
551.325	672.94
551.538	666.94
551.751	655.94
551.964	674.94
552.177	683.94
552.39	687.94
552.603	706.94
552.816	711.94
553.029	757.94
553.242	772.94
553.455	770.94
553.667	777.94
553.88	740.94
554.093	724.94
554.306	701.94
554.519	707.94
554.732	682.94
554.944	675.94
555.157	657.94
555.37	656.94
555.583	645.94
555.795	637.94
556.008	619.94
556.221	631.94
556.433	629.94
556.646	609.94
556.859	594.94
557.071	600.94
557.284	592.94
557.496	568.94
557.709	594.94
557.921	574.94
558.134	586.94
558.346	581.94
558.559	573.94
558.771	562.94
558.984	568.94
559.196	598.94
559.409	574.94
559.621	558.94
559.833	566.94
560.046	562.94
560.258	543.94
560.47	544.94
560.683	555.94
560.895	530.94
561.107	547.94
561.32	573.94
561.532	568.94
561.744	563.94
561.956	567.94
562.168	578.94
562.381	565.94
562.593	551.94
562.805	560.94
563.017	582.94
563.229	552.94
563.441	561.94
563.653	559.94
563.865	564.94
564.077	584.94
564.289	588.94
564.501	594.94
564.713	599.94
564.925	613.94
565.137	608.94
565.349	639.94
565.561	648.94
565.773	670.94
565.985	708.94
566.197	762.94
566.408	779.94
566.62	873.94
566.832	951.94
567.044	976.94
567.255	957.94
567.467	965.94
567.679	1019.94
567.891	1181.94
568.102	1224.94
568.314	1124.94
568.526	979.94
568.737	894.94
568.949	806.94
569.161	734.94
569.372	687.94
569.584	647.94
569.795	618.94
570.007	609.94
570.218	605.94
570.43	609.94
570.641	577.94
570.853	597.94
571.064	582.94
571.276	611.94
571.487	587.94
571.698	545.94
571.91	540.94
572.121	522.94
572.333	508.94
572.544	511.94
572.755	481.94
572.966	492.94
573.178	495.94
573.389	481.94
573.6	457.94
573.811	497.94
574.023	483.94
574.234	461.94
574.445	471.94
574.656	456.94
574.867	453.94
575.078	459.94
575.289	473.94
575.501	467.94
575.712	450.94
575.923	451.94
576.134	457.94
576.345	461.94
576.556	448.94
576.767	441.94
576.978	441.94
577.188	450.94
577.399	422.94
577.61	435.94
577.821	425.94
578.032	431.94
578.243	413.94
578.454	416.94
578.665	414.94
578.875	413.94
579.086	417.94
579.297	416.94
579.508	426.94
579.718	414.94
579.929	408.94
580.14	420.94
580.35	405.94
580.561	407.94
580.772	407.94
580.982	405.94
581.193	394.94
581.403	403.94
581.614	395.94
581.825	396.94
582.035	384.94
582.246	382.94
582.456	386.94
582.667	388.94
582.877	371.94
583.087	405.94
583.298	398.94
583.508	386.94
583.719	391.94
583.929	377.94
584.139	394.94
584.35	377.94
584.56	405.94
584.77	378.94
584.981	392.94
585.191	392.94
585.401	387.94
585.611	383.94
585.821	389.94
586.032	372.94
586.242	373.94
586.452	384.94
586.662	374.94
586.872	371.94
587.082	370.94
587.292	395.94
587.502	378.94
587.713	369.94
587.923	372.94
588.133	360.94
588.343	378.94
588.553	356.94
588.762	372.94
588.972	386.94
589.182	375.94
589.392	374.94
589.602	356.94
589.812	361.94
590.022	370.94
590.232	380.94
590.441	358.94
590.651	385.94
590.861	381.94
591.071	380.94
591.281	388.94
591.49	389.94
591.7	393.94
591.91	373.94
592.119	421.94
592.329	417.94
592.539	438.94
592.748	420.94
592.958	449.94
593.167	475.94
593.377	477.94
593.587	483.94
593.796	498.94
594.006	508.94
594.215	530.94
594.424	532.94
594.634	499.94
594.843	466.94
595.053	446.94
595.262	435.94
595.472	404.94
595.681	421.94
595.89	397.94
596.1	384.94
596.309	374.94
596.518	345.94
596.727	358.94
596.937	354.94
597.146	351.94
597.355	358.94
597.564	345.94
597.774	344.94
597.983	353.94
598.192	351.94
598.401	347.94
598.61	331.94
598.819	323.94
599.028	326.94
599.237	319.94
599.446	327.94
599.655	336.94
599.864	337.94
600.073	323.94
600.282	323.94
600.491	324.94
600.7	308.94
600.909	318.94
601.118	330.94
601.327	305.94
601.536	315.94
601.745	336.94
601.953	314.94
602.162	340.94
602.371	330.94
602.58	317.94
602.789	307.94
602.997	322.94
603.206	311.94
603.415	304.94
603.623	314.94
603.832	309.94
604.041	296.94
604.249	294.94
604.458	315.94
604.666	309.94
604.875	301.94
605.084	303.94
605.292	268.94
605.501	309.94
605.709	312.94
605.918	293.94
606.126	297.94
606.334	283.94
606.543	272.94
606.751	291.94
606.96	282.94
607.168	287.94
607.376	304.94
607.585	289.94
607.793	303.94
608.001	301.94
608.21	294.94
608.418	293.94
608.626	285.94
608.834	273.94
609.043	277.94
609.251	284.94
609.459	270.94
609.667	279.94
609.875	272.94
610.083	274.94
610.291	278.94
610.499	273.94
610.707	281.94
610.916	268.94
611.124	271.94
611.332	263.94
611.54	285.94
611.748	285.94
611.955	287.94
612.163	277.94
612.371	272.94
612.579	277.94
612.787	277.94
612.995	265.94
613.203	287.94
613.411	276.94
613.618	278.94
613.826	288.94
614.034	269.94
614.242	277.94
614.449	285.94
614.657	271.94
614.865	275.94
615.072	279.94
615.28	288.94
615.488	260.94
615.695	275.94
615.903	280.94
616.111	281.94
616.318	277.94
616.526	303.94
616.733	290.94
616.941	267.94
617.148	267.94
617.356	290.94
617.563	281.94
617.771	296.94
617.978	271.94
618.185	281.94
618.393	289.94
618.6	267.94
618.807	282.94
619.015	263.94
619.222	269.94
619.429	278.94
619.637	260.94
619.844	269.94
620.051	269.94
620.258	271.94
620.466	261.94
620.673	256.94
620.88	243.94
621.087	259.94
621.294	253.94
621.501	255.94
621.708	234.94
621.915	259.94
622.122	259.94
622.329	265.94
622.536	240.94
622.743	246.94
622.95	244.94
623.157	239.94
623.364	244.94
623.571	237.94
623.778	246.94
623.985	244.94
624.192	245.94
624.399	231.94
624.606	250.94
624.812	240.94
625.019	223.94
625.226	242.94
625.433	235.94
625.639	238.94
625.846	233.94
626.053	233.94
626.259	229.94
626.466	216.94
626.673	232.94
626.879	227.94
627.086	218.94
627.293	231.94
627.499	223.94
627.706	225.94
627.912	222.94
628.119	231.94
628.325	215.94
628.532	219.94
628.738	221.94
628.945	230.94
629.151	221.94
629.357	229.94
629.564	229.94
629.77	222.94
629.976	204.94
630.183	224.94
630.389	219.94
630.595	216.94
630.802	227.94
631.008	197.94
631.214	202.94
631.42	215.94
631.627	221.94
631.833	223.94
632.039	207.94
632.245	212.94
632.451	210.94
632.657	203.94
632.863	210.94
633.069	214.94
633.275	216.94
633.481	203.94
633.688	195.94
633.893	194.94
634.099	196.94
634.305	211.94
634.511	215.94
634.717	201.94
634.923	200.94
635.129	196.94
635.335	195.94
635.541	198.94
635.747	185.94
635.952	197.94
636.158	209.94
636.364	187.94
636.57	206.94
636.775	211.94
636.981	201.94
637.187	203.94
637.392	188.94
637.598	185.94
637.804	190.94
638.009	184.94
638.215	197.94
638.421	204.94
638.626	192.94
638.832	193.94
639.037	195.94
639.243	193.94
639.448	182.94
639.654	190.94
639.859	187.94
640.065	189.94
640.27	201.94
640.475	200.94
640.681	192.94
640.886	182.94
641.091	187.94
641.297	198.94
641.502	186.94
641.707	176.94
641.913	198.94
642.118	183.94
642.323	189.94
642.528	176.94
642.733	168.94
642.939	193.94
643.144	175.94
643.349	189.94
643.554	186.94
643.759	183.94
643.964	170.94
644.169	180.94
644.374	183.94
644.579	183.94
644.784	175.94
644.989	179.94
645.194	174.94
645.399	190.94
645.604	182.94
645.809	195.94
646.014	186.94
646.219	178.94
646.423	191.94
646.628	185.94
646.833	187.94
647.038	174.94
647.243	190.94
647.447	186.94
647.652	185.94
647.857	182.94
648.062	194.94
648.266	202.94
648.471	195.94
648.676	210.94
648.88	199.94
649.085	190.94
649.289	181.94
649.494	189.94
649.698	180.94
649.903	169.94
650.107	176.94
650.312	182.94
650.516	164.94
650.721	158.94
650.925	165.94
651.13	163.94
651.334	149.94
651.539	165.94
651.743	166.94
651.947	163.94
652.152	167.94
652.356	144.94
652.56	151.94
652.764	163.94
652.969	157.94
653.173	133.94
653.377	145.94
653.581	156.94
653.785	154.94
653.99	136.94
654.194	133.94
654.398	135.94
654.602	131.94
654.806	139.94
655.01	140.94
655.214	142.94
655.418	137.94
655.622	146.94
655.826	141.94
656.03	159.94
656.234	134.94
656.438	135.94
656.642	148.94
656.846	129.94
657.049	134.94
657.253	128.94
657.457	116.94
657.661	106.94
657.865	100.94
658.068	110.94
658.272	86.94
658.476	105.94
658.68	97.94
658.883	97.94
659.087	107.94
659.291	97.94
659.494	94.94
659.698	110.94
659.901	104.94
660.105	97.94
660.309	98.94
660.512	100.94
660.716	100.94
660.919	94.94
661.123	110.94
661.326	90.94
661.53	83.94
661.733	87.94
661.936	76.94
662.14	74.94
662.343	78.94
662.546	87.94
662.75	98.94
662.953	92.94
663.156	84.94
663.36	83.94
663.563	66.94
663.766	73.94
663.969	87.94
664.173	87.94
664.376	75.94
664.579	89.94
664.782	81.94
664.985	84.94
665.188	84.94
665.391	74.94
665.594	72.94
665.797	81.94
666	88.94
666.203	83.94
666.406	82.94
666.609	59.94
666.812	72.94
667.015	92.94
667.218	71.94
667.421	71.94
667.624	87.94
667.827	88.94
668.03	75.94
668.232	97.94
668.435	76.94
668.638	70.94
668.841	79.94
669.043	72.94
669.246	77.94
669.449	79.94
669.651	80.94
669.854	84.94
670.057	85.94
670.259	71.94
670.462	66.94
670.665	71.94
670.867	86.94
671.07	89.94
671.272	86.94
671.475	100.94
671.677	77.94
671.88	79.94
672.082	82.94
672.284	82.94
672.487	75.94
672.689	77.94
672.892	84.94
