Data from Ni(NO3)2@0.5M.TitratingCurve.Agarose3%dH2O.NegLispCup.LampEnergy10.LIBS07252019_HRD10591_17-58-20-564.txt Node
Date: Thu Jul 25 17:58:20 EDT 2019
User: cochatt
Spectrometer: HR+D1059
Trigger mode: 1
Integration Time (sec): 1.000000E-1
Scans to average: 1
Electric dark correction enabled: true
Nonlinearity correction enabled: false
Boxcar width: 0
XAxis mode: Wavelengths
Number of Pixels in Spectrum: 2048
>>>>>Begin Spectral Data<<<<<
223.165	-15.31
223.4	-15.31
223.635	-15.31
223.869	-17.31
224.104	-16.31
224.338	-14.31
224.573	-8.31
224.808	-4.31
225.042	-11.31
225.277	-11.31
225.511	4.69
225.746	6.69
225.98	3.69
226.215	11.69
226.449	22.69
226.683	9.69
226.918	15.69
227.152	23.69
227.387	44.69
227.621	43.69
227.856	48.69
228.09	47.69
228.324	50.69
228.559	63.69
228.793	89.69
229.027	141.69
229.262	161.69
229.496	169.69
229.73	164.69
229.964	187.69
230.199	199.69
230.433	209.69
230.667	199.69
230.901	201.69
231.136	186.69
231.37	189.69
231.604	202.69
231.838	227.69
232.072	244.69
232.306	221.69
232.541	210.69
232.775	218.69
233.009	185.69
233.243	188.69
233.477	172.69
233.711	184.69
233.945	208.69
234.179	197.69
234.413	181.69
234.647	184.69
234.881	210.69
235.115	200.69
235.349	179.69
235.583	185.69
235.817	169.69
236.051	178.69
236.285	176.69
236.519	188.69
236.753	181.69
236.987	181.69
237.221	195.69
237.455	194.69
237.689	190.69
237.922	206.69
238.156	209.69
238.39	192.69
238.624	207.69
238.858	195.69
239.091	199.69
239.325	233.69
239.559	241.69
239.793	244.69
240.027	256.69
240.26	223.69
240.494	225.69
240.728	213.69
240.961	221.69
241.195	238.69
241.429	223.69
241.662	244.69
241.896	283.69
242.13	285.69
242.363	230.69
242.597	228.69
242.83	235.69
243.064	230.69
243.298	235.69
243.531	253.69
243.765	253.69
243.998	261.69
244.232	262.69
244.465	248.69
244.699	259.69
244.932	265.69
245.166	257.69
245.399	254.69
245.633	254.69
245.866	271.69
246.099	287.69
246.333	270.69
246.566	288.69
246.8	252.69
247.033	270.69
247.266	291.69
247.5	298.69
247.733	278.69
247.966	300.69
248.2	291.69
248.433	289.69
248.666	295.69
248.899	300.69
249.133	310.69
249.366	291.69
249.599	273.69
249.832	295.69
250.066	302.69
250.299	304.69
250.532	311.69
250.765	340.69
250.998	331.69
251.231	366.69
251.465	353.69
251.698	360.69
251.931	345.69
252.164	339.69
252.397	339.69
252.63	351.69
252.863	357.69
253.096	361.69
253.329	345.69
253.562	362.69
253.795	352.69
254.028	364.69
254.261	366.69
254.494	354.69
254.727	363.69
254.96	357.69
255.193	375.69
255.426	375.69
255.659	400.69
255.892	383.69
256.124	374.69
256.357	386.69
256.59	388.69
256.823	394.69
257.056	392.69
257.289	375.69
257.521	401.69
257.754	414.69
257.987	399.69
258.22	391.69
258.452	405.69
258.685	403.69
258.918	394.69
259.151	396.69
259.383	420.69
259.616	395.69
259.849	407.69
260.081	431.69
260.314	440.69
260.547	441.69
260.779	428.69
261.012	432.69
261.244	446.69
261.477	452.69
261.71	428.69
261.942	452.69
262.175	451.69
262.407	462.69
262.64	441.69
262.872	458.69
263.105	474.69
263.337	454.69
263.57	449.69
263.802	454.69
264.035	461.69
264.267	480.69
264.499	445.69
264.732	477.69
264.964	471.69
265.197	486.69
265.429	473.69
265.661	459.69
265.894	495.69
266.126	483.69
266.358	486.69
266.591	486.69
266.823	494.69
267.055	486.69
267.287	497.69
267.52	494.69
267.752	493.69
267.984	511.69
268.216	510.69
268.448	521.69
268.681	503.69
268.913	495.69
269.145	524.69
269.377	512.69
269.609	537.69
269.841	504.69
270.073	520.69
270.306	507.69
270.538	500.69
270.77	523.69
271.002	528.69
271.234	541.69
271.466	520.69
271.698	528.69
271.93	543.69
272.162	549.69
272.394	530.69
272.626	533.69
272.858	532.69
273.09	539.69
273.322	572.69
273.553	539.69
273.785	558.69
274.017	561.69
274.249	565.69
274.481	544.69
274.713	555.69
274.945	567.69
275.176	571.69
275.408	569.69
275.64	565.69
275.872	573.69
276.104	569.69
276.335	574.69
276.567	592.69
276.799	570.69
277.031	581.69
277.262	599.69
277.494	597.69
277.726	586.69
277.957	607.69
278.189	592.69
278.421	581.69
278.652	598.69
278.884	589.69
279.115	607.69
279.347	602.69
279.579	613.69
279.81	591.69
280.042	621.69
280.273	592.69
280.505	618.69
280.736	609.69
280.968	630.69
281.199	644.69
281.431	616.69
281.662	610.69
281.894	625.69
282.125	629.69
282.356	641.69
282.588	608.69
282.819	627.69
283.051	627.69
283.282	631.69
283.513	661.69
283.745	642.69
283.976	624.69
284.207	640.69
284.439	649.69
284.67	663.69
284.901	664.69
285.132	632.69
285.364	641.69
285.595	625.69
285.826	660.69
286.057	637.69
286.288	663.69
286.52	661.69
286.751	648.69
286.982	675.69
287.213	687.69
287.444	661.69
287.675	679.69
287.906	695.69
288.138	648.69
288.369	685.69
288.6	679.69
288.831	694.69
289.062	666.69
289.293	651.69
289.524	680.69
289.755	693.69
289.986	679.69
290.217	705.69
290.448	687.69
290.679	697.69
290.91	709.69
291.141	678.69
291.371	699.69
291.602	712.69
291.833	680.69
292.064	672.69
292.295	687.69
292.526	705.69
292.757	665.69
292.987	692.69
293.218	700.69
293.449	705.69
293.68	709.69
293.91	684.69
294.141	697.69
294.372	714.69
294.603	705.69
294.833	695.69
295.064	702.69
295.295	700.69
295.525	685.69
295.756	684.69
295.987	685.69
296.217	705.69
296.448	702.69
296.679	706.69
296.909	664.69
297.14	727.69
297.37	718.69
297.601	729.69
297.831	712.69
298.062	716.69
298.292	732.69
298.523	742.69
298.753	734.69
298.984	737.69
299.214	752.69
299.445	747.69
299.675	743.69
299.905	746.69
300.136	761.69
300.366	823.69
300.597	814.69
300.827	788.69
301.057	773.69
301.288	805.69
301.518	772.69
301.748	740.69
301.979	760.69
302.209	781.69
302.439	771.69
302.669	763.69
302.9	778.69
303.13	778.69
303.36	776.69
303.59	782.69
303.82	811.69
304.051	800.69
304.281	789.69
304.511	792.69
304.741	781.69
304.971	791.69
305.201	846.69
305.431	812.69
305.661	832.69
305.891	847.69
306.121	841.69
306.352	794.69
306.582	808.69
306.812	809.69
307.042	822.69
307.272	799.69
307.502	800.69
307.731	783.69
307.961	833.69
308.191	820.69
308.421	792.69
308.651	808.69
308.881	797.69
309.111	824.69
309.341	825.69
309.571	802.69
309.8	821.69
310.03	854.69
310.26	866.69
310.49	859.69
310.72	849.69
310.949	856.69
311.179	827.69
311.409	841.69
311.639	843.69
311.868	871.69
312.098	851.69
312.328	856.69
312.557	855.69
312.787	851.69
313.017	853.69
313.246	871.69
313.476	883.69
313.706	901.69
313.935	869.69
314.165	880.69
314.394	868.69
314.624	866.69
314.853	858.69
315.083	885.69
315.312	870.69
315.542	891.69
315.771	885.69
316.001	887.69
316.23	875.69
316.46	885.69
316.689	899.69
316.919	886.69
317.148	896.69
317.377	902.69
317.607	901.69
317.836	912.69
318.065	906.69
318.295	931.69
318.524	926.69
318.753	917.69
318.983	897.69
319.212	918.69
319.441	926.69
319.67	915.69
319.9	935.69
320.129	970.69
320.358	944.69
320.587	940.69
320.816	928.69
321.046	940.69
321.275	970.69
321.504	989.69
321.733	953.69
321.962	1007.69
322.191	991.69
322.42	965.69
322.649	972.69
322.878	970.69
323.108	980.69
323.337	998.69
323.566	990.69
323.795	979.69
324.024	964.69
324.253	1008.69
324.482	1014.69
324.71	973.69
324.939	1035.69
325.168	1009.69
325.397	1020.69
325.626	992.69
325.855	1012.69
326.084	1032.69
326.313	1021.69
326.542	1013.69
326.77	1018.69
326.999	1022.69
327.228	1047.69
327.457	1042.69
327.686	1030.69
327.914	1047.69
328.143	1067.69
328.372	1040.69
328.6	1062.69
328.829	1029.69
329.058	1037.69
329.287	1056.69
329.515	1030.69
329.744	1067.69
329.972	1019.69
330.201	1049.69
330.43	1096.69
330.658	1062.69
330.887	1096.69
331.115	1077.69
331.344	1068.69
331.572	1088.69
331.801	1103.69
332.03	1081.69
332.258	1077.69
332.486	1117.69
332.715	1116.69
332.943	1098.69
333.172	1116.69
333.4	1105.69
333.629	1124.69
333.857	1134.69
334.085	1113.69
334.314	1151.69
334.542	1125.69
334.771	1127.69
334.999	1129.69
335.227	1169.69
335.455	1156.69
335.684	1165.69
335.912	1163.69
336.14	1191.69
336.369	1175.69
336.597	1207.69
336.825	1209.69
337.053	1184.69
337.281	1207.69
337.51	1181.69
337.738	1192.69
337.966	1181.69
338.194	1221.69
338.422	1196.69
338.65	1127.69
338.878	1135.69
339.106	1175.69
339.334	1209.69
339.562	1168.69
339.79	1159.69
340.018	1121.69
340.246	1129.69
340.474	1142.69
340.702	1131.69
340.93	1163.69
341.158	1176.69
341.386	1172.69
341.614	1251.69
341.842	1195.69
342.07	1203.69
342.298	1142.69
342.526	1160.69
342.754	1155.69
342.981	1149.69
343.209	1163.69
343.437	1164.69
343.665	1190.69
343.893	1185.69
344.12	1188.69
344.348	1173.69
344.576	1198.69
344.804	1205.69
345.031	1181.69
345.259	1163.69
345.487	1155.69
345.714	1174.69
345.942	1189.69
346.17	1226.69
346.397	1184.69
346.625	1163.69
346.853	1137.69
347.08	1134.69
347.308	1124.69
347.535	1136.69
347.763	1113.69
347.99	1063.69
348.218	1098.69
348.445	1112.69
348.673	1104.69
348.9	1141.69
349.128	1115.69
349.355	1173.69
349.583	1136.69
349.81	1120.69
350.037	1116.69
350.265	1097.69
350.492	1103.69
350.72	1112.69
350.947	1119.69
351.174	1149.69
351.402	1171.69
351.629	1178.69
351.856	1178.69
352.083	1118.69
352.311	1144.69
352.538	1205.69
352.765	1192.69
352.992	1104.69
353.22	1062.69
353.447	1069.69
353.674	1067.69
353.901	1080.69
354.128	1080.69
354.355	1087.69
354.583	1075.69
354.81	1104.69
355.037	1099.69
355.264	1071.69
355.491	1071.69
355.718	1072.69
355.945	1093.69
356.172	1086.69
356.399	1075.69
356.626	1125.69
356.853	1142.69
357.08	1123.69
357.307	1102.69
357.534	1100.69
357.761	1113.69
357.988	1093.69
358.215	1083.69
358.441	1083.69
358.668	1045.69
358.895	1088.69
359.122	1069.69
359.349	1085.69
359.576	1058.69
359.802	1077.69
360.029	1083.69
360.256	1087.69
360.483	1106.69
360.709	1092.69
360.936	1096.69
361.163	1072.69
361.39	1075.69
361.616	1085.69
361.843	1138.69
362.07	1185.69
362.296	1154.69
362.523	1113.69
362.749	1083.69
362.976	1096.69
363.203	1089.69
363.429	1091.69
363.656	1072.69
363.882	1072.69
364.109	1093.69
364.335	1089.69
364.562	1080.69
364.788	1100.69
365.015	1094.69
365.241	1081.69
365.468	1112.69
365.694	1087.69
365.92	1102.69
366.147	1065.69
366.373	1071.69
366.599	1069.69
366.826	1111.69
367.052	1085.69
367.278	1103.69
367.505	1130.69
367.731	1117.69
367.957	1082.69
368.184	1083.69
368.41	1129.69
368.636	1107.69
368.862	1096.69
369.089	1130.69
369.315	1119.69
369.541	1150.69
369.767	1133.69
369.993	1161.69
370.219	1136.69
370.445	1129.69
370.672	1127.69
370.898	1144.69
371.124	1123.69
371.35	1151.69
371.576	1122.69
371.802	1110.69
372.028	1151.69
372.254	1130.69
372.48	1139.69
372.706	1172.69
372.932	1172.69
373.158	1151.69
373.384	1134.69
373.61	1157.69
373.835	1172.69
374.061	1130.69
374.287	1149.69
374.513	1153.69
374.739	1183.69
374.965	1160.69
375.191	1148.69
375.416	1135.69
375.642	1149.69
375.868	1163.69
376.094	1161.69
376.319	1157.69
376.545	1130.69
376.771	1159.69
376.997	1128.69
377.222	1131.69
377.448	1130.69
377.674	1108.69
377.899	1141.69
378.125	1103.69
378.35	1125.69
378.576	1110.69
378.802	1125.69
379.027	1092.69
379.253	1089.69
379.478	1113.69
379.704	1108.69
379.929	1147.69
380.155	1099.69
380.38	1104.69
380.606	1105.69
380.831	1105.69
381.057	1119.69
381.282	1119.69
381.507	1128.69
381.733	1123.69
381.958	1135.69
382.184	1134.69
382.409	1147.69
382.634	1112.69
382.86	1124.69
383.085	1150.69
383.31	1144.69
383.535	1169.69
383.761	1139.69
383.986	1163.69
384.211	1155.69
384.436	1159.69
384.662	1153.69
384.887	1169.69
385.112	1199.69
385.337	1177.69
385.562	1199.69
385.787	1223.69
386.013	1200.69
386.238	1205.69
386.463	1196.69
386.688	1206.69
386.913	1204.69
387.138	1183.69
387.363	1190.69
387.588	1204.69
387.813	1185.69
388.038	1187.69
388.263	1165.69
388.488	1209.69
388.713	1232.69
388.938	1210.69
389.163	1199.69
389.387	1224.69
389.612	1225.69
389.837	1227.69
390.062	1176.69
390.287	1230.69
390.512	1208.69
390.736	1214.69
390.961	1208.69
391.186	1203.69
391.411	1244.69
391.636	1223.69
391.86	1214.69
392.085	1255.69
392.31	1195.69
392.534	1199.69
392.759	1238.69
392.984	1195.69
393.208	1272.69
393.433	1287.69
393.658	1238.69
393.882	1246.69
394.107	1244.69
394.331	1257.69
394.556	1222.69
394.78	1223.69
395.005	1250.69
395.229	1260.69
395.454	1231.69
395.678	1249.69
395.903	1280.69
396.127	1281.69
396.352	1260.69
396.576	1265.69
396.801	1246.69
397.025	1286.69
397.249	1289.69
397.474	1273.69
397.698	1250.69
397.922	1263.69
398.147	1309.69
398.371	1303.69
398.595	1321.69
398.82	1315.69
399.044	1347.69
399.268	1333.69
399.492	1397.69
399.717	1409.69
399.941	1423.69
400.165	1384.69
400.389	1382.69
400.613	1377.69
400.837	1372.69
401.062	1383.69
401.286	1388.69
401.51	1388.69
401.734	1356.69
401.958	1343.69
402.182	1350.69
402.406	1301.69
402.63	1349.69
402.854	1318.69
403.078	1319.69
403.302	1356.69
403.526	1333.69
403.75	1309.69
403.974	1324.69
404.198	1340.69
404.422	1359.69
404.645	1344.69
404.869	1354.69
405.093	1362.69
405.317	1351.69
405.541	1342.69
405.765	1347.69
405.988	1379.69
406.212	1424.69
406.436	1365.69
406.66	1422.69
406.883	1378.69
407.107	1408.69
407.331	1405.69
407.555	1439.69
407.778	1418.69
408.002	1423.69
408.226	1461.69
408.449	1464.69
408.673	1423.69
408.896	1412.69
409.12	1412.69
409.344	1423.69
409.567	1372.69
409.791	1421.69
410.014	1408.69
410.238	1405.69
410.461	1387.69
410.685	1381.69
410.908	1359.69
411.132	1391.69
411.355	1353.69
411.578	1394.69
411.802	1378.69
412.025	1373.69
412.249	1376.69
412.472	1369.69
412.695	1338.69
412.919	1324.69
413.142	1373.69
413.365	1337.69
413.589	1354.69
413.812	1342.69
414.035	1350.69
414.258	1295.69
414.482	1344.69
414.705	1328.69
414.928	1331.69
415.151	1341.69
415.374	1335.69
415.597	1324.69
415.821	1293.69
416.044	1333.69
416.267	1327.69
416.49	1308.69
416.713	1281.69
416.936	1287.69
417.159	1321.69
417.382	1306.69
417.605	1267.69
417.828	1313.69
418.051	1280.69
418.274	1274.69
418.497	1266.69
418.72	1292.69
418.943	1283.69
419.166	1317.69
419.389	1396.69
419.611	1405.69
419.834	1377.69
420.057	1333.69
420.28	1310.69
420.503	1271.69
420.726	1295.69
420.948	1259.69
421.171	1274.69
421.394	1291.69
421.617	1237.69
421.839	1267.69
422.062	1290.69
422.285	1265.69
422.507	1278.69
422.73	1296.69
422.953	1284.69
423.175	1276.69
423.398	1339.69
423.621	1256.69
423.843	1293.69
424.066	1283.69
424.288	1251.69
424.511	1245.69
424.733	1273.69
424.956	1275.69
425.178	1234.69
425.401	1263.69
425.623	1260.69
425.846	1276.69
426.068	1268.69
426.291	1297.69
426.513	1278.69
426.735	1259.69
426.958	1283.69
427.18	1251.69
427.402	1291.69
427.625	1276.69
427.847	1289.69
428.069	1267.69
428.292	1294.69
428.514	1277.69
428.736	1259.69
428.958	1321.69
429.181	1237.69
429.403	1219.69
429.625	1231.69
429.847	1260.69
430.069	1258.69
430.292	1243.69
430.514	1248.69
430.736	1231.69
430.958	1264.69
431.18	1259.69
431.402	1267.69
431.624	1247.69
431.846	1232.69
432.068	1262.69
432.29	1288.69
432.512	1283.69
432.734	1300.69
432.956	1280.69
433.178	1271.69
433.4	1295.69
433.622	1308.69
433.844	1307.69
434.066	1327.69
434.287	1289.69
434.509	1300.69
434.731	1304.69
434.953	1310.69
435.175	1352.69
435.397	1355.69
435.618	1315.69
435.84	1293.69
436.062	1235.69
436.284	1312.69
436.505	1266.69
436.727	1282.69
436.949	1294.69
437.17	1315.69
437.392	1279.69
437.614	1294.69
437.835	1200.69
438.057	1271.69
438.278	1222.69
438.5	1249.69
438.721	1245.69
438.943	1277.69
439.165	1255.69
439.386	1272.69
439.608	1271.69
439.829	1270.69
440.05	1239.69
440.272	1299.69
440.493	1302.69
440.715	1290.69
440.936	1279.69
441.158	1279.69
441.379	1262.69
441.6	1317.69
441.822	1324.69
442.043	1333.69
442.264	1331.69
442.486	1264.69
442.707	1253.69
442.928	1308.69
443.149	1308.69
443.371	1361.69
443.592	1389.69
443.813	1370.69
444.034	1325.69
444.255	1337.69
444.476	1335.69
444.698	1336.69
444.919	1361.69
445.14	1440.69
445.361	1421.69
445.582	1334.69
445.803	1300.69
446.024	1292.69
446.245	1241.69
446.466	1288.69
446.687	1270.69
446.908	1256.69
447.129	1224.69
447.35	1219.69
447.571	1221.69
447.792	1165.69
448.013	1194.69
448.234	1193.69
448.455	1175.69
448.675	1178.69
448.896	1207.69
449.117	1193.69
449.338	1208.69
449.559	1203.69
449.779	1174.69
450	1171.69
450.221	1190.69
450.442	1174.69
450.662	1169.69
450.883	1192.69
451.104	1248.69
451.324	1206.69
451.545	1178.69
451.766	1189.69
451.986	1161.69
452.207	1148.69
452.428	1153.69
452.648	1207.69
452.869	1165.69
453.089	1168.69
453.31	1194.69
453.53	1163.69
453.751	1168.69
453.971	1157.69
454.192	1208.69
454.412	1221.69
454.633	1169.69
454.853	1181.69
455.073	1167.69
455.294	1174.69
455.514	1163.69
455.734	1208.69
455.955	1207.69
456.175	1195.69
456.395	1171.69
456.616	1174.69
456.836	1156.69
457.056	1169.69
457.276	1159.69
457.497	1208.69
457.717	1209.69
457.937	1214.69
458.157	1187.69
458.377	1180.69
458.598	1163.69
458.818	1162.69
459.038	1206.69
459.258	1235.69
459.478	1298.69
459.698	1355.69
459.918	1365.69
460.138	1333.69
460.358	1341.69
460.578	1315.69
460.798	1366.69
461.018	1385.69
461.238	1306.69
461.458	1327.69
461.678	1280.69
461.898	1336.69
462.118	1286.69
462.338	1351.69
462.558	1381.69
462.777	1367.69
462.997	1405.69
463.217	1419.69
463.437	1447.69
463.657	1409.69
463.876	1408.69
464.096	1400.69
464.316	1359.69
464.536	1380.69
464.755	1349.69
464.975	1323.69
465.195	1333.69
465.414	1335.69
465.634	1288.69
465.854	1247.69
466.073	1246.69
466.293	1221.69
466.512	1233.69
466.732	1236.69
466.951	1224.69
467.171	1235.69
467.391	1234.69
467.61	1248.69
467.829	1237.69
468.049	1242.69
468.268	1239.69
468.488	1232.69
468.707	1248.69
468.927	1246.69
469.146	1276.69
469.365	1277.69
469.585	1231.69
469.804	1236.69
470.023	1258.69
470.243	1255.69
470.462	1244.69
470.681	1225.69
470.901	1246.69
471.12	1259.69
471.339	1237.69
471.558	1254.69
471.777	1302.69
471.997	1225.69
472.216	1219.69
472.435	1244.69
472.654	1253.69
472.873	1228.69
473.092	1239.69
473.311	1209.69
473.53	1237.69
473.749	1251.69
473.968	1267.69
474.187	1210.69
474.406	1260.69
474.625	1260.69
474.844	1280.69
475.063	1267.69
475.282	1298.69
475.501	1306.69
475.72	1338.69
475.939	1285.69
476.158	1323.69
476.377	1313.69
476.596	1311.69
476.814	1315.69
477.033	1335.69
477.252	1344.69
477.471	1341.69
477.69	1364.69
477.908	1396.69
478.127	1378.69
478.346	1403.69
478.564	1423.69
478.783	1424.69
479.002	1465.69
479.22	1526.69
479.439	1475.69
479.658	1462.69
479.876	1451.69
480.095	1433.69
480.313	1452.69
480.532	1466.69
480.751	1454.69
480.969	1418.69
481.188	1447.69
481.406	1494.69
481.624	1471.69
481.843	1445.69
482.061	1496.69
482.28	1452.69
482.498	1437.69
482.717	1459.69
482.935	1503.69
483.153	1525.69
483.372	1535.69
483.59	1580.69
483.808	1534.69
484.027	1495.69
484.245	1520.69
484.463	1474.69
484.681	1512.69
484.9	1530.69
485.118	1495.69
485.336	1495.69
485.554	1509.69
485.772	1549.69
485.99	1506.69
486.209	1516.69
486.427	1520.69
486.645	1503.69
486.863	1511.69
487.081	1526.69
487.299	1484.69
487.517	1549.69
487.735	1562.69
487.953	1544.69
488.171	1596.69
488.389	1561.69
488.607	1548.69
488.825	1543.69
489.043	1497.69
489.261	1559.69
489.479	1517.69
489.696	1508.69
489.914	1544.69
490.132	1565.69
490.35	1557.69
490.568	1576.69
490.786	1566.69
491.003	1541.69
491.221	1526.69
491.439	1571.69
491.657	1575.69
491.874	1573.69
492.092	1604.69
492.31	1614.69
492.527	1605.69
492.745	1600.69
492.963	1592.69
493.18	1588.69
493.398	1575.69
493.615	1591.69
493.833	1568.69
494.05	1581.69
494.268	1591.69
494.485	1593.69
494.703	1595.69
494.92	1569.69
495.138	1612.69
495.355	1609.69
495.573	1603.69
495.79	1608.69
496.008	1617.69
496.225	1624.69
496.442	1648.69
496.66	1664.69
496.877	1658.69
497.094	1680.69
497.312	1655.69
497.529	1655.69
497.746	1709.69
497.963	1724.69
498.181	1765.69
498.398	1749.69
498.615	1784.69
498.832	1823.69
499.049	1837.69
499.267	1851.69
499.484	1927.69
499.701	1905.69
499.918	1965.69
500.135	2059.69
500.352	2075.69
500.569	2047.69
500.786	2071.69
501.003	2055.69
501.22	1999.69
501.437	1967.69
501.654	1964.69
501.871	1927.69
502.088	1875.69
502.305	1845.69
502.522	1817.69
502.739	1792.69
502.956	1713.69
503.172	1756.69
503.389	1681.69
503.606	1711.69
503.823	1657.69
504.04	1647.69
504.256	1629.69
504.473	1640.69
504.69	1633.69
504.907	1591.69
505.123	1562.69
505.34	1572.69
505.557	1509.69
505.773	1494.69
505.99	1518.69
506.207	1476.69
506.423	1472.69
506.64	1478.69
506.856	1439.69
507.073	1443.69
507.289	1441.69
507.506	1423.69
507.722	1430.69
507.939	1447.69
508.155	1403.69
508.372	1392.69
508.588	1395.69
508.805	1400.69
509.021	1381.69
509.238	1367.69
509.454	1368.69
509.67	1372.69
509.887	1332.69
510.103	1309.69
510.319	1350.69
510.536	1328.69
510.752	1292.69
510.968	1319.69
511.184	1313.69
511.401	1295.69
511.617	1308.69
511.833	1327.69
512.049	1318.69
512.265	1342.69
512.481	1324.69
512.698	1287.69
512.914	1305.69
513.13	1304.69
513.346	1316.69
513.562	1324.69
513.778	1292.69
513.994	1299.69
514.21	1296.69
514.426	1317.69
514.642	1339.69
514.858	1327.69
515.074	1295.69
515.29	1288.69
515.506	1297.69
515.721	1329.69
515.937	1345.69
516.153	1323.69
516.369	1313.69
516.585	1311.69
516.801	1335.69
517.016	1335.69
517.232	1348.69
517.448	1349.69
517.664	1322.69
517.879	1347.69
518.095	1368.69
518.311	1365.69
518.527	1324.69
518.742	1329.69
518.958	1354.69
519.173	1328.69
519.389	1285.69
519.605	1290.69
519.82	1242.69
520.036	1296.69
520.251	1247.69
520.467	1241.69
520.682	1264.69
520.898	1269.69
521.113	1262.69
521.329	1228.69
521.544	1273.69
521.76	1251.69
521.975	1257.69
522.19	1238.69
522.406	1206.69
522.621	1232.69
522.836	1217.69
523.052	1208.69
523.267	1224.69
523.482	1184.69
523.698	1168.69
523.913	1216.69
524.128	1185.69
524.343	1184.69
524.559	1210.69
524.774	1248.69
524.989	1207.69
525.204	1200.69
525.419	1173.69
525.634	1187.69
525.849	1215.69
526.064	1199.69
526.28	1174.69
526.495	1185.69
526.71	1182.69
526.925	1159.69
527.14	1141.69
527.355	1161.69
527.57	1155.69
527.785	1173.69
527.999	1167.69
528.214	1169.69
528.429	1121.69
528.644	1166.69
528.859	1165.69
529.074	1151.69
529.289	1161.69
529.503	1140.69
529.718	1142.69
529.933	1131.69
530.148	1145.69
530.363	1105.69
530.577	1135.69
530.792	1127.69
531.007	1128.69
531.221	1116.69
531.436	1116.69
531.651	1129.69
531.865	1117.69
532.08	1103.69
532.295	1102.69
532.509	1109.69
532.724	1111.69
532.938	1076.69
533.153	1085.69
533.367	1094.69
533.582	1112.69
533.796	1147.69
534.011	1125.69
534.225	1091.69
534.44	1083.69
534.654	1058.69
534.868	1077.69
535.083	1072.69
535.297	1101.69
535.511	1100.69
535.726	1076.69
535.94	1119.69
536.154	1063.69
536.369	1053.69
536.583	1061.69
536.797	1083.69
537.011	1092.69
537.225	1083.69
537.44	1045.69
537.654	1067.69
537.868	1065.69
538.082	1036.69
538.296	1017.69
538.51	1051.69
538.724	1067.69
538.938	1025.69
539.153	1023.69
539.367	1020.69
539.581	1066.69
539.795	1003.69
540.009	1006.69
540.222	1046.69
540.436	1020.69
540.65	1040.69
540.864	1037.69
541.078	1040.69
541.292	991.69
541.506	1021.69
541.72	1036.69
541.934	1047.69
542.147	1027.69
542.361	1033.69
542.575	1006.69
542.789	1038.69
543.002	971.69
543.216	984.69
543.43	984.69
543.644	1001.69
543.857	1007.69
544.071	1025.69
544.285	1006.69
544.498	1027.69
544.712	1019.69
544.925	985.69
545.139	977.69
545.352	1018.69
545.566	1002.69
545.779	984.69
545.993	997.69
546.206	997.69
546.42	981.69
546.633	976.69
546.847	1013.69
547.06	989.69
547.274	1007.69
547.487	1026.69
547.7	997.69
547.914	1019.69
548.127	989.69
548.34	985.69
548.554	974.69
548.767	975.69
548.98	954.69
549.193	978.69
549.407	969.69
549.62	970.69
549.833	1013.69
550.046	977.69
550.259	968.69
550.473	980.69
550.686	940.69
550.899	959.69
551.112	952.69
551.325	932.69
551.538	936.69
551.751	940.69
551.964	929.69
552.177	953.69
552.39	954.69
552.603	926.69
552.816	927.69
553.029	935.69
553.242	954.69
553.455	959.69
553.667	941.69
553.88	953.69
554.093	917.69
554.306	912.69
554.519	947.69
554.732	905.69
554.944	901.69
555.157	904.69
555.37	902.69
555.583	918.69
555.795	896.69
556.008	911.69
556.221	888.69
556.433	884.69
556.646	883.69
556.859	879.69
557.071	873.69
557.284	847.69
557.496	887.69
557.709	864.69
557.921	869.69
558.134	833.69
558.346	849.69
558.559	859.69
558.771	868.69
558.984	856.69
559.196	853.69
559.409	832.69
559.621	821.69
559.833	835.69
560.046	849.69
560.258	826.69
560.47	819.69
560.683	832.69
560.895	812.69
561.107	823.69
561.32	818.69
561.532	822.69
561.744	830.69
561.956	792.69
562.168	847.69
562.381	821.69
562.593	815.69
562.805	813.69
563.017	805.69
563.229	820.69
563.441	800.69
563.653	835.69
563.865	839.69
564.077	832.69
564.289	811.69
564.501	829.69
564.713	832.69
564.925	845.69
565.137	840.69
565.349	842.69
565.561	845.69
565.773	854.69
565.985	848.69
566.197	863.69
566.408	876.69
566.62	884.69
566.832	856.69
567.044	864.69
567.255	878.69
567.467	890.69
567.679	865.69
567.891	877.69
568.102	886.69
568.314	865.69
568.526	857.69
568.737	852.69
568.949	824.69
569.161	826.69
569.372	797.69
569.584	773.69
569.795	769.69
570.007	789.69
570.218	776.69
570.43	752.69
570.641	743.69
570.853	741.69
571.064	740.69
571.276	741.69
571.487	717.69
571.698	720.69
571.91	709.69
572.121	727.69
572.333	724.69
572.544	712.69
572.755	705.69
572.966	692.69
573.178	688.69
573.389	680.69
573.6	662.69
573.811	666.69
574.023	650.69
574.234	652.69
574.445	654.69
574.656	655.69
574.867	640.69
575.078	683.69
575.289	659.69
575.501	650.69
575.712	620.69
575.923	625.69
576.134	650.69
576.345	654.69
576.556	636.69
576.767	645.69
576.978	600.69
577.188	629.69
577.399	632.69
577.61	622.69
577.821	615.69
578.032	622.69
578.243	627.69
578.454	614.69
578.665	605.69
578.875	593.69
579.086	593.69
579.297	603.69
579.508	593.69
579.718	596.69
579.929	589.69
580.14	591.69
580.35	568.69
580.561	581.69
580.772	598.69
580.982	578.69
581.193	581.69
581.403	567.69
581.614	559.69
581.825	563.69
582.035	589.69
582.246	546.69
582.456	581.69
582.667	598.69
582.877	548.69
583.087	539.69
583.298	541.69
583.508	557.69
583.719	573.69
583.929	546.69
584.139	565.69
584.35	574.69
584.56	549.69
584.77	541.69
584.981	552.69
585.191	558.69
585.401	535.69
585.611	527.69
585.821	542.69
586.032	526.69
586.242	523.69
586.452	536.69
586.662	539.69
586.872	565.69
587.082	541.69
587.292	527.69
587.502	524.69
587.713	553.69
587.923	535.69
588.133	539.69
588.343	547.69
588.553	542.69
588.762	518.69
588.972	543.69
589.182	602.69
589.392	581.69
589.602	535.69
589.812	583.69
590.022	524.69
590.232	533.69
590.441	531.69
590.651	527.69
590.861	529.69
591.071	495.69
591.281	522.69
591.49	535.69
591.7	527.69
591.91	540.69
592.119	525.69
592.329	504.69
592.539	516.69
592.748	525.69
592.958	527.69
593.167	503.69
593.377	521.69
593.587	513.69
593.796	503.69
594.006	507.69
594.215	507.69
594.424	519.69
594.634	541.69
594.843	489.69
595.053	488.69
595.262	495.69
595.472	474.69
595.681	511.69
595.89	491.69
596.1	491.69
596.309	489.69
596.518	469.69
596.727	480.69
596.937	489.69
597.146	485.69
597.355	464.69
597.564	455.69
597.774	426.69
597.983	446.69
598.192	467.69
598.401	477.69
598.61	436.69
598.819	469.69
599.028	474.69
599.237	469.69
599.446	446.69
599.655	448.69
599.864	443.69
600.073	458.69
600.282	418.69
600.491	447.69
600.7	424.69
600.909	437.69
601.118	448.69
601.327	423.69
601.536	412.69
601.745	429.69
601.953	422.69
602.162	424.69
602.371	430.69
602.58	441.69
602.789	436.69
602.997	437.69
603.206	425.69
603.415	410.69
603.623	412.69
603.832	402.69
604.041	418.69
604.249	423.69
604.458	427.69
604.666	405.69
604.875	391.69
605.084	388.69
605.292	420.69
605.501	393.69
605.709	403.69
605.918	394.69
606.126	419.69
606.334	405.69
606.543	385.69
606.751	399.69
606.96	399.69
607.168	392.69
607.376	389.69
607.585	403.69
607.793	409.69
608.001	399.69
608.21	380.69
608.418	396.69
608.626	391.69
608.834	395.69
609.043	397.69
609.251	400.69
609.459	399.69
609.667	378.69
609.875	404.69
610.083	382.69
610.291	403.69
610.499	384.69
610.707	401.69
610.916	372.69
611.124	382.69
611.332	375.69
611.54	388.69
611.748	377.69
611.955	377.69
612.163	387.69
612.371	385.69
612.579	377.69
612.787	372.69
612.995	401.69
613.203	389.69
613.411	375.69
613.618	390.69
613.826	389.69
614.034	381.69
614.242	377.69
614.449	364.69
614.657	363.69
614.865	387.69
615.072	375.69
615.28	371.69
615.488	368.69
615.695	368.69
615.903	363.69
616.111	372.69
616.318	375.69
616.526	374.69
616.733	366.69
616.941	364.69
617.148	376.69
617.356	361.69
617.563	362.69
617.771	364.69
617.978	351.69
618.185	366.69
618.393	364.69
618.6	377.69
618.807	365.69
619.015	352.69
619.222	331.69
619.429	359.69
619.637	364.69
619.844	348.69
620.051	333.69
620.258	348.69
620.466	335.69
620.673	336.69
620.88	351.69
621.087	344.69
621.294	330.69
621.501	335.69
621.708	331.69
621.915	336.69
622.122	350.69
622.329	341.69
622.536	343.69
622.743	330.69
622.95	319.69
623.157	335.69
623.364	349.69
623.571	346.69
623.778	321.69
623.985	334.69
624.192	335.69
624.399	342.69
624.606	330.69
624.812	323.69
625.019	323.69
625.226	315.69
625.433	322.69
625.639	311.69
625.846	312.69
626.053	322.69
626.259	318.69
626.466	325.69
626.673	326.69
626.879	320.69
627.086	317.69
627.293	323.69
627.499	318.69
627.706	328.69
627.912	320.69
628.119	321.69
628.325	312.69
628.532	307.69
628.738	323.69
628.945	318.69
629.151	320.69
629.357	297.69
629.564	288.69
629.77	314.69
629.976	301.69
630.183	283.69
630.389	303.69
630.595	308.69
630.802	293.69
631.008	304.69
631.214	305.69
631.42	298.69
631.627	299.69
631.833	285.69
632.039	280.69
632.245	290.69
632.451	282.69
632.657	293.69
632.863	285.69
633.069	281.69
633.275	293.69
633.481	302.69
633.688	267.69
633.893	283.69
634.099	280.69
634.305	285.69
634.511	274.69
634.717	280.69
634.923	286.69
635.129	284.69
635.335	286.69
635.541	277.69
635.747	289.69
635.952	293.69
636.158	279.69
636.364	272.69
636.57	276.69
636.775	281.69
636.981	275.69
637.187	266.69
637.392	270.69
637.598	272.69
637.804	268.69
638.009	264.69
638.215	259.69
638.421	272.69
638.626	274.69
638.832	285.69
639.037	258.69
639.243	287.69
639.448	273.69
639.654	273.69
639.859	257.69
640.065	256.69
640.27	277.69
640.475	271.69
640.681	259.69
640.886	263.69
641.091	244.69
641.297	278.69
641.502	260.69
641.707	272.69
641.913	280.69
642.118	249.69
642.323	286.69
642.528	262.69
642.733	262.69
642.939	245.69
643.144	239.69
643.349	275.69
643.554	268.69
643.759	268.69
643.964	248.69
644.169	257.69
644.374	261.69
644.579	256.69
644.784	265.69
644.989	257.69
645.194	271.69
645.399	254.69
645.604	269.69
645.809	261.69
646.014	258.69
646.219	271.69
646.423	266.69
646.628	268.69
646.833	277.69
647.038	262.69
647.243	267.69
647.447	236.69
647.652	277.69
647.857	269.69
648.062	277.69
648.266	250.69
648.471	268.69
648.676	267.69
648.88	264.69
649.085	264.69
649.289	283.69
649.494	247.69
649.698	274.69
649.903	259.69
650.107	244.69
650.312	237.69
650.516	242.69
650.721	253.69
650.925	259.69
651.13	259.69
651.334	250.69
651.539	244.69
651.743	232.69
651.947	246.69
652.152	246.69
652.356	245.69
652.56	220.69
652.764	232.69
652.969	219.69
653.173	235.69
653.377	235.69
653.581	234.69
653.785	222.69
653.99	215.69
654.194	218.69
654.398	239.69
654.602	224.69
654.806	230.69
655.01	216.69
655.214	215.69
655.418	223.69
655.622	223.69
655.826	237.69
656.03	212.69
656.234	207.69
656.438	217.69
656.642	206.69
656.846	208.69
657.049	188.69
657.253	191.69
657.457	182.69
657.661	184.69
657.865	173.69
658.068	169.69
658.272	151.69
658.476	150.69
658.68	145.69
658.883	140.69
659.087	137.69
659.291	138.69
659.494	134.69
659.698	130.69
659.901	135.69
660.105	116.69
660.309	133.69
660.512	103.69
660.716	117.69
660.919	112.69
661.123	127.69
661.326	117.69
661.53	108.69
661.733	115.69
661.936	101.69
662.14	93.69
662.343	97.69
662.546	95.69
662.75	92.69
662.953	103.69
663.156	94.69
663.36	84.69
663.563	79.69
663.766	88.69
663.969	86.69
664.173	86.69
664.376	90.69
664.579	90.69
664.782	89.69
664.985	81.69
665.188	90.69
665.391	91.69
665.594	76.69
665.797	85.69
666	90.69
666.203	96.69
666.406	88.69
666.609	91.69
666.812	94.69
667.015	102.69
667.218	75.69
667.421	88.69
667.624	85.69
667.827	81.69
668.03	80.69
668.232	79.69
668.435	91.69
668.638	88.69
668.841	92.69
669.043	64.69
669.246	83.69
669.449	93.69
669.651	86.69
669.854	86.69
670.057	85.69
670.259	85.69
670.462	87.69
670.665	78.69
670.867	81.69
671.07	73.69
671.272	83.69
671.475	87.69
671.677	83.69
671.88	91.69
672.082	70.69
672.284	74.69
672.487	94.69
672.689	92.69
672.892	84.69
