Data from Ni(NO3)2@0.5M.TitratingCurve.Agarose3%dH2O.NegLispCup.LampEnergy10.LIBS07252019_HRD10591_18-00-17-565.txt Node
Date: Thu Jul 25 18:00:17 EDT 2019
User: cochatt
Spectrometer: HR+D1059
Trigger mode: 1
Integration Time (sec): 1.000000E-1
Scans to average: 1
Electric dark correction enabled: true
Nonlinearity correction enabled: false
Boxcar width: 0
XAxis mode: Wavelengths
Number of Pixels in Spectrum: 2048
>>>>>Begin Spectral Data<<<<<
223.165	-27.06
223.4	-27.06
223.635	-27.06
223.869	-9.06
224.104	-13.06
224.338	-8.06
224.573	-20.06
224.808	-18.06
225.042	-3.06
225.277	-20.06
225.511	-6.06
225.746	13.94
225.98	17.94
226.215	15.94
226.449	12.94
226.683	10.94
226.918	14.94
227.152	37.94
227.387	28.94
227.621	52.94
227.856	57.94
228.09	51.94
228.324	43.94
228.559	58.94
228.793	78.94
229.027	145.94
229.262	173.94
229.496	171.94
229.73	164.94
229.964	188.94
230.199	214.94
230.433	231.94
230.667	223.94
230.901	199.94
231.136	185.94
231.37	188.94
231.604	206.94
231.838	237.94
232.072	230.94
232.306	229.94
232.541	202.94
232.775	212.94
233.009	208.94
233.243	194.94
233.477	182.94
233.711	199.94
233.945	214.94
234.179	221.94
234.413	200.94
234.647	234.94
234.881	218.94
235.115	212.94
235.349	210.94
235.583	220.94
235.817	209.94
236.051	212.94
236.285	218.94
236.519	208.94
236.753	211.94
236.987	209.94
237.221	209.94
237.455	221.94
237.689	214.94
237.922	243.94
238.156	222.94
238.39	215.94
238.624	226.94
238.858	242.94
239.091	246.94
239.325	241.94
239.559	244.94
239.793	251.94
240.027	275.94
240.26	248.94
240.494	256.94
240.728	252.94
240.961	240.94
241.195	260.94
241.429	265.94
241.662	270.94
241.896	290.94
242.13	297.94
242.363	278.94
242.597	274.94
242.83	266.94
243.064	269.94
243.298	277.94
243.531	279.94
243.765	270.94
243.998	303.94
244.232	276.94
244.465	302.94
244.699	306.94
244.932	293.94
245.166	316.94
245.399	304.94
245.633	288.94
245.866	292.94
246.099	310.94
246.333	310.94
246.566	309.94
246.8	312.94
247.033	314.94
247.266	337.94
247.5	320.94
247.733	319.94
247.966	321.94
248.2	332.94
248.433	332.94
248.666	330.94
248.899	336.94
249.133	340.94
249.366	330.94
249.599	352.94
249.832	353.94
250.066	361.94
250.299	370.94
250.532	368.94
250.765	369.94
250.998	370.94
251.231	383.94
251.465	390.94
251.698	405.94
251.931	387.94
252.164	374.94
252.397	397.94
252.63	380.94
252.863	392.94
253.096	374.94
253.329	396.94
253.562	384.94
253.795	391.94
254.028	407.94
254.261	429.94
254.494	399.94
254.727	421.94
254.96	429.94
255.193	414.94
255.426	405.94
255.659	421.94
255.892	418.94
256.124	419.94
256.357	426.94
256.59	437.94
256.823	449.94
257.056	436.94
257.289	433.94
257.521	443.94
257.754	449.94
257.987	454.94
258.22	463.94
258.452	457.94
258.685	448.94
258.918	461.94
259.151	474.94
259.383	472.94
259.616	468.94
259.849	469.94
260.081	465.94
260.314	465.94
260.547	488.94
260.779	480.94
261.012	491.94
261.244	499.94
261.477	526.94
261.71	482.94
261.942	490.94
262.175	499.94
262.407	516.94
262.64	518.94
262.872	521.94
263.105	510.94
263.337	514.94
263.57	510.94
263.802	534.94
264.035	516.94
264.267	499.94
264.499	520.94
264.732	541.94
264.964	538.94
265.197	531.94
265.429	523.94
265.661	535.94
265.894	537.94
266.126	561.94
266.358	529.94
266.591	547.94
266.823	554.94
267.055	564.94
267.287	556.94
267.52	553.94
267.752	572.94
267.984	556.94
268.216	562.94
268.448	562.94
268.681	581.94
268.913	567.94
269.145	573.94
269.377	583.94
269.609	596.94
269.841	588.94
270.073	567.94
270.306	577.94
270.538	590.94
270.77	587.94
271.002	597.94
271.234	604.94
271.466	592.94
271.698	614.94
271.93	595.94
272.162	604.94
272.394	614.94
272.626	626.94
272.858	615.94
273.09	638.94
273.322	642.94
273.553	601.94
273.785	630.94
274.017	613.94
274.249	641.94
274.481	628.94
274.713	616.94
274.945	654.94
275.176	650.94
275.408	657.94
275.64	622.94
275.872	659.94
276.104	652.94
276.335	668.94
276.567	676.94
276.799	679.94
277.031	666.94
277.262	680.94
277.494	655.94
277.726	668.94
277.957	690.94
278.189	692.94
278.421	658.94
278.652	706.94
278.884	697.94
279.115	684.94
279.347	680.94
279.579	688.94
279.81	686.94
280.042	696.94
280.273	715.94
280.505	692.94
280.736	704.94
280.968	729.94
281.199	705.94
281.431	728.94
281.662	719.94
281.894	730.94
282.125	733.94
282.356	732.94
282.588	738.94
282.819	712.94
283.051	736.94
283.282	729.94
283.513	766.94
283.745	731.94
283.976	726.94
284.207	752.94
284.439	774.94
284.67	744.94
284.901	763.94
285.132	772.94
285.364	771.94
285.595	746.94
285.826	760.94
286.057	760.94
286.288	745.94
286.52	774.94
286.751	778.94
286.982	772.94
287.213	776.94
287.444	777.94
287.675	816.94
287.906	797.94
288.138	787.94
288.369	784.94
288.6	808.94
288.831	802.94
289.062	789.94
289.293	794.94
289.524	802.94
289.755	791.94
289.986	806.94
290.217	811.94
290.448	811.94
290.679	805.94
290.91	823.94
291.141	810.94
291.371	804.94
291.602	819.94
291.833	807.94
292.064	818.94
292.295	801.94
292.526	832.94
292.757	826.94
292.987	793.94
293.218	786.94
293.449	825.94
293.68	819.94
293.91	828.94
294.141	824.94
294.372	809.94
294.603	852.94
294.833	827.94
295.064	828.94
295.295	801.94
295.525	846.94
295.756	845.94
295.987	814.94
296.217	820.94
296.448	836.94
296.679	864.94
296.909	837.94
297.14	837.94
297.37	852.94
297.601	879.94
297.831	847.94
298.062	869.94
298.292	861.94
298.523	892.94
298.753	902.94
298.984	881.94
299.214	891.94
299.445	907.94
299.675	898.94
299.905	923.94
300.136	922.94
300.366	942.94
300.597	967.94
300.827	940.94
301.057	948.94
301.288	940.94
301.518	949.94
301.748	953.94
301.979	933.94
302.209	930.94
302.439	937.94
302.669	928.94
302.9	941.94
303.13	943.94
303.36	917.94
303.59	957.94
303.82	932.94
304.051	960.94
304.281	967.94
304.511	958.94
304.741	953.94
304.971	954.94
305.201	987.94
305.431	997.94
305.661	975.94
305.891	954.94
306.121	948.94
306.352	929.94
306.582	958.94
306.812	944.94
307.042	938.94
307.272	948.94
307.502	948.94
307.731	953.94
307.961	954.94
308.191	944.94
308.421	923.94
308.651	932.94
308.881	926.94
309.111	952.94
309.341	946.94
309.571	962.94
309.8	966.94
310.03	974.94
310.26	1019.94
310.49	1026.94
310.72	979.94
310.949	964.94
311.179	972.94
311.409	966.94
311.639	980.94
311.868	1024.94
312.098	992.94
312.328	984.94
312.557	996.94
312.787	982.94
313.017	1008.94
313.246	1044.94
313.476	1049.94
313.706	1062.94
313.935	1019.94
314.165	1030.94
314.394	988.94
314.624	1042.94
314.853	1044.94
315.083	1045.94
315.312	1050.94
315.542	1036.94
315.771	1021.94
316.001	1018.94
316.23	1052.94
316.46	1064.94
316.689	993.94
316.919	1042.94
317.148	1048.94
317.377	1046.94
317.607	1034.94
317.836	1013.94
318.065	1028.94
318.295	1037.94
318.524	1020.94
318.753	1052.94
318.983	1031.94
319.212	1058.94
319.441	1052.94
319.67	1063.94
319.9	1039.94
320.129	1034.94
320.358	1037.94
320.587	1052.94
320.816	1037.94
321.046	1053.94
321.275	1069.94
321.504	1064.94
321.733	1065.94
321.962	1050.94
322.191	1093.94
322.42	1058.94
322.649	1076.94
322.878	1087.94
323.108	1103.94
323.337	1105.94
323.566	1118.94
323.795	1102.94
324.024	1138.94
324.253	1113.94
324.482	1122.94
324.71	1102.94
324.939	1132.94
325.168	1104.94
325.397	1091.94
325.626	1136.94
325.855	1132.94
326.084	1132.94
326.313	1134.94
326.542	1165.94
326.77	1156.94
326.999	1131.94
327.228	1145.94
327.457	1167.94
327.686	1166.94
327.914	1157.94
328.143	1156.94
328.372	1178.94
328.6	1148.94
328.829	1147.94
329.058	1197.94
329.287	1201.94
329.515	1176.94
329.744	1185.94
329.972	1184.94
330.201	1194.94
330.43	1191.94
330.658	1189.94
330.887	1195.94
331.115	1206.94
331.344	1210.94
331.572	1230.94
331.801	1256.94
332.03	1273.94
332.258	1271.94
332.486	1321.94
332.715	1293.94
332.943	1348.94
333.172	1347.94
333.4	1346.94
333.629	1387.94
333.857	1420.94
334.085	1443.94
334.314	1429.94
334.542	1398.94
334.771	1416.94
334.999	1407.94
335.227	1421.94
335.455	1398.94
335.684	1440.94
335.912	1419.94
336.14	1422.94
336.369	1404.94
336.597	1392.94
336.825	1426.94
337.053	1429.94
337.281	1432.94
337.51	1382.94
337.738	1399.94
337.966	1378.94
338.194	1394.94
338.422	1378.94
338.65	1284.94
338.878	1321.94
339.106	1319.94
339.334	1349.94
339.562	1343.94
339.79	1292.94
340.018	1304.94
340.246	1252.94
340.474	1241.94
340.702	1241.94
340.93	1253.94
341.158	1290.94
341.386	1326.94
341.614	1427.94
341.842	1350.94
342.07	1263.94
342.298	1280.94
342.526	1261.94
342.754	1259.94
342.981	1270.94
343.209	1301.94
343.437	1328.94
343.665	1397.94
343.893	1394.94
344.12	1412.94
344.348	1384.94
344.576	1433.94
344.804	1394.94
345.031	1340.94
345.259	1337.94
345.487	1294.94
345.714	1312.94
345.942	1312.94
346.17	1358.94
346.397	1296.94
346.625	1285.94
346.853	1223.94
347.08	1234.94
347.308	1188.94
347.535	1188.94
347.763	1226.94
347.99	1247.94
348.218	1228.94
348.445	1205.94
348.673	1206.94
348.9	1205.94
349.128	1226.94
349.355	1234.94
349.583	1262.94
349.81	1198.94
350.037	1204.94
350.265	1184.94
350.492	1168.94
350.72	1177.94
350.947	1209.94
351.174	1230.94
351.402	1259.94
351.629	1267.94
351.856	1255.94
352.083	1227.94
352.311	1246.94
352.538	1293.94
352.765	1275.94
352.992	1204.94
353.22	1167.94
353.447	1171.94
353.674	1163.94
353.901	1155.94
354.128	1183.94
354.355	1158.94
354.583	1146.94
354.81	1164.94
355.037	1150.94
355.264	1157.94
355.491	1143.94
355.718	1175.94
355.945	1159.94
356.172	1161.94
356.399	1198.94
356.626	1208.94
356.853	1230.94
357.08	1182.94
357.307	1177.94
357.534	1182.94
357.761	1181.94
357.988	1202.94
358.215	1156.94
358.441	1164.94
358.668	1136.94
358.895	1155.94
359.122	1170.94
359.349	1166.94
359.576	1159.94
359.802	1174.94
360.029	1192.94
360.256	1192.94
360.483	1185.94
360.709	1192.94
360.936	1174.94
361.163	1186.94
361.39	1187.94
361.616	1194.94
361.843	1208.94
362.07	1278.94
362.296	1258.94
362.523	1215.94
362.749	1192.94
362.976	1175.94
363.203	1171.94
363.429	1146.94
363.656	1193.94
363.882	1208.94
364.109	1190.94
364.335	1155.94
364.562	1208.94
364.788	1175.94
365.015	1169.94
365.241	1195.94
365.468	1183.94
365.694	1207.94
365.92	1184.94
366.147	1168.94
366.373	1177.94
366.599	1196.94
366.826	1182.94
367.052	1168.94
367.278	1183.94
367.505	1182.94
367.731	1207.94
367.957	1187.94
368.184	1192.94
368.41	1210.94
368.636	1203.94
368.862	1221.94
369.089	1204.94
369.315	1217.94
369.541	1236.94
369.767	1217.94
369.993	1219.94
370.219	1234.94
370.445	1226.94
370.672	1234.94
370.898	1219.94
371.124	1258.94
371.35	1241.94
371.576	1268.94
371.802	1249.94
372.028	1278.94
372.254	1259.94
372.48	1256.94
372.706	1296.94
372.932	1326.94
373.158	1259.94
373.384	1285.94
373.61	1266.94
373.835	1315.94
374.061	1305.94
374.287	1274.94
374.513	1313.94
374.739	1317.94
374.965	1353.94
375.191	1334.94
375.416	1332.94
375.642	1332.94
375.868	1315.94
376.094	1307.94
376.319	1288.94
376.545	1284.94
376.771	1269.94
376.997	1267.94
377.222	1274.94
377.448	1302.94
377.674	1275.94
377.899	1249.94
378.125	1254.94
378.35	1235.94
378.576	1226.94
378.802	1249.94
379.027	1240.94
379.253	1264.94
379.478	1250.94
379.704	1284.94
379.929	1259.94
380.155	1243.94
380.38	1254.94
380.606	1280.94
380.831	1279.94
381.057	1256.94
381.282	1270.94
381.507	1292.94
381.733	1271.94
381.958	1272.94
382.184	1283.94
382.409	1281.94
382.634	1294.94
382.86	1323.94
383.085	1329.94
383.31	1313.94
383.535	1337.94
383.761	1355.94
383.986	1330.94
384.211	1384.94
384.436	1334.94
384.662	1408.94
384.887	1432.94
385.112	1441.94
385.337	1416.94
385.562	1440.94
385.787	1482.94
386.013	1514.94
386.238	1525.94
386.463	1494.94
386.688	1478.94
386.913	1492.94
387.138	1490.94
387.363	1475.94
387.588	1492.94
387.813	1459.94
388.038	1464.94
388.263	1490.94
388.488	1514.94
388.713	1490.94
388.938	1477.94
389.163	1481.94
389.387	1523.94
389.612	1461.94
389.837	1490.94
390.062	1477.94
390.287	1471.94
390.512	1512.94
390.736	1507.94
390.961	1495.94
391.186	1530.94
391.411	1525.94
391.636	1550.94
391.86	1577.94
392.085	1643.94
392.31	1600.94
392.534	1595.94
392.759	1622.94
392.984	1592.94
393.208	1596.94
393.433	1570.94
393.658	1576.94
393.882	1528.94
394.107	1550.94
394.331	1582.94
394.556	1544.94
394.78	1576.94
395.005	1577.94
395.229	1592.94
395.454	1618.94
395.678	1618.94
395.903	1630.94
396.127	1634.94
396.352	1620.94
396.576	1620.94
396.801	1603.94
397.025	1632.94
397.249	1643.94
397.474	1680.94
397.698	1689.94
397.922	1708.94
398.147	1720.94
398.371	1736.94
398.595	1766.94
398.82	1811.94
399.044	1907.94
399.268	1958.94
399.492	2166.94
399.717	2192.94
399.941	2252.94
400.165	2184.94
400.389	2125.94
400.613	1989.94
400.837	1930.94
401.062	1872.94
401.286	1855.94
401.51	1834.94
401.734	1822.94
401.958	1812.94
402.182	1850.94
402.406	1834.94
402.63	1853.94
402.854	1848.94
403.078	1874.94
403.302	1861.94
403.526	1860.94
403.75	1889.94
403.974	1884.94
404.198	1905.94
404.422	1931.94
404.645	1880.94
404.869	1897.94
405.093	1909.94
405.317	1869.94
405.541	1891.94
405.765	1897.94
405.988	1951.94
406.212	1970.94
406.436	1920.94
406.66	1970.94
406.883	1975.94
407.107	2102.94
407.331	2144.94
407.555	2156.94
407.778	2182.94
408.002	2150.94
408.226	2134.94
408.449	2108.94
408.673	2055.94
408.896	2020.94
409.12	1987.94
409.344	2038.94
409.567	1953.94
409.791	1978.94
410.014	1935.94
410.238	1921.94
410.461	1964.94
410.685	1965.94
410.908	1976.94
411.132	1910.94
411.355	1883.94
411.578	1894.94
411.802	1877.94
412.025	1856.94
412.249	1874.94
412.472	1908.94
412.695	1883.94
412.919	1852.94
413.142	1844.94
413.365	1843.94
413.589	1821.94
413.812	1820.94
414.035	1822.94
414.258	1841.94
414.482	1809.94
414.705	1820.94
414.928	1798.94
415.151	1852.94
415.374	1808.94
415.597	1806.94
415.821	1763.94
416.044	1778.94
416.267	1723.94
416.49	1724.94
416.713	1728.94
416.936	1743.94
417.159	1726.94
417.382	1748.94
417.605	1712.94
417.828	1737.94
418.051	1727.94
418.274	1701.94
418.497	1720.94
418.72	1767.94
418.943	1725.94
419.166	1843.94
419.389	1916.94
419.611	1946.94
419.834	1844.94
420.057	1798.94
420.28	1727.94
420.503	1710.94
420.726	1704.94
420.948	1722.94
421.171	1718.94
421.394	1707.94
421.617	1706.94
421.839	1735.94
422.062	1741.94
422.285	1703.94
422.507	1728.94
422.73	1757.94
422.953	1771.94
423.175	1760.94
423.398	1749.94
423.621	1703.94
423.843	1748.94
424.066	1748.94
424.288	1745.94
424.511	1758.94
424.733	1735.94
424.956	1716.94
425.178	1727.94
425.401	1690.94
425.623	1727.94
425.846	1686.94
426.068	1720.94
426.291	1674.94
426.513	1690.94
426.735	1715.94
426.958	1693.94
427.18	1654.94
427.402	1662.94
427.625	1669.94
427.847	1645.94
428.069	1599.94
428.292	1646.94
428.514	1614.94
428.736	1609.94
428.958	1622.94
429.181	1568.94
429.403	1565.94
429.625	1594.94
429.847	1617.94
430.069	1563.94
430.292	1599.94
430.514	1592.94
430.736	1638.94
430.958	1589.94
431.18	1624.94
431.402	1635.94
431.624	1613.94
431.846	1594.94
432.068	1596.94
432.29	1631.94
432.512	1657.94
432.734	1666.94
432.956	1622.94
433.178	1635.94
433.4	1648.94
433.622	1651.94
433.844	1686.94
434.066	1676.94
434.287	1676.94
434.509	1696.94
434.731	1734.94
434.953	1727.94
435.175	1798.94
435.397	1772.94
435.618	1686.94
435.84	1709.94
436.062	1672.94
436.284	1688.94
436.505	1644.94
436.727	1625.94
436.949	1621.94
437.17	1615.94
437.392	1575.94
437.614	1613.94
437.835	1578.94
438.057	1598.94
438.278	1529.94
438.5	1535.94
438.721	1570.94
438.943	1573.94
439.165	1594.94
439.386	1569.94
439.608	1579.94
439.829	1585.94
440.05	1617.94
440.272	1601.94
440.493	1598.94
440.715	1632.94
440.936	1627.94
441.158	1632.94
441.379	1625.94
441.6	1729.94
441.822	1674.94
442.043	1718.94
442.264	1719.94
442.486	1643.94
442.707	1689.94
442.928	1675.94
443.149	1722.94
443.371	1769.94
443.592	1761.94
443.813	1794.94
444.034	1742.94
444.255	1773.94
444.476	1803.94
444.698	1869.94
444.919	1933.94
445.14	1919.94
445.361	1891.94
445.582	1794.94
445.803	1719.94
446.024	1661.94
446.245	1682.94
446.466	1676.94
446.687	1573.94
446.908	1652.94
447.129	1564.94
447.35	1571.94
447.571	1557.94
447.792	1489.94
448.013	1512.94
448.234	1489.94
448.455	1496.94
448.675	1484.94
448.896	1496.94
449.117	1480.94
449.338	1447.94
449.559	1485.94
449.779	1414.94
450	1443.94
450.221	1426.94
450.442	1430.94
450.662	1448.94
450.883	1488.94
451.104	1517.94
451.324	1480.94
451.545	1459.94
451.766	1485.94
451.986	1397.94
452.207	1443.94
452.428	1429.94
452.648	1413.94
452.869	1401.94
453.089	1372.94
453.31	1450.94
453.53	1386.94
453.751	1387.94
453.971	1414.94
454.192	1426.94
454.412	1413.94
454.633	1393.94
454.853	1400.94
455.073	1384.94
455.294	1418.94
455.514	1385.94
455.734	1408.94
455.955	1400.94
456.175	1409.94
456.395	1363.94
456.616	1348.94
456.836	1378.94
457.056	1359.94
457.276	1373.94
457.497	1425.94
457.717	1426.94
457.937	1429.94
458.157	1447.94
458.377	1443.94
458.598	1475.94
458.818	1507.94
459.038	1554.94
459.258	1566.94
459.478	1646.94
459.698	1700.94
459.918	1744.94
460.138	1709.94
460.358	1765.94
460.578	1783.94
460.798	1811.94
461.018	1830.94
461.238	1792.94
461.458	1788.94
461.678	1789.94
461.898	1830.94
462.118	1826.94
462.338	1864.94
462.558	1933.94
462.777	1984.94
462.997	2077.94
463.217	2118.94
463.437	2212.94
463.657	2113.94
463.876	2007.94
464.096	2028.94
464.316	2040.94
464.536	1998.94
464.755	1963.94
464.975	1881.94
465.195	1814.94
465.414	1753.94
465.634	1690.94
465.854	1650.94
466.073	1604.94
466.293	1600.94
466.512	1592.94
466.732	1541.94
466.951	1558.94
467.171	1572.94
467.391	1554.94
467.61	1515.94
467.829	1554.94
468.049	1509.94
468.268	1497.94
468.488	1480.94
468.707	1489.94
468.927	1476.94
469.146	1525.94
469.365	1542.94
469.585	1508.94
469.804	1572.94
470.023	1555.94
470.243	1536.94
470.462	1528.94
470.681	1529.94
470.901	1512.94
471.12	1528.94
471.339	1540.94
471.558	1520.94
471.777	1542.94
471.997	1494.94
472.216	1481.94
472.435	1517.94
472.654	1498.94
472.873	1471.94
473.092	1486.94
473.311	1488.94
473.53	1501.94
473.749	1465.94
473.968	1463.94
474.187	1448.94
474.406	1514.94
474.625	1489.94
474.844	1501.94
475.063	1486.94
475.282	1516.94
475.501	1496.94
475.72	1540.94
475.939	1572.94
476.158	1555.94
476.377	1555.94
476.596	1566.94
476.814	1601.94
477.033	1568.94
477.252	1630.94
477.471	1624.94
477.69	1681.94
477.908	1714.94
478.127	1737.94
478.346	1718.94
478.564	1780.94
478.783	1782.94
479.002	1859.94
479.22	1862.94
479.439	1841.94
479.658	1834.94
479.876	1789.94
480.095	1828.94
480.313	1861.94
480.532	1844.94
480.751	1873.94
480.969	1842.94
481.188	1819.94
481.406	1753.94
481.624	1789.94
481.843	1764.94
482.061	1792.94
482.28	1770.94
482.498	1808.94
482.717	1771.94
482.935	1773.94
483.153	1804.94
483.372	1832.94
483.59	1857.94
483.808	1814.94
484.027	1768.94
484.245	1823.94
484.463	1827.94
484.681	1835.94
484.9	1790.94
485.118	1819.94
485.336	1801.94
485.554	1829.94
485.772	1882.94
485.99	1810.94
486.209	1826.94
486.427	1863.94
486.645	1876.94
486.863	1865.94
487.081	1872.94
487.299	1794.94
487.517	1854.94
487.735	1899.94
487.953	1859.94
488.171	1880.94
488.389	1841.94
488.607	1817.94
488.825	1801.94
489.043	1826.94
489.261	1785.94
489.479	1826.94
489.696	1810.94
489.914	1785.94
490.132	1802.94
490.35	1835.94
490.568	1831.94
490.786	1857.94
491.003	1836.94
491.221	1818.94
491.439	1844.94
491.657	1872.94
491.874	1872.94
492.092	1848.94
492.31	1867.94
492.527	1827.94
492.745	1832.94
492.963	1858.94
493.18	1892.94
493.398	1852.94
493.615	1860.94
493.833	1882.94
494.05	1910.94
494.268	1912.94
494.485	1934.94
494.703	1892.94
494.92	1890.94
495.138	1919.94
495.355	1970.94
495.573	1978.94
495.79	1957.94
496.008	1936.94
496.225	1978.94
496.442	2011.94
496.66	2041.94
496.877	2039.94
497.094	2088.94
497.312	2104.94
497.529	2131.94
497.746	2167.94
497.963	2288.94
498.181	2328.94
498.398	2405.94
498.615	2502.94
498.832	2616.94
499.049	2715.94
499.267	2886.94
499.484	3100.94
499.701	3258.94
499.918	3428.94
500.135	3669.94
500.352	3869.94
500.569	3941.94
500.786	3856.94
501.003	3792.94
501.22	3606.94
501.437	3386.94
501.654	3128.94
501.871	2943.94
502.088	2829.94
502.305	2740.94
502.522	2618.94
502.739	2525.94
502.956	2421.94
503.172	2374.94
503.389	2258.94
503.606	2188.94
503.823	2116.94
504.04	2180.94
504.256	2164.94
504.473	2138.94
504.69	2104.94
504.907	2056.94
505.123	2022.94
505.34	1894.94
505.557	1904.94
505.773	1858.94
505.99	1820.94
506.207	1780.94
506.423	1753.94
506.64	1706.94
506.856	1672.94
507.073	1672.94
507.289	1675.94
507.506	1688.94
507.722	1636.94
507.939	1632.94
508.155	1655.94
508.372	1637.94
508.588	1584.94
508.805	1557.94
509.021	1581.94
509.238	1579.94
509.454	1531.94
509.67	1588.94
509.887	1549.94
510.103	1522.94
510.319	1546.94
510.536	1547.94
510.752	1497.94
510.968	1521.94
511.184	1514.94
511.401	1491.94
511.617	1518.94
511.833	1477.94
512.049	1475.94
512.265	1494.94
512.481	1497.94
512.698	1535.94
512.914	1515.94
513.13	1509.94
513.346	1499.94
513.562	1527.94
513.778	1496.94
513.994	1479.94
514.21	1530.94
514.426	1525.94
514.642	1526.94
514.858	1577.94
515.074	1525.94
515.29	1558.94
515.506	1571.94
515.721	1556.94
515.937	1601.94
516.153	1590.94
516.369	1638.94
516.585	1670.94
516.801	1660.94
517.016	1693.94
517.232	1772.94
517.448	1768.94
517.664	1837.94
517.879	1819.94
518.095	1815.94
518.311	1813.94
518.527	1764.94
518.742	1704.94
518.958	1704.94
519.173	1628.94
519.389	1633.94
519.605	1590.94
519.82	1594.94
520.036	1521.94
520.251	1509.94
520.467	1504.94
520.682	1490.94
520.898	1488.94
521.113	1448.94
521.329	1435.94
521.544	1442.94
521.76	1452.94
521.975	1444.94
522.19	1398.94
522.406	1374.94
522.621	1403.94
522.836	1377.94
523.052	1406.94
523.267	1405.94
523.482	1354.94
523.698	1348.94
523.913	1362.94
524.128	1351.94
524.343	1346.94
524.559	1345.94
524.774	1335.94
524.989	1316.94
525.204	1357.94
525.419	1313.94
525.634	1331.94
525.849	1338.94
526.064	1354.94
526.28	1329.94
526.495	1307.94
526.71	1331.94
526.925	1301.94
527.14	1289.94
527.355	1292.94
527.57	1336.94
527.785	1335.94
527.999	1293.94
528.214	1298.94
528.429	1310.94
528.644	1301.94
528.859	1337.94
529.074	1309.94
529.289	1310.94
529.503	1309.94
529.718	1314.94
529.933	1291.94
530.148	1297.94
530.363	1296.94
530.577	1307.94
530.792	1298.94
531.007	1296.94
531.221	1267.94
531.436	1319.94
531.651	1282.94
531.865	1278.94
532.08	1300.94
532.295	1279.94
532.509	1249.94
532.724	1256.94
532.938	1282.94
533.153	1259.94
533.367	1264.94
533.582	1280.94
533.796	1280.94
534.011	1269.94
534.225	1251.94
534.44	1240.94
534.654	1261.94
534.868	1237.94
535.083	1265.94
535.297	1217.94
535.511	1229.94
535.726	1248.94
535.94	1238.94
536.154	1211.94
536.369	1260.94
536.583	1192.94
536.797	1219.94
537.011	1196.94
537.225	1212.94
537.44	1214.94
537.654	1182.94
537.868	1201.94
538.082	1172.94
538.296	1157.94
538.51	1166.94
538.724	1184.94
538.938	1164.94
539.153	1190.94
539.367	1177.94
539.581	1154.94
539.795	1172.94
540.009	1157.94
540.222	1147.94
540.436	1160.94
540.65	1134.94
540.864	1171.94
541.078	1166.94
541.292	1178.94
541.506	1171.94
541.72	1142.94
541.934	1172.94
542.147	1170.94
542.361	1169.94
542.575	1159.94
542.789	1148.94
543.002	1157.94
543.216	1150.94
543.43	1130.94
543.644	1150.94
543.857	1137.94
544.071	1131.94
544.285	1142.94
544.498	1141.94
544.712	1140.94
544.925	1129.94
545.139	1156.94
545.352	1146.94
545.566	1184.94
545.779	1124.94
545.993	1161.94
546.206	1155.94
546.42	1130.94
546.633	1168.94
546.847	1148.94
547.06	1166.94
547.274	1146.94
547.487	1153.94
547.7	1180.94
547.914	1168.94
548.127	1188.94
548.34	1162.94
548.554	1164.94
548.767	1167.94
548.98	1168.94
549.193	1134.94
549.407	1162.94
549.62	1168.94
549.833	1174.94
550.046	1151.94
550.259	1177.94
550.473	1165.94
550.686	1143.94
550.899	1156.94
551.112	1129.94
551.325	1142.94
551.538	1143.94
551.751	1146.94
551.964	1141.94
552.177	1156.94
552.39	1168.94
552.603	1171.94
552.816	1197.94
553.029	1211.94
553.242	1186.94
553.455	1193.94
553.667	1217.94
553.88	1202.94
554.093	1181.94
554.306	1129.94
554.519	1101.94
554.732	1110.94
554.944	1102.94
555.157	1090.94
555.37	1111.94
555.583	1077.94
555.795	1083.94
556.008	1033.94
556.221	1020.94
556.433	1049.94
556.646	1049.94
556.859	1026.94
557.071	998.94
557.284	982.94
557.496	991.94
557.709	1008.94
557.921	995.94
558.134	1008.94
558.346	981.94
558.559	994.94
558.771	977.94
558.984	985.94
559.196	967.94
559.409	977.94
559.621	971.94
559.833	960.94
560.046	935.94
560.258	975.94
560.47	926.94
560.683	938.94
560.895	958.94
561.107	981.94
561.32	942.94
561.532	945.94
561.744	948.94
561.956	962.94
562.168	935.94
562.381	957.94
562.593	973.94
562.805	951.94
563.017	954.94
563.229	951.94
563.441	987.94
563.653	985.94
563.865	945.94
564.077	1002.94
564.289	969.94
564.501	1012.94
564.713	992.94
564.925	1046.94
565.137	1057.94
565.349	1090.94
565.561	1082.94
565.773	1111.94
565.985	1136.94
566.197	1202.94
566.408	1252.94
566.62	1266.94
566.832	1329.94
567.044	1350.94
567.255	1382.94
567.467	1363.94
567.679	1400.94
567.891	1416.94
568.102	1450.94
568.314	1355.94
568.526	1301.94
568.737	1294.94
568.949	1192.94
569.161	1143.94
569.372	1110.94
569.584	1076.94
569.795	1028.94
570.007	996.94
570.218	992.94
570.43	966.94
570.641	961.94
570.853	941.94
571.064	931.94
571.276	948.94
571.487	901.94
571.698	883.94
571.91	890.94
572.121	861.94
572.333	836.94
572.544	838.94
572.755	833.94
572.966	818.94
573.178	786.94
573.389	827.94
573.6	791.94
573.811	792.94
574.023	769.94
574.234	780.94
574.445	770.94
574.656	765.94
574.867	747.94
575.078	774.94
575.289	764.94
575.501	729.94
575.712	758.94
575.923	747.94
576.134	749.94
576.345	713.94
576.556	725.94
576.767	706.94
576.978	728.94
577.188	709.94
577.399	702.94
577.61	730.94
577.821	706.94
578.032	706.94
578.243	708.94
578.454	688.94
578.665	708.94
578.875	718.94
579.086	690.94
579.297	685.94
579.508	692.94
579.718	681.94
579.929	679.94
580.14	652.94
580.35	650.94
580.561	694.94
580.772	658.94
580.982	671.94
581.193	657.94
581.403	632.94
581.614	662.94
581.825	667.94
582.035	658.94
582.246	633.94
582.456	668.94
582.667	650.94
582.877	650.94
583.087	645.94
583.298	640.94
583.508	636.94
583.719	630.94
583.929	667.94
584.139	628.94
584.35	615.94
584.56	647.94
584.77	610.94
584.981	630.94
585.191	650.94
585.401	632.94
585.611	627.94
585.821	636.94
586.032	624.94
586.242	626.94
586.452	619.94
586.662	612.94
586.872	621.94
587.082	635.94
587.292	611.94
587.502	599.94
587.713	619.94
587.923	636.94
588.133	608.94
588.343	615.94
588.553	616.94
588.762	605.94
588.972	612.94
589.182	683.94
589.392	649.94
589.602	642.94
589.812	652.94
590.022	639.94
590.232	611.94
590.441	632.94
590.651	615.94
590.861	611.94
591.071	628.94
591.281	634.94
591.49	629.94
591.7	652.94
591.91	630.94
592.119	638.94
592.329	664.94
592.539	652.94
592.748	653.94
592.958	689.94
593.167	680.94
593.377	677.94
593.587	676.94
593.796	670.94
594.006	680.94
594.215	678.94
594.424	668.94
594.634	665.94
594.843	696.94
595.053	660.94
595.262	623.94
595.472	635.94
595.681	626.94
595.89	627.94
596.1	592.94
596.309	610.94
596.518	568.94
596.727	584.94
596.937	567.94
597.146	566.94
597.355	568.94
597.564	559.94
597.774	556.94
597.983	541.94
598.192	544.94
598.401	549.94
598.61	551.94
598.819	553.94
599.028	526.94
599.237	508.94
599.446	522.94
599.655	496.94
599.864	527.94
600.073	510.94
600.282	481.94
600.491	501.94
600.7	514.94
600.909	516.94
601.118	490.94
601.327	488.94
601.536	499.94
601.745	510.94
601.953	490.94
602.162	481.94
602.371	476.94
602.58	484.94
602.789	490.94
602.997	475.94
603.206	479.94
603.415	470.94
603.623	464.94
603.832	476.94
604.041	481.94
604.249	471.94
604.458	454.94
604.666	466.94
604.875	474.94
605.084	440.94
605.292	476.94
605.501	480.94
605.709	476.94
605.918	463.94
606.126	458.94
606.334	476.94
606.543	449.94
606.751	435.94
606.96	490.94
607.168	461.94
607.376	468.94
607.585	460.94
607.793	461.94
608.001	445.94
608.21	464.94
608.418	434.94
608.626	454.94
608.834	443.94
609.043	444.94
609.251	444.94
609.459	437.94
609.667	442.94
609.875	440.94
610.083	434.94
610.291	437.94
610.499	434.94
610.707	444.94
610.916	449.94
611.124	431.94
611.332	423.94
611.54	450.94
611.748	456.94
611.955	430.94
612.163	439.94
612.371	429.94
612.579	413.94
612.787	447.94
612.995	448.94
613.203	435.94
613.411	405.94
613.618	413.94
613.826	454.94
614.034	428.94
614.242	419.94
614.449	425.94
614.657	423.94
614.865	422.94
615.072	418.94
615.28	442.94
615.488	408.94
615.695	420.94
615.903	434.94
616.111	428.94
616.318	441.94
616.526	424.94
616.733	437.94
616.941	414.94
617.148	402.94
617.356	432.94
617.563	414.94
617.771	421.94
617.978	419.94
618.185	420.94
618.393	385.94
618.6	395.94
618.807	415.94
619.015	411.94
619.222	404.94
619.429	417.94
619.637	400.94
619.844	385.94
620.051	392.94
620.258	394.94
620.466	410.94
620.673	389.94
620.88	378.94
621.087	398.94
621.294	395.94
621.501	386.94
621.708	393.94
621.915	408.94
622.122	376.94
622.329	393.94
622.536	420.94
622.743	385.94
622.95	404.94
623.157	377.94
623.364	384.94
623.571	380.94
623.778	385.94
623.985	376.94
624.192	386.94
624.399	379.94
624.606	378.94
624.812	357.94
625.019	347.94
625.226	382.94
625.433	390.94
625.639	359.94
625.846	378.94
626.053	357.94
626.259	360.94
626.466	382.94
626.673	356.94
626.879	355.94
627.086	380.94
627.293	372.94
627.499	379.94
627.706	343.94
627.912	360.94
628.119	360.94
628.325	357.94
628.532	361.94
628.738	363.94
628.945	351.94
629.151	371.94
629.357	364.94
629.564	342.94
629.77	341.94
629.976	329.94
630.183	357.94
630.389	334.94
630.595	340.94
630.802	341.94
631.008	332.94
631.214	328.94
631.42	342.94
631.627	352.94
631.833	328.94
632.039	333.94
632.245	336.94
632.451	331.94
632.657	337.94
632.863	331.94
633.069	320.94
633.275	332.94
633.481	322.94
633.688	326.94
633.893	328.94
634.099	322.94
634.305	318.94
634.511	316.94
634.717	300.94
634.923	322.94
635.129	298.94
635.335	304.94
635.541	294.94
635.747	303.94
635.952	316.94
636.158	316.94
636.364	310.94
636.57	323.94
636.775	306.94
636.981	326.94
637.187	319.94
637.392	316.94
637.598	298.94
637.804	291.94
638.009	307.94
638.215	294.94
638.421	321.94
638.626	295.94
638.832	301.94
639.037	310.94
639.243	300.94
639.448	298.94
639.654	290.94
639.859	280.94
640.065	292.94
640.27	295.94
640.475	285.94
640.681	281.94
640.886	294.94
641.091	308.94
641.297	298.94
641.502	277.94
641.707	305.94
641.913	297.94
642.118	304.94
642.323	284.94
642.528	320.94
642.733	322.94
642.939	276.94
643.144	275.94
643.349	297.94
643.554	290.94
643.759	275.94
643.964	289.94
644.169	277.94
644.374	286.94
644.579	289.94
644.784	285.94
644.989	298.94
645.194	287.94
645.399	282.94
645.604	291.94
645.809	308.94
646.014	301.94
646.219	290.94
646.423	290.94
646.628	297.94
646.833	299.94
647.038	284.94
647.243	289.94
647.447	294.94
647.652	291.94
647.857	302.94
648.062	310.94
648.266	317.94
648.471	311.94
648.676	297.94
648.88	298.94
649.085	302.94
649.289	319.94
649.494	317.94
649.698	298.94
649.903	298.94
650.107	307.94
650.312	322.94
650.516	306.94
650.721	285.94
650.925	288.94
651.13	286.94
651.334	283.94
651.539	286.94
651.743	302.94
651.947	307.94
652.152	280.94
652.356	281.94
652.56	289.94
652.764	278.94
652.969	282.94
653.173	280.94
653.377	286.94
653.581	286.94
653.785	280.94
653.99	260.94
654.194	274.94
654.398	283.94
654.602	269.94
654.806	307.94
655.01	281.94
655.214	298.94
655.418	289.94
655.622	282.94
655.826	302.94
656.03	304.94
656.234	300.94
656.438	329.94
656.642	291.94
656.846	321.94
657.049	297.94
657.253	282.94
657.457	250.94
657.661	236.94
657.865	233.94
658.068	200.94
658.272	200.94
658.476	207.94
658.68	182.94
658.883	176.94
659.087	150.94
659.291	169.94
659.494	150.94
659.698	144.94
659.901	148.94
660.105	131.94
660.309	115.94
660.512	117.94
660.716	125.94
660.919	120.94
661.123	134.94
661.326	107.94
661.53	119.94
661.733	98.94
661.936	96.94
662.14	96.94
662.343	88.94
662.546	107.94
662.75	94.94
662.953	98.94
663.156	84.94
663.36	88.94
663.563	82.94
663.766	82.94
663.969	76.94
664.173	91.94
664.376	87.94
664.579	90.94
664.782	80.94
664.985	91.94
665.188	71.94
665.391	84.94
665.594	86.94
665.797	91.94
666	96.94
666.203	93.94
666.406	84.94
666.609	66.94
666.812	92.94
667.015	80.94
667.218	78.94
667.421	80.94
667.624	82.94
667.827	85.94
668.03	80.94
668.232	77.94
668.435	90.94
668.638	73.94
668.841	88.94
669.043	72.94
669.246	91.94
669.449	77.94
669.651	73.94
669.854	72.94
670.057	67.94
670.259	70.94
670.462	79.94
670.665	77.94
670.867	79.94
671.07	84.94
671.272	85.94
671.475	82.94
671.677	69.94
671.88	90.94
672.082	74.94
672.284	74.94
672.487	78.94
672.689	94.94
672.892	81.94
