Data from Ni(NO3)2@0.25M.TitratingCurve.Agarose3%dH2O.NegLispCup.LampEnergy10.LIBS07252019_HRD10591_18-05-10-566.txt Node
Date: Thu Jul 25 18:05:10 EDT 2019
User: cochatt
Spectrometer: HR+D1059
Trigger mode: 1
Integration Time (sec): 1.000000E-1
Scans to average: 1
Electric dark correction enabled: true
Nonlinearity correction enabled: false
Boxcar width: 0
XAxis mode: Wavelengths
Number of Pixels in Spectrum: 2048
>>>>>Begin Spectral Data<<<<<
223.165	-7.38
223.4	-7.38
223.635	-7.38
223.869	-19.38
224.104	-16.38
224.338	-26.38
224.573	-23.38
224.808	-13.38
225.042	-16.38
225.277	-9.38
225.511	-7.38
225.746	-1.38
225.98	11.62
226.215	26.62
226.449	14.62
226.683	23.62
226.918	30.62
227.152	33.62
227.387	41.62
227.621	44.62
227.856	35.62
228.09	43.62
228.324	49.62
228.559	53.62
228.793	70.62
229.027	125.62
229.262	123.62
229.496	119.62
229.73	121.62
229.964	130.62
230.199	150.62
230.433	164.62
230.667	148.62
230.901	146.62
231.136	138.62
231.37	159.62
231.604	142.62
231.838	152.62
232.072	142.62
232.306	157.62
232.541	154.62
232.775	155.62
233.009	155.62
233.243	151.62
233.477	174.62
233.711	154.62
233.945	153.62
234.179	170.62
234.413	150.62
234.647	165.62
234.881	174.62
235.115	163.62
235.349	163.62
235.583	159.62
235.817	152.62
236.051	146.62
236.285	153.62
236.519	160.62
236.753	153.62
236.987	182.62
237.221	167.62
237.455	166.62
237.689	176.62
237.922	182.62
238.156	194.62
238.39	190.62
238.624	169.62
238.858	190.62
239.091	198.62
239.325	195.62
239.559	192.62
239.793	207.62
240.027	212.62
240.26	191.62
240.494	192.62
240.728	198.62
240.961	196.62
241.195	216.62
241.429	198.62
241.662	210.62
241.896	214.62
242.13	222.62
242.363	220.62
242.597	225.62
242.83	231.62
243.064	204.62
243.298	204.62
243.531	224.62
243.765	229.62
243.998	234.62
244.232	238.62
244.465	234.62
244.699	240.62
244.932	248.62
245.166	264.62
245.399	255.62
245.633	242.62
245.866	243.62
246.099	247.62
246.333	243.62
246.566	233.62
246.8	249.62
247.033	266.62
247.266	253.62
247.5	264.62
247.733	269.62
247.966	258.62
248.2	272.62
248.433	266.62
248.666	298.62
248.899	274.62
249.133	281.62
249.366	290.62
249.599	303.62
249.832	279.62
250.066	298.62
250.299	309.62
250.532	324.62
250.765	313.62
250.998	315.62
251.231	340.62
251.465	336.62
251.698	317.62
251.931	351.62
252.164	339.62
252.397	326.62
252.63	318.62
252.863	343.62
253.096	358.62
253.329	351.62
253.562	355.62
253.795	364.62
254.028	376.62
254.261	348.62
254.494	382.62
254.727	370.62
254.96	367.62
255.193	387.62
255.426	386.62
255.659	387.62
255.892	390.62
256.124	390.62
256.357	390.62
256.59	393.62
256.823	407.62
257.056	402.62
257.289	397.62
257.521	406.62
257.754	422.62
257.987	430.62
258.22	410.62
258.452	415.62
258.685	434.62
258.918	406.62
259.151	429.62
259.383	432.62
259.616	440.62
259.849	431.62
260.081	420.62
260.314	442.62
260.547	426.62
260.779	456.62
261.012	442.62
261.244	455.62
261.477	474.62
261.71	452.62
261.942	449.62
262.175	473.62
262.407	470.62
262.64	491.62
262.872	477.62
263.105	483.62
263.337	466.62
263.57	480.62
263.802	491.62
264.035	474.62
264.267	494.62
264.499	490.62
264.732	498.62
264.964	478.62
265.197	494.62
265.429	507.62
265.661	503.62
265.894	519.62
266.126	488.62
266.358	503.62
266.591	499.62
266.823	521.62
267.055	525.62
267.287	491.62
267.52	528.62
267.752	538.62
267.984	524.62
268.216	536.62
268.448	531.62
268.681	515.62
268.913	524.62
269.145	520.62
269.377	559.62
269.609	528.62
269.841	534.62
270.073	537.62
270.306	534.62
270.538	522.62
270.77	531.62
271.002	535.62
271.234	555.62
271.466	565.62
271.698	552.62
271.93	543.62
272.162	563.62
272.394	558.62
272.626	557.62
272.858	562.62
273.09	560.62
273.322	560.62
273.553	585.62
273.785	562.62
274.017	581.62
274.249	590.62
274.481	550.62
274.713	601.62
274.945	587.62
275.176	577.62
275.408	561.62
275.64	575.62
275.872	584.62
276.104	589.62
276.335	577.62
276.567	591.62
276.799	614.62
277.031	601.62
277.262	615.62
277.494	599.62
277.726	617.62
277.957	616.62
278.189	622.62
278.421	598.62
278.652	608.62
278.884	608.62
279.115	629.62
279.347	627.62
279.579	605.62
279.81	613.62
280.042	617.62
280.273	622.62
280.505	630.62
280.736	599.62
280.968	619.62
281.199	631.62
281.431	640.62
281.662	622.62
281.894	654.62
282.125	627.62
282.356	664.62
282.588	658.62
282.819	644.62
283.051	636.62
283.282	626.62
283.513	655.62
283.745	638.62
283.976	648.62
284.207	660.62
284.439	644.62
284.67	667.62
284.901	663.62
285.132	648.62
285.364	650.62
285.595	674.62
285.826	684.62
286.057	661.62
286.288	673.62
286.52	683.62
286.751	672.62
286.982	652.62
287.213	662.62
287.444	668.62
287.675	667.62
287.906	697.62
288.138	697.62
288.369	660.62
288.6	688.62
288.831	678.62
289.062	694.62
289.293	707.62
289.524	664.62
289.755	692.62
289.986	690.62
290.217	652.62
290.448	710.62
290.679	700.62
290.91	692.62
291.141	683.62
291.371	689.62
291.602	676.62
291.833	691.62
292.064	685.62
292.295	651.62
292.526	682.62
292.757	663.62
292.987	695.62
293.218	690.62
293.449	682.62
293.68	681.62
293.91	697.62
294.141	689.62
294.372	664.62
294.603	702.62
294.833	692.62
295.064	696.62
295.295	712.62
295.525	699.62
295.756	715.62
295.987	695.62
296.217	711.62
296.448	694.62
296.679	707.62
296.909	711.62
297.14	711.62
297.37	708.62
297.601	738.62
297.831	728.62
298.062	729.62
298.292	708.62
298.523	745.62
298.753	749.62
298.984	730.62
299.214	743.62
299.445	724.62
299.675	721.62
299.905	719.62
300.136	752.62
300.366	784.62
300.597	747.62
300.827	752.62
301.057	766.62
301.288	759.62
301.518	778.62
301.748	757.62
301.979	779.62
302.209	788.62
302.439	793.62
302.669	789.62
302.9	786.62
303.13	786.62
303.36	779.62
303.59	788.62
303.82	795.62
304.051	814.62
304.281	819.62
304.511	793.62
304.741	784.62
304.971	806.62
305.201	792.62
305.431	801.62
305.661	826.62
305.891	796.62
306.121	799.62
306.352	783.62
306.582	790.62
306.812	796.62
307.042	761.62
307.272	796.62
307.502	768.62
307.731	801.62
307.961	822.62
308.191	793.62
308.421	784.62
308.651	788.62
308.881	768.62
309.111	781.62
309.341	790.62
309.571	799.62
309.8	815.62
310.03	779.62
310.26	846.62
310.49	811.62
310.72	834.62
310.949	836.62
311.179	829.62
311.409	822.62
311.639	810.62
311.868	825.62
312.098	827.62
312.328	836.62
312.557	851.62
312.787	864.62
313.017	843.62
313.246	853.62
313.476	854.62
313.706	880.62
313.935	867.62
314.165	875.62
314.394	876.62
314.624	905.62
314.853	886.62
315.083	884.62
315.312	884.62
315.542	909.62
315.771	900.62
316.001	871.62
316.23	869.62
316.46	914.62
316.689	920.62
316.919	911.62
317.148	919.62
317.377	933.62
317.607	910.62
317.836	918.62
318.065	914.62
318.295	903.62
318.524	927.62
318.753	932.62
318.983	925.62
319.212	926.62
319.441	921.62
319.67	902.62
319.9	948.62
320.129	942.62
320.358	959.62
320.587	944.62
320.816	977.62
321.046	946.62
321.275	1009.62
321.504	981.62
321.733	983.62
321.962	1001.62
322.191	993.62
322.42	992.62
322.649	978.62
322.878	996.62
323.108	977.62
323.337	994.62
323.566	1012.62
323.795	1005.62
324.024	1006.62
324.253	1007.62
324.482	981.62
324.71	999.62
324.939	1052.62
325.168	1037.62
325.397	1042.62
325.626	1062.62
325.855	1075.62
326.084	1056.62
326.313	1083.62
326.542	1082.62
326.77	1092.62
326.999	1077.62
327.228	1092.62
327.457	1080.62
327.686	1067.62
327.914	1114.62
328.143	1115.62
328.372	1114.62
328.6	1113.62
328.829	1110.62
329.058	1140.62
329.287	1131.62
329.515	1129.62
329.744	1147.62
329.972	1135.62
330.201	1126.62
330.43	1131.62
330.658	1165.62
330.887	1163.62
331.115	1158.62
331.344	1180.62
331.572	1182.62
331.801	1210.62
332.03	1234.62
332.258	1224.62
332.486	1234.62
332.715	1288.62
332.943	1294.62
333.172	1306.62
333.4	1323.62
333.629	1341.62
333.857	1333.62
334.085	1378.62
334.314	1387.62
334.542	1376.62
334.771	1397.62
334.999	1394.62
335.227	1399.62
335.455	1414.62
335.684	1382.62
335.912	1400.62
336.14	1381.62
336.369	1394.62
336.597	1398.62
336.825	1392.62
337.053	1404.62
337.281	1371.62
337.51	1356.62
337.738	1335.62
337.966	1333.62
338.194	1355.62
338.422	1312.62
338.65	1296.62
338.878	1283.62
339.106	1286.62
339.334	1268.62
339.562	1307.62
339.79	1278.62
340.018	1272.62
340.246	1238.62
340.474	1235.62
340.702	1240.62
340.93	1228.62
341.158	1258.62
341.386	1265.62
341.614	1274.62
341.842	1289.62
342.07	1227.62
342.298	1217.62
342.526	1270.62
342.754	1251.62
342.981	1281.62
343.209	1263.62
343.437	1265.62
343.665	1323.62
343.893	1375.62
344.12	1361.62
344.348	1404.62
344.576	1400.62
344.804	1344.62
345.031	1345.62
345.259	1291.62
345.487	1302.62
345.714	1256.62
345.942	1254.62
346.17	1270.62
346.397	1263.62
346.625	1241.62
346.853	1212.62
347.08	1198.62
347.308	1170.62
347.535	1184.62
347.763	1191.62
347.99	1210.62
348.218	1201.62
348.445	1195.62
348.673	1170.62
348.9	1212.62
349.128	1198.62
349.355	1206.62
349.583	1198.62
349.81	1157.62
350.037	1176.62
350.265	1164.62
350.492	1151.62
350.72	1189.62
350.947	1172.62
351.174	1191.62
351.402	1187.62
351.629	1162.62
351.856	1195.62
352.083	1162.62
352.311	1161.62
352.538	1179.62
352.765	1213.62
352.992	1152.62
353.22	1153.62
353.447	1118.62
353.674	1140.62
353.901	1119.62
354.128	1105.62
354.355	1140.62
354.583	1137.62
354.81	1142.62
355.037	1154.62
355.264	1138.62
355.491	1131.62
355.718	1138.62
355.945	1146.62
356.172	1160.62
356.399	1120.62
356.626	1150.62
356.853	1169.62
357.08	1126.62
357.307	1176.62
357.534	1171.62
357.761	1154.62
357.988	1175.62
358.215	1150.62
358.441	1140.62
358.668	1142.62
358.895	1126.62
359.122	1133.62
359.349	1136.62
359.576	1185.62
359.802	1146.62
360.029	1172.62
360.256	1180.62
360.483	1156.62
360.709	1105.62
360.936	1137.62
361.163	1158.62
361.39	1156.62
361.616	1127.62
361.843	1170.62
362.07	1180.62
362.296	1162.62
362.523	1165.62
362.749	1124.62
362.976	1165.62
363.203	1174.62
363.429	1153.62
363.656	1145.62
363.882	1164.62
364.109	1142.62
364.335	1154.62
364.562	1111.62
364.788	1160.62
365.015	1119.62
365.241	1147.62
365.468	1143.62
365.694	1154.62
365.92	1144.62
366.147	1147.62
366.373	1127.62
366.599	1152.62
366.826	1129.62
367.052	1126.62
367.278	1135.62
367.505	1142.62
367.731	1165.62
367.957	1143.62
368.184	1145.62
368.41	1164.62
368.636	1158.62
368.862	1173.62
369.089	1168.62
369.315	1161.62
369.541	1179.62
369.767	1164.62
369.993	1154.62
370.219	1145.62
370.445	1161.62
370.672	1186.62
370.898	1210.62
371.124	1182.62
371.35	1204.62
371.576	1243.62
371.802	1212.62
372.028	1189.62
372.254	1195.62
372.48	1199.62
372.706	1261.62
372.932	1218.62
373.158	1235.62
373.384	1228.62
373.61	1247.62
373.835	1227.62
374.061	1213.62
374.287	1194.62
374.513	1220.62
374.739	1235.62
374.965	1267.62
375.191	1257.62
375.416	1305.62
375.642	1251.62
375.868	1241.62
376.094	1238.62
376.319	1220.62
376.545	1182.62
376.771	1211.62
376.997	1208.62
377.222	1181.62
377.448	1196.62
377.674	1188.62
377.899	1165.62
378.125	1177.62
378.35	1175.62
378.576	1190.62
378.802	1180.62
379.027	1184.62
379.253	1148.62
379.478	1160.62
379.704	1181.62
379.929	1192.62
380.155	1153.62
380.38	1162.62
380.606	1199.62
380.831	1170.62
381.057	1203.62
381.282	1148.62
381.507	1192.62
381.733	1173.62
381.958	1174.62
382.184	1207.62
382.409	1189.62
382.634	1206.62
382.86	1217.62
383.085	1238.62
383.31	1227.62
383.535	1237.62
383.761	1234.62
383.986	1257.62
384.211	1300.62
384.436	1306.62
384.662	1275.62
384.887	1330.62
385.112	1333.62
385.337	1336.62
385.562	1331.62
385.787	1365.62
386.013	1377.62
386.238	1363.62
386.463	1333.62
386.688	1349.62
386.913	1353.62
387.138	1369.62
387.363	1369.62
387.588	1356.62
387.813	1368.62
388.038	1370.62
388.263	1363.62
388.488	1375.62
388.713	1396.62
388.938	1374.62
389.163	1382.62
389.387	1393.62
389.612	1362.62
389.837	1400.62
390.062	1390.62
390.287	1347.62
390.512	1404.62
390.736	1396.62
390.961	1413.62
391.186	1417.62
391.411	1411.62
391.636	1451.62
391.86	1477.62
392.085	1513.62
392.31	1512.62
392.534	1483.62
392.759	1460.62
392.984	1432.62
393.208	1459.62
393.433	1430.62
393.658	1474.62
393.882	1400.62
394.107	1434.62
394.331	1466.62
394.556	1430.62
394.78	1468.62
395.005	1443.62
395.229	1483.62
395.454	1535.62
395.678	1528.62
395.903	1513.62
396.127	1511.62
396.352	1539.62
396.576	1550.62
396.801	1478.62
397.025	1513.62
397.249	1519.62
397.474	1545.62
397.698	1592.62
397.922	1606.62
398.147	1602.62
398.371	1608.62
398.595	1690.62
398.82	1686.62
399.044	1762.62
399.268	1832.62
399.492	1944.62
399.717	2037.62
399.941	2095.62
400.165	2056.62
400.389	1972.62
400.613	1901.62
400.837	1843.62
401.062	1803.62
401.286	1780.62
401.51	1737.62
401.734	1722.62
401.958	1703.62
402.182	1720.62
402.406	1705.62
402.63	1730.62
402.854	1750.62
403.078	1726.62
403.302	1729.62
403.526	1751.62
403.75	1741.62
403.974	1772.62
404.198	1751.62
404.422	1749.62
404.645	1728.62
404.869	1747.62
405.093	1803.62
405.317	1804.62
405.541	1767.62
405.765	1778.62
405.988	1826.62
406.212	1796.62
406.436	1799.62
406.66	1874.62
406.883	1860.62
407.107	1942.62
407.331	1984.62
407.555	2058.62
407.778	2027.62
408.002	1962.62
408.226	2010.62
408.449	1980.62
408.673	1921.62
408.896	1899.62
409.12	1877.62
409.344	1939.62
409.567	1891.62
409.791	1873.62
410.014	1847.62
410.238	1842.62
410.461	1860.62
410.685	1831.62
410.908	1809.62
411.132	1823.62
411.355	1791.62
411.578	1780.62
411.802	1769.62
412.025	1771.62
412.249	1810.62
412.472	1804.62
412.695	1800.62
412.919	1784.62
413.142	1772.62
413.365	1754.62
413.589	1784.62
413.812	1730.62
414.035	1741.62
414.258	1758.62
414.482	1737.62
414.705	1762.62
414.928	1731.62
415.151	1778.62
415.374	1746.62
415.597	1706.62
415.821	1687.62
416.044	1704.62
416.267	1657.62
416.49	1666.62
416.713	1698.62
416.936	1730.62
417.159	1694.62
417.382	1658.62
417.605	1634.62
417.828	1635.62
418.051	1694.62
418.274	1640.62
418.497	1649.62
418.72	1700.62
418.943	1657.62
419.166	1774.62
419.389	1875.62
419.611	1913.62
419.834	1807.62
420.057	1768.62
420.28	1726.62
420.503	1684.62
420.726	1660.62
420.948	1674.62
421.171	1654.62
421.394	1667.62
421.617	1711.62
421.839	1694.62
422.062	1671.62
422.285	1669.62
422.507	1723.62
422.73	1686.62
422.953	1678.62
423.175	1687.62
423.398	1710.62
423.621	1674.62
423.843	1745.62
424.066	1717.62
424.288	1694.62
424.511	1689.62
424.733	1692.62
424.956	1690.62
425.178	1706.62
425.401	1663.62
425.623	1702.62
425.846	1671.62
426.068	1672.62
426.291	1672.62
426.513	1671.62
426.735	1659.62
426.958	1660.62
427.18	1623.62
427.402	1633.62
427.625	1670.62
427.847	1599.62
428.069	1623.62
428.292	1607.62
428.514	1607.62
428.736	1633.62
428.958	1634.62
429.181	1582.62
429.403	1587.62
429.625	1566.62
429.847	1562.62
430.069	1576.62
430.292	1587.62
430.514	1604.62
430.736	1601.62
430.958	1616.62
431.18	1574.62
431.402	1592.62
431.624	1631.62
431.846	1603.62
432.068	1578.62
432.29	1636.62
432.512	1625.62
432.734	1654.62
432.956	1587.62
433.178	1637.62
433.4	1650.62
433.622	1656.62
433.844	1681.62
434.066	1650.62
434.287	1636.62
434.509	1684.62
434.731	1683.62
434.953	1681.62
435.175	1699.62
435.397	1748.62
435.618	1683.62
435.84	1682.62
436.062	1662.62
436.284	1642.62
436.505	1609.62
436.727	1630.62
436.949	1622.62
437.17	1614.62
437.392	1610.62
437.614	1574.62
437.835	1533.62
438.057	1570.62
438.278	1542.62
438.5	1553.62
438.721	1570.62
438.943	1588.62
439.165	1565.62
439.386	1579.62
439.608	1612.62
439.829	1562.62
440.05	1609.62
440.272	1602.62
440.493	1591.62
440.715	1635.62
440.936	1612.62
441.158	1637.62
441.379	1683.62
441.6	1674.62
441.822	1682.62
442.043	1699.62
442.264	1718.62
442.486	1690.62
442.707	1732.62
442.928	1695.62
443.149	1713.62
443.371	1719.62
443.592	1686.62
443.813	1747.62
444.034	1734.62
444.255	1802.62
444.476	1781.62
444.698	1814.62
444.919	1865.62
445.14	1946.62
445.361	1858.62
445.582	1808.62
445.803	1737.62
446.024	1720.62
446.245	1690.62
446.466	1693.62
446.687	1621.62
446.908	1654.62
447.129	1615.62
447.35	1582.62
447.571	1554.62
447.792	1512.62
448.013	1537.62
448.234	1530.62
448.455	1504.62
448.675	1535.62
448.896	1544.62
449.117	1497.62
449.338	1499.62
449.559	1487.62
449.779	1430.62
450	1473.62
450.221	1470.62
450.442	1491.62
450.662	1451.62
450.883	1484.62
451.104	1474.62
451.324	1466.62
451.545	1447.62
451.766	1495.62
451.986	1446.62
452.207	1438.62
452.428	1444.62
452.648	1419.62
452.869	1424.62
453.089	1396.62
453.31	1443.62
453.53	1402.62
453.751	1383.62
453.971	1448.62
454.192	1385.62
454.412	1415.62
454.633	1385.62
454.853	1402.62
455.073	1384.62
455.294	1424.62
455.514	1370.62
455.734	1388.62
455.955	1394.62
456.175	1402.62
456.395	1391.62
456.616	1403.62
456.836	1399.62
457.056	1388.62
457.276	1388.62
457.497	1403.62
457.717	1408.62
457.937	1412.62
458.157	1457.62
458.377	1451.62
458.598	1489.62
458.818	1499.62
459.038	1512.62
459.258	1537.62
459.478	1585.62
459.698	1637.62
459.918	1676.62
460.138	1664.62
460.358	1739.62
460.578	1744.62
460.798	1784.62
461.018	1785.62
461.238	1814.62
461.458	1801.62
461.678	1787.62
461.898	1850.62
462.118	1871.62
462.338	1899.62
462.558	1942.62
462.777	2019.62
462.997	2052.62
463.217	2144.62
463.437	2124.62
463.657	2073.62
463.876	2021.62
464.096	2066.62
464.316	2034.62
464.536	1961.62
464.755	1944.62
464.975	1860.62
465.195	1805.62
465.414	1796.62
465.634	1715.62
465.854	1680.62
466.073	1698.62
466.293	1633.62
466.512	1609.62
466.732	1574.62
466.951	1586.62
467.171	1528.62
467.391	1549.62
467.61	1580.62
467.829	1521.62
468.049	1529.62
468.268	1516.62
468.488	1523.62
468.707	1473.62
468.927	1482.62
469.146	1485.62
469.365	1527.62
469.585	1483.62
469.804	1489.62
470.023	1575.62
470.243	1522.62
470.462	1573.62
470.681	1559.62
470.901	1574.62
471.12	1561.62
471.339	1497.62
471.558	1555.62
471.777	1552.62
471.997	1515.62
472.216	1510.62
472.435	1530.62
472.654	1519.62
472.873	1476.62
473.092	1511.62
473.311	1480.62
473.53	1520.62
473.749	1479.62
473.968	1503.62
474.187	1487.62
474.406	1476.62
474.625	1519.62
474.844	1502.62
475.063	1498.62
475.282	1504.62
475.501	1541.62
475.72	1548.62
475.939	1571.62
476.158	1579.62
476.377	1603.62
476.596	1571.62
476.814	1587.62
477.033	1566.62
477.252	1629.62
477.471	1661.62
477.69	1671.62
477.908	1729.62
478.127	1701.62
478.346	1708.62
478.564	1760.62
478.783	1801.62
479.002	1812.62
479.22	1826.62
479.439	1810.62
479.658	1822.62
479.876	1814.62
480.095	1854.62
480.313	1822.62
480.532	1889.62
480.751	1852.62
480.969	1798.62
481.188	1810.62
481.406	1762.62
481.624	1796.62
481.843	1777.62
482.061	1755.62
482.28	1763.62
482.498	1770.62
482.717	1735.62
482.935	1726.62
483.153	1761.62
483.372	1798.62
483.59	1805.62
483.808	1795.62
484.027	1767.62
484.245	1743.62
484.463	1780.62
484.681	1850.62
484.9	1755.62
485.118	1811.62
485.336	1817.62
485.554	1776.62
485.772	1790.62
485.99	1784.62
486.209	1800.62
486.427	1788.62
486.645	1794.62
486.863	1778.62
487.081	1802.62
487.299	1804.62
487.517	1787.62
487.735	1820.62
487.953	1841.62
488.171	1856.62
488.389	1814.62
488.607	1770.62
488.825	1822.62
489.043	1793.62
489.261	1787.62
489.479	1826.62
489.696	1834.62
489.914	1822.62
490.132	1841.62
490.35	1841.62
490.568	1878.62
490.786	1879.62
491.003	1854.62
491.221	1860.62
491.439	1865.62
491.657	1865.62
491.874	1863.62
492.092	1919.62
492.31	1861.62
492.527	1924.62
492.745	1908.62
492.963	1892.62
493.18	1934.62
493.398	1924.62
493.615	1909.62
493.833	1952.62
494.05	1943.62
494.268	1940.62
494.485	1994.62
494.703	1992.62
494.92	1990.62
495.138	1975.62
495.355	1987.62
495.573	2020.62
495.79	2047.62
496.008	2054.62
496.225	2035.62
496.442	2056.62
496.66	2117.62
496.877	2138.62
497.094	2195.62
497.312	2241.62
497.529	2282.62
497.746	2318.62
497.963	2368.62
498.181	2486.62
498.398	2558.62
498.615	2659.62
498.832	2738.62
499.049	2864.62
499.267	2980.62
499.484	3173.62
499.701	3323.62
499.918	3465.62
500.135	3710.62
500.352	3888.62
500.569	3911.62
500.786	3953.62
501.003	3854.62
501.22	3730.62
501.437	3549.62
501.654	3349.62
501.871	3174.62
502.088	3009.62
502.305	2929.62
502.522	2761.62
502.739	2667.62
502.956	2563.62
503.172	2508.62
503.389	2424.62
503.606	2364.62
503.823	2334.62
504.04	2329.62
504.256	2257.62
504.473	2225.62
504.69	2167.62
504.907	2160.62
505.123	2091.62
505.34	2050.62
505.557	1974.62
505.773	1984.62
505.99	1917.62
506.207	1867.62
506.423	1867.62
506.64	1863.62
506.856	1770.62
507.073	1781.62
507.289	1774.62
507.506	1736.62
507.722	1732.62
507.939	1720.62
508.155	1728.62
508.372	1730.62
508.588	1667.62
508.805	1705.62
509.021	1662.62
509.238	1673.62
509.454	1604.62
509.67	1595.62
509.887	1603.62
510.103	1629.62
510.319	1611.62
510.536	1598.62
510.752	1585.62
510.968	1617.62
511.184	1576.62
511.401	1574.62
511.617	1577.62
511.833	1595.62
512.049	1553.62
512.265	1608.62
512.481	1574.62
512.698	1578.62
512.914	1568.62
513.13	1594.62
513.346	1613.62
513.562	1554.62
513.778	1583.62
513.994	1616.62
514.21	1604.62
514.426	1608.62
514.642	1612.62
514.858	1659.62
515.074	1617.62
515.29	1627.62
515.506	1649.62
515.721	1663.62
515.937	1669.62
516.153	1688.62
516.369	1729.62
516.585	1808.62
516.801	1810.62
517.016	1819.62
517.232	1861.62
517.448	1877.62
517.664	1900.62
517.879	1892.62
518.095	1902.62
518.311	1864.62
518.527	1827.62
518.742	1840.62
518.958	1800.62
519.173	1775.62
519.389	1759.62
519.605	1707.62
519.82	1648.62
520.036	1641.62
520.251	1637.62
520.467	1608.62
520.682	1585.62
520.898	1577.62
521.113	1553.62
521.329	1532.62
521.544	1511.62
521.76	1552.62
521.975	1533.62
522.19	1496.62
522.406	1504.62
522.621	1459.62
522.836	1486.62
523.052	1479.62
523.267	1458.62
523.482	1445.62
523.698	1469.62
523.913	1425.62
524.128	1456.62
524.343	1441.62
524.559	1461.62
524.774	1435.62
524.989	1460.62
525.204	1425.62
525.419	1411.62
525.634	1396.62
525.849	1438.62
526.064	1428.62
526.28	1456.62
526.495	1408.62
526.71	1400.62
526.925	1359.62
527.14	1420.62
527.355	1404.62
527.57	1401.62
527.785	1419.62
527.999	1376.62
528.214	1411.62
528.429	1374.62
528.644	1431.62
528.859	1402.62
529.074	1385.62
529.289	1394.62
529.503	1406.62
529.718	1411.62
529.933	1399.62
530.148	1392.62
530.363	1410.62
530.577	1376.62
530.792	1358.62
531.007	1359.62
531.221	1366.62
531.436	1388.62
531.651	1377.62
531.865	1354.62
532.08	1356.62
532.295	1370.62
532.509	1371.62
532.724	1361.62
532.938	1349.62
533.153	1361.62
533.367	1328.62
533.582	1362.62
533.796	1346.62
534.011	1353.62
534.225	1342.62
534.44	1318.62
534.654	1369.62
534.868	1327.62
535.083	1318.62
535.297	1306.62
535.511	1312.62
535.726	1331.62
535.94	1300.62
536.154	1304.62
536.369	1270.62
536.583	1299.62
536.797	1298.62
537.011	1272.62
537.225	1289.62
537.44	1246.62
537.654	1288.62
537.868	1262.62
538.082	1266.62
538.296	1290.62
538.51	1284.62
538.724	1242.62
538.938	1232.62
539.153	1229.62
539.367	1241.62
539.581	1238.62
539.795	1242.62
540.009	1231.62
540.222	1230.62
540.436	1217.62
540.65	1221.62
540.864	1232.62
541.078	1242.62
541.292	1243.62
541.506	1239.62
541.72	1254.62
541.934	1242.62
542.147	1264.62
542.361	1258.62
542.575	1236.62
542.789	1212.62
543.002	1192.62
543.216	1213.62
543.43	1222.62
543.644	1214.62
543.857	1228.62
544.071	1230.62
544.285	1215.62
544.498	1243.62
544.712	1204.62
544.925	1254.62
545.139	1252.62
545.352	1224.62
545.566	1288.62
545.779	1230.62
545.993	1266.62
546.206	1270.62
546.42	1226.62
546.633	1248.62
546.847	1243.62
547.06	1256.62
547.274	1257.62
547.487	1258.62
547.7	1243.62
547.914	1270.62
548.127	1224.62
548.34	1243.62
548.554	1247.62
548.767	1239.62
548.98	1232.62
549.193	1222.62
549.407	1215.62
549.62	1240.62
549.833	1251.62
550.046	1232.62
550.259	1266.62
550.473	1188.62
550.686	1247.62
550.899	1242.62
551.112	1232.62
551.325	1232.62
551.538	1243.62
551.751	1230.62
551.964	1221.62
552.177	1232.62
552.39	1241.62
552.603	1280.62
552.816	1270.62
553.029	1266.62
553.242	1247.62
553.455	1257.62
553.667	1302.62
553.88	1265.62
554.093	1291.62
554.306	1214.62
554.519	1184.62
554.732	1189.62
554.944	1196.62
555.157	1147.62
555.37	1177.62
555.583	1202.62
555.795	1138.62
556.008	1166.62
556.221	1115.62
556.433	1088.62
556.646	1088.62
556.859	1090.62
557.071	1086.62
557.284	1082.62
557.496	1069.62
557.709	1080.62
557.921	1090.62
558.134	1059.62
558.346	1067.62
558.559	1030.62
558.771	1030.62
558.984	1040.62
559.196	1042.62
559.409	1044.62
559.621	1052.62
559.833	1028.62
560.046	1045.62
560.258	1054.62
560.47	1029.62
560.683	1032.62
560.895	1036.62
561.107	1003.62
561.32	1043.62
561.532	1034.62
561.744	1028.62
561.956	1052.62
562.168	1016.62
562.381	1062.62
562.593	1036.62
562.805	1054.62
563.017	1022.62
563.229	1044.62
563.441	1044.62
563.653	1083.62
563.865	1082.62
564.077	1102.62
564.289	1116.62
564.501	1118.62
564.713	1121.62
564.925	1114.62
565.137	1180.62
565.349	1191.62
565.561	1186.62
565.773	1240.62
565.985	1244.62
566.197	1266.62
566.408	1302.62
566.62	1355.62
566.832	1407.62
567.044	1454.62
567.255	1426.62
567.467	1463.62
567.679	1504.62
567.891	1490.62
568.102	1468.62
568.314	1434.62
568.526	1381.62
568.737	1348.62
568.949	1259.62
569.161	1229.62
569.372	1170.62
569.584	1155.62
569.795	1089.62
570.007	1073.62
570.218	1076.62
570.43	1033.62
570.641	1017.62
570.853	1018.62
571.064	1002.62
571.276	997.62
571.487	979.62
571.698	966.62
571.91	969.62
572.121	921.62
572.333	908.62
572.544	895.62
572.755	890.62
572.966	882.62
573.178	875.62
573.389	882.62
573.6	874.62
573.811	864.62
574.023	878.62
574.234	878.62
574.445	809.62
574.656	834.62
574.867	840.62
575.078	819.62
575.289	815.62
575.501	804.62
575.712	792.62
575.923	815.62
576.134	793.62
576.345	790.62
576.556	803.62
576.767	769.62
576.978	749.62
577.188	793.62
577.399	758.62
577.61	744.62
577.821	743.62
578.032	735.62
578.243	759.62
578.454	752.62
578.665	766.62
578.875	757.62
579.086	754.62
579.297	726.62
579.508	719.62
579.718	727.62
579.929	713.62
580.14	702.62
580.35	725.62
580.561	704.62
580.772	713.62
580.982	726.62
581.193	705.62
581.403	715.62
581.614	703.62
581.825	679.62
582.035	684.62
582.246	691.62
582.456	686.62
582.667	667.62
582.877	670.62
583.087	686.62
583.298	678.62
583.508	688.62
583.719	690.62
583.929	666.62
584.139	667.62
584.35	697.62
584.56	690.62
584.77	675.62
584.981	698.62
585.191	666.62
585.401	667.62
585.611	661.62
585.821	666.62
586.032	653.62
586.242	661.62
586.452	660.62
586.662	657.62
586.872	672.62
587.082	649.62
587.292	666.62
587.502	632.62
587.713	660.62
587.923	662.62
588.133	655.62
588.343	657.62
588.553	642.62
588.762	643.62
588.972	650.62
589.182	708.62
589.392	688.62
589.602	637.62
589.812	672.62
590.022	666.62
590.232	639.62
590.441	642.62
590.651	669.62
590.861	660.62
591.071	652.62
591.281	672.62
591.49	667.62
591.7	699.62
591.91	725.62
592.119	711.62
592.329	687.62
592.539	678.62
592.748	704.62
592.958	716.62
593.167	709.62
593.377	713.62
593.587	719.62
593.796	719.62
594.006	736.62
594.215	706.62
594.424	708.62
594.634	668.62
594.843	689.62
595.053	694.62
595.262	689.62
595.472	670.62
595.681	650.62
595.89	652.62
596.1	658.62
596.309	631.62
596.518	633.62
596.727	594.62
596.937	614.62
597.146	593.62
597.355	594.62
597.564	586.62
597.774	587.62
597.983	594.62
598.192	582.62
598.401	577.62
598.61	564.62
598.819	568.62
599.028	564.62
599.237	541.62
599.446	557.62
599.655	552.62
599.864	522.62
600.073	539.62
600.282	530.62
600.491	533.62
600.7	534.62
600.909	531.62
601.118	529.62
601.327	523.62
601.536	538.62
601.745	521.62
601.953	522.62
602.162	517.62
602.371	524.62
602.58	526.62
602.789	516.62
602.997	513.62
603.206	524.62
603.415	506.62
603.623	490.62
603.832	516.62
604.041	496.62
604.249	505.62
604.458	486.62
604.666	482.62
604.875	506.62
605.084	504.62
605.292	500.62
605.501	474.62
605.709	490.62
605.918	502.62
606.126	468.62
606.334	474.62
606.543	470.62
606.751	494.62
606.96	500.62
607.168	486.62
607.376	481.62
607.585	489.62
607.793	467.62
608.001	464.62
608.21	486.62
608.418	481.62
608.626	459.62
608.834	475.62
609.043	469.62
609.251	465.62
609.459	460.62
609.667	450.62
609.875	473.62
610.083	462.62
610.291	471.62
610.499	462.62
610.707	438.62
610.916	473.62
611.124	460.62
611.332	468.62
611.54	443.62
611.748	418.62
611.955	454.62
612.163	453.62
612.371	464.62
612.579	462.62
612.787	458.62
612.995	458.62
613.203	476.62
613.411	444.62
613.618	423.62
613.826	438.62
614.034	449.62
614.242	442.62
614.449	451.62
614.657	434.62
614.865	433.62
615.072	441.62
615.28	441.62
615.488	393.62
615.695	431.62
615.903	437.62
616.111	411.62
616.318	438.62
616.526	434.62
616.733	420.62
616.941	424.62
617.148	421.62
617.356	423.62
617.563	435.62
617.771	454.62
617.978	412.62
618.185	414.62
618.393	405.62
618.6	434.62
618.807	418.62
619.015	422.62
619.222	415.62
619.429	409.62
619.637	415.62
619.844	419.62
620.051	425.62
620.258	425.62
620.466	407.62
620.673	400.62
620.88	400.62
621.087	373.62
621.294	402.62
621.501	398.62
621.708	392.62
621.915	380.62
622.122	410.62
622.329	421.62
622.536	403.62
622.743	412.62
622.95	395.62
623.157	378.62
623.364	386.62
623.571	409.62
623.778	393.62
623.985	383.62
624.192	367.62
624.399	390.62
624.606	382.62
624.812	368.62
625.019	368.62
625.226	366.62
625.433	354.62
625.639	340.62
625.846	375.62
626.053	376.62
626.259	355.62
626.466	348.62
626.673	346.62
626.879	346.62
627.086	362.62
627.293	358.62
627.499	372.62
627.706	354.62
627.912	361.62
628.119	366.62
628.325	364.62
628.532	368.62
628.738	368.62
628.945	354.62
629.151	365.62
629.357	358.62
629.564	333.62
629.77	336.62
629.976	343.62
630.183	350.62
630.389	339.62
630.595	339.62
630.802	355.62
631.008	330.62
631.214	340.62
631.42	351.62
631.627	332.62
631.833	361.62
632.039	332.62
632.245	342.62
632.451	352.62
632.657	316.62
632.863	324.62
633.069	319.62
633.275	320.62
633.481	315.62
633.688	318.62
633.893	324.62
634.099	335.62
634.305	321.62
634.511	313.62
634.717	316.62
634.923	328.62
635.129	315.62
635.335	314.62
635.541	319.62
635.747	311.62
635.952	308.62
636.158	325.62
636.364	320.62
636.57	309.62
636.775	305.62
636.981	331.62
637.187	311.62
637.392	307.62
637.598	305.62
637.804	306.62
638.009	311.62
638.215	299.62
638.421	294.62
638.626	294.62
638.832	309.62
639.037	288.62
639.243	306.62
639.448	291.62
639.654	282.62
639.859	310.62
640.065	294.62
640.27	282.62
640.475	277.62
640.681	276.62
640.886	302.62
641.091	276.62
641.297	302.62
641.502	288.62
641.707	290.62
641.913	279.62
642.118	290.62
642.323	287.62
642.528	274.62
642.733	265.62
642.939	285.62
643.144	292.62
643.349	287.62
643.554	301.62
643.759	285.62
643.964	270.62
644.169	279.62
644.374	275.62
644.579	296.62
644.784	276.62
644.989	271.62
645.194	295.62
645.399	274.62
645.604	271.62
645.809	274.62
646.014	282.62
646.219	283.62
646.423	290.62
646.628	268.62
646.833	270.62
647.038	276.62
647.243	280.62
647.447	294.62
647.652	280.62
647.857	285.62
648.062	268.62
648.266	278.62
648.471	283.62
648.676	310.62
648.88	281.62
649.085	272.62
649.289	268.62
649.494	260.62
649.698	268.62
649.903	268.62
650.107	273.62
650.312	264.62
650.516	270.62
650.721	265.62
650.925	242.62
651.13	261.62
651.334	236.62
651.539	264.62
651.743	243.62
651.947	255.62
652.152	238.62
652.356	250.62
652.56	240.62
652.764	233.62
652.969	241.62
653.173	238.62
653.377	229.62
653.581	230.62
653.785	227.62
653.99	224.62
654.194	226.62
654.398	224.62
654.602	222.62
654.806	218.62
655.01	200.62
655.214	209.62
655.418	218.62
655.622	210.62
655.826	193.62
656.03	196.62
656.234	222.62
656.438	196.62
656.642	214.62
656.846	202.62
657.049	197.62
657.253	197.62
657.457	175.62
657.661	169.62
657.865	170.62
658.068	155.62
658.272	159.62
658.476	140.62
658.68	158.62
658.883	144.62
659.087	144.62
659.291	132.62
659.494	130.62
659.698	133.62
659.901	118.62
660.105	115.62
660.309	103.62
660.512	108.62
660.716	113.62
660.919	99.62
661.123	114.62
661.326	90.62
661.53	98.62
661.733	91.62
661.936	99.62
662.14	91.62
662.343	89.62
662.546	87.62
662.75	91.62
662.953	82.62
663.156	82.62
663.36	84.62
663.563	79.62
663.766	76.62
663.969	76.62
664.173	81.62
664.376	90.62
664.579	75.62
664.782	82.62
664.985	80.62
665.188	87.62
665.391	77.62
665.594	75.62
665.797	87.62
666	89.62
666.203	84.62
666.406	79.62
666.609	86.62
666.812	95.62
667.015	82.62
667.218	88.62
667.421	73.62
667.624	83.62
667.827	77.62
668.03	84.62
668.232	75.62
668.435	86.62
668.638	84.62
668.841	88.62
669.043	79.62
669.246	83.62
669.449	89.62
669.651	83.62
669.854	78.62
670.057	70.62
670.259	66.62
670.462	83.62
670.665	76.62
670.867	86.62
671.07	70.62
671.272	71.62
671.475	87.62
671.677	83.62
671.88	78.62
672.082	68.62
672.284	74.62
672.487	73.62
672.689	84.62
672.892	77.62
