Data from Ni(NO3)2@0.0625M.TitratingCurve.Agarose3%dH2O.NegLispCup.LampEnergy10.LIBS07252019_HRD10591_18-15-29-570.txt Node
Date: Thu Jul 25 18:15:29 EDT 2019
User: cochatt
Spectrometer: HR+D1059
Trigger mode: 1
Integration Time (sec): 1.000000E-1
Scans to average: 1
Electric dark correction enabled: true
Nonlinearity correction enabled: false
Boxcar width: 0
XAxis mode: Wavelengths
Number of Pixels in Spectrum: 2048
>>>>>Begin Spectral Data<<<<<
223.165	-11.5
223.4	-11.5
223.635	-11.5
223.869	-7.5
224.104	-27.5
224.338	-17.5
224.573	-13.5
224.808	-18.5
225.042	-10.5
225.277	-9.5
225.511	-16.5
225.746	7.5
225.98	0.5
226.215	21.5
226.449	14.5
226.683	32.5
226.918	17.5
227.152	38.5
227.387	25.5
227.621	41.5
227.856	54.5
228.09	36.5
228.324	51.5
228.559	51.5
228.793	69.5
229.027	102.5
229.262	89.5
229.496	115.5
229.73	127.5
229.964	129.5
230.199	109.5
230.433	112.5
230.667	136.5
230.901	137.5
231.136	123.5
231.37	147.5
231.604	139.5
231.838	127.5
232.072	129.5
232.306	135.5
232.541	140.5
232.775	139.5
233.009	136.5
233.243	134.5
233.477	136.5
233.711	138.5
233.945	137.5
234.179	129.5
234.413	158.5
234.647	147.5
234.881	146.5
235.115	138.5
235.349	140.5
235.583	143.5
235.817	141.5
236.051	141.5
236.285	145.5
236.519	148.5
236.753	149.5
236.987	163.5
237.221	146.5
237.455	140.5
237.689	150.5
237.922	155.5
238.156	145.5
238.39	178.5
238.624	156.5
238.858	163.5
239.091	162.5
239.325	156.5
239.559	161.5
239.793	174.5
240.027	177.5
240.26	170.5
240.494	165.5
240.728	183.5
240.961	165.5
241.195	179.5
241.429	163.5
241.662	175.5
241.896	184.5
242.13	187.5
242.363	187.5
242.597	184.5
242.83	191.5
243.064	181.5
243.298	193.5
243.531	198.5
243.765	211.5
243.998	210.5
244.232	195.5
244.465	201.5
244.699	204.5
244.932	205.5
245.166	200.5
245.399	210.5
245.633	209.5
245.866	196.5
246.099	230.5
246.333	213.5
246.566	225.5
246.8	219.5
247.033	211.5
247.266	229.5
247.5	233.5
247.733	214.5
247.966	213.5
248.2	223.5
248.433	216.5
248.666	220.5
248.899	235.5
249.133	221.5
249.366	224.5
249.599	244.5
249.832	250.5
250.066	216.5
250.299	236.5
250.532	228.5
250.765	233.5
250.998	237.5
251.231	269.5
251.465	264.5
251.698	256.5
251.931	251.5
252.164	244.5
252.397	259.5
252.63	256.5
252.863	258.5
253.096	245.5
253.329	267.5
253.562	256.5
253.795	264.5
254.028	258.5
254.261	269.5
254.494	276.5
254.727	269.5
254.96	244.5
255.193	272.5
255.426	264.5
255.659	271.5
255.892	283.5
256.124	281.5
256.357	263.5
256.59	281.5
256.823	277.5
257.056	275.5
257.289	271.5
257.521	280.5
257.754	279.5
257.987	280.5
258.22	267.5
258.452	291.5
258.685	293.5
258.918	312.5
259.151	303.5
259.383	279.5
259.616	288.5
259.849	305.5
260.081	292.5
260.314	309.5
260.547	297.5
260.779	313.5
261.012	301.5
261.244	293.5
261.477	299.5
261.71	287.5
261.942	279.5
262.175	304.5
262.407	310.5
262.64	292.5
262.872	306.5
263.105	300.5
263.337	310.5
263.57	300.5
263.802	328.5
264.035	333.5
264.267	317.5
264.499	311.5
264.732	333.5
264.964	357.5
265.197	327.5
265.429	347.5
265.661	347.5
265.894	328.5
266.126	333.5
266.358	345.5
266.591	331.5
266.823	336.5
267.055	341.5
267.287	359.5
267.52	355.5
267.752	338.5
267.984	343.5
268.216	341.5
268.448	356.5
268.681	339.5
268.913	332.5
269.145	342.5
269.377	354.5
269.609	344.5
269.841	373.5
270.073	349.5
270.306	347.5
270.538	349.5
270.77	333.5
271.002	361.5
271.234	348.5
271.466	364.5
271.698	368.5
271.93	387.5
272.162	359.5
272.394	375.5
272.626	357.5
272.858	365.5
273.09	378.5
273.322	369.5
273.553	368.5
273.785	392.5
274.017	375.5
274.249	386.5
274.481	371.5
274.713	387.5
274.945	383.5
275.176	383.5
275.408	396.5
275.64	391.5
275.872	396.5
276.104	397.5
276.335	390.5
276.567	386.5
276.799	387.5
277.031	409.5
277.262	403.5
277.494	379.5
277.726	410.5
277.957	413.5
278.189	402.5
278.421	413.5
278.652	405.5
278.884	404.5
279.115	403.5
279.347	418.5
279.579	419.5
279.81	411.5
280.042	416.5
280.273	394.5
280.505	433.5
280.736	422.5
280.968	428.5
281.199	417.5
281.431	445.5
281.662	412.5
281.894	433.5
282.125	427.5
282.356	442.5
282.588	413.5
282.819	427.5
283.051	434.5
283.282	441.5
283.513	425.5
283.745	456.5
283.976	450.5
284.207	433.5
284.439	447.5
284.67	433.5
284.901	465.5
285.132	447.5
285.364	458.5
285.595	450.5
285.826	459.5
286.057	473.5
286.288	463.5
286.52	469.5
286.751	458.5
286.982	487.5
287.213	447.5
287.444	468.5
287.675	475.5
287.906	478.5
288.138	466.5
288.369	483.5
288.6	494.5
288.831	474.5
289.062	487.5
289.293	484.5
289.524	483.5
289.755	514.5
289.986	496.5
290.217	498.5
290.448	493.5
290.679	492.5
290.91	485.5
291.141	486.5
291.371	483.5
291.602	498.5
291.833	480.5
292.064	468.5
292.295	469.5
292.526	498.5
292.757	471.5
292.987	471.5
293.218	464.5
293.449	479.5
293.68	497.5
293.91	510.5
294.141	479.5
294.372	479.5
294.603	511.5
294.833	492.5
295.064	484.5
295.295	482.5
295.525	518.5
295.756	503.5
295.987	504.5
296.217	498.5
296.448	517.5
296.679	507.5
296.909	510.5
297.14	519.5
297.37	523.5
297.601	532.5
297.831	544.5
298.062	526.5
298.292	540.5
298.523	570.5
298.753	562.5
298.984	547.5
299.214	533.5
299.445	523.5
299.675	543.5
299.905	537.5
300.136	533.5
300.366	539.5
300.597	568.5
300.827	553.5
301.057	575.5
301.288	582.5
301.518	581.5
301.748	588.5
301.979	583.5
302.209	563.5
302.439	577.5
302.669	548.5
302.9	556.5
303.13	559.5
303.36	559.5
303.59	552.5
303.82	554.5
304.051	567.5
304.281	549.5
304.511	542.5
304.741	577.5
304.971	565.5
305.201	545.5
305.431	553.5
305.661	561.5
305.891	545.5
306.121	528.5
306.352	551.5
306.582	546.5
306.812	522.5
307.042	539.5
307.272	535.5
307.502	526.5
307.731	548.5
307.961	548.5
308.191	544.5
308.421	538.5
308.651	537.5
308.881	544.5
309.111	560.5
309.341	535.5
309.571	550.5
309.8	531.5
310.03	538.5
310.26	516.5
310.49	559.5
310.72	540.5
310.949	525.5
311.179	533.5
311.409	573.5
311.639	551.5
311.868	566.5
312.098	549.5
312.328	556.5
312.557	586.5
312.787	569.5
313.017	542.5
313.246	584.5
313.476	551.5
313.706	569.5
313.935	581.5
314.165	583.5
314.394	592.5
314.624	603.5
314.853	585.5
315.083	575.5
315.312	579.5
315.542	559.5
315.771	596.5
316.001	556.5
316.23	564.5
316.46	567.5
316.689	559.5
316.919	581.5
317.148	579.5
317.377	574.5
317.607	560.5
317.836	569.5
318.065	569.5
318.295	569.5
318.524	556.5
318.753	574.5
318.983	578.5
319.212	576.5
319.441	563.5
319.67	568.5
319.9	556.5
320.129	586.5
320.358	570.5
320.587	573.5
320.816	590.5
321.046	549.5
321.275	584.5
321.504	580.5
321.733	570.5
321.962	567.5
322.191	568.5
322.42	577.5
322.649	578.5
322.878	588.5
323.108	588.5
323.337	576.5
323.566	572.5
323.795	577.5
324.024	602.5
324.253	559.5
324.482	583.5
324.71	583.5
324.939	584.5
325.168	576.5
325.397	607.5
325.626	578.5
325.855	609.5
326.084	595.5
326.313	639.5
326.542	620.5
326.77	635.5
326.999	649.5
327.228	621.5
327.457	610.5
327.686	623.5
327.914	615.5
328.143	627.5
328.372	627.5
328.6	601.5
328.829	603.5
329.058	622.5
329.287	627.5
329.515	617.5
329.744	641.5
329.972	620.5
330.201	635.5
330.43	639.5
330.658	632.5
330.887	623.5
331.115	640.5
331.344	660.5
331.572	676.5
331.801	667.5
332.03	696.5
332.258	701.5
332.486	700.5
332.715	752.5
332.943	795.5
333.172	817.5
333.4	855.5
333.629	873.5
333.857	852.5
334.085	840.5
334.314	805.5
334.542	807.5
334.771	785.5
334.999	763.5
335.227	792.5
335.455	777.5
335.684	759.5
335.912	757.5
336.14	753.5
336.369	755.5
336.597	758.5
336.825	758.5
337.053	759.5
337.281	735.5
337.51	722.5
337.738	715.5
337.966	693.5
338.194	689.5
338.422	693.5
338.65	691.5
338.878	702.5
339.106	674.5
339.334	659.5
339.562	693.5
339.79	643.5
340.018	653.5
340.246	670.5
340.474	644.5
340.702	654.5
340.93	659.5
341.158	653.5
341.386	651.5
341.614	660.5
341.842	674.5
342.07	649.5
342.298	628.5
342.526	644.5
342.754	648.5
342.981	637.5
343.209	677.5
343.437	688.5
343.665	728.5
343.893	820.5
344.12	811.5
344.348	811.5
344.576	741.5
344.804	678.5
345.031	693.5
345.259	667.5
345.487	656.5
345.714	659.5
345.942	661.5
346.17	659.5
346.397	639.5
346.625	626.5
346.853	632.5
347.08	632.5
347.308	633.5
347.535	640.5
347.763	638.5
347.99	653.5
348.218	657.5
348.445	643.5
348.673	628.5
348.9	635.5
349.128	636.5
349.355	604.5
349.583	629.5
349.81	635.5
350.037	626.5
350.265	614.5
350.492	622.5
350.72	599.5
350.947	624.5
351.174	650.5
351.402	616.5
351.629	632.5
351.856	624.5
352.083	600.5
352.311	615.5
352.538	588.5
352.765	601.5
352.992	620.5
353.22	619.5
353.447	592.5
353.674	598.5
353.901	620.5
354.128	625.5
354.355	595.5
354.583	628.5
354.81	613.5
355.037	606.5
355.264	641.5
355.491	612.5
355.718	623.5
355.945	611.5
356.172	608.5
356.399	626.5
356.626	614.5
356.853	641.5
357.08	621.5
357.307	629.5
357.534	618.5
357.761	614.5
357.988	621.5
358.215	605.5
358.441	603.5
358.668	624.5
358.895	600.5
359.122	644.5
359.349	618.5
359.576	599.5
359.802	630.5
360.029	626.5
360.256	623.5
360.483	621.5
360.709	611.5
360.936	627.5
361.163	620.5
361.39	632.5
361.616	616.5
361.843	616.5
362.07	626.5
362.296	625.5
362.523	586.5
362.749	600.5
362.976	607.5
363.203	580.5
363.429	607.5
363.656	620.5
363.882	601.5
364.109	610.5
364.335	598.5
364.562	592.5
364.788	596.5
365.015	611.5
365.241	608.5
365.468	590.5
365.694	623.5
365.92	605.5
366.147	618.5
366.373	602.5
366.599	625.5
366.826	614.5
367.052	594.5
367.278	607.5
367.505	609.5
367.731	616.5
367.957	614.5
368.184	612.5
368.41	630.5
368.636	631.5
368.862	625.5
369.089	634.5
369.315	615.5
369.541	641.5
369.767	657.5
369.993	636.5
370.219	641.5
370.445	638.5
370.672	659.5
370.898	639.5
371.124	669.5
371.35	667.5
371.576	668.5
371.802	673.5
372.028	661.5
372.254	654.5
372.48	675.5
372.706	674.5
372.932	709.5
373.158	689.5
373.384	670.5
373.61	659.5
373.835	671.5
374.061	657.5
374.287	692.5
374.513	663.5
374.739	704.5
374.965	741.5
375.191	758.5
375.416	753.5
375.642	718.5
375.868	719.5
376.094	681.5
376.319	699.5
376.545	671.5
376.771	676.5
376.997	675.5
377.222	690.5
377.448	663.5
377.674	703.5
377.899	661.5
378.125	653.5
378.35	651.5
378.576	654.5
378.802	658.5
379.027	657.5
379.253	659.5
379.478	661.5
379.704	660.5
379.929	653.5
380.155	643.5
380.38	675.5
380.606	659.5
380.831	652.5
381.057	668.5
381.282	687.5
381.507	671.5
381.733	706.5
381.958	684.5
382.184	693.5
382.409	684.5
382.634	688.5
382.86	691.5
383.085	700.5
383.31	715.5
383.535	747.5
383.761	748.5
383.986	740.5
384.211	768.5
384.436	772.5
384.662	792.5
384.887	792.5
385.112	810.5
385.337	827.5
385.562	791.5
385.787	793.5
386.013	809.5
386.238	820.5
386.463	805.5
386.688	810.5
386.913	785.5
387.138	801.5
387.363	788.5
387.588	759.5
387.813	774.5
388.038	774.5
388.263	820.5
388.488	789.5
388.713	811.5
388.938	785.5
389.163	763.5
389.387	760.5
389.612	768.5
389.837	774.5
390.062	779.5
390.287	778.5
390.512	773.5
390.736	796.5
390.961	792.5
391.186	823.5
391.411	833.5
391.636	859.5
391.86	869.5
392.085	931.5
392.31	907.5
392.534	861.5
392.759	883.5
392.984	847.5
393.208	833.5
393.433	842.5
393.658	837.5
393.882	874.5
394.107	850.5
394.331	854.5
394.556	824.5
394.78	855.5
395.005	865.5
395.229	847.5
395.454	883.5
395.678	885.5
395.903	894.5
396.127	912.5
396.352	888.5
396.576	850.5
396.801	823.5
397.025	840.5
397.249	859.5
397.474	880.5
397.698	885.5
397.922	896.5
398.147	887.5
398.371	897.5
398.595	916.5
398.82	989.5
399.044	1050.5
399.268	1155.5
399.492	1351.5
399.717	1591.5
399.941	1549.5
400.165	1335.5
400.389	1201.5
400.613	1100.5
400.837	1039.5
401.062	989.5
401.286	1037.5
401.51	998.5
401.734	995.5
401.958	1033.5
402.182	998.5
402.406	1010.5
402.63	1026.5
402.854	1068.5
403.078	1082.5
403.302	1105.5
403.526	1151.5
403.75	1151.5
403.974	1180.5
404.198	1194.5
404.422	1216.5
404.645	1199.5
404.869	1147.5
405.093	1115.5
405.317	1131.5
405.541	1130.5
405.765	1140.5
405.988	1100.5
406.212	1079.5
406.436	1099.5
406.66	1145.5
406.883	1151.5
407.107	1204.5
407.331	1311.5
407.555	1339.5
407.778	1297.5
408.002	1260.5
408.226	1257.5
408.449	1210.5
408.673	1131.5
408.896	1132.5
409.12	1147.5
409.344	1145.5
409.567	1127.5
409.791	1173.5
410.014	1183.5
410.238	1149.5
410.461	1151.5
410.685	1099.5
410.908	1089.5
411.132	1101.5
411.355	1073.5
411.578	1067.5
411.802	1042.5
412.025	1046.5
412.249	1051.5
412.472	1065.5
412.695	1014.5
412.919	1017.5
413.142	1008.5
413.365	985.5
413.589	1024.5
413.812	987.5
414.035	988.5
414.258	975.5
414.482	987.5
414.705	1026.5
414.928	1033.5
415.151	1019.5
415.374	1017.5
415.597	1025.5
415.821	988.5
416.044	964.5
416.267	969.5
416.49	960.5
416.713	958.5
416.936	1018.5
417.159	984.5
417.382	1003.5
417.605	948.5
417.828	1002.5
418.051	991.5
418.274	995.5
418.497	1003.5
418.72	1017.5
418.943	1003.5
419.166	1068.5
419.389	1146.5
419.611	1111.5
419.834	1067.5
420.057	1045.5
420.28	1018.5
420.503	988.5
420.726	968.5
420.948	994.5
421.171	1003.5
421.394	988.5
421.617	965.5
421.839	983.5
422.062	989.5
422.285	1014.5
422.507	1044.5
422.73	1019.5
422.953	1011.5
423.175	1066.5
423.398	1060.5
423.621	1098.5
423.843	1081.5
424.066	1062.5
424.288	1063.5
424.511	1039.5
424.733	1039.5
424.956	1025.5
425.178	1030.5
425.401	996.5
425.623	986.5
425.846	965.5
426.068	926.5
426.291	933.5
426.513	939.5
426.735	924.5
426.958	907.5
427.18	901.5
427.402	920.5
427.625	919.5
427.847	904.5
428.069	896.5
428.292	925.5
428.514	887.5
428.736	848.5
428.958	881.5
429.181	859.5
429.403	862.5
429.625	871.5
429.847	868.5
430.069	854.5
430.292	834.5
430.514	861.5
430.736	874.5
430.958	868.5
431.18	842.5
431.402	891.5
431.624	870.5
431.846	895.5
432.068	895.5
432.29	917.5
432.512	859.5
432.734	888.5
432.956	895.5
433.178	875.5
433.4	872.5
433.622	887.5
433.844	895.5
434.066	886.5
434.287	899.5
434.509	963.5
434.731	977.5
434.953	1023.5
435.175	1027.5
435.397	1024.5
435.618	947.5
435.84	937.5
436.062	906.5
436.284	888.5
436.505	885.5
436.727	901.5
436.949	868.5
437.17	884.5
437.392	850.5
437.614	841.5
437.835	841.5
438.057	845.5
438.278	839.5
438.5	839.5
438.721	845.5
438.943	851.5
439.165	863.5
439.386	858.5
439.608	903.5
439.829	871.5
440.05	858.5
440.272	879.5
440.493	895.5
440.715	911.5
440.936	912.5
441.158	927.5
441.379	937.5
441.6	995.5
441.822	1024.5
442.043	1023.5
442.264	1002.5
442.486	940.5
442.707	960.5
442.928	969.5
443.149	990.5
443.371	976.5
443.592	965.5
443.813	993.5
444.034	1004.5
444.255	1015.5
444.476	1076.5
444.698	1178.5
444.919	1214.5
445.14	1295.5
445.361	1147.5
445.582	1021.5
445.803	935.5
446.024	899.5
446.245	900.5
446.466	900.5
446.687	882.5
446.908	913.5
447.129	887.5
447.35	892.5
447.571	847.5
447.792	840.5
448.013	849.5
448.234	829.5
448.455	841.5
448.675	843.5
448.896	785.5
449.117	790.5
449.338	817.5
449.559	810.5
449.779	775.5
450	804.5
450.221	821.5
450.442	838.5
450.662	846.5
450.883	819.5
451.104	863.5
451.324	864.5
451.545	855.5
451.766	838.5
451.986	803.5
452.207	825.5
452.428	826.5
452.648	848.5
452.869	810.5
453.089	794.5
453.31	819.5
453.53	793.5
453.751	804.5
453.971	782.5
454.192	815.5
454.412	786.5
454.633	789.5
454.853	794.5
455.073	794.5
455.294	785.5
455.514	751.5
455.734	775.5
455.955	754.5
456.175	740.5
456.395	765.5
456.616	761.5
456.836	756.5
457.056	744.5
457.276	729.5
457.497	751.5
457.717	753.5
457.937	788.5
458.157	778.5
458.377	785.5
458.598	783.5
458.818	819.5
459.038	831.5
459.258	888.5
459.478	887.5
459.698	893.5
459.918	923.5
460.138	963.5
460.358	1011.5
460.578	1040.5
460.798	1057.5
461.018	1050.5
461.238	1069.5
461.458	1055.5
461.678	1028.5
461.898	1041.5
462.118	1072.5
462.338	1115.5
462.558	1133.5
462.777	1165.5
462.997	1340.5
463.217	1479.5
463.437	1461.5
463.657	1288.5
463.876	1240.5
464.096	1232.5
464.316	1258.5
464.536	1267.5
464.755	1215.5
464.975	1175.5
465.195	1086.5
465.414	1024.5
465.634	957.5
465.854	935.5
466.073	890.5
466.293	888.5
466.512	864.5
466.732	857.5
466.951	875.5
467.171	837.5
467.391	851.5
467.61	855.5
467.829	851.5
468.049	818.5
468.268	805.5
468.488	817.5
468.707	803.5
468.927	819.5
469.146	807.5
469.365	825.5
469.585	843.5
469.804	851.5
470.023	856.5
470.243	880.5
470.462	885.5
470.681	888.5
470.901	896.5
471.12	879.5
471.339	856.5
471.558	853.5
471.777	838.5
471.997	837.5
472.216	829.5
472.435	801.5
472.654	812.5
472.873	789.5
473.092	771.5
473.311	783.5
473.53	795.5
473.749	780.5
473.968	792.5
474.187	774.5
474.406	794.5
474.625	785.5
474.844	768.5
475.063	791.5
475.282	820.5
475.501	817.5
475.72	820.5
475.939	817.5
476.158	811.5
476.377	816.5
476.596	832.5
476.814	854.5
477.033	834.5
477.252	858.5
477.471	842.5
477.69	883.5
477.908	917.5
478.127	931.5
478.346	945.5
478.564	949.5
478.783	953.5
479.002	998.5
479.22	1007.5
479.439	982.5
479.658	964.5
479.876	965.5
480.095	994.5
480.313	1037.5
480.532	1036.5
480.751	1066.5
480.969	996.5
481.188	987.5
481.406	959.5
481.624	943.5
481.843	928.5
482.061	916.5
482.28	903.5
482.498	897.5
482.717	868.5
482.935	872.5
483.153	874.5
483.372	893.5
483.59	915.5
483.808	915.5
484.027	890.5
484.245	897.5
484.463	913.5
484.681	934.5
484.9	924.5
485.118	953.5
485.336	951.5
485.554	938.5
485.772	970.5
485.99	973.5
486.209	972.5
486.427	982.5
486.645	957.5
486.863	965.5
487.081	971.5
487.299	948.5
487.517	954.5
487.735	933.5
487.953	951.5
488.171	947.5
488.389	956.5
488.607	928.5
488.825	894.5
489.043	918.5
489.261	932.5
489.479	933.5
489.696	953.5
489.914	932.5
490.132	954.5
490.35	937.5
490.568	963.5
490.786	947.5
491.003	943.5
491.221	955.5
491.439	928.5
491.657	962.5
491.874	949.5
492.092	922.5
492.31	959.5
492.527	945.5
492.745	977.5
492.963	985.5
493.18	937.5
493.398	972.5
493.615	992.5
493.833	969.5
494.05	956.5
494.268	974.5
494.485	1004.5
494.703	991.5
494.92	1000.5
495.138	995.5
495.355	954.5
495.573	1002.5
495.79	1016.5
496.008	1009.5
496.225	976.5
496.442	1029.5
496.66	1032.5
496.877	1036.5
497.094	1042.5
497.312	1062.5
497.529	1096.5
497.746	1111.5
497.963	1151.5
498.181	1187.5
498.398	1226.5
498.615	1311.5
498.832	1366.5
499.049	1493.5
499.267	1637.5
499.484	1817.5
499.701	2030.5
499.918	2237.5
500.135	2634.5
500.352	3097.5
500.569	3241.5
500.786	3193.5
501.003	2931.5
501.22	2509.5
501.437	2256.5
501.654	1959.5
501.871	1786.5
502.088	1594.5
502.305	1499.5
502.522	1391.5
502.739	1393.5
502.956	1296.5
503.172	1254.5
503.389	1199.5
503.606	1137.5
503.823	1115.5
504.04	1146.5
504.256	1135.5
504.473	1186.5
504.69	1228.5
504.907	1219.5
505.123	1104.5
505.34	1019.5
505.557	1004.5
505.773	981.5
505.99	932.5
506.207	947.5
506.423	894.5
506.64	929.5
506.856	891.5
507.073	907.5
507.289	879.5
507.506	869.5
507.722	877.5
507.939	872.5
508.155	848.5
508.372	852.5
508.588	833.5
508.805	866.5
509.021	844.5
509.238	836.5
509.454	832.5
509.67	830.5
509.887	832.5
510.103	821.5
510.319	842.5
510.536	812.5
510.752	804.5
510.968	804.5
511.184	790.5
511.401	794.5
511.617	801.5
511.833	810.5
512.049	814.5
512.265	801.5
512.481	818.5
512.698	838.5
512.914	801.5
513.13	809.5
513.346	841.5
513.562	782.5
513.778	812.5
513.994	829.5
514.21	812.5
514.426	813.5
514.642	835.5
514.858	823.5
515.074	813.5
515.29	844.5
515.506	864.5
515.721	840.5
515.937	868.5
516.153	839.5
516.369	910.5
516.585	921.5
516.801	955.5
517.016	1012.5
517.232	1060.5
517.448	1106.5
517.664	1172.5
517.879	1172.5
518.095	1154.5
518.311	1137.5
518.527	1062.5
518.742	1031.5
518.958	979.5
519.173	952.5
519.389	932.5
519.605	886.5
519.82	864.5
520.036	848.5
520.251	834.5
520.467	801.5
520.682	838.5
520.898	797.5
521.113	824.5
521.329	820.5
521.544	801.5
521.76	805.5
521.975	804.5
522.19	792.5
522.406	792.5
522.621	747.5
522.836	754.5
523.052	742.5
523.267	789.5
523.482	777.5
523.698	772.5
523.913	737.5
524.128	775.5
524.343	731.5
524.559	756.5
524.774	748.5
524.989	754.5
525.204	748.5
525.419	746.5
525.634	732.5
525.849	723.5
526.064	747.5
526.28	740.5
526.495	743.5
526.71	735.5
526.925	739.5
527.14	729.5
527.355	730.5
527.57	740.5
527.785	755.5
527.999	736.5
528.214	729.5
528.429	765.5
528.644	760.5
528.859	726.5
529.074	748.5
529.289	713.5
529.503	739.5
529.718	719.5
529.933	721.5
530.148	715.5
530.363	748.5
530.577	719.5
530.792	733.5
531.007	741.5
531.221	763.5
531.436	738.5
531.651	742.5
531.865	732.5
532.08	738.5
532.295	721.5
532.509	718.5
532.724	705.5
532.938	733.5
533.153	751.5
533.367	728.5
533.582	742.5
533.796	721.5
534.011	743.5
534.225	736.5
534.44	726.5
534.654	725.5
534.868	731.5
535.083	721.5
535.297	719.5
535.511	713.5
535.726	700.5
535.94	716.5
536.154	700.5
536.369	681.5
536.583	684.5
536.797	682.5
537.011	683.5
537.225	669.5
537.44	692.5
537.654	682.5
537.868	683.5
538.082	662.5
538.296	666.5
538.51	660.5
538.724	692.5
538.938	671.5
539.153	665.5
539.367	687.5
539.581	668.5
539.795	658.5
540.009	646.5
540.222	657.5
540.436	669.5
540.65	660.5
540.864	650.5
541.078	662.5
541.292	682.5
541.506	673.5
541.72	621.5
541.934	641.5
542.147	673.5
542.361	643.5
542.575	643.5
542.789	644.5
543.002	630.5
543.216	620.5
543.43	659.5
543.644	649.5
543.857	636.5
544.071	643.5
544.285	649.5
544.498	664.5
544.712	632.5
544.925	655.5
545.139	642.5
545.352	664.5
545.566	690.5
545.779	669.5
545.993	704.5
546.206	675.5
546.42	659.5
546.633	663.5
546.847	648.5
547.06	666.5
547.274	644.5
547.487	645.5
547.7	642.5
547.914	681.5
548.127	667.5
548.34	667.5
548.554	665.5
548.767	674.5
548.98	682.5
549.193	663.5
549.407	654.5
549.62	699.5
549.833	699.5
550.046	676.5
550.259	648.5
550.473	647.5
550.686	633.5
550.899	662.5
551.112	638.5
551.325	638.5
551.538	657.5
551.751	649.5
551.964	646.5
552.177	643.5
552.39	666.5
552.603	677.5
552.816	705.5
553.029	727.5
553.242	719.5
553.455	739.5
553.667	755.5
553.88	725.5
554.093	716.5
554.306	672.5
554.519	674.5
554.732	683.5
554.944	645.5
555.157	634.5
555.37	652.5
555.583	643.5
555.795	634.5
556.008	616.5
556.221	594.5
556.433	599.5
556.646	581.5
556.859	604.5
557.071	591.5
557.284	574.5
557.496	576.5
557.709	597.5
557.921	566.5
558.134	543.5
558.346	581.5
558.559	554.5
558.771	572.5
558.984	562.5
559.196	539.5
559.409	559.5
559.621	564.5
559.833	557.5
560.046	547.5
560.258	528.5
560.47	549.5
560.683	530.5
560.895	562.5
561.107	585.5
561.32	562.5
561.532	543.5
561.744	559.5
561.956	543.5
562.168	560.5
562.381	548.5
562.593	533.5
562.805	544.5
563.017	562.5
563.229	569.5
563.441	526.5
563.653	578.5
563.865	575.5
564.077	584.5
564.289	583.5
564.501	569.5
564.713	580.5
564.925	576.5
565.137	584.5
565.349	620.5
565.561	617.5
565.773	655.5
565.985	669.5
566.197	719.5
566.408	757.5
566.62	853.5
566.832	897.5
567.044	907.5
567.255	948.5
567.467	939.5
567.679	993.5
567.891	1113.5
568.102	1166.5
568.314	1120.5
568.526	969.5
568.737	855.5
568.949	785.5
569.161	721.5
569.372	654.5
569.584	636.5
569.795	607.5
570.007	614.5
570.218	607.5
570.43	574.5
570.641	533.5
570.853	562.5
571.064	585.5
571.276	566.5
571.487	576.5
571.698	567.5
571.91	527.5
572.121	507.5
572.333	499.5
572.544	505.5
572.755	470.5
572.966	477.5
573.178	475.5
573.389	491.5
573.6	461.5
573.811	449.5
574.023	458.5
574.234	450.5
574.445	445.5
574.656	458.5
574.867	471.5
575.078	475.5
575.289	481.5
575.501	467.5
575.712	455.5
575.923	451.5
576.134	451.5
576.345	435.5
576.556	430.5
576.767	429.5
576.978	437.5
577.188	447.5
577.399	405.5
577.61	437.5
577.821	424.5
578.032	400.5
578.243	420.5
578.454	417.5
578.665	401.5
578.875	381.5
579.086	389.5
579.297	403.5
579.508	407.5
579.718	421.5
579.929	402.5
580.14	388.5
580.35	398.5
580.561	407.5
580.772	392.5
580.982	404.5
581.193	418.5
581.403	402.5
581.614	376.5
581.825	403.5
582.035	389.5
582.246	388.5
582.456	377.5
582.667	387.5
582.877	393.5
583.087	392.5
583.298	373.5
583.508	383.5
583.719	383.5
583.929	385.5
584.139	366.5
584.35	372.5
584.56	385.5
584.77	372.5
584.981	383.5
585.191	391.5
585.401	384.5
585.611	375.5
585.821	377.5
586.032	375.5
586.242	369.5
586.452	391.5
586.662	404.5
586.872	379.5
587.082	380.5
587.292	371.5
587.502	379.5
587.713	387.5
587.923	365.5
588.133	375.5
588.343	383.5
588.553	383.5
588.762	375.5
588.972	362.5
589.182	380.5
589.392	383.5
589.602	366.5
589.812	367.5
590.022	387.5
590.232	372.5
590.441	361.5
590.651	385.5
590.861	395.5
591.071	378.5
591.281	380.5
591.49	387.5
591.7	379.5
591.91	394.5
592.119	418.5
592.329	405.5
592.539	415.5
592.748	440.5
592.958	449.5
593.167	447.5
593.377	475.5
593.587	495.5
593.796	489.5
594.006	468.5
594.215	486.5
594.424	503.5
594.634	467.5
594.843	453.5
595.053	440.5
595.262	444.5
595.472	410.5
595.681	379.5
595.89	396.5
596.1	390.5
596.309	375.5
596.518	366.5
596.727	355.5
596.937	357.5
597.146	369.5
597.355	347.5
597.564	339.5
597.774	322.5
597.983	328.5
598.192	314.5
598.401	330.5
598.61	331.5
598.819	336.5
599.028	325.5
599.237	334.5
599.446	307.5
599.655	341.5
599.864	333.5
600.073	312.5
600.282	306.5
600.491	312.5
600.7	329.5
600.909	310.5
601.118	304.5
601.327	309.5
601.536	323.5
601.745	300.5
601.953	312.5
602.162	309.5
602.371	299.5
602.58	289.5
602.789	321.5
602.997	304.5
603.206	287.5
603.415	297.5
603.623	304.5
603.832	306.5
604.041	299.5
604.249	281.5
604.458	283.5
604.666	293.5
604.875	313.5
605.084	313.5
605.292	283.5
605.501	300.5
605.709	295.5
605.918	294.5
606.126	306.5
606.334	307.5
606.543	268.5
606.751	284.5
606.96	292.5
607.168	305.5
607.376	287.5
607.585	295.5
607.793	273.5
608.001	276.5
608.21	287.5
608.418	289.5
608.626	294.5
608.834	289.5
609.043	281.5
609.251	291.5
609.459	279.5
609.667	293.5
609.875	291.5
610.083	290.5
610.291	263.5
610.499	259.5
610.707	289.5
610.916	267.5
611.124	274.5
611.332	261.5
611.54	274.5
611.748	283.5
611.955	291.5
612.163	280.5
612.371	280.5
612.579	293.5
612.787	277.5
612.995	278.5
613.203	279.5
613.411	268.5
613.618	267.5
613.826	278.5
614.034	269.5
614.242	291.5
614.449	281.5
614.657	278.5
614.865	290.5
615.072	283.5
615.28	276.5
615.488	271.5
615.695	277.5
615.903	283.5
616.111	275.5
616.318	270.5
616.526	278.5
616.733	277.5
616.941	279.5
617.148	275.5
617.356	281.5
617.563	287.5
617.771	286.5
617.978	278.5
618.185	277.5
618.393	282.5
618.6	294.5
618.807	271.5
619.015	268.5
619.222	258.5
619.429	261.5
619.637	268.5
619.844	264.5
620.051	277.5
620.258	241.5
620.466	242.5
620.673	260.5
620.88	275.5
621.087	272.5
621.294	265.5
621.501	251.5
621.708	254.5
621.915	256.5
622.122	266.5
622.329	246.5
622.536	263.5
622.743	252.5
622.95	253.5
623.157	256.5
623.364	237.5
623.571	239.5
623.778	237.5
623.985	239.5
624.192	220.5
624.399	234.5
624.606	244.5
624.812	239.5
625.019	234.5
625.226	236.5
625.433	231.5
625.639	243.5
625.846	246.5
626.053	232.5
626.259	234.5
626.466	230.5
626.673	224.5
626.879	220.5
627.086	233.5
627.293	232.5
627.499	225.5
627.706	229.5
627.912	245.5
628.119	233.5
628.325	234.5
628.532	220.5
628.738	216.5
628.945	208.5
629.151	229.5
629.357	226.5
629.564	219.5
629.77	212.5
629.976	224.5
630.183	207.5
630.389	218.5
630.595	211.5
630.802	209.5
631.008	224.5
631.214	215.5
631.42	200.5
631.627	219.5
631.833	210.5
632.039	198.5
632.245	205.5
632.451	208.5
632.657	215.5
632.863	211.5
633.069	215.5
633.275	182.5
633.481	204.5
633.688	204.5
633.893	217.5
634.099	203.5
634.305	202.5
634.511	204.5
634.717	208.5
634.923	224.5
635.129	194.5
635.335	199.5
635.541	179.5
635.747	211.5
635.952	189.5
636.158	196.5
636.364	205.5
636.57	218.5
636.775	202.5
636.981	190.5
637.187	194.5
637.392	200.5
637.598	208.5
637.804	194.5
638.009	196.5
638.215	195.5
638.421	179.5
638.626	192.5
638.832	197.5
639.037	187.5
639.243	181.5
639.448	185.5
639.654	196.5
639.859	191.5
640.065	187.5
640.27	204.5
640.475	181.5
640.681	199.5
640.886	181.5
641.091	196.5
641.297	186.5
641.502	181.5
641.707	181.5
641.913	181.5
642.118	200.5
642.323	179.5
642.528	179.5
642.733	180.5
642.939	184.5
643.144	183.5
643.349	180.5
643.554	170.5
643.759	178.5
643.964	189.5
644.169	183.5
644.374	178.5
644.579	176.5
644.784	163.5
644.989	179.5
645.194	178.5
645.399	176.5
645.604	187.5
645.809	185.5
646.014	197.5
646.219	187.5
646.423	189.5
646.628	173.5
646.833	159.5
647.038	196.5
647.243	171.5
647.447	187.5
647.652	199.5
647.857	187.5
648.062	190.5
648.266	199.5
648.471	192.5
648.676	190.5
648.88	179.5
649.085	191.5
649.289	168.5
649.494	183.5
649.698	177.5
649.903	174.5
650.107	173.5
650.312	154.5
650.516	183.5
650.721	179.5
650.925	169.5
651.13	147.5
651.334	164.5
651.539	164.5
651.743	158.5
651.947	138.5
652.152	156.5
652.356	144.5
652.56	159.5
652.764	147.5
652.969	154.5
653.173	147.5
653.377	152.5
653.581	139.5
653.785	142.5
653.99	155.5
654.194	136.5
654.398	127.5
654.602	125.5
654.806	143.5
655.01	142.5
655.214	131.5
655.418	138.5
655.622	131.5
655.826	139.5
656.03	130.5
656.234	140.5
656.438	135.5
656.642	129.5
656.846	139.5
657.049	131.5
657.253	123.5
657.457	129.5
657.661	120.5
657.865	119.5
658.068	107.5
658.272	101.5
658.476	115.5
658.68	107.5
658.883	105.5
659.087	105.5
659.291	105.5
659.494	70.5
659.698	88.5
659.901	103.5
660.105	91.5
660.309	96.5
660.512	95.5
660.716	95.5
660.919	82.5
661.123	91.5
661.326	91.5
661.53	95.5
661.733	90.5
661.936	82.5
662.14	88.5
662.343	76.5
662.546	97.5
662.75	87.5
662.953	95.5
663.156	79.5
663.36	85.5
663.563	87.5
663.766	75.5
663.969	77.5
664.173	92.5
664.376	88.5
664.579	74.5
664.782	88.5
664.985	80.5
665.188	71.5
665.391	79.5
665.594	80.5
665.797	81.5
666	85.5
666.203	76.5
666.406	80.5
666.609	87.5
666.812	90.5
667.015	73.5
667.218	71.5
667.421	78.5
667.624	82.5
667.827	87.5
668.03	81.5
668.232	73.5
668.435	84.5
668.638	88.5
668.841	96.5
669.043	84.5
669.246	77.5
669.449	84.5
669.651	77.5
669.854	80.5
670.057	60.5
670.259	65.5
670.462	83.5
670.665	87.5
670.867	77.5
671.07	84.5
671.272	80.5
671.475	88.5
671.677	82.5
671.88	96.5
672.082	85.5
672.284	94.5
672.487	82.5
672.689	80.5
672.892	87.5
