Data from Ni(NO3)2@0.25M.TitratingCurve.Agarose3%dH2O.NegLispCup.LampEnergy10.LIBS07252019_HRD10591_18-03-36-566.txt Node
Date: Thu Jul 25 18:03:36 EDT 2019
User: cochatt
Spectrometer: HR+D1059
Trigger mode: 1
Integration Time (sec): 1.000000E-1
Scans to average: 1
Electric dark correction enabled: true
Nonlinearity correction enabled: false
Boxcar width: 0
XAxis mode: Wavelengths
Number of Pixels in Spectrum: 2048
>>>>>Begin Spectral Data<<<<<
223.165	-14.94
223.4	-14.94
223.635	-14.94
223.869	-17.94
224.104	-18.94
224.338	-4.94
224.573	-12.94
224.808	-4.94
225.042	-8.94
225.277	-8.94
225.511	-1.94
225.746	2.06
225.98	-3.94
226.215	19.06
226.449	13.06
226.683	14.06
226.918	15.06
227.152	35.06
227.387	24.06
227.621	32.06
227.856	39.06
228.09	33.06
228.324	38.06
228.559	51.06
228.793	58.06
229.027	82.06
229.262	73.06
229.496	71.06
229.73	82.06
229.964	84.06
230.199	116.06
230.433	109.06
230.667	93.06
230.901	97.06
231.136	92.06
231.37	95.06
231.604	102.06
231.838	102.06
232.072	110.06
232.306	115.06
232.541	119.06
232.775	109.06
233.009	100.06
233.243	96.06
233.477	102.06
233.711	85.06
233.945	98.06
234.179	90.06
234.413	99.06
234.647	108.06
234.881	114.06
235.115	102.06
235.349	110.06
235.583	106.06
235.817	94.06
236.051	112.06
236.285	105.06
236.519	114.06
236.753	97.06
236.987	108.06
237.221	94.06
237.455	93.06
237.689	106.06
237.922	95.06
238.156	94.06
238.39	102.06
238.624	99.06
238.858	106.06
239.091	114.06
239.325	93.06
239.559	100.06
239.793	109.06
240.027	105.06
240.26	107.06
240.494	120.06
240.728	111.06
240.961	110.06
241.195	109.06
241.429	126.06
241.662	111.06
241.896	118.06
242.13	122.06
242.363	113.06
242.597	116.06
242.83	107.06
243.064	110.06
243.298	118.06
243.531	127.06
243.765	119.06
243.998	108.06
244.232	110.06
244.465	129.06
244.699	113.06
244.932	117.06
245.166	127.06
245.399	130.06
245.633	124.06
245.866	137.06
246.099	137.06
246.333	130.06
246.566	118.06
246.8	130.06
247.033	131.06
247.266	132.06
247.5	144.06
247.733	121.06
247.966	130.06
248.2	141.06
248.433	140.06
248.666	142.06
248.899	157.06
249.133	142.06
249.366	144.06
249.599	144.06
249.832	143.06
250.066	155.06
250.299	156.06
250.532	140.06
250.765	151.06
250.998	172.06
251.231	171.06
251.465	174.06
251.698	176.06
251.931	180.06
252.164	174.06
252.397	174.06
252.63	178.06
252.863	185.06
253.096	181.06
253.329	169.06
253.562	197.06
253.795	196.06
254.028	200.06
254.261	190.06
254.494	212.06
254.727	194.06
254.96	202.06
255.193	208.06
255.426	198.06
255.659	208.06
255.892	221.06
256.124	229.06
256.357	218.06
256.59	226.06
256.823	214.06
257.056	216.06
257.289	228.06
257.521	226.06
257.754	234.06
257.987	241.06
258.22	237.06
258.452	235.06
258.685	239.06
258.918	250.06
259.151	238.06
259.383	247.06
259.616	272.06
259.849	237.06
260.081	257.06
260.314	239.06
260.547	259.06
260.779	243.06
261.012	263.06
261.244	257.06
261.477	279.06
261.71	262.06
261.942	254.06
262.175	270.06
262.407	277.06
262.64	271.06
262.872	263.06
263.105	266.06
263.337	272.06
263.57	273.06
263.802	285.06
264.035	279.06
264.267	279.06
264.499	267.06
264.732	268.06
264.964	266.06
265.197	269.06
265.429	291.06
265.661	274.06
265.894	286.06
266.126	282.06
266.358	282.06
266.591	294.06
266.823	276.06
267.055	268.06
267.287	288.06
267.52	281.06
267.752	271.06
267.984	304.06
268.216	283.06
268.448	294.06
268.681	310.06
268.913	299.06
269.145	288.06
269.377	302.06
269.609	278.06
269.841	278.06
270.073	303.06
270.306	297.06
270.538	304.06
270.77	296.06
271.002	312.06
271.234	294.06
271.466	306.06
271.698	289.06
271.93	271.06
272.162	301.06
272.394	290.06
272.626	298.06
272.858	315.06
273.09	294.06
273.322	306.06
273.553	314.06
273.785	309.06
274.017	296.06
274.249	334.06
274.481	300.06
274.713	298.06
274.945	294.06
275.176	285.06
275.408	326.06
275.64	321.06
275.872	309.06
276.104	315.06
276.335	323.06
276.567	308.06
276.799	326.06
277.031	315.06
277.262	314.06
277.494	332.06
277.726	323.06
277.957	322.06
278.189	302.06
278.421	320.06
278.652	317.06
278.884	321.06
279.115	330.06
279.347	289.06
279.579	324.06
279.81	306.06
280.042	314.06
280.273	310.06
280.505	306.06
280.736	323.06
280.968	314.06
281.199	313.06
281.431	341.06
281.662	324.06
281.894	330.06
282.125	325.06
282.356	327.06
282.588	327.06
282.819	340.06
283.051	321.06
283.282	320.06
283.513	304.06
283.745	334.06
283.976	316.06
284.207	321.06
284.439	314.06
284.67	326.06
284.901	321.06
285.132	337.06
285.364	337.06
285.595	336.06
285.826	325.06
286.057	326.06
286.288	311.06
286.52	318.06
286.751	344.06
286.982	349.06
287.213	331.06
287.444	318.06
287.675	336.06
287.906	332.06
288.138	337.06
288.369	319.06
288.6	322.06
288.831	318.06
289.062	304.06
289.293	332.06
289.524	332.06
289.755	347.06
289.986	320.06
290.217	328.06
290.448	335.06
290.679	329.06
290.91	323.06
291.141	329.06
291.371	320.06
291.602	332.06
291.833	339.06
292.064	328.06
292.295	339.06
292.526	346.06
292.757	322.06
292.987	324.06
293.218	322.06
293.449	336.06
293.68	342.06
293.91	335.06
294.141	319.06
294.372	349.06
294.603	335.06
294.833	336.06
295.064	323.06
295.295	336.06
295.525	314.06
295.756	332.06
295.987	323.06
296.217	332.06
296.448	320.06
296.679	321.06
296.909	310.06
297.14	324.06
297.37	348.06
297.601	342.06
297.831	328.06
298.062	351.06
298.292	343.06
298.523	368.06
298.753	363.06
298.984	352.06
299.214	343.06
299.445	330.06
299.675	316.06
299.905	362.06
300.136	344.06
300.366	342.06
300.597	359.06
300.827	368.06
301.057	360.06
301.288	374.06
301.518	367.06
301.748	354.06
301.979	362.06
302.209	376.06
302.439	350.06
302.669	344.06
302.9	364.06
303.13	372.06
303.36	368.06
303.59	367.06
303.82	382.06
304.051	393.06
304.281	364.06
304.511	384.06
304.741	365.06
304.971	366.06
305.201	368.06
305.431	383.06
305.661	398.06
305.891	394.06
306.121	365.06
306.352	361.06
306.582	401.06
306.812	364.06
307.042	390.06
307.272	371.06
307.502	376.06
307.731	369.06
307.961	370.06
308.191	379.06
308.421	366.06
308.651	378.06
308.881	379.06
309.111	383.06
309.341	366.06
309.571	386.06
309.8	376.06
310.03	401.06
310.26	409.06
310.49	412.06
310.72	400.06
310.949	401.06
311.179	386.06
311.409	388.06
311.639	426.06
311.868	412.06
312.098	389.06
312.328	429.06
312.557	437.06
312.787	430.06
313.017	423.06
313.246	453.06
313.476	411.06
313.706	434.06
313.935	426.06
314.165	441.06
314.394	442.06
314.624	454.06
314.853	444.06
315.083	450.06
315.312	468.06
315.542	469.06
315.771	444.06
316.001	464.06
316.23	479.06
316.46	462.06
316.689	479.06
316.919	464.06
317.148	486.06
317.377	500.06
317.607	477.06
317.836	468.06
318.065	475.06
318.295	491.06
318.524	471.06
318.753	486.06
318.983	501.06
319.212	495.06
319.441	494.06
319.67	508.06
319.9	519.06
320.129	535.06
320.358	534.06
320.587	529.06
320.816	537.06
321.046	523.06
321.275	549.06
321.504	529.06
321.733	533.06
321.962	559.06
322.191	562.06
322.42	552.06
322.649	570.06
322.878	567.06
323.108	559.06
323.337	569.06
323.566	580.06
323.795	578.06
324.024	591.06
324.253	583.06
324.482	585.06
324.71	589.06
324.939	596.06
325.168	603.06
325.397	597.06
325.626	644.06
325.855	609.06
326.084	611.06
326.313	633.06
326.542	630.06
326.77	656.06
326.999	649.06
327.228	644.06
327.457	672.06
327.686	658.06
327.914	653.06
328.143	674.06
328.372	675.06
328.6	692.06
328.829	679.06
329.058	670.06
329.287	693.06
329.515	687.06
329.744	651.06
329.972	702.06
330.201	690.06
330.43	706.06
330.658	713.06
330.887	707.06
331.115	711.06
331.344	725.06
331.572	737.06
331.801	727.06
332.03	747.06
332.258	750.06
332.486	752.06
332.715	760.06
332.943	774.06
333.172	783.06
333.4	808.06
333.629	818.06
333.857	806.06
334.085	828.06
334.314	825.06
334.542	841.06
334.771	838.06
334.999	830.06
335.227	853.06
335.455	839.06
335.684	845.06
335.912	836.06
336.14	820.06
336.369	834.06
336.597	867.06
336.825	847.06
337.053	832.06
337.281	861.06
337.51	818.06
337.738	844.06
337.966	794.06
338.194	819.06
338.422	812.06
338.65	803.06
338.878	796.06
339.106	803.06
339.334	810.06
339.562	801.06
339.79	791.06
340.018	803.06
340.246	791.06
340.474	796.06
340.702	803.06
340.93	774.06
341.158	806.06
341.386	782.06
341.614	791.06
341.842	764.06
342.07	767.06
342.298	805.06
342.526	790.06
342.754	798.06
342.981	801.06
343.209	808.06
343.437	815.06
343.665	816.06
343.893	833.06
344.12	840.06
344.348	859.06
344.576	804.06
344.804	828.06
345.031	801.06
345.259	810.06
345.487	762.06
345.714	800.06
345.942	802.06
346.17	807.06
346.397	791.06
346.625	768.06
346.853	800.06
347.08	767.06
347.308	788.06
347.535	757.06
347.763	781.06
347.99	779.06
348.218	798.06
348.445	752.06
348.673	756.06
348.9	770.06
349.128	784.06
349.355	774.06
349.583	766.06
349.81	770.06
350.037	786.06
350.265	768.06
350.492	748.06
350.72	734.06
350.947	772.06
351.174	756.06
351.402	760.06
351.629	781.06
351.856	758.06
352.083	762.06
352.311	742.06
352.538	770.06
352.765	766.06
352.992	724.06
353.22	726.06
353.447	763.06
353.674	731.06
353.901	752.06
354.128	755.06
354.355	733.06
354.583	739.06
354.81	746.06
355.037	766.06
355.264	754.06
355.491	710.06
355.718	737.06
355.945	749.06
356.172	774.06
356.399	737.06
356.626	746.06
356.853	764.06
357.08	764.06
357.307	748.06
357.534	740.06
357.761	768.06
357.988	748.06
358.215	757.06
358.441	749.06
358.668	736.06
358.895	724.06
359.122	758.06
359.349	718.06
359.576	730.06
359.802	704.06
360.029	749.06
360.256	711.06
360.483	734.06
360.709	738.06
360.936	741.06
361.163	748.06
361.39	727.06
361.616	748.06
361.843	771.06
362.07	763.06
362.296	743.06
362.523	751.06
362.749	751.06
362.976	722.06
363.203	735.06
363.429	727.06
363.656	741.06
363.882	748.06
364.109	741.06
364.335	726.06
364.562	733.06
364.788	729.06
365.015	721.06
365.241	731.06
365.468	719.06
365.694	718.06
365.92	704.06
366.147	736.06
366.373	739.06
366.599	716.06
366.826	749.06
367.052	715.06
367.278	713.06
367.505	712.06
367.731	741.06
367.957	715.06
368.184	712.06
368.41	726.06
368.636	743.06
368.862	722.06
369.089	725.06
369.315	718.06
369.541	716.06
369.767	734.06
369.993	742.06
370.219	729.06
370.445	754.06
370.672	735.06
370.898	718.06
371.124	726.06
371.35	768.06
371.576	728.06
371.802	756.06
372.028	725.06
372.254	728.06
372.48	744.06
372.706	732.06
372.932	738.06
373.158	724.06
373.384	734.06
373.61	725.06
373.835	740.06
374.061	721.06
374.287	757.06
374.513	715.06
374.739	750.06
374.965	750.06
375.191	753.06
375.416	745.06
375.642	740.06
375.868	766.06
376.094	703.06
376.319	728.06
376.545	707.06
376.771	727.06
376.997	715.06
377.222	723.06
377.448	706.06
377.674	697.06
377.899	691.06
378.125	683.06
378.35	712.06
378.576	672.06
378.802	682.06
379.027	687.06
379.253	708.06
379.478	692.06
379.704	690.06
379.929	673.06
380.155	703.06
380.38	690.06
380.606	678.06
380.831	690.06
381.057	679.06
381.282	704.06
381.507	686.06
381.733	679.06
381.958	672.06
382.184	696.06
382.409	690.06
382.634	710.06
382.86	709.06
383.085	717.06
383.31	716.06
383.535	719.06
383.761	722.06
383.986	727.06
384.211	727.06
384.436	754.06
384.662	743.06
384.887	741.06
385.112	740.06
385.337	764.06
385.562	753.06
385.787	769.06
386.013	780.06
386.238	767.06
386.463	768.06
386.688	791.06
386.913	766.06
387.138	768.06
387.363	766.06
387.588	739.06
387.813	740.06
388.038	767.06
388.263	752.06
388.488	747.06
388.713	751.06
388.938	732.06
389.163	731.06
389.387	773.06
389.612	757.06
389.837	767.06
390.062	752.06
390.287	751.06
390.512	763.06
390.736	780.06
390.961	769.06
391.186	774.06
391.411	799.06
391.636	802.06
391.86	804.06
392.085	796.06
392.31	796.06
392.534	805.06
392.759	799.06
392.984	782.06
393.208	800.06
393.433	792.06
393.658	808.06
393.882	806.06
394.107	807.06
394.331	792.06
394.556	780.06
394.78	800.06
395.005	789.06
395.229	798.06
395.454	812.06
395.678	807.06
395.903	819.06
396.127	790.06
396.352	806.06
396.576	845.06
396.801	824.06
397.025	814.06
397.249	815.06
397.474	850.06
397.698	854.06
397.922	866.06
398.147	836.06
398.371	893.06
398.595	870.06
398.82	895.06
399.044	906.06
399.268	992.06
399.492	1046.06
399.717	1088.06
399.941	1084.06
400.165	1045.06
400.389	1011.06
400.613	961.06
400.837	935.06
401.062	927.06
401.286	927.06
401.51	916.06
401.734	882.06
401.958	920.06
402.182	916.06
402.406	902.06
402.63	923.06
402.854	908.06
403.078	909.06
403.302	958.06
403.526	962.06
403.75	949.06
403.974	956.06
404.198	997.06
404.422	974.06
404.645	993.06
404.869	952.06
405.093	956.06
405.317	958.06
405.541	979.06
405.765	991.06
405.988	986.06
406.212	1008.06
406.436	996.06
406.66	1006.06
406.883	1024.06
407.107	1053.06
407.331	1054.06
407.555	1095.06
407.778	1094.06
408.002	1088.06
408.226	1093.06
408.449	1100.06
408.673	1058.06
408.896	1026.06
409.12	1027.06
409.344	1031.06
409.567	1015.06
409.791	1036.06
410.014	1021.06
410.238	1008.06
410.461	1025.06
410.685	1004.06
410.908	986.06
411.132	988.06
411.355	973.06
411.578	978.06
411.802	978.06
412.025	989.06
412.249	991.06
412.472	992.06
412.695	995.06
412.919	984.06
413.142	991.06
413.365	1002.06
413.589	983.06
413.812	973.06
414.035	975.06
414.258	998.06
414.482	968.06
414.705	975.06
414.928	997.06
415.151	986.06
415.374	979.06
415.597	1002.06
415.821	952.06
416.044	982.06
416.267	957.06
416.49	967.06
416.713	960.06
416.936	963.06
417.159	988.06
417.382	971.06
417.605	961.06
417.828	956.06
418.051	966.06
418.274	975.06
418.497	967.06
418.72	962.06
418.943	965.06
419.166	1047.06
419.389	1089.06
419.611	1085.06
419.834	1058.06
420.057	1018.06
420.28	1005.06
420.503	986.06
420.726	969.06
420.948	986.06
421.171	956.06
421.394	983.06
421.617	967.06
421.839	982.06
422.062	989.06
422.285	946.06
422.507	967.06
422.73	980.06
422.953	1002.06
423.175	975.06
423.398	1002.06
423.621	1030.06
423.843	1018.06
424.066	1017.06
424.288	990.06
424.511	1037.06
424.733	1026.06
424.956	1005.06
425.178	1018.06
425.401	995.06
425.623	1043.06
425.846	1002.06
426.068	1009.06
426.291	1005.06
426.513	1020.06
426.735	982.06
426.958	1036.06
427.18	950.06
427.402	988.06
427.625	1019.06
427.847	1005.06
428.069	955.06
428.292	990.06
428.514	963.06
428.736	970.06
428.958	975.06
429.181	944.06
429.403	965.06
429.625	976.06
429.847	974.06
430.069	958.06
430.292	969.06
430.514	962.06
430.736	956.06
430.958	985.06
431.18	981.06
431.402	1007.06
431.624	988.06
431.846	990.06
432.068	935.06
432.29	980.06
432.512	973.06
432.734	1004.06
432.956	1018.06
433.178	1042.06
433.4	1033.06
433.622	997.06
433.844	1025.06
434.066	1004.06
434.287	982.06
434.509	1025.06
434.731	1016.06
434.953	1039.06
435.175	1059.06
435.397	1072.06
435.618	1022.06
435.84	1018.06
436.062	1015.06
436.284	1008.06
436.505	998.06
436.727	1006.06
436.949	970.06
437.17	998.06
437.392	976.06
437.614	1000.06
437.835	956.06
438.057	967.06
438.278	957.06
438.5	969.06
438.721	985.06
438.943	989.06
439.165	979.06
439.386	993.06
439.608	984.06
439.829	1018.06
440.05	1029.06
440.272	1027.06
440.493	1019.06
440.715	1029.06
440.936	994.06
441.158	1032.06
441.379	1059.06
441.6	1062.06
441.822	1041.06
442.043	1047.06
442.264	1052.06
442.486	1044.06
442.707	1058.06
442.928	1019.06
443.149	1089.06
443.371	1046.06
443.592	1055.06
443.813	1105.06
444.034	1067.06
444.255	1068.06
444.476	1112.06
444.698	1135.06
444.919	1142.06
445.14	1194.06
445.361	1132.06
445.582	1081.06
445.803	1053.06
446.024	1029.06
446.245	1072.06
446.466	1033.06
446.687	1035.06
446.908	1036.06
447.129	1018.06
447.35	1020.06
447.571	991.06
447.792	999.06
448.013	1026.06
448.234	965.06
448.455	948.06
448.675	973.06
448.896	973.06
449.117	936.06
449.338	967.06
449.559	943.06
449.779	930.06
450	964.06
450.221	966.06
450.442	957.06
450.662	975.06
450.883	949.06
451.104	954.06
451.324	922.06
451.545	973.06
451.766	940.06
451.986	938.06
452.207	918.06
452.428	933.06
452.648	949.06
452.869	922.06
453.089	924.06
453.31	936.06
453.53	921.06
453.751	924.06
453.971	895.06
454.192	919.06
454.412	895.06
454.633	902.06
454.853	886.06
455.073	903.06
455.294	916.06
455.514	869.06
455.734	890.06
455.955	902.06
456.175	892.06
456.395	875.06
456.616	895.06
456.836	902.06
457.056	919.06
457.276	885.06
457.497	906.06
457.717	894.06
457.937	923.06
458.157	894.06
458.377	931.06
458.598	962.06
458.818	952.06
459.038	938.06
459.258	940.06
459.478	991.06
459.698	995.06
459.918	1000.06
460.138	1015.06
460.358	1078.06
460.578	1074.06
460.798	1095.06
461.018	1070.06
461.238	1082.06
461.458	1102.06
461.678	1051.06
461.898	1095.06
462.118	1082.06
462.338	1124.06
462.558	1155.06
462.777	1185.06
462.997	1229.06
463.217	1232.06
463.437	1251.06
463.657	1236.06
463.876	1230.06
464.096	1213.06
464.316	1179.06
464.536	1190.06
464.755	1152.06
464.975	1147.06
465.195	1116.06
465.414	1105.06
465.634	1014.06
465.854	1040.06
466.073	1021.06
466.293	1003.06
466.512	998.06
466.732	993.06
466.951	967.06
467.171	987.06
467.391	992.06
467.61	1020.06
467.829	991.06
468.049	977.06
468.268	950.06
468.488	935.06
468.707	995.06
468.927	987.06
469.146	964.06
469.365	987.06
469.585	954.06
469.804	1011.06
470.023	982.06
470.243	971.06
470.462	988.06
470.681	996.06
470.901	988.06
471.12	999.06
471.339	1015.06
471.558	995.06
471.777	1007.06
471.997	985.06
472.216	982.06
472.435	978.06
472.654	950.06
472.873	988.06
473.092	979.06
473.311	955.06
473.53	972.06
473.749	972.06
473.968	981.06
474.187	987.06
474.406	981.06
474.625	1011.06
474.844	988.06
475.063	1007.06
475.282	1003.06
475.501	1001.06
475.72	979.06
475.939	1003.06
476.158	1039.06
476.377	1027.06
476.596	1050.06
476.814	1037.06
477.033	1018.06
477.252	1073.06
477.471	1047.06
477.69	1100.06
477.908	1099.06
478.127	1112.06
478.346	1131.06
478.564	1132.06
478.783	1136.06
479.002	1178.06
479.22	1155.06
479.439	1127.06
479.658	1156.06
479.876	1160.06
480.095	1135.06
480.313	1187.06
480.532	1193.06
480.751	1152.06
480.969	1159.06
481.188	1179.06
481.406	1172.06
481.624	1148.06
481.843	1148.06
482.061	1139.06
482.28	1169.06
482.498	1149.06
482.717	1115.06
482.935	1124.06
483.153	1175.06
483.372	1140.06
483.59	1178.06
483.808	1202.06
484.027	1140.06
484.245	1150.06
484.463	1134.06
484.681	1166.06
484.9	1155.06
485.118	1183.06
485.336	1155.06
485.554	1198.06
485.772	1176.06
485.99	1170.06
486.209	1178.06
486.427	1186.06
486.645	1187.06
486.863	1160.06
487.081	1189.06
487.299	1196.06
487.517	1202.06
487.735	1183.06
487.953	1265.06
488.171	1232.06
488.389	1224.06
488.607	1174.06
488.825	1187.06
489.043	1215.06
489.261	1179.06
489.479	1178.06
489.696	1179.06
489.914	1180.06
490.132	1184.06
490.35	1195.06
490.568	1223.06
490.786	1233.06
491.003	1220.06
491.221	1236.06
491.439	1250.06
491.657	1231.06
491.874	1236.06
492.092	1245.06
492.31	1286.06
492.527	1311.06
492.745	1264.06
492.963	1285.06
493.18	1278.06
493.398	1260.06
493.615	1274.06
493.833	1313.06
494.05	1278.06
494.268	1295.06
494.485	1260.06
494.703	1284.06
494.92	1282.06
495.138	1280.06
495.355	1322.06
495.573	1329.06
495.79	1303.06
496.008	1311.06
496.225	1301.06
496.442	1322.06
496.66	1354.06
496.877	1349.06
497.094	1380.06
497.312	1378.06
497.529	1371.06
497.746	1395.06
497.963	1426.06
498.181	1480.06
498.398	1487.06
498.615	1514.06
498.832	1564.06
499.049	1644.06
499.267	1748.06
499.484	1852.06
499.701	1941.06
499.918	2030.06
500.135	2146.06
500.352	2231.06
500.569	2260.06
500.786	2248.06
501.003	2204.06
501.22	2124.06
501.437	1992.06
501.654	1884.06
501.871	1820.06
502.088	1703.06
502.305	1691.06
502.522	1640.06
502.739	1575.06
502.956	1468.06
503.172	1507.06
503.389	1470.06
503.606	1434.06
503.823	1410.06
504.04	1413.06
504.256	1375.06
504.473	1360.06
504.69	1398.06
504.907	1378.06
505.123	1326.06
505.34	1292.06
505.557	1285.06
505.773	1288.06
505.99	1253.06
506.207	1219.06
506.423	1213.06
506.64	1212.06
506.856	1170.06
507.073	1196.06
507.289	1182.06
507.506	1139.06
507.722	1138.06
507.939	1146.06
508.155	1140.06
508.372	1132.06
508.588	1111.06
508.805	1160.06
509.021	1123.06
509.238	1119.06
509.454	1084.06
509.67	1092.06
509.887	1088.06
510.103	1090.06
510.319	1077.06
510.536	1060.06
510.752	1046.06
510.968	1090.06
511.184	1057.06
511.401	1052.06
511.617	1049.06
511.833	1047.06
512.049	1051.06
512.265	1062.06
512.481	1063.06
512.698	1052.06
512.914	1047.06
513.13	1039.06
513.346	1042.06
513.562	1023.06
513.778	1068.06
513.994	1072.06
514.21	1101.06
514.426	1056.06
514.642	1074.06
514.858	1067.06
515.074	1062.06
515.29	1071.06
515.506	1072.06
515.721	1096.06
515.937	1105.06
516.153	1099.06
516.369	1127.06
516.585	1135.06
516.801	1120.06
517.016	1153.06
517.232	1206.06
517.448	1186.06
517.664	1212.06
517.879	1161.06
518.095	1155.06
518.311	1181.06
518.527	1156.06
518.742	1160.06
518.958	1139.06
519.173	1132.06
519.389	1106.06
519.605	1107.06
519.82	1076.06
520.036	1085.06
520.251	1063.06
520.467	1088.06
520.682	1034.06
520.898	1049.06
521.113	1042.06
521.329	1023.06
521.544	990.06
521.76	1031.06
521.975	1034.06
522.19	1014.06
522.406	1016.06
522.621	1009.06
522.836	970.06
523.052	999.06
523.267	977.06
523.482	956.06
523.698	978.06
523.913	983.06
524.128	958.06
524.343	1009.06
524.559	996.06
524.774	986.06
524.989	979.06
525.204	994.06
525.419	976.06
525.634	956.06
525.849	961.06
526.064	960.06
526.28	963.06
526.495	903.06
526.71	919.06
526.925	946.06
527.14	940.06
527.355	965.06
527.57	935.06
527.785	945.06
527.999	948.06
528.214	962.06
528.429	949.06
528.644	969.06
528.859	966.06
529.074	956.06
529.289	944.06
529.503	960.06
529.718	977.06
529.933	920.06
530.148	972.06
530.363	906.06
530.577	939.06
530.792	935.06
531.007	923.06
531.221	949.06
531.436	930.06
531.651	930.06
531.865	915.06
532.08	920.06
532.295	949.06
532.509	924.06
532.724	934.06
532.938	940.06
533.153	928.06
533.367	914.06
533.582	940.06
533.796	915.06
534.011	900.06
534.225	924.06
534.44	916.06
534.654	891.06
534.868	903.06
535.083	900.06
535.297	910.06
535.511	902.06
535.726	907.06
535.94	886.06
536.154	894.06
536.369	879.06
536.583	868.06
536.797	875.06
537.011	884.06
537.225	878.06
537.44	861.06
537.654	880.06
537.868	861.06
538.082	865.06
538.296	851.06
538.51	862.06
538.724	895.06
538.938	862.06
539.153	840.06
539.367	857.06
539.581	846.06
539.795	833.06
540.009	858.06
540.222	855.06
540.436	862.06
540.65	834.06
540.864	863.06
541.078	838.06
541.292	850.06
541.506	872.06
541.72	868.06
541.934	876.06
542.147	883.06
542.361	871.06
542.575	839.06
542.789	861.06
543.002	845.06
543.216	840.06
543.43	833.06
543.644	835.06
543.857	828.06
544.071	853.06
544.285	847.06
544.498	843.06
544.712	877.06
544.925	842.06
545.139	857.06
545.352	869.06
545.566	861.06
545.779	874.06
545.993	868.06
546.206	841.06
546.42	862.06
546.633	862.06
546.847	854.06
547.06	871.06
547.274	856.06
547.487	879.06
547.7	850.06
547.914	869.06
548.127	846.06
548.34	850.06
548.554	844.06
548.767	838.06
548.98	870.06
549.193	835.06
549.407	830.06
549.62	840.06
549.833	863.06
550.046	848.06
550.259	839.06
550.473	852.06
550.686	841.06
550.899	835.06
551.112	842.06
551.325	817.06
551.538	838.06
551.751	810.06
551.964	792.06
552.177	838.06
552.39	810.06
552.603	844.06
552.816	831.06
553.029	868.06
553.242	852.06
553.455	855.06
553.667	848.06
553.88	846.06
554.093	834.06
554.306	834.06
554.519	817.06
554.732	818.06
554.944	802.06
555.157	779.06
555.37	804.06
555.583	778.06
555.795	797.06
556.008	783.06
556.221	761.06
556.433	773.06
556.646	754.06
556.859	788.06
557.071	736.06
557.284	723.06
557.496	735.06
557.709	747.06
557.921	751.06
558.134	716.06
558.346	730.06
558.559	742.06
558.771	741.06
558.984	711.06
559.196	737.06
559.409	727.06
559.621	703.06
559.833	708.06
560.046	728.06
560.258	740.06
560.47	708.06
560.683	695.06
560.895	687.06
561.107	719.06
561.32	696.06
561.532	718.06
561.744	700.06
561.956	670.06
562.168	690.06
562.381	698.06
562.593	692.06
562.805	680.06
563.017	700.06
563.229	686.06
563.441	713.06
563.653	699.06
563.865	732.06
564.077	732.06
564.289	729.06
564.501	739.06
564.713	710.06
564.925	715.06
565.137	742.06
565.349	738.06
565.561	742.06
565.773	756.06
565.985	784.06
566.197	805.06
566.408	813.06
566.62	846.06
566.832	846.06
567.044	884.06
567.255	842.06
567.467	878.06
567.679	880.06
567.891	906.06
568.102	875.06
568.314	865.06
568.526	839.06
568.737	791.06
568.949	787.06
569.161	759.06
569.372	756.06
569.584	706.06
569.795	699.06
570.007	698.06
570.218	648.06
570.43	667.06
570.641	660.06
570.853	660.06
571.064	646.06
571.276	655.06
571.487	669.06
571.698	623.06
571.91	649.06
572.121	626.06
572.333	632.06
572.544	602.06
572.755	577.06
572.966	610.06
573.178	617.06
573.389	596.06
573.6	582.06
573.811	557.06
574.023	567.06
574.234	567.06
574.445	569.06
574.656	578.06
574.867	554.06
575.078	579.06
575.289	548.06
575.501	569.06
575.712	528.06
575.923	558.06
576.134	557.06
576.345	553.06
576.556	558.06
576.767	539.06
576.978	542.06
577.188	546.06
577.399	550.06
577.61	535.06
577.821	533.06
578.032	511.06
578.243	519.06
578.454	520.06
578.665	508.06
578.875	504.06
579.086	495.06
579.297	500.06
579.508	480.06
579.718	487.06
579.929	512.06
580.14	500.06
580.35	504.06
580.561	507.06
580.772	528.06
580.982	503.06
581.193	494.06
581.403	495.06
581.614	477.06
581.825	471.06
582.035	479.06
582.246	506.06
582.456	487.06
582.667	483.06
582.877	472.06
583.087	459.06
583.298	482.06
583.508	491.06
583.719	475.06
583.929	478.06
584.139	463.06
584.35	460.06
584.56	463.06
584.77	478.06
584.981	470.06
585.191	487.06
585.401	457.06
585.611	460.06
585.821	472.06
586.032	469.06
586.242	459.06
586.452	462.06
586.662	456.06
586.872	456.06
587.082	447.06
587.292	452.06
587.502	438.06
587.713	455.06
587.923	460.06
588.133	451.06
588.343	447.06
588.553	448.06
588.762	431.06
588.972	430.06
589.182	450.06
589.392	469.06
589.602	456.06
589.812	433.06
590.022	446.06
590.232	449.06
590.441	462.06
590.651	468.06
590.861	458.06
591.071	443.06
591.281	420.06
591.49	439.06
591.7	451.06
591.91	434.06
592.119	469.06
592.329	451.06
592.539	457.06
592.748	467.06
592.958	479.06
593.167	500.06
593.377	475.06
593.587	479.06
593.796	476.06
594.006	496.06
594.215	477.06
594.424	490.06
594.634	500.06
594.843	467.06
595.053	443.06
595.262	407.06
595.472	441.06
595.681	455.06
595.89	442.06
596.1	428.06
596.309	436.06
596.518	407.06
596.727	402.06
596.937	405.06
597.146	412.06
597.355	409.06
597.564	406.06
597.774	428.06
597.983	401.06
598.192	380.06
598.401	382.06
598.61	372.06
598.819	386.06
599.028	360.06
599.237	382.06
599.446	374.06
599.655	384.06
599.864	382.06
600.073	364.06
600.282	375.06
600.491	374.06
600.7	379.06
600.909	366.06
601.118	357.06
601.327	342.06
601.536	357.06
601.745	356.06
601.953	362.06
602.162	371.06
602.371	349.06
602.58	374.06
602.789	372.06
602.997	362.06
603.206	375.06
603.415	358.06
603.623	336.06
603.832	364.06
604.041	362.06
604.249	347.06
604.458	366.06
604.666	346.06
604.875	351.06
605.084	362.06
605.292	366.06
605.501	359.06
605.709	347.06
605.918	358.06
606.126	362.06
606.334	343.06
606.543	334.06
606.751	331.06
606.96	344.06
607.168	325.06
607.376	351.06
607.585	344.06
607.793	341.06
608.001	350.06
608.21	349.06
608.418	327.06
608.626	342.06
608.834	335.06
609.043	328.06
609.251	341.06
609.459	328.06
609.667	329.06
609.875	338.06
610.083	315.06
610.291	336.06
610.499	330.06
610.707	346.06
610.916	338.06
611.124	316.06
611.332	327.06
611.54	316.06
611.748	333.06
611.955	321.06
612.163	323.06
612.371	314.06
612.579	328.06
612.787	326.06
612.995	326.06
613.203	321.06
613.411	334.06
613.618	322.06
613.826	303.06
614.034	322.06
614.242	312.06
614.449	326.06
614.657	312.06
614.865	317.06
615.072	315.06
615.28	319.06
615.488	315.06
615.695	299.06
615.903	302.06
616.111	313.06
616.318	320.06
616.526	318.06
616.733	333.06
616.941	318.06
617.148	304.06
617.356	307.06
617.563	315.06
617.771	319.06
617.978	294.06
618.185	306.06
618.393	315.06
618.6	301.06
618.807	292.06
619.015	304.06
619.222	270.06
619.429	302.06
619.637	292.06
619.844	311.06
620.051	286.06
620.258	277.06
620.466	274.06
620.673	282.06
620.88	285.06
621.087	292.06
621.294	309.06
621.501	281.06
621.708	287.06
621.915	300.06
622.122	282.06
622.329	295.06
622.536	306.06
622.743	274.06
622.95	291.06
623.157	286.06
623.364	286.06
623.571	265.06
623.778	287.06
623.985	286.06
624.192	261.06
624.399	280.06
624.606	268.06
624.812	268.06
625.019	284.06
625.226	282.06
625.433	262.06
625.639	269.06
625.846	258.06
626.053	256.06
626.259	249.06
626.466	254.06
626.673	243.06
626.879	253.06
627.086	244.06
627.293	260.06
627.499	270.06
627.706	278.06
627.912	267.06
628.119	258.06
628.325	263.06
628.532	240.06
628.738	264.06
628.945	247.06
629.151	255.06
629.357	263.06
629.564	260.06
629.77	253.06
629.976	238.06
630.183	235.06
630.389	245.06
630.595	260.06
630.802	251.06
631.008	247.06
631.214	248.06
631.42	252.06
631.627	258.06
631.833	240.06
632.039	214.06
632.245	239.06
632.451	224.06
632.657	240.06
632.863	230.06
633.069	233.06
633.275	235.06
633.481	235.06
633.688	240.06
633.893	246.06
634.099	245.06
634.305	229.06
634.511	246.06
634.717	237.06
634.923	227.06
635.129	226.06
635.335	226.06
635.541	230.06
635.747	237.06
635.952	236.06
636.158	224.06
636.364	226.06
636.57	234.06
636.775	222.06
636.981	220.06
637.187	217.06
637.392	238.06
637.598	223.06
637.804	231.06
638.009	225.06
638.215	216.06
638.421	221.06
638.626	222.06
638.832	230.06
639.037	230.06
639.243	224.06
639.448	211.06
639.654	205.06
639.859	194.06
640.065	214.06
640.27	211.06
640.475	220.06
640.681	205.06
640.886	222.06
641.091	223.06
641.297	231.06
641.502	220.06
641.707	221.06
641.913	211.06
642.118	213.06
642.323	210.06
642.528	214.06
642.733	208.06
642.939	209.06
643.144	222.06
643.349	201.06
643.554	216.06
643.759	204.06
643.964	218.06
644.169	202.06
644.374	196.06
644.579	188.06
644.784	197.06
644.989	203.06
645.194	208.06
645.399	213.06
645.604	190.06
645.809	216.06
646.014	209.06
646.219	224.06
646.423	217.06
646.628	191.06
646.833	192.06
647.038	218.06
647.243	201.06
647.447	191.06
647.652	223.06
647.857	203.06
648.062	204.06
648.266	207.06
648.471	215.06
648.676	211.06
648.88	196.06
649.085	208.06
649.289	204.06
649.494	195.06
649.698	199.06
649.903	192.06
650.107	187.06
650.312	195.06
650.516	196.06
650.721	189.06
650.925	197.06
651.13	186.06
651.334	190.06
651.539	179.06
651.743	182.06
651.947	187.06
652.152	182.06
652.356	176.06
652.56	192.06
652.764	172.06
652.969	178.06
653.173	178.06
653.377	163.06
653.581	162.06
653.785	164.06
653.99	155.06
654.194	154.06
654.398	164.06
654.602	165.06
654.806	148.06
655.01	153.06
655.214	133.06
655.418	150.06
655.622	151.06
655.826	146.06
656.03	160.06
656.234	155.06
656.438	146.06
656.642	126.06
656.846	127.06
657.049	134.06
657.253	133.06
657.457	118.06
657.661	111.06
657.865	122.06
658.068	125.06
658.272	118.06
658.476	125.06
658.68	103.06
658.883	115.06
659.087	93.06
659.291	101.06
659.494	95.06
659.698	110.06
659.901	103.06
660.105	111.06
660.309	96.06
660.512	84.06
660.716	94.06
660.919	95.06
661.123	103.06
661.326	79.06
661.53	89.06
661.733	92.06
661.936	85.06
662.14	88.06
662.343	93.06
662.546	87.06
662.75	87.06
662.953	83.06
663.156	63.06
663.36	88.06
663.563	76.06
663.766	72.06
663.969	66.06
664.173	85.06
664.376	82.06
664.579	76.06
664.782	66.06
664.985	71.06
665.188	74.06
665.391	72.06
665.594	85.06
665.797	80.06
666	79.06
666.203	70.06
666.406	71.06
666.609	80.06
666.812	70.06
667.015	70.06
667.218	74.06
667.421	82.06
667.624	70.06
667.827	70.06
668.03	72.06
668.232	81.06
668.435	99.06
668.638	82.06
668.841	86.06
669.043	79.06
669.246	83.06
669.449	73.06
669.651	79.06
669.854	62.06
670.057	76.06
670.259	67.06
670.462	61.06
670.665	64.06
670.867	65.06
671.07	72.06
671.272	70.06
671.475	67.06
671.677	67.06
671.88	80.06
672.082	71.06
672.284	89.06
672.487	71.06
672.689	74.06
672.892	68.06
