Data from Ni(NO3)2@0.25M.TitratingCurve.Agarose3%dH2O.NegLispCup.LampEnergy10.LIBS07252019_HRD10591_18-04-37-565.txt Node
Date: Thu Jul 25 18:04:37 EDT 2019
User: cochatt
Spectrometer: HR+D1059
Trigger mode: 1
Integration Time (sec): 1.000000E-1
Scans to average: 1
Electric dark correction enabled: true
Nonlinearity correction enabled: false
Boxcar width: 0
XAxis mode: Wavelengths
Number of Pixels in Spectrum: 2048
>>>>>Begin Spectral Data<<<<<
223.165	-14.62
223.4	-14.62
223.635	-14.62
223.869	-20.62
224.104	-23.62
224.338	-11.62
224.573	-19.62
224.808	-25.62
225.042	-14.62
225.277	-5.62
225.511	-17.62
225.746	-5.62
225.98	13.38
226.215	20.38
226.449	25.38
226.683	27.38
226.918	29.38
227.152	43.38
227.387	19.38
227.621	30.38
227.856	56.38
228.09	42.38
228.324	47.38
228.559	46.38
228.793	64.38
229.027	80.38
229.262	84.38
229.496	97.38
229.73	93.38
229.964	93.38
230.199	105.38
230.433	102.38
230.667	107.38
230.901	118.38
231.136	101.38
231.37	115.38
231.604	113.38
231.838	111.38
232.072	117.38
232.306	118.38
232.541	115.38
232.775	110.38
233.009	124.38
233.243	110.38
233.477	119.38
233.711	115.38
233.945	111.38
234.179	101.38
234.413	115.38
234.647	115.38
234.881	115.38
235.115	113.38
235.349	107.38
235.583	127.38
235.817	113.38
236.051	111.38
236.285	121.38
236.519	108.38
236.753	97.38
236.987	113.38
237.221	107.38
237.455	105.38
237.689	110.38
237.922	123.38
238.156	117.38
238.39	122.38
238.624	122.38
238.858	115.38
239.091	121.38
239.325	129.38
239.559	120.38
239.793	135.38
240.027	126.38
240.26	119.38
240.494	127.38
240.728	125.38
240.961	124.38
241.195	120.38
241.429	127.38
241.662	132.38
241.896	144.38
242.13	146.38
242.363	136.38
242.597	141.38
242.83	136.38
243.064	143.38
243.298	143.38
243.531	137.38
243.765	133.38
243.998	129.38
244.232	142.38
244.465	149.38
244.699	152.38
244.932	139.38
245.166	132.38
245.399	127.38
245.633	154.38
245.866	129.38
246.099	145.38
246.333	138.38
246.566	167.38
246.8	141.38
247.033	142.38
247.266	122.38
247.5	151.38
247.733	134.38
247.966	153.38
248.2	148.38
248.433	151.38
248.666	154.38
248.899	167.38
249.133	155.38
249.366	159.38
249.599	152.38
249.832	160.38
250.066	177.38
250.299	148.38
250.532	169.38
250.765	171.38
250.998	185.38
251.231	176.38
251.465	164.38
251.698	168.38
251.931	194.38
252.164	189.38
252.397	185.38
252.63	201.38
252.863	171.38
253.096	185.38
253.329	189.38
253.562	180.38
253.795	208.38
254.028	196.38
254.261	193.38
254.494	195.38
254.727	189.38
254.96	170.38
255.193	188.38
255.426	203.38
255.659	185.38
255.892	195.38
256.124	196.38
256.357	218.38
256.59	189.38
256.823	203.38
257.056	197.38
257.289	212.38
257.521	227.38
257.754	225.38
257.987	204.38
258.22	206.38
258.452	210.38
258.685	204.38
258.918	221.38
259.151	223.38
259.383	205.38
259.616	218.38
259.849	208.38
260.081	217.38
260.314	231.38
260.547	230.38
260.779	217.38
261.012	209.38
261.244	219.38
261.477	229.38
261.71	238.38
261.942	227.38
262.175	217.38
262.407	221.38
262.64	227.38
262.872	235.38
263.105	239.38
263.337	239.38
263.57	244.38
263.802	240.38
264.035	240.38
264.267	226.38
264.499	234.38
264.732	248.38
264.964	253.38
265.197	267.38
265.429	246.38
265.661	251.38
265.894	248.38
266.126	238.38
266.358	241.38
266.591	263.38
266.823	265.38
267.055	260.38
267.287	259.38
267.52	243.38
267.752	266.38
267.984	237.38
268.216	243.38
268.448	258.38
268.681	249.38
268.913	260.38
269.145	265.38
269.377	249.38
269.609	264.38
269.841	258.38
270.073	244.38
270.306	256.38
270.538	268.38
270.77	242.38
271.002	260.38
271.234	261.38
271.466	271.38
271.698	279.38
271.93	242.38
272.162	249.38
272.394	284.38
272.626	279.38
272.858	265.38
273.09	261.38
273.322	294.38
273.553	282.38
273.785	271.38
274.017	271.38
274.249	273.38
274.481	283.38
274.713	300.38
274.945	273.38
275.176	276.38
275.408	279.38
275.64	283.38
275.872	300.38
276.104	275.38
276.335	273.38
276.567	276.38
276.799	283.38
277.031	286.38
277.262	287.38
277.494	307.38
277.726	295.38
277.957	283.38
278.189	273.38
278.421	290.38
278.652	291.38
278.884	285.38
279.115	292.38
279.347	287.38
279.579	297.38
279.81	311.38
280.042	284.38
280.273	298.38
280.505	292.38
280.736	314.38
280.968	283.38
281.199	307.38
281.431	301.38
281.662	319.38
281.894	317.38
282.125	301.38
282.356	330.38
282.588	313.38
282.819	307.38
283.051	323.38
283.282	317.38
283.513	303.38
283.745	324.38
283.976	317.38
284.207	315.38
284.439	318.38
284.67	298.38
284.901	323.38
285.132	305.38
285.364	321.38
285.595	333.38
285.826	315.38
286.057	339.38
286.288	319.38
286.52	299.38
286.751	321.38
286.982	320.38
287.213	329.38
287.444	307.38
287.675	330.38
287.906	330.38
288.138	330.38
288.369	332.38
288.6	312.38
288.831	329.38
289.062	325.38
289.293	325.38
289.524	324.38
289.755	327.38
289.986	322.38
290.217	321.38
290.448	325.38
290.679	302.38
290.91	330.38
291.141	339.38
291.371	325.38
291.602	345.38
291.833	317.38
292.064	317.38
292.295	324.38
292.526	344.38
292.757	305.38
292.987	325.38
293.218	317.38
293.449	322.38
293.68	332.38
293.91	337.38
294.141	331.38
294.372	339.38
294.603	335.38
294.833	332.38
295.064	341.38
295.295	342.38
295.525	338.38
295.756	329.38
295.987	331.38
296.217	335.38
296.448	346.38
296.679	330.38
296.909	334.38
297.14	349.38
297.37	374.38
297.601	360.38
297.831	339.38
298.062	341.38
298.292	355.38
298.523	374.38
298.753	365.38
298.984	365.38
299.214	346.38
299.445	349.38
299.675	357.38
299.905	358.38
300.136	351.38
300.366	351.38
300.597	374.38
300.827	373.38
301.057	373.38
301.288	381.38
301.518	396.38
301.748	365.38
301.979	393.38
302.209	389.38
302.439	359.38
302.669	375.38
302.9	365.38
303.13	359.38
303.36	381.38
303.59	375.38
303.82	353.38
304.051	366.38
304.281	374.38
304.511	373.38
304.741	380.38
304.971	398.38
305.201	389.38
305.431	378.38
305.661	385.38
305.891	383.38
306.121	366.38
306.352	397.38
306.582	371.38
306.812	369.38
307.042	376.38
307.272	366.38
307.502	378.38
307.731	356.38
307.961	374.38
308.191	363.38
308.421	371.38
308.651	371.38
308.881	387.38
309.111	399.38
309.341	364.38
309.571	387.38
309.8	379.38
310.03	395.38
310.26	397.38
310.49	402.38
310.72	389.38
310.949	395.38
311.179	380.38
311.409	381.38
311.639	397.38
311.868	390.38
312.098	396.38
312.328	402.38
312.557	399.38
312.787	419.38
313.017	401.38
313.246	395.38
313.476	411.38
313.706	417.38
313.935	415.38
314.165	387.38
314.394	412.38
314.624	415.38
314.853	411.38
315.083	417.38
315.312	419.38
315.542	439.38
315.771	415.38
316.001	410.38
316.23	425.38
316.46	414.38
316.689	417.38
316.919	417.38
317.148	425.38
317.377	442.38
317.607	423.38
317.836	407.38
318.065	419.38
318.295	434.38
318.524	405.38
318.753	406.38
318.983	421.38
319.212	419.38
319.441	429.38
319.67	426.38
319.9	426.38
320.129	449.38
320.358	437.38
320.587	458.38
320.816	437.38
321.046	439.38
321.275	441.38
321.504	457.38
321.733	446.38
321.962	463.38
322.191	464.38
322.42	453.38
322.649	443.38
322.878	433.38
323.108	451.38
323.337	463.38
323.566	458.38
323.795	477.38
324.024	469.38
324.253	458.38
324.482	465.38
324.71	489.38
324.939	476.38
325.168	471.38
325.397	471.38
325.626	474.38
325.855	492.38
326.084	472.38
326.313	487.38
326.542	480.38
326.77	510.38
326.999	492.38
327.228	483.38
327.457	483.38
327.686	511.38
327.914	504.38
328.143	529.38
328.372	525.38
328.6	525.38
328.829	485.38
329.058	523.38
329.287	515.38
329.515	510.38
329.744	506.38
329.972	521.38
330.201	525.38
330.43	553.38
330.658	536.38
330.887	549.38
331.115	535.38
331.344	540.38
331.572	543.38
331.801	542.38
332.03	577.38
332.258	566.38
332.486	585.38
332.715	567.38
332.943	600.38
333.172	603.38
333.4	631.38
333.629	635.38
333.857	639.38
334.085	639.38
334.314	658.38
334.542	643.38
334.771	644.38
334.999	650.38
335.227	645.38
335.455	629.38
335.684	618.38
335.912	645.38
336.14	635.38
336.369	634.38
336.597	645.38
336.825	623.38
337.053	599.38
337.281	628.38
337.51	608.38
337.738	637.38
337.966	619.38
338.194	601.38
338.422	611.38
338.65	601.38
338.878	606.38
339.106	599.38
339.334	607.38
339.562	604.38
339.79	558.38
340.018	564.38
340.246	558.38
340.474	574.38
340.702	545.38
340.93	559.38
341.158	585.38
341.386	577.38
341.614	583.38
341.842	584.38
342.07	579.38
342.298	591.38
342.526	566.38
342.754	556.38
342.981	573.38
343.209	587.38
343.437	613.38
343.665	610.38
343.893	638.38
344.12	631.38
344.348	617.38
344.576	641.38
344.804	635.38
345.031	586.38
345.259	575.38
345.487	591.38
345.714	568.38
345.942	594.38
346.17	583.38
346.397	561.38
346.625	565.38
346.853	584.38
347.08	554.38
347.308	563.38
347.535	541.38
347.763	553.38
347.99	548.38
348.218	561.38
348.445	571.38
348.673	557.38
348.9	532.38
349.128	535.38
349.355	532.38
349.583	577.38
349.81	545.38
350.037	539.38
350.265	537.38
350.492	531.38
350.72	541.38
350.947	526.38
351.174	554.38
351.402	548.38
351.629	542.38
351.856	559.38
352.083	550.38
352.311	550.38
352.538	563.38
352.765	563.38
352.992	533.38
353.22	517.38
353.447	517.38
353.674	520.38
353.901	531.38
354.128	526.38
354.355	517.38
354.583	525.38
354.81	543.38
355.037	516.38
355.264	516.38
355.491	533.38
355.718	522.38
355.945	533.38
356.172	546.38
356.399	546.38
356.626	552.38
356.853	565.38
357.08	539.38
357.307	543.38
357.534	542.38
357.761	543.38
357.988	526.38
358.215	529.38
358.441	537.38
358.668	520.38
358.895	531.38
359.122	491.38
359.349	524.38
359.576	547.38
359.802	529.38
360.029	518.38
360.256	533.38
360.483	545.38
360.709	543.38
360.936	519.38
361.163	521.38
361.39	524.38
361.616	512.38
361.843	527.38
362.07	543.38
362.296	558.38
362.523	548.38
362.749	532.38
362.976	542.38
363.203	522.38
363.429	509.38
363.656	524.38
363.882	539.38
364.109	527.38
364.335	536.38
364.562	517.38
364.788	522.38
365.015	526.38
365.241	510.38
365.468	499.38
365.694	533.38
365.92	513.38
366.147	519.38
366.373	555.38
366.599	519.38
366.826	518.38
367.052	525.38
367.278	531.38
367.505	521.38
367.731	561.38
367.957	523.38
368.184	531.38
368.41	532.38
368.636	534.38
368.862	544.38
369.089	522.38
369.315	508.38
369.541	531.38
369.767	545.38
369.993	531.38
370.219	530.38
370.445	545.38
370.672	559.38
370.898	556.38
371.124	541.38
371.35	562.38
371.576	562.38
371.802	570.38
372.028	578.38
372.254	552.38
372.48	558.38
372.706	579.38
372.932	574.38
373.158	550.38
373.384	576.38
373.61	545.38
373.835	575.38
374.061	578.38
374.287	565.38
374.513	571.38
374.739	611.38
374.965	576.38
375.191	581.38
375.416	588.38
375.642	562.38
375.868	590.38
376.094	573.38
376.319	561.38
376.545	567.38
376.771	563.38
376.997	562.38
377.222	581.38
377.448	563.38
377.674	561.38
377.899	561.38
378.125	543.38
378.35	523.38
378.576	535.38
378.802	566.38
379.027	558.38
379.253	549.38
379.478	528.38
379.704	559.38
379.929	558.38
380.155	510.38
380.38	554.38
380.606	526.38
380.831	547.38
381.057	558.38
381.282	555.38
381.507	558.38
381.733	555.38
381.958	558.38
382.184	574.38
382.409	565.38
382.634	583.38
382.86	552.38
383.085	551.38
383.31	576.38
383.535	579.38
383.761	563.38
383.986	588.38
384.211	576.38
384.436	618.38
384.662	613.38
384.887	629.38
385.112	608.38
385.337	595.38
385.562	642.38
385.787	636.38
386.013	614.38
386.238	651.38
386.463	632.38
386.688	658.38
386.913	631.38
387.138	641.38
387.363	622.38
387.588	639.38
387.813	617.38
388.038	635.38
388.263	644.38
388.488	645.38
388.713	622.38
388.938	619.38
389.163	623.38
389.387	607.38
389.612	591.38
389.837	630.38
390.062	647.38
390.287	652.38
390.512	637.38
390.736	621.38
390.961	612.38
391.186	634.38
391.411	651.38
391.636	667.38
391.86	664.38
392.085	668.38
392.31	690.38
392.534	682.38
392.759	677.38
392.984	662.38
393.208	677.38
393.433	650.38
393.658	673.38
393.882	670.38
394.107	660.38
394.331	663.38
394.556	666.38
394.78	703.38
395.005	682.38
395.229	677.38
395.454	700.38
395.678	705.38
395.903	688.38
396.127	716.38
396.352	687.38
396.576	671.38
396.801	697.38
397.025	694.38
397.249	718.38
397.474	675.38
397.698	707.38
397.922	748.38
398.147	699.38
398.371	741.38
398.595	742.38
398.82	749.38
399.044	823.38
399.268	851.38
399.492	921.38
399.717	981.38
399.941	980.38
400.165	959.38
400.389	907.38
400.613	835.38
400.837	823.38
401.062	814.38
401.286	789.38
401.51	806.38
401.734	793.38
401.958	812.38
402.182	783.38
402.406	773.38
402.63	802.38
402.854	807.38
403.078	801.38
403.302	814.38
403.526	793.38
403.75	821.38
403.974	843.38
404.198	837.38
404.422	814.38
404.645	832.38
404.869	798.38
405.093	832.38
405.317	834.38
405.541	850.38
405.765	840.38
405.988	815.38
406.212	824.38
406.436	827.38
406.66	869.38
406.883	889.38
407.107	915.38
407.331	901.38
407.555	945.38
407.778	950.38
408.002	919.38
408.226	933.38
408.449	914.38
408.673	895.38
408.896	901.38
409.12	884.38
409.344	876.38
409.567	868.38
409.791	908.38
410.014	871.38
410.238	862.38
410.461	872.38
410.685	845.38
410.908	831.38
411.132	849.38
411.355	833.38
411.578	820.38
411.802	816.38
412.025	847.38
412.249	834.38
412.472	824.38
412.695	798.38
412.919	837.38
413.142	806.38
413.365	803.38
413.589	809.38
413.812	793.38
414.035	807.38
414.258	793.38
414.482	797.38
414.705	823.38
414.928	806.38
415.151	808.38
415.374	811.38
415.597	784.38
415.821	789.38
416.044	760.38
416.267	783.38
416.49	788.38
416.713	799.38
416.936	781.38
417.159	778.38
417.382	795.38
417.605	773.38
417.828	774.38
418.051	800.38
418.274	794.38
418.497	778.38
418.72	781.38
418.943	796.38
419.166	841.38
419.389	891.38
419.611	890.38
419.834	882.38
420.057	833.38
420.28	798.38
420.503	788.38
420.726	778.38
420.948	773.38
421.171	782.38
421.394	790.38
421.617	782.38
421.839	807.38
422.062	808.38
422.285	788.38
422.507	820.38
422.73	813.38
422.953	793.38
423.175	812.38
423.398	819.38
423.621	802.38
423.843	793.38
424.066	826.38
424.288	823.38
424.511	811.38
424.733	788.38
424.956	805.38
425.178	794.38
425.401	799.38
425.623	802.38
425.846	791.38
426.068	794.38
426.291	802.38
426.513	754.38
426.735	781.38
426.958	807.38
427.18	754.38
427.402	776.38
427.625	751.38
427.847	749.38
428.069	764.38
428.292	791.38
428.514	746.38
428.736	748.38
428.958	740.38
429.181	727.38
429.403	734.38
429.625	751.38
429.847	735.38
430.069	742.38
430.292	744.38
430.514	740.38
430.736	762.38
430.958	744.38
431.18	775.38
431.402	753.38
431.624	756.38
431.846	730.38
432.068	763.38
432.29	769.38
432.512	754.38
432.734	771.38
432.956	763.38
433.178	781.38
433.4	775.38
433.622	806.38
433.844	801.38
434.066	772.38
434.287	789.38
434.509	815.38
434.731	802.38
434.953	803.38
435.175	817.38
435.397	835.38
435.618	794.38
435.84	763.38
436.062	767.38
436.284	770.38
436.505	756.38
436.727	765.38
436.949	772.38
437.17	769.38
437.392	743.38
437.614	735.38
437.835	720.38
438.057	735.38
438.278	733.38
438.5	770.38
438.721	755.38
438.943	744.38
439.165	742.38
439.386	747.38
439.608	770.38
439.829	775.38
440.05	767.38
440.272	778.38
440.493	771.38
440.715	791.38
440.936	777.38
441.158	806.38
441.379	809.38
441.6	801.38
441.822	811.38
442.043	825.38
442.264	817.38
442.486	814.38
442.707	833.38
442.928	819.38
443.149	809.38
443.371	823.38
443.592	828.38
443.813	828.38
444.034	841.38
444.255	829.38
444.476	881.38
444.698	863.38
444.919	934.38
445.14	1009.38
445.361	915.38
445.582	841.38
445.803	828.38
446.024	799.38
446.245	821.38
446.466	797.38
446.687	785.38
446.908	778.38
447.129	755.38
447.35	771.38
447.571	761.38
447.792	747.38
448.013	742.38
448.234	746.38
448.455	697.38
448.675	720.38
448.896	710.38
449.117	735.38
449.338	748.38
449.559	727.38
449.779	699.38
450	705.38
450.221	707.38
450.442	734.38
450.662	706.38
450.883	714.38
451.104	725.38
451.324	726.38
451.545	707.38
451.766	705.38
451.986	702.38
452.207	708.38
452.428	705.38
452.648	701.38
452.869	687.38
453.089	697.38
453.31	711.38
453.53	673.38
453.751	669.38
453.971	699.38
454.192	659.38
454.412	682.38
454.633	679.38
454.853	674.38
455.073	679.38
455.294	670.38
455.514	682.38
455.734	679.38
455.955	670.38
456.175	665.38
456.395	655.38
456.616	646.38
456.836	655.38
457.056	675.38
457.276	661.38
457.497	669.38
457.717	669.38
457.937	684.38
458.157	706.38
458.377	668.38
458.598	705.38
458.818	709.38
459.038	734.38
459.258	739.38
459.478	733.38
459.698	786.38
459.918	805.38
460.138	810.38
460.358	854.38
460.578	830.38
460.798	856.38
461.018	870.38
461.238	855.38
461.458	864.38
461.678	860.38
461.898	861.38
462.118	849.38
462.338	922.38
462.558	912.38
462.777	931.38
462.997	1022.38
463.217	1016.38
463.437	1025.38
463.657	1006.38
463.876	967.38
464.096	925.38
464.316	965.38
464.536	951.38
464.755	921.38
464.975	917.38
465.195	860.38
465.414	867.38
465.634	820.38
465.854	803.38
466.073	771.38
466.293	767.38
466.512	768.38
466.732	741.38
466.951	754.38
467.171	747.38
467.391	745.38
467.61	754.38
467.829	741.38
468.049	729.38
468.268	723.38
468.488	715.38
468.707	738.38
468.927	755.38
469.146	731.38
469.365	748.38
469.585	729.38
469.804	753.38
470.023	754.38
470.243	756.38
470.462	762.38
470.681	741.38
470.901	753.38
471.12	742.38
471.339	756.38
471.558	771.38
471.777	762.38
471.997	737.38
472.216	705.38
472.435	726.38
472.654	720.38
472.873	697.38
473.092	717.38
473.311	716.38
473.53	723.38
473.749	689.38
473.968	727.38
474.187	714.38
474.406	693.38
474.625	721.38
474.844	723.38
475.063	726.38
475.282	724.38
475.501	731.38
475.72	745.38
475.939	733.38
476.158	768.38
476.377	741.38
476.596	766.38
476.814	758.38
477.033	742.38
477.252	760.38
477.471	775.38
477.69	775.38
477.908	805.38
478.127	812.38
478.346	829.38
478.564	829.38
478.783	836.38
479.002	854.38
479.22	859.38
479.439	847.38
479.658	843.38
479.876	842.38
480.095	858.38
480.313	865.38
480.532	887.38
480.751	881.38
480.969	849.38
481.188	858.38
481.406	812.38
481.624	829.38
481.843	829.38
482.061	825.38
482.28	818.38
482.498	781.38
482.717	791.38
482.935	813.38
483.153	838.38
483.372	832.38
483.59	826.38
483.808	806.38
484.027	841.38
484.245	806.38
484.463	835.38
484.681	861.38
484.9	841.38
485.118	819.38
485.336	807.38
485.554	838.38
485.772	828.38
485.99	857.38
486.209	848.38
486.427	841.38
486.645	850.38
486.863	839.38
487.081	848.38
487.299	885.38
487.517	855.38
487.735	869.38
487.953	883.38
488.171	873.38
488.389	837.38
488.607	841.38
488.825	845.38
489.043	845.38
489.261	852.38
489.479	837.38
489.696	846.38
489.914	851.38
490.132	858.38
490.35	866.38
490.568	883.38
490.786	879.38
491.003	885.38
491.221	877.38
491.439	884.38
491.657	901.38
491.874	898.38
492.092	909.38
492.31	907.38
492.527	898.38
492.745	920.38
492.963	891.38
493.18	911.38
493.398	878.38
493.615	893.38
493.833	903.38
494.05	925.38
494.268	936.38
494.485	914.38
494.703	927.38
494.92	940.38
495.138	926.38
495.355	938.38
495.573	945.38
495.79	933.38
496.008	955.38
496.225	954.38
496.442	978.38
496.66	970.38
496.877	977.38
497.094	999.38
497.312	1023.38
497.529	1036.38
497.746	1063.38
497.963	1077.38
498.181	1118.38
498.398	1144.38
498.615	1181.38
498.832	1256.38
499.049	1301.38
499.267	1377.38
499.484	1475.38
499.701	1597.38
499.918	1665.38
500.135	1764.38
500.352	1893.38
500.569	1959.38
500.786	1955.38
501.003	1882.38
501.22	1768.38
501.437	1684.38
501.654	1549.38
501.871	1433.38
502.088	1344.38
502.305	1301.38
502.522	1273.38
502.739	1227.38
502.956	1175.38
503.172	1127.38
503.389	1089.38
503.606	1041.38
503.823	1064.38
504.04	1042.38
504.256	1023.38
504.473	1048.38
504.69	1022.38
504.907	988.38
505.123	983.38
505.34	951.38
505.557	902.38
505.773	905.38
505.99	857.38
506.207	837.38
506.423	853.38
506.64	833.38
506.856	845.38
507.073	830.38
507.289	828.38
507.506	815.38
507.722	796.38
507.939	805.38
508.155	813.38
508.372	782.38
508.588	780.38
508.805	784.38
509.021	781.38
509.238	756.38
509.454	792.38
509.67	765.38
509.887	765.38
510.103	769.38
510.319	742.38
510.536	724.38
510.752	736.38
510.968	741.38
511.184	724.38
511.401	723.38
511.617	723.38
511.833	729.38
512.049	728.38
512.265	753.38
512.481	729.38
512.698	722.38
512.914	750.38
513.13	740.38
513.346	758.38
513.562	718.38
513.778	714.38
513.994	733.38
514.21	730.38
514.426	743.38
514.642	739.38
514.858	756.38
515.074	731.38
515.29	750.38
515.506	737.38
515.721	793.38
515.937	782.38
516.153	781.38
516.369	789.38
516.585	809.38
516.801	825.38
517.016	850.38
517.232	868.38
517.448	865.38
517.664	885.38
517.879	906.38
518.095	926.38
518.311	880.38
518.527	866.38
518.742	858.38
518.958	844.38
519.173	815.38
519.389	812.38
519.605	780.38
519.82	750.38
520.036	789.38
520.251	751.38
520.467	730.38
520.682	731.38
520.898	709.38
521.113	709.38
521.329	709.38
521.544	723.38
521.76	705.38
521.975	700.38
522.19	715.38
522.406	694.38
522.621	689.38
522.836	691.38
523.052	682.38
523.267	682.38
523.482	664.38
523.698	649.38
523.913	667.38
524.128	694.38
524.343	681.38
524.559	673.38
524.774	662.38
524.989	697.38
525.204	674.38
525.419	691.38
525.634	673.38
525.849	665.38
526.064	677.38
526.28	663.38
526.495	668.38
526.71	650.38
526.925	661.38
527.14	665.38
527.355	661.38
527.57	661.38
527.785	652.38
527.999	629.38
528.214	647.38
528.429	654.38
528.644	669.38
528.859	670.38
529.074	676.38
529.289	647.38
529.503	678.38
529.718	667.38
529.933	655.38
530.148	656.38
530.363	632.38
530.577	644.38
530.792	636.38
531.007	632.38
531.221	660.38
531.436	669.38
531.651	637.38
531.865	643.38
532.08	661.38
532.295	649.38
532.509	638.38
532.724	620.38
532.938	653.38
533.153	646.38
533.367	670.38
533.582	652.38
533.796	675.38
534.011	642.38
534.225	652.38
534.44	634.38
534.654	632.38
534.868	637.38
535.083	636.38
535.297	613.38
535.511	637.38
535.726	631.38
535.94	625.38
536.154	608.38
536.369	617.38
536.583	604.38
536.797	608.38
537.011	622.38
537.225	607.38
537.44	595.38
537.654	612.38
537.868	618.38
538.082	610.38
538.296	588.38
538.51	588.38
538.724	619.38
538.938	577.38
539.153	604.38
539.367	612.38
539.581	607.38
539.795	584.38
540.009	597.38
540.222	614.38
540.436	596.38
540.65	580.38
540.864	585.38
541.078	610.38
541.292	611.38
541.506	620.38
541.72	618.38
541.934	630.38
542.147	622.38
542.361	612.38
542.575	602.38
542.789	581.38
543.002	582.38
543.216	595.38
543.43	598.38
543.644	586.38
543.857	589.38
544.071	587.38
544.285	616.38
544.498	602.38
544.712	602.38
544.925	611.38
545.139	579.38
545.352	602.38
545.566	606.38
545.779	606.38
545.993	611.38
546.206	611.38
546.42	610.38
546.633	609.38
546.847	613.38
547.06	628.38
547.274	619.38
547.487	617.38
547.7	630.38
547.914	637.38
548.127	598.38
548.34	617.38
548.554	596.38
548.767	621.38
548.98	625.38
549.193	621.38
549.407	614.38
549.62	606.38
549.833	619.38
550.046	604.38
550.259	626.38
550.473	603.38
550.686	617.38
550.899	608.38
551.112	621.38
551.325	587.38
551.538	614.38
551.751	599.38
551.964	582.38
552.177	586.38
552.39	592.38
552.603	617.38
552.816	637.38
553.029	631.38
553.242	643.38
553.455	635.38
553.667	628.38
553.88	633.38
554.093	618.38
554.306	592.38
554.519	612.38
554.732	598.38
554.944	599.38
555.157	572.38
555.37	586.38
555.583	563.38
555.795	582.38
556.008	542.38
556.221	521.38
556.433	556.38
556.646	550.38
556.859	541.38
557.071	542.38
557.284	539.38
557.496	522.38
557.709	538.38
557.921	525.38
558.134	524.38
558.346	534.38
558.559	521.38
558.771	502.38
558.984	528.38
559.196	524.38
559.409	509.38
559.621	507.38
559.833	524.38
560.046	529.38
560.258	511.38
560.47	521.38
560.683	508.38
560.895	518.38
561.107	514.38
561.32	526.38
561.532	519.38
561.744	500.38
561.956	528.38
562.168	520.38
562.381	490.38
562.593	524.38
562.805	531.38
563.017	502.38
563.229	525.38
563.441	493.38
563.653	523.38
563.865	519.38
564.077	541.38
564.289	532.38
564.501	559.38
564.713	554.38
564.925	565.38
565.137	572.38
565.349	546.38
565.561	587.38
565.773	586.38
565.985	616.38
566.197	610.38
566.408	648.38
566.62	657.38
566.832	703.38
567.044	681.38
567.255	703.38
567.467	709.38
567.679	740.38
567.891	758.38
568.102	740.38
568.314	719.38
568.526	678.38
568.737	646.38
568.949	636.38
569.161	556.38
569.372	573.38
569.584	559.38
569.795	556.38
570.007	525.38
570.218	539.38
570.43	517.38
570.641	497.38
570.853	474.38
571.064	478.38
571.276	494.38
571.487	475.38
571.698	478.38
571.91	462.38
572.121	486.38
572.333	446.38
572.544	450.38
572.755	436.38
572.966	425.38
573.178	435.38
573.389	436.38
573.6	427.38
573.811	415.38
574.023	423.38
574.234	439.38
574.445	422.38
574.656	451.38
574.867	393.38
575.078	397.38
575.289	433.38
575.501	429.38
575.712	393.38
575.923	377.38
576.134	397.38
576.345	395.38
576.556	391.38
576.767	393.38
576.978	390.38
577.188	382.38
577.399	377.38
577.61	370.38
577.821	380.38
578.032	370.38
578.243	375.38
578.454	381.38
578.665	367.38
578.875	377.38
579.086	377.38
579.297	364.38
579.508	377.38
579.718	368.38
579.929	367.38
580.14	352.38
580.35	367.38
580.561	371.38
580.772	366.38
580.982	352.38
581.193	350.38
581.403	349.38
581.614	375.38
581.825	341.38
582.035	361.38
582.246	353.38
582.456	342.38
582.667	341.38
582.877	359.38
583.087	361.38
583.298	356.38
583.508	352.38
583.719	340.38
583.929	337.38
584.139	349.38
584.35	339.38
584.56	335.38
584.77	338.38
584.981	342.38
585.191	328.38
585.401	335.38
585.611	321.38
585.821	360.38
586.032	336.38
586.242	344.38
586.452	348.38
586.662	330.38
586.872	348.38
587.082	324.38
587.292	337.38
587.502	326.38
587.713	331.38
587.923	349.38
588.133	326.38
588.343	343.38
588.553	329.38
588.762	350.38
588.972	322.38
589.182	338.38
589.392	319.38
589.602	340.38
589.812	346.38
590.022	344.38
590.232	328.38
590.441	351.38
590.651	334.38
590.861	338.38
591.071	348.38
591.281	331.38
591.49	341.38
591.7	341.38
591.91	336.38
592.119	353.38
592.329	350.38
592.539	378.38
592.748	349.38
592.958	362.38
593.167	365.38
593.377	360.38
593.587	390.38
593.796	365.38
594.006	369.38
594.215	393.38
594.424	378.38
594.634	372.38
594.843	356.38
595.053	342.38
595.262	337.38
595.472	345.38
595.681	334.38
595.89	326.38
596.1	332.38
596.309	339.38
596.518	321.38
596.727	309.38
596.937	330.38
597.146	323.38
597.355	315.38
597.564	301.38
597.774	286.38
597.983	290.38
598.192	282.38
598.401	289.38
598.61	302.38
598.819	284.38
599.028	294.38
599.237	299.38
599.446	291.38
599.655	299.38
599.864	300.38
600.073	305.38
600.282	269.38
600.491	289.38
600.7	284.38
600.909	277.38
601.118	285.38
601.327	279.38
601.536	282.38
601.745	284.38
601.953	284.38
602.162	275.38
602.371	291.38
602.58	261.38
602.789	280.38
602.997	274.38
603.206	281.38
603.415	270.38
603.623	286.38
603.832	290.38
604.041	277.38
604.249	270.38
604.458	264.38
604.666	267.38
604.875	272.38
605.084	283.38
605.292	277.38
605.501	262.38
605.709	271.38
605.918	278.38
606.126	273.38
606.334	270.38
606.543	274.38
606.751	257.38
606.96	254.38
607.168	257.38
607.376	255.38
607.585	256.38
607.793	261.38
608.001	247.38
608.21	262.38
608.418	258.38
608.626	259.38
608.834	278.38
609.043	251.38
609.251	247.38
609.459	267.38
609.667	270.38
609.875	241.38
610.083	266.38
610.291	245.38
610.499	243.38
610.707	252.38
610.916	251.38
611.124	271.38
611.332	243.38
611.54	246.38
611.748	258.38
611.955	256.38
612.163	275.38
612.371	258.38
612.579	258.38
612.787	241.38
612.995	265.38
613.203	252.38
613.411	261.38
613.618	246.38
613.826	262.38
614.034	257.38
614.242	249.38
614.449	239.38
614.657	236.38
614.865	241.38
615.072	249.38
615.28	244.38
615.488	255.38
615.695	249.38
615.903	247.38
616.111	262.38
616.318	251.38
616.526	235.38
616.733	250.38
616.941	248.38
617.148	234.38
617.356	243.38
617.563	240.38
617.771	239.38
617.978	249.38
618.185	230.38
618.393	245.38
618.6	236.38
618.807	237.38
619.015	245.38
619.222	251.38
619.429	251.38
619.637	240.38
619.844	230.38
620.051	243.38
620.258	238.38
620.466	250.38
620.673	235.38
620.88	213.38
621.087	236.38
621.294	239.38
621.501	237.38
621.708	223.38
621.915	234.38
622.122	225.38
622.329	193.38
622.536	243.38
622.743	241.38
622.95	230.38
623.157	236.38
623.364	218.38
623.571	221.38
623.778	223.38
623.985	238.38
624.192	230.38
624.399	207.38
624.606	233.38
624.812	202.38
625.019	212.38
625.226	224.38
625.433	227.38
625.639	202.38
625.846	213.38
626.053	216.38
626.259	199.38
626.466	209.38
626.673	211.38
626.879	229.38
627.086	209.38
627.293	228.38
627.499	215.38
627.706	226.38
627.912	211.38
628.119	217.38
628.325	197.38
628.532	203.38
628.738	211.38
628.945	232.38
629.151	195.38
629.357	209.38
629.564	216.38
629.77	201.38
629.976	190.38
630.183	203.38
630.389	200.38
630.595	207.38
630.802	208.38
631.008	187.38
631.214	201.38
631.42	197.38
631.627	190.38
631.833	184.38
632.039	188.38
632.245	198.38
632.451	197.38
632.657	198.38
632.863	191.38
633.069	192.38
633.275	201.38
633.481	193.38
633.688	195.38
633.893	202.38
634.099	192.38
634.305	190.38
634.511	193.38
634.717	196.38
634.923	182.38
635.129	177.38
635.335	202.38
635.541	205.38
635.747	195.38
635.952	184.38
636.158	190.38
636.364	197.38
636.57	203.38
636.775	186.38
636.981	185.38
637.187	188.38
637.392	177.38
637.598	189.38
637.804	189.38
638.009	167.38
638.215	191.38
638.421	181.38
638.626	177.38
638.832	192.38
639.037	186.38
639.243	182.38
639.448	198.38
639.654	185.38
639.859	193.38
640.065	177.38
640.27	179.38
640.475	176.38
640.681	187.38
640.886	195.38
641.091	179.38
641.297	188.38
641.502	175.38
641.707	177.38
641.913	191.38
642.118	179.38
642.323	182.38
642.528	182.38
642.733	193.38
642.939	168.38
643.144	174.38
643.349	197.38
643.554	189.38
643.759	175.38
643.964	171.38
644.169	177.38
644.374	163.38
644.579	186.38
644.784	179.38
644.989	174.38
645.194	173.38
645.399	179.38
645.604	161.38
645.809	170.38
646.014	183.38
646.219	181.38
646.423	170.38
646.628	166.38
646.833	170.38
647.038	173.38
647.243	174.38
647.447	181.38
647.652	171.38
647.857	191.38
648.062	170.38
648.266	175.38
648.471	187.38
648.676	185.38
648.88	193.38
649.085	171.38
649.289	165.38
649.494	166.38
649.698	167.38
649.903	167.38
650.107	151.38
650.312	175.38
650.516	170.38
650.721	181.38
650.925	183.38
651.13	157.38
651.334	175.38
651.539	159.38
651.743	149.38
651.947	159.38
652.152	151.38
652.356	171.38
652.56	148.38
652.764	159.38
652.969	149.38
653.173	149.38
653.377	155.38
653.581	156.38
653.785	169.38
653.99	161.38
654.194	149.38
654.398	148.38
654.602	134.38
654.806	139.38
655.01	146.38
655.214	152.38
655.418	124.38
655.622	143.38
655.826	145.38
656.03	142.38
656.234	139.38
656.438	135.38
656.642	143.38
656.846	125.38
657.049	118.38
657.253	134.38
657.457	118.38
657.661	121.38
657.865	118.38
658.068	131.38
658.272	123.38
658.476	102.38
658.68	111.38
658.883	116.38
659.087	110.38
659.291	110.38
659.494	107.38
659.698	92.38
659.901	94.38
660.105	99.38
660.309	106.38
660.512	81.38
660.716	93.38
660.919	94.38
661.123	103.38
661.326	98.38
661.53	72.38
661.733	84.38
661.936	89.38
662.14	77.38
662.343	85.38
662.546	94.38
662.75	85.38
662.953	79.38
663.156	95.38
663.36	86.38
663.563	86.38
663.766	74.38
663.969	79.38
664.173	95.38
664.376	67.38
664.579	81.38
664.782	71.38
664.985	87.38
665.188	64.38
665.391	83.38
665.594	84.38
665.797	92.38
666	82.38
666.203	90.38
666.406	68.38
666.609	87.38
666.812	87.38
667.015	86.38
667.218	86.38
667.421	86.38
667.624	77.38
667.827	67.38
668.03	74.38
668.232	81.38
668.435	89.38
668.638	94.38
668.841	74.38
669.043	75.38
669.246	80.38
669.449	74.38
669.651	81.38
669.854	79.38
670.057	83.38
670.259	88.38
670.462	87.38
670.665	96.38
670.867	74.38
671.07	81.38
671.272	84.38
671.475	85.38
671.677	80.38
671.88	84.38
672.082	78.38
672.284	90.38
672.487	105.38
672.689	90.38
672.892	76.38
