Data from Ni(NO3)2@0.25M.TitratingCurve.Agarose3%dH2O.NegLispCup.LampEnergy10.LIBS07252019_HRD10591_18-03-41-566.txt Node
Date: Thu Jul 25 18:03:41 EDT 2019
User: cochatt
Spectrometer: HR+D1059
Trigger mode: 1
Integration Time (sec): 1.000000E-1
Scans to average: 1
Electric dark correction enabled: true
Nonlinearity correction enabled: false
Boxcar width: 0
XAxis mode: Wavelengths
Number of Pixels in Spectrum: 2048
>>>>>Begin Spectral Data<<<<<
223.165	-3.31
223.4	-3.31
223.635	-3.31
223.869	-23.31
224.104	-12.31
224.338	-34.31
224.573	-13.31
224.808	-13.31
225.042	-20.31
225.277	-0.31
225.511	5.69
225.746	5.69
225.98	-4.31
226.215	11.69
226.449	17.69
226.683	27.69
226.918	16.69
227.152	39.69
227.387	22.69
227.621	17.69
227.856	34.69
228.09	54.69
228.324	54.69
228.559	51.69
228.793	65.69
229.027	70.69
229.262	74.69
229.496	82.69
229.73	71.69
229.964	85.69
230.199	92.69
230.433	103.69
230.667	97.69
230.901	114.69
231.136	107.69
231.37	103.69
231.604	97.69
231.838	118.69
232.072	111.69
232.306	111.69
232.541	107.69
232.775	99.69
233.009	102.69
233.243	111.69
233.477	110.69
233.711	94.69
233.945	108.69
234.179	107.69
234.413	117.69
234.647	106.69
234.881	91.69
235.115	103.69
235.349	94.69
235.583	111.69
235.817	93.69
236.051	103.69
236.285	111.69
236.519	97.69
236.753	89.69
236.987	83.69
237.221	88.69
237.455	115.69
237.689	100.69
237.922	108.69
238.156	98.69
238.39	96.69
238.624	98.69
238.858	86.69
239.091	93.69
239.325	105.69
239.559	111.69
239.793	100.69
240.027	133.69
240.26	98.69
240.494	107.69
240.728	105.69
240.961	105.69
241.195	108.69
241.429	115.69
241.662	108.69
241.896	115.69
242.13	106.69
242.363	101.69
242.597	102.69
242.83	91.69
243.064	100.69
243.298	107.69
243.531	126.69
243.765	122.69
243.998	113.69
244.232	121.69
244.465	118.69
244.699	115.69
244.932	112.69
245.166	116.69
245.399	125.69
245.633	124.69
245.866	131.69
246.099	116.69
246.333	118.69
246.566	131.69
246.8	127.69
247.033	119.69
247.266	116.69
247.5	122.69
247.733	125.69
247.966	145.69
248.2	137.69
248.433	149.69
248.666	135.69
248.899	149.69
249.133	148.69
249.366	156.69
249.599	152.69
249.832	157.69
250.066	162.69
250.299	150.69
250.532	172.69
250.765	166.69
250.998	179.69
251.231	179.69
251.465	195.69
251.698	195.69
251.931	198.69
252.164	196.69
252.397	184.69
252.63	191.69
252.863	206.69
253.096	236.69
253.329	224.69
253.562	222.69
253.795	231.69
254.028	221.69
254.261	217.69
254.494	241.69
254.727	255.69
254.96	225.69
255.193	242.69
255.426	271.69
255.659	252.69
255.892	257.69
256.124	275.69
256.357	261.69
256.59	263.69
256.823	273.69
257.056	287.69
257.289	296.69
257.521	276.69
257.754	289.69
257.987	293.69
258.22	309.69
258.452	301.69
258.685	310.69
258.918	313.69
259.151	298.69
259.383	313.69
259.616	303.69
259.849	321.69
260.081	325.69
260.314	321.69
260.547	321.69
260.779	314.69
261.012	331.69
261.244	342.69
261.477	325.69
261.71	342.69
261.942	331.69
262.175	331.69
262.407	344.69
262.64	340.69
262.872	346.69
263.105	331.69
263.337	341.69
263.57	344.69
263.802	356.69
264.035	342.69
264.267	352.69
264.499	348.69
264.732	353.69
264.964	356.69
265.197	364.69
265.429	357.69
265.661	370.69
265.894	372.69
266.126	355.69
266.358	360.69
266.591	347.69
266.823	372.69
267.055	359.69
267.287	371.69
267.52	369.69
267.752	370.69
267.984	371.69
268.216	382.69
268.448	368.69
268.681	388.69
268.913	384.69
269.145	402.69
269.377	391.69
269.609	352.69
269.841	384.69
270.073	375.69
270.306	359.69
270.538	384.69
270.77	381.69
271.002	377.69
271.234	363.69
271.466	379.69
271.698	361.69
271.93	389.69
272.162	389.69
272.394	394.69
272.626	383.69
272.858	371.69
273.09	363.69
273.322	410.69
273.553	380.69
273.785	389.69
274.017	376.69
274.249	384.69
274.481	386.69
274.713	388.69
274.945	391.69
275.176	375.69
275.408	380.69
275.64	391.69
275.872	400.69
276.104	397.69
276.335	397.69
276.567	393.69
276.799	381.69
277.031	396.69
277.262	393.69
277.494	391.69
277.726	392.69
277.957	384.69
278.189	391.69
278.421	361.69
278.652	387.69
278.884	401.69
279.115	393.69
279.347	392.69
279.579	384.69
279.81	385.69
280.042	401.69
280.273	384.69
280.505	375.69
280.736	380.69
280.968	392.69
281.199	398.69
281.431	369.69
281.662	401.69
281.894	394.69
282.125	382.69
282.356	388.69
282.588	402.69
282.819	385.69
283.051	371.69
283.282	396.69
283.513	387.69
283.745	379.69
283.976	359.69
284.207	369.69
284.439	377.69
284.67	376.69
284.901	369.69
285.132	389.69
285.364	398.69
285.595	381.69
285.826	383.69
286.057	383.69
286.288	380.69
286.52	402.69
286.751	380.69
286.982	394.69
287.213	384.69
287.444	391.69
287.675	376.69
287.906	360.69
288.138	375.69
288.369	388.69
288.6	387.69
288.831	382.69
289.062	376.69
289.293	383.69
289.524	383.69
289.755	372.69
289.986	381.69
290.217	384.69
290.448	377.69
290.679	395.69
290.91	362.69
291.141	377.69
291.371	387.69
291.602	373.69
291.833	392.69
292.064	366.69
292.295	387.69
292.526	381.69
292.757	374.69
292.987	362.69
293.218	391.69
293.449	362.69
293.68	361.69
293.91	388.69
294.141	356.69
294.372	373.69
294.603	366.69
294.833	345.69
295.064	374.69
295.295	385.69
295.525	380.69
295.756	377.69
295.987	378.69
296.217	372.69
296.448	377.69
296.679	363.69
296.909	361.69
297.14	357.69
297.37	380.69
297.601	358.69
297.831	380.69
298.062	385.69
298.292	391.69
298.523	385.69
298.753	399.69
298.984	383.69
299.214	370.69
299.445	375.69
299.675	376.69
299.905	388.69
300.136	389.69
300.366	380.69
300.597	398.69
300.827	404.69
301.057	405.69
301.288	412.69
301.518	404.69
301.748	386.69
301.979	404.69
302.209	390.69
302.439	403.69
302.669	407.69
302.9	406.69
303.13	404.69
303.36	419.69
303.59	432.69
303.82	430.69
304.051	439.69
304.281	394.69
304.511	410.69
304.741	410.69
304.971	413.69
305.201	419.69
305.431	418.69
305.661	425.69
305.891	400.69
306.121	421.69
306.352	425.69
306.582	431.69
306.812	427.69
307.042	411.69
307.272	419.69
307.502	419.69
307.731	443.69
307.961	441.69
308.191	445.69
308.421	437.69
308.651	427.69
308.881	446.69
309.111	465.69
309.341	446.69
309.571	455.69
309.8	446.69
310.03	443.69
310.26	462.69
310.49	478.69
310.72	473.69
310.949	483.69
311.179	489.69
311.409	488.69
311.639	480.69
311.868	484.69
312.098	499.69
312.328	513.69
312.557	516.69
312.787	489.69
313.017	513.69
313.246	521.69
313.476	537.69
313.706	560.69
313.935	546.69
314.165	530.69
314.394	540.69
314.624	567.69
314.853	540.69
315.083	578.69
315.312	565.69
315.542	556.69
315.771	567.69
316.001	564.69
316.23	581.69
316.46	596.69
316.689	592.69
316.919	618.69
317.148	617.69
317.377	616.69
317.607	613.69
317.836	635.69
318.065	605.69
318.295	628.69
318.524	649.69
318.753	673.69
318.983	645.69
319.212	635.69
319.441	675.69
319.67	677.69
319.9	669.69
320.129	683.69
320.358	699.69
320.587	709.69
320.816	709.69
321.046	720.69
321.275	712.69
321.504	708.69
321.733	730.69
321.962	758.69
322.191	753.69
322.42	739.69
322.649	748.69
322.878	775.69
323.108	767.69
323.337	780.69
323.566	776.69
323.795	825.69
324.024	800.69
324.253	803.69
324.482	816.69
324.71	831.69
324.939	830.69
325.168	850.69
325.397	871.69
325.626	857.69
325.855	870.69
326.084	882.69
326.313	899.69
326.542	892.69
326.77	894.69
326.999	897.69
327.228	895.69
327.457	910.69
327.686	947.69
327.914	928.69
328.143	962.69
328.372	973.69
328.6	949.69
328.829	937.69
329.058	1002.69
329.287	992.69
329.515	939.69
329.744	991.69
329.972	973.69
330.201	1017.69
330.43	1002.69
330.658	1013.69
330.887	992.69
331.115	1013.69
331.344	1023.69
331.572	1002.69
331.801	1036.69
332.03	1047.69
332.258	1065.69
332.486	1061.69
332.715	1091.69
332.943	1081.69
333.172	1088.69
333.4	1113.69
333.629	1126.69
333.857	1105.69
334.085	1111.69
334.314	1114.69
334.542	1166.69
334.771	1154.69
334.999	1123.69
335.227	1142.69
335.455	1132.69
335.684	1144.69
335.912	1170.69
336.14	1157.69
336.369	1135.69
336.597	1120.69
336.825	1145.69
337.053	1158.69
337.281	1135.69
337.51	1151.69
337.738	1122.69
337.966	1134.69
338.194	1135.69
338.422	1156.69
338.65	1145.69
338.878	1130.69
339.106	1128.69
339.334	1151.69
339.562	1129.69
339.79	1119.69
340.018	1143.69
340.246	1123.69
340.474	1139.69
340.702	1142.69
340.93	1146.69
341.158	1124.69
341.386	1122.69
341.614	1116.69
341.842	1068.69
342.07	1088.69
342.298	1152.69
342.526	1138.69
342.754	1139.69
342.981	1141.69
343.209	1157.69
343.437	1165.69
343.665	1183.69
343.893	1192.69
344.12	1192.69
344.348	1188.69
344.576	1157.69
344.804	1163.69
345.031	1127.69
345.259	1159.69
345.487	1177.69
345.714	1136.69
345.942	1099.69
346.17	1121.69
346.397	1100.69
346.625	1113.69
346.853	1148.69
347.08	1109.69
347.308	1092.69
347.535	1121.69
347.763	1120.69
347.99	1147.69
348.218	1147.69
348.445	1124.69
348.673	1110.69
348.9	1138.69
349.128	1126.69
349.355	1104.69
349.583	1095.69
349.81	1112.69
350.037	1110.69
350.265	1133.69
350.492	1095.69
350.72	1100.69
350.947	1113.69
351.174	1091.69
351.402	1100.69
351.629	1091.69
351.856	1075.69
352.083	1069.69
352.311	1074.69
352.538	1054.69
352.765	1064.69
352.992	1064.69
353.22	1061.69
353.447	1095.69
353.674	1085.69
353.901	1106.69
354.128	1079.69
354.355	1073.69
354.583	1103.69
354.81	1097.69
355.037	1080.69
355.264	1058.69
355.491	1079.69
355.718	1076.69
355.945	1085.69
356.172	1119.69
356.399	1091.69
356.626	1126.69
356.853	1089.69
357.08	1065.69
357.307	1088.69
357.534	1073.69
357.761	1108.69
357.988	1095.69
358.215	1066.69
358.441	1105.69
358.668	1063.69
358.895	1086.69
359.122	1068.69
359.349	1079.69
359.576	1095.69
359.802	1075.69
360.029	1063.69
360.256	1076.69
360.483	1100.69
360.709	1073.69
360.936	1045.69
361.163	1074.69
361.39	1055.69
361.616	1071.69
361.843	1073.69
362.07	1080.69
362.296	1080.69
362.523	1046.69
362.749	1074.69
362.976	1067.69
363.203	1071.69
363.429	1100.69
363.656	1059.69
363.882	1053.69
364.109	1055.69
364.335	1084.69
364.562	1103.69
364.788	1080.69
365.015	1092.69
365.241	1061.69
365.468	1038.69
365.694	1082.69
365.92	1072.69
366.147	1084.69
366.373	1058.69
366.599	1057.69
366.826	1063.69
367.052	1074.69
367.278	1073.69
367.505	1080.69
367.731	1074.69
367.957	1029.69
368.184	1066.69
368.41	1057.69
368.636	1022.69
368.862	1111.69
369.089	1044.69
369.315	1069.69
369.541	1071.69
369.767	1059.69
369.993	1034.69
370.219	1062.69
370.445	1039.69
370.672	1063.69
370.898	1062.69
371.124	1054.69
371.35	1072.69
371.576	1051.69
371.802	1084.69
372.028	1065.69
372.254	1066.69
372.48	1035.69
372.706	1066.69
372.932	1059.69
373.158	1084.69
373.384	1054.69
373.61	1048.69
373.835	1050.69
374.061	1015.69
374.287	1027.69
374.513	1051.69
374.739	1067.69
374.965	1041.69
375.191	1012.69
375.416	1051.69
375.642	1026.69
375.868	1023.69
376.094	1030.69
376.319	1023.69
376.545	1011.69
376.771	1023.69
376.997	1032.69
377.222	1047.69
377.448	976.69
377.674	976.69
377.899	978.69
378.125	997.69
378.35	966.69
378.576	1002.69
378.802	972.69
379.027	972.69
379.253	956.69
379.478	964.69
379.704	966.69
379.929	965.69
380.155	944.69
380.38	994.69
380.606	948.69
380.831	968.69
381.057	990.69
381.282	947.69
381.507	967.69
381.733	979.69
381.958	969.69
382.184	970.69
382.409	976.69
382.634	970.69
382.86	985.69
383.085	973.69
383.31	1009.69
383.535	995.69
383.761	975.69
383.986	954.69
384.211	981.69
384.436	1006.69
384.662	1001.69
384.887	986.69
385.112	987.69
385.337	1025.69
385.562	1004.69
385.787	1026.69
386.013	991.69
386.238	1033.69
386.463	1008.69
386.688	1002.69
386.913	1031.69
387.138	1007.69
387.363	1008.69
387.588	993.69
387.813	986.69
388.038	1004.69
388.263	1021.69
388.488	1019.69
388.713	1014.69
388.938	1017.69
389.163	1008.69
389.387	1004.69
389.612	1018.69
389.837	1036.69
390.062	1010.69
390.287	1014.69
390.512	1009.69
390.736	1043.69
390.961	1028.69
391.186	1030.69
391.411	1021.69
391.636	1065.69
391.86	1046.69
392.085	1023.69
392.31	1024.69
392.534	1051.69
392.759	1039.69
392.984	1040.69
393.208	1034.69
393.433	1055.69
393.658	1028.69
393.882	1025.69
394.107	1017.69
394.331	1065.69
394.556	1018.69
394.78	1021.69
395.005	1043.69
395.229	1043.69
395.454	1058.69
395.678	1049.69
395.903	1053.69
396.127	1044.69
396.352	1056.69
396.576	1043.69
396.801	1031.69
397.025	1071.69
397.249	1093.69
397.474	1081.69
397.698	1096.69
397.922	1071.69
398.147	1051.69
398.371	1083.69
398.595	1091.69
398.82	1137.69
399.044	1139.69
399.268	1161.69
399.492	1251.69
399.717	1248.69
399.941	1248.69
400.165	1215.69
400.389	1164.69
400.613	1155.69
400.837	1166.69
401.062	1203.69
401.286	1166.69
401.51	1205.69
401.734	1180.69
401.958	1119.69
402.182	1169.69
402.406	1178.69
402.63	1173.69
402.854	1181.69
403.078	1194.69
403.302	1197.69
403.526	1196.69
403.75	1178.69
403.974	1203.69
404.198	1185.69
404.422	1195.69
404.645	1203.69
404.869	1191.69
405.093	1218.69
405.317	1233.69
405.541	1218.69
405.765	1210.69
405.988	1190.69
406.212	1212.69
406.436	1221.69
406.66	1268.69
406.883	1250.69
407.107	1278.69
407.331	1300.69
407.555	1324.69
407.778	1261.69
408.002	1267.69
408.226	1300.69
408.449	1307.69
408.673	1266.69
408.896	1271.69
409.12	1294.69
409.344	1307.69
409.567	1276.69
409.791	1291.69
410.014	1280.69
410.238	1289.69
410.461	1271.69
410.685	1298.69
410.908	1271.69
411.132	1259.69
411.355	1267.69
411.578	1270.69
411.802	1234.69
412.025	1247.69
412.249	1268.69
412.472	1233.69
412.695	1244.69
412.919	1241.69
413.142	1275.69
413.365	1253.69
413.589	1284.69
413.812	1259.69
414.035	1283.69
414.258	1243.69
414.482	1266.69
414.705	1265.69
414.928	1250.69
415.151	1242.69
415.374	1284.69
415.597	1253.69
415.821	1239.69
416.044	1201.69
416.267	1263.69
416.49	1237.69
416.713	1247.69
416.936	1249.69
417.159	1257.69
417.382	1229.69
417.605	1235.69
417.828	1235.69
418.051	1245.69
418.274	1255.69
418.497	1239.69
418.72	1251.69
418.943	1269.69
419.166	1345.69
419.389	1418.69
419.611	1375.69
419.834	1333.69
420.057	1311.69
420.28	1285.69
420.503	1251.69
420.726	1288.69
420.948	1231.69
421.171	1272.69
421.394	1268.69
421.617	1235.69
421.839	1279.69
422.062	1287.69
422.285	1286.69
422.507	1309.69
422.73	1297.69
422.953	1271.69
423.175	1323.69
423.398	1328.69
423.621	1300.69
423.843	1336.69
424.066	1324.69
424.288	1314.69
424.511	1309.69
424.733	1297.69
424.956	1301.69
425.178	1337.69
425.401	1331.69
425.623	1337.69
425.846	1305.69
426.068	1307.69
426.291	1305.69
426.513	1320.69
426.735	1300.69
426.958	1305.69
427.18	1281.69
427.402	1308.69
427.625	1348.69
427.847	1289.69
428.069	1300.69
428.292	1315.69
428.514	1291.69
428.736	1301.69
428.958	1334.69
429.181	1325.69
429.403	1347.69
429.625	1319.69
429.847	1341.69
430.069	1344.69
430.292	1330.69
430.514	1301.69
430.736	1327.69
430.958	1297.69
431.18	1301.69
431.402	1329.69
431.624	1329.69
431.846	1300.69
432.068	1308.69
432.29	1339.69
432.512	1292.69
432.734	1331.69
432.956	1331.69
433.178	1370.69
433.4	1352.69
433.622	1371.69
433.844	1362.69
434.066	1379.69
434.287	1364.69
434.509	1343.69
434.731	1368.69
434.953	1360.69
435.175	1361.69
435.397	1405.69
435.618	1380.69
435.84	1375.69
436.062	1352.69
436.284	1333.69
436.505	1352.69
436.727	1319.69
436.949	1327.69
437.17	1381.69
437.392	1337.69
437.614	1341.69
437.835	1322.69
438.057	1355.69
438.278	1299.69
438.5	1314.69
438.721	1313.69
438.943	1349.69
439.165	1327.69
439.386	1336.69
439.608	1333.69
439.829	1384.69
440.05	1364.69
440.272	1353.69
440.493	1375.69
440.715	1396.69
440.936	1376.69
441.158	1381.69
441.379	1375.69
441.6	1378.69
441.822	1377.69
442.043	1385.69
442.264	1390.69
442.486	1372.69
442.707	1389.69
442.928	1369.69
443.149	1405.69
443.371	1399.69
443.592	1382.69
443.813	1379.69
444.034	1401.69
444.255	1389.69
444.476	1394.69
444.698	1401.69
444.919	1465.69
445.14	1506.69
445.361	1451.69
445.582	1407.69
445.803	1401.69
446.024	1336.69
446.245	1346.69
446.466	1341.69
446.687	1363.69
446.908	1375.69
447.129	1350.69
447.35	1338.69
447.571	1348.69
447.792	1300.69
448.013	1324.69
448.234	1285.69
448.455	1268.69
448.675	1272.69
448.896	1284.69
449.117	1275.69
449.338	1280.69
449.559	1275.69
449.779	1270.69
450	1249.69
450.221	1276.69
450.442	1256.69
450.662	1258.69
450.883	1257.69
451.104	1300.69
451.324	1290.69
451.545	1278.69
451.766	1277.69
451.986	1275.69
452.207	1241.69
452.428	1228.69
452.648	1236.69
452.869	1228.69
453.089	1240.69
453.31	1242.69
453.53	1225.69
453.751	1246.69
453.971	1241.69
454.192	1237.69
454.412	1188.69
454.633	1244.69
454.853	1259.69
455.073	1215.69
455.294	1237.69
455.514	1234.69
455.734	1244.69
455.955	1244.69
456.175	1242.69
456.395	1208.69
456.616	1179.69
456.836	1255.69
457.056	1238.69
457.276	1205.69
457.497	1301.69
457.717	1215.69
457.937	1222.69
458.157	1204.69
458.377	1233.69
458.598	1263.69
458.818	1262.69
459.038	1275.69
459.258	1275.69
459.478	1321.69
459.698	1358.69
459.918	1347.69
460.138	1321.69
460.358	1395.69
460.578	1371.69
460.798	1390.69
461.018	1410.69
461.238	1411.69
461.458	1417.69
461.678	1365.69
461.898	1397.69
462.118	1423.69
462.338	1410.69
462.558	1430.69
462.777	1459.69
462.997	1485.69
463.217	1520.69
463.437	1527.69
463.657	1508.69
463.876	1507.69
464.096	1520.69
464.316	1475.69
464.536	1452.69
464.755	1478.69
464.975	1451.69
465.195	1429.69
465.414	1416.69
465.634	1346.69
465.854	1399.69
466.073	1351.69
466.293	1329.69
466.512	1333.69
466.732	1325.69
466.951	1364.69
467.171	1332.69
467.391	1325.69
467.61	1305.69
467.829	1329.69
468.049	1335.69
468.268	1348.69
468.488	1299.69
468.707	1303.69
468.927	1324.69
469.146	1293.69
469.365	1301.69
469.585	1295.69
469.804	1345.69
470.023	1365.69
470.243	1367.69
470.462	1330.69
470.681	1309.69
470.901	1377.69
471.12	1373.69
471.339	1333.69
471.558	1357.69
471.777	1395.69
471.997	1365.69
472.216	1322.69
472.435	1349.69
472.654	1337.69
472.873	1345.69
473.092	1340.69
473.311	1353.69
473.53	1369.69
473.749	1373.69
473.968	1373.69
474.187	1394.69
474.406	1376.69
474.625	1405.69
474.844	1386.69
475.063	1361.69
475.282	1431.69
475.501	1391.69
475.72	1427.69
475.939	1439.69
476.158	1459.69
476.377	1447.69
476.596	1432.69
476.814	1429.69
477.033	1460.69
477.252	1475.69
477.471	1524.69
477.69	1525.69
477.908	1531.69
478.127	1512.69
478.346	1540.69
478.564	1541.69
478.783	1593.69
479.002	1591.69
479.22	1598.69
479.439	1560.69
479.658	1590.69
479.876	1588.69
480.095	1590.69
480.313	1650.69
480.532	1604.69
480.751	1645.69
480.969	1635.69
481.188	1611.69
481.406	1625.69
481.624	1624.69
481.843	1605.69
482.061	1564.69
482.28	1625.69
482.498	1633.69
482.717	1595.69
482.935	1645.69
483.153	1638.69
483.372	1654.69
483.59	1705.69
483.808	1660.69
484.027	1672.69
484.245	1634.69
484.463	1658.69
484.681	1677.69
484.9	1670.69
485.118	1684.69
485.336	1632.69
485.554	1675.69
485.772	1651.69
485.99	1653.69
486.209	1671.69
486.427	1686.69
486.645	1677.69
486.863	1683.69
487.081	1690.69
487.299	1699.69
487.517	1711.69
487.735	1733.69
487.953	1709.69
488.171	1685.69
488.389	1707.69
488.607	1688.69
488.825	1728.69
489.043	1719.69
489.261	1698.69
489.479	1699.69
489.696	1718.69
489.914	1695.69
490.132	1752.69
490.35	1730.69
490.568	1770.69
490.786	1760.69
491.003	1727.69
491.221	1758.69
491.439	1749.69
491.657	1765.69
491.874	1741.69
492.092	1804.69
492.31	1810.69
492.527	1789.69
492.745	1830.69
492.963	1762.69
493.18	1775.69
493.398	1784.69
493.615	1803.69
493.833	1818.69
494.05	1825.69
494.268	1866.69
494.485	1841.69
494.703	1826.69
494.92	1816.69
495.138	1825.69
495.355	1828.69
495.573	1805.69
495.79	1834.69
496.008	1849.69
496.225	1865.69
496.442	1913.69
496.66	1873.69
496.877	1941.69
497.094	1855.69
497.312	1903.69
497.529	1914.69
497.746	1940.69
497.963	1934.69
498.181	1968.69
498.398	1980.69
498.615	2068.69
498.832	2037.69
499.049	2108.69
499.267	2134.69
499.484	2187.69
499.701	2234.69
499.918	2283.69
500.135	2393.69
500.352	2446.69
500.569	2445.69
500.786	2462.69
501.003	2417.69
501.22	2337.69
501.437	2315.69
501.654	2250.69
501.871	2167.69
502.088	2163.69
502.305	2085.69
502.522	2107.69
502.739	2024.69
502.956	2007.69
503.172	1962.69
503.389	1970.69
503.606	1932.69
503.823	1919.69
504.04	1901.69
504.256	1882.69
504.473	1858.69
504.69	1857.69
504.907	1846.69
505.123	1857.69
505.34	1764.69
505.557	1797.69
505.773	1783.69
505.99	1761.69
506.207	1720.69
506.423	1691.69
506.64	1711.69
506.856	1683.69
507.073	1673.69
507.289	1649.69
507.506	1684.69
507.722	1662.69
507.939	1655.69
508.155	1657.69
508.372	1659.69
508.588	1626.69
508.805	1610.69
509.021	1613.69
509.238	1584.69
509.454	1625.69
509.67	1585.69
509.887	1606.69
510.103	1584.69
510.319	1567.69
510.536	1551.69
510.752	1559.69
510.968	1530.69
511.184	1568.69
511.401	1524.69
511.617	1497.69
511.833	1506.69
512.049	1538.69
512.265	1551.69
512.481	1509.69
512.698	1512.69
512.914	1524.69
513.13	1543.69
513.346	1518.69
513.562	1522.69
513.778	1513.69
513.994	1537.69
514.21	1541.69
514.426	1537.69
514.642	1537.69
514.858	1532.69
515.074	1539.69
515.29	1527.69
515.506	1552.69
515.721	1543.69
515.937	1541.69
516.153	1568.69
516.369	1568.69
516.585	1544.69
516.801	1579.69
517.016	1574.69
517.232	1596.69
517.448	1605.69
517.664	1555.69
517.879	1585.69
518.095	1585.69
518.311	1593.69
518.527	1571.69
518.742	1569.69
518.958	1544.69
519.173	1535.69
519.389	1530.69
519.605	1537.69
519.82	1528.69
520.036	1541.69
520.251	1479.69
520.467	1472.69
520.682	1491.69
520.898	1480.69
521.113	1448.69
521.329	1459.69
521.544	1425.69
521.76	1471.69
521.975	1440.69
522.19	1436.69
522.406	1456.69
522.621	1442.69
522.836	1444.69
523.052	1445.69
523.267	1442.69
523.482	1441.69
523.698	1416.69
523.913	1387.69
524.128	1407.69
524.343	1403.69
524.559	1404.69
524.774	1421.69
524.989	1428.69
525.204	1428.69
525.419	1400.69
525.634	1390.69
525.849	1404.69
526.064	1394.69
526.28	1393.69
526.495	1393.69
526.71	1381.69
526.925	1374.69
527.14	1370.69
527.355	1388.69
527.57	1348.69
527.785	1390.69
527.999	1353.69
528.214	1384.69
528.429	1388.69
528.644	1392.69
528.859	1341.69
529.074	1354.69
529.289	1372.69
529.503	1340.69
529.718	1351.69
529.933	1364.69
530.148	1360.69
530.363	1365.69
530.577	1353.69
530.792	1308.69
531.007	1329.69
531.221	1320.69
531.436	1318.69
531.651	1304.69
531.865	1338.69
532.08	1320.69
532.295	1320.69
532.509	1336.69
532.724	1315.69
532.938	1323.69
533.153	1310.69
533.367	1315.69
533.582	1311.69
533.796	1319.69
534.011	1304.69
534.225	1279.69
534.44	1308.69
534.654	1287.69
534.868	1305.69
535.083	1306.69
535.297	1323.69
535.511	1264.69
535.726	1283.69
535.94	1294.69
536.154	1244.69
536.369	1278.69
536.583	1261.69
536.797	1255.69
537.011	1252.69
537.225	1248.69
537.44	1251.69
537.654	1247.69
537.868	1258.69
538.082	1219.69
538.296	1214.69
538.51	1238.69
538.724	1248.69
538.938	1226.69
539.153	1199.69
539.367	1211.69
539.581	1212.69
539.795	1200.69
540.009	1250.69
540.222	1247.69
540.436	1238.69
540.65	1224.69
540.864	1197.69
541.078	1213.69
541.292	1241.69
541.506	1228.69
541.72	1240.69
541.934	1207.69
542.147	1226.69
542.361	1231.69
542.575	1174.69
542.789	1196.69
543.002	1183.69
543.216	1183.69
543.43	1161.69
543.644	1181.69
543.857	1204.69
544.071	1204.69
544.285	1216.69
544.498	1163.69
544.712	1179.69
544.925	1189.69
545.139	1204.69
545.352	1200.69
545.566	1210.69
545.779	1199.69
545.993	1191.69
546.206	1179.69
546.42	1180.69
546.633	1162.69
546.847	1171.69
547.06	1129.69
547.274	1189.69
547.487	1162.69
547.7	1158.69
547.914	1191.69
548.127	1186.69
548.34	1146.69
548.554	1136.69
548.767	1168.69
548.98	1173.69
549.193	1164.69
549.407	1161.69
549.62	1166.69
549.833	1173.69
550.046	1124.69
550.259	1110.69
550.473	1140.69
550.686	1143.69
550.899	1103.69
551.112	1101.69
551.325	1161.69
551.538	1135.69
551.751	1088.69
551.964	1137.69
552.177	1118.69
552.39	1132.69
552.603	1102.69
552.816	1120.69
553.029	1129.69
553.242	1163.69
553.455	1151.69
553.667	1131.69
553.88	1097.69
554.093	1114.69
554.306	1094.69
554.519	1079.69
554.732	1108.69
554.944	1058.69
555.157	1069.69
555.37	1091.69
555.583	1061.69
555.795	1082.69
556.008	1059.69
556.221	1041.69
556.433	1043.69
556.646	1038.69
556.859	1012.69
557.071	1027.69
557.284	994.69
557.496	1036.69
557.709	1061.69
557.921	1001.69
558.134	1029.69
558.346	999.69
558.559	1009.69
558.771	1007.69
558.984	989.69
559.196	1018.69
559.409	1005.69
559.621	990.69
559.833	1023.69
560.046	991.69
560.258	977.69
560.47	980.69
560.683	994.69
560.895	970.69
561.107	999.69
561.32	986.69
561.532	994.69
561.744	974.69
561.956	976.69
562.168	963.69
562.381	949.69
562.593	978.69
562.805	949.69
563.017	979.69
563.229	964.69
563.441	969.69
563.653	972.69
563.865	986.69
564.077	992.69
564.289	959.69
564.501	985.69
564.713	1001.69
564.925	990.69
565.137	997.69
565.349	984.69
565.561	1002.69
565.773	999.69
565.985	1004.69
566.197	1027.69
566.408	1013.69
566.62	1031.69
566.832	1048.69
567.044	1072.69
567.255	1075.69
567.467	1051.69
567.679	1055.69
567.891	1048.69
568.102	1078.69
568.314	1052.69
568.526	1005.69
568.737	983.69
568.949	973.69
569.161	934.69
569.372	909.69
569.584	920.69
569.795	900.69
570.007	887.69
570.218	895.69
570.43	896.69
570.641	883.69
570.853	873.69
571.064	865.69
571.276	886.69
571.487	858.69
571.698	849.69
571.91	839.69
572.121	846.69
572.333	849.69
572.544	844.69
572.755	812.69
572.966	801.69
573.178	824.69
573.389	795.69
573.6	807.69
573.811	771.69
574.023	765.69
574.234	791.69
574.445	785.69
574.656	795.69
574.867	789.69
575.078	802.69
575.289	749.69
575.501	775.69
575.712	735.69
575.923	775.69
576.134	760.69
576.345	741.69
576.556	744.69
576.767	734.69
576.978	729.69
577.188	757.69
577.399	713.69
577.61	733.69
577.821	699.69
578.032	676.69
578.243	713.69
578.454	685.69
578.665	716.69
578.875	665.69
579.086	691.69
579.297	677.69
579.508	687.69
579.718	675.69
579.929	700.69
580.14	680.69
580.35	680.69
580.561	690.69
580.772	666.69
580.982	691.69
581.193	683.69
581.403	662.69
581.614	668.69
581.825	674.69
582.035	646.69
582.246	663.69
582.456	635.69
582.667	667.69
582.877	660.69
583.087	645.69
583.298	652.69
583.508	661.69
583.719	648.69
583.929	644.69
584.139	647.69
584.35	630.69
584.56	639.69
584.77	640.69
584.981	660.69
585.191	624.69
585.401	643.69
585.611	628.69
585.821	639.69
586.032	624.69
586.242	637.69
586.452	584.69
586.662	617.69
586.872	621.69
587.082	603.69
587.292	612.69
587.502	615.69
587.713	620.69
587.923	601.69
588.133	618.69
588.343	599.69
588.553	631.69
588.762	621.69
588.972	596.69
589.182	619.69
589.392	609.69
589.602	605.69
589.812	581.69
590.022	590.69
590.232	599.69
590.441	603.69
590.651	615.69
590.861	576.69
591.071	601.69
591.281	601.69
591.49	613.69
591.7	590.69
591.91	582.69
592.119	601.69
592.329	583.69
592.539	600.69
592.748	589.69
592.958	605.69
593.167	588.69
593.377	597.69
593.587	597.69
593.796	596.69
594.006	603.69
594.215	574.69
594.424	581.69
594.634	569.69
594.843	588.69
595.053	567.69
595.262	564.69
595.472	585.69
595.681	543.69
595.89	551.69
596.1	563.69
596.309	555.69
596.518	537.69
596.727	562.69
596.937	522.69
597.146	536.69
597.355	535.69
597.564	543.69
597.774	526.69
597.983	554.69
598.192	508.69
598.401	527.69
598.61	530.69
598.819	516.69
599.028	519.69
599.237	518.69
599.446	530.69
599.655	504.69
599.864	498.69
600.073	480.69
600.282	499.69
600.491	516.69
600.7	503.69
600.909	496.69
601.118	514.69
601.327	474.69
601.536	462.69
601.745	496.69
601.953	491.69
602.162	477.69
602.371	509.69
602.58	491.69
602.789	488.69
602.997	479.69
603.206	488.69
603.415	483.69
603.623	479.69
603.832	457.69
604.041	483.69
604.249	469.69
604.458	466.69
604.666	462.69
604.875	452.69
605.084	452.69
605.292	456.69
605.501	470.69
605.709	478.69
605.918	445.69
606.126	446.69
606.334	453.69
606.543	448.69
606.751	465.69
606.96	441.69
607.168	440.69
607.376	457.69
607.585	450.69
607.793	455.69
608.001	451.69
608.21	468.69
608.418	444.69
608.626	445.69
608.834	468.69
609.043	443.69
609.251	458.69
609.459	457.69
609.667	427.69
609.875	428.69
610.083	449.69
610.291	441.69
610.499	432.69
610.707	435.69
610.916	425.69
611.124	433.69
611.332	427.69
611.54	415.69
611.748	445.69
611.955	437.69
612.163	427.69
612.371	451.69
612.579	409.69
612.787	431.69
612.995	403.69
613.203	428.69
613.411	415.69
613.618	402.69
613.826	417.69
614.034	444.69
614.242	409.69
614.449	421.69
614.657	397.69
614.865	408.69
615.072	403.69
615.28	401.69
615.488	413.69
615.695	404.69
615.903	407.69
616.111	428.69
616.318	394.69
616.526	444.69
616.733	417.69
616.941	396.69
617.148	385.69
617.356	385.69
617.563	398.69
617.771	420.69
617.978	398.69
618.185	385.69
618.393	382.69
618.6	403.69
618.807	421.69
619.015	398.69
619.222	393.69
619.429	379.69
619.637	390.69
619.844	397.69
620.051	389.69
620.258	388.69
620.466	385.69
620.673	367.69
620.88	358.69
621.087	377.69
621.294	377.69
621.501	384.69
621.708	370.69
621.915	378.69
622.122	390.69
622.329	384.69
622.536	370.69
622.743	379.69
622.95	374.69
623.157	368.69
623.364	372.69
623.571	365.69
623.778	368.69
623.985	366.69
624.192	351.69
624.399	371.69
624.606	340.69
624.812	354.69
625.019	364.69
625.226	380.69
625.433	355.69
625.639	343.69
625.846	338.69
626.053	339.69
626.259	353.69
626.466	331.69
626.673	337.69
626.879	331.69
627.086	337.69
627.293	340.69
627.499	332.69
627.706	335.69
627.912	351.69
628.119	327.69
628.325	332.69
628.532	328.69
628.738	334.69
628.945	331.69
629.151	334.69
629.357	328.69
629.564	346.69
629.77	348.69
629.976	346.69
630.183	321.69
630.389	332.69
630.595	326.69
630.802	339.69
631.008	317.69
631.214	315.69
631.42	333.69
631.627	323.69
631.833	313.69
632.039	316.69
632.245	301.69
632.451	300.69
632.657	298.69
632.863	307.69
633.069	304.69
633.275	311.69
633.481	303.69
633.688	298.69
633.893	308.69
634.099	312.69
634.305	316.69
634.511	305.69
634.717	296.69
634.923	310.69
635.129	311.69
635.335	289.69
635.541	297.69
635.747	288.69
635.952	279.69
636.158	305.69
636.364	305.69
636.57	306.69
636.775	285.69
636.981	286.69
637.187	284.69
637.392	292.69
637.598	288.69
637.804	303.69
638.009	282.69
638.215	284.69
638.421	269.69
638.626	279.69
638.832	279.69
639.037	296.69
639.243	282.69
639.448	268.69
639.654	289.69
639.859	281.69
640.065	291.69
640.27	289.69
640.475	273.69
640.681	289.69
640.886	267.69
641.091	270.69
641.297	285.69
641.502	283.69
641.707	288.69
641.913	280.69
642.118	271.69
642.323	259.69
642.528	287.69
642.733	298.69
642.939	283.69
643.144	259.69
643.349	276.69
643.554	269.69
643.759	263.69
643.964	266.69
644.169	270.69
644.374	268.69
644.579	261.69
644.784	266.69
644.989	264.69
645.194	265.69
645.399	253.69
645.604	264.69
645.809	260.69
646.014	262.69
646.219	269.69
646.423	275.69
646.628	267.69
646.833	278.69
647.038	275.69
647.243	255.69
647.447	254.69
647.652	267.69
647.857	273.69
648.062	272.69
648.266	262.69
648.471	265.69
648.676	278.69
648.88	259.69
649.085	267.69
649.289	250.69
649.494	255.69
649.698	283.69
649.903	255.69
650.107	265.69
650.312	258.69
650.516	262.69
650.721	248.69
650.925	249.69
651.13	234.69
651.334	255.69
651.539	229.69
651.743	232.69
651.947	241.69
652.152	224.69
652.356	240.69
652.56	236.69
652.764	233.69
652.969	219.69
653.173	212.69
653.377	223.69
653.581	214.69
653.785	210.69
653.99	191.69
654.194	211.69
654.398	209.69
654.602	195.69
654.806	201.69
655.01	188.69
655.214	189.69
655.418	195.69
655.622	169.69
655.826	173.69
656.03	176.69
656.234	183.69
656.438	187.69
656.642	175.69
656.846	171.69
657.049	163.69
657.253	165.69
657.457	165.69
657.661	150.69
657.865	154.69
658.068	147.69
658.272	131.69
658.476	150.69
658.68	135.69
658.883	137.69
659.087	128.69
659.291	133.69
659.494	107.69
659.698	123.69
659.901	129.69
660.105	108.69
660.309	109.69
660.512	103.69
660.716	101.69
660.919	97.69
661.123	99.69
661.326	100.69
661.53	98.69
661.733	98.69
661.936	91.69
662.14	99.69
662.343	96.69
662.546	91.69
662.75	95.69
662.953	93.69
663.156	87.69
663.36	98.69
663.563	87.69
663.766	90.69
663.969	99.69
664.173	84.69
664.376	79.69
664.579	95.69
664.782	79.69
664.985	76.69
665.188	90.69
665.391	83.69
665.594	81.69
665.797	73.69
666	84.69
666.203	91.69
666.406	75.69
666.609	86.69
666.812	83.69
667.015	91.69
667.218	61.69
667.421	63.69
667.624	91.69
667.827	85.69
668.03	76.69
668.232	76.69
668.435	82.69
668.638	69.69
668.841	85.69
669.043	83.69
669.246	62.69
669.449	70.69
669.651	86.69
669.854	81.69
670.057	100.69
670.259	69.69
670.462	69.69
670.665	91.69
670.867	97.69
671.07	75.69
671.272	90.69
671.475	79.69
671.677	70.69
671.88	83.69
672.082	92.69
672.284	88.69
672.487	71.69
672.689	79.69
672.892	76.69
