Data from Ni(NO3)2@0.5M.TitratingCurve.Agarose3%dH2O.NegLispCup.LampEnergy10.LIBS07252019_HRD10591_17-58-04-564.txt Node
Date: Thu Jul 25 17:58:04 EDT 2019
User: cochatt
Spectrometer: HR+D1059
Trigger mode: 1
Integration Time (sec): 1.000000E-1
Scans to average: 1
Electric dark correction enabled: true
Nonlinearity correction enabled: false
Boxcar width: 0
XAxis mode: Wavelengths
Number of Pixels in Spectrum: 2048
>>>>>Begin Spectral Data<<<<<
223.165	-15.12
223.4	-15.12
223.635	-15.12
223.869	-28.12
224.104	-16.12
224.338	-17.12
224.573	-18.12
224.808	-11.12
225.042	-17.12
225.277	0.88
225.511	3.88
225.746	7.88
225.98	4.88
226.215	4.88
226.449	23.88
226.683	10.88
226.918	24.88
227.152	40.88
227.387	33.88
227.621	28.88
227.856	35.88
228.09	44.88
228.324	33.88
228.559	60.88
228.793	62.88
229.027	130.88
229.262	159.88
229.496	179.88
229.73	150.88
229.964	201.88
230.199	219.88
230.433	238.88
230.667	209.88
230.901	214.88
231.136	190.88
231.37	192.88
231.604	218.88
231.838	226.88
232.072	236.88
232.306	213.88
232.541	199.88
232.775	194.88
233.009	182.88
233.243	182.88
233.477	172.88
233.711	166.88
233.945	190.88
234.179	184.88
234.413	199.88
234.647	195.88
234.881	199.88
235.115	204.88
235.349	207.88
235.583	184.88
235.817	189.88
236.051	201.88
236.285	181.88
236.519	191.88
236.753	188.88
236.987	182.88
237.221	189.88
237.455	190.88
237.689	192.88
237.922	206.88
238.156	194.88
238.39	186.88
238.624	205.88
238.858	206.88
239.091	209.88
239.325	227.88
239.559	229.88
239.793	261.88
240.027	246.88
240.26	238.88
240.494	217.88
240.728	223.88
240.961	219.88
241.195	225.88
241.429	232.88
241.662	254.88
241.896	261.88
242.13	278.88
242.363	248.88
242.597	257.88
242.83	229.88
243.064	227.88
243.298	245.88
243.531	252.88
243.765	261.88
243.998	272.88
244.232	278.88
244.465	266.88
244.699	257.88
244.932	258.88
245.166	247.88
245.399	269.88
245.633	266.88
245.866	277.88
246.099	263.88
246.333	263.88
246.566	282.88
246.8	285.88
247.033	278.88
247.266	278.88
247.5	300.88
247.733	297.88
247.966	311.88
248.2	296.88
248.433	294.88
248.666	297.88
248.899	313.88
249.133	300.88
249.366	331.88
249.599	327.88
249.832	317.88
250.066	318.88
250.299	313.88
250.532	339.88
250.765	332.88
250.998	353.88
251.231	371.88
251.465	376.88
251.698	369.88
251.931	353.88
252.164	353.88
252.397	367.88
252.63	363.88
252.863	354.88
253.096	356.88
253.329	354.88
253.562	371.88
253.795	376.88
254.028	378.88
254.261	385.88
254.494	375.88
254.727	386.88
254.96	403.88
255.193	401.88
255.426	384.88
255.659	406.88
255.892	399.88
256.124	402.88
256.357	415.88
256.59	422.88
256.823	416.88
257.056	411.88
257.289	415.88
257.521	422.88
257.754	431.88
257.987	416.88
258.22	441.88
258.452	434.88
258.685	443.88
258.918	439.88
259.151	427.88
259.383	466.88
259.616	436.88
259.849	428.88
260.081	454.88
260.314	449.88
260.547	457.88
260.779	441.88
261.012	464.88
261.244	461.88
261.477	491.88
261.71	487.88
261.942	461.88
262.175	466.88
262.407	514.88
262.64	457.88
262.872	480.88
263.105	471.88
263.337	514.88
263.57	475.88
263.802	492.88
264.035	490.88
264.267	521.88
264.499	501.88
264.732	512.88
264.964	495.88
265.197	492.88
265.429	514.88
265.661	485.88
265.894	514.88
266.126	512.88
266.358	533.88
266.591	517.88
266.823	548.88
267.055	542.88
267.287	538.88
267.52	520.88
267.752	524.88
267.984	516.88
268.216	538.88
268.448	535.88
268.681	562.88
268.913	554.88
269.145	544.88
269.377	547.88
269.609	566.88
269.841	587.88
270.073	550.88
270.306	537.88
270.538	556.88
270.77	548.88
271.002	565.88
271.234	549.88
271.466	584.88
271.698	575.88
271.93	581.88
272.162	572.88
272.394	576.88
272.626	581.88
272.858	580.88
273.09	608.88
273.322	587.88
273.553	602.88
273.785	563.88
274.017	579.88
274.249	606.88
274.481	610.88
274.713	598.88
274.945	638.88
275.176	593.88
275.408	608.88
275.64	616.88
275.872	601.88
276.104	632.88
276.335	613.88
276.567	602.88
276.799	619.88
277.031	644.88
277.262	615.88
277.494	624.88
277.726	646.88
277.957	620.88
278.189	622.88
278.421	623.88
278.652	625.88
278.884	635.88
279.115	634.88
279.347	652.88
279.579	657.88
279.81	663.88
280.042	650.88
280.273	640.88
280.505	674.88
280.736	630.88
280.968	640.88
281.199	654.88
281.431	650.88
281.662	682.88
281.894	668.88
282.125	688.88
282.356	656.88
282.588	681.88
282.819	686.88
283.051	683.88
283.282	661.88
283.513	678.88
283.745	697.88
283.976	667.88
284.207	684.88
284.439	699.88
284.67	693.88
284.901	672.88
285.132	688.88
285.364	680.88
285.595	699.88
285.826	667.88
286.057	695.88
286.288	717.88
286.52	688.88
286.751	727.88
286.982	712.88
287.213	702.88
287.444	710.88
287.675	686.88
287.906	697.88
288.138	700.88
288.369	711.88
288.6	739.88
288.831	720.88
289.062	737.88
289.293	724.88
289.524	728.88
289.755	729.88
289.986	757.88
290.217	726.88
290.448	733.88
290.679	720.88
290.91	730.88
291.141	737.88
291.371	731.88
291.602	748.88
291.833	736.88
292.064	730.88
292.295	754.88
292.526	733.88
292.757	733.88
292.987	728.88
293.218	707.88
293.449	726.88
293.68	731.88
293.91	771.88
294.141	736.88
294.372	724.88
294.603	746.88
294.833	758.88
295.064	744.88
295.295	750.88
295.525	716.88
295.756	750.88
295.987	744.88
296.217	747.88
296.448	764.88
296.679	759.88
296.909	782.88
297.14	743.88
297.37	756.88
297.601	792.88
297.831	766.88
298.062	755.88
298.292	778.88
298.523	764.88
298.753	786.88
298.984	793.88
299.214	770.88
299.445	788.88
299.675	817.88
299.905	785.88
300.136	784.88
300.366	846.88
300.597	841.88
300.827	812.88
301.057	810.88
301.288	833.88
301.518	826.88
301.748	831.88
301.979	791.88
302.209	802.88
302.439	830.88
302.669	791.88
302.9	821.88
303.13	826.88
303.36	834.88
303.59	831.88
303.82	832.88
304.051	867.88
304.281	856.88
304.511	860.88
304.741	838.88
304.971	892.88
305.201	879.88
305.431	903.88
305.661	918.88
305.891	898.88
306.121	898.88
306.352	872.88
306.582	847.88
306.812	843.88
307.042	878.88
307.272	854.88
307.502	847.88
307.731	880.88
307.961	864.88
308.191	868.88
308.421	864.88
308.651	866.88
308.881	842.88
309.111	843.88
309.341	850.88
309.571	895.88
309.8	912.88
310.03	907.88
310.26	963.88
310.49	969.88
310.72	879.88
310.949	891.88
311.179	906.88
311.409	902.88
311.639	912.88
311.868	908.88
312.098	898.88
312.328	931.88
312.557	942.88
312.787	908.88
313.017	932.88
313.246	940.88
313.476	962.88
313.706	953.88
313.935	980.88
314.165	926.88
314.394	930.88
314.624	956.88
314.853	955.88
315.083	930.88
315.312	929.88
315.542	936.88
315.771	974.88
316.001	946.88
316.23	963.88
316.46	968.88
316.689	964.88
316.919	959.88
317.148	971.88
317.377	989.88
317.607	977.88
317.836	1011.88
318.065	1003.88
318.295	1023.88
318.524	1020.88
318.753	1011.88
318.983	1016.88
319.212	1012.88
319.441	1010.88
319.67	1026.88
319.9	1031.88
320.129	1020.88
320.358	1022.88
320.587	1030.88
320.816	1020.88
321.046	1030.88
321.275	1054.88
321.504	1043.88
321.733	1038.88
321.962	1072.88
322.191	1055.88
322.42	1065.88
322.649	1063.88
322.878	1083.88
323.108	1076.88
323.337	1083.88
323.566	1088.88
323.795	1108.88
324.024	1083.88
324.253	1103.88
324.482	1073.88
324.71	1093.88
324.939	1116.88
325.168	1106.88
325.397	1110.88
325.626	1115.88
325.855	1099.88
326.084	1103.88
326.313	1112.88
326.542	1093.88
326.77	1142.88
326.999	1099.88
327.228	1124.88
327.457	1143.88
327.686	1144.88
327.914	1131.88
328.143	1166.88
328.372	1164.88
328.6	1151.88
328.829	1144.88
329.058	1137.88
329.287	1125.88
329.515	1174.88
329.744	1164.88
329.972	1171.88
330.201	1160.88
330.43	1194.88
330.658	1166.88
330.887	1151.88
331.115	1187.88
331.344	1197.88
331.572	1182.88
331.801	1188.88
332.03	1202.88
332.258	1202.88
332.486	1191.88
332.715	1216.88
332.943	1238.88
333.172	1244.88
333.4	1259.88
333.629	1241.88
333.857	1243.88
334.085	1247.88
334.314	1238.88
334.542	1266.88
334.771	1294.88
334.999	1260.88
335.227	1271.88
335.455	1282.88
335.684	1294.88
335.912	1258.88
336.14	1288.88
336.369	1294.88
336.597	1320.88
336.825	1312.88
337.053	1304.88
337.281	1292.88
337.51	1284.88
337.738	1278.88
337.966	1280.88
338.194	1330.88
338.422	1314.88
338.65	1253.88
338.878	1256.88
339.106	1262.88
339.334	1312.88
339.562	1289.88
339.79	1268.88
340.018	1284.88
340.246	1279.88
340.474	1241.88
340.702	1286.88
340.93	1278.88
341.158	1305.88
341.386	1324.88
341.614	1328.88
341.842	1314.88
342.07	1266.88
342.298	1254.88
342.526	1219.88
342.754	1243.88
342.981	1278.88
343.209	1268.88
343.437	1314.88
343.665	1297.88
343.893	1310.88
344.12	1288.88
344.348	1298.88
344.576	1288.88
344.804	1332.88
345.031	1295.88
345.259	1263.88
345.487	1279.88
345.714	1253.88
345.942	1298.88
346.17	1318.88
346.397	1290.88
346.625	1299.88
346.853	1224.88
347.08	1247.88
347.308	1235.88
347.535	1287.88
347.763	1228.88
347.99	1212.88
348.218	1235.88
348.445	1235.88
348.673	1212.88
348.9	1211.88
349.128	1246.88
349.355	1318.88
349.583	1244.88
349.81	1255.88
350.037	1215.88
350.265	1193.88
350.492	1184.88
350.72	1181.88
350.947	1242.88
351.174	1274.88
351.402	1295.88
351.629	1284.88
351.856	1249.88
352.083	1220.88
352.311	1245.88
352.538	1296.88
352.765	1265.88
352.992	1210.88
353.22	1198.88
353.447	1195.88
353.674	1192.88
353.901	1194.88
354.128	1183.88
354.355	1156.88
354.583	1164.88
354.81	1207.88
355.037	1215.88
355.264	1205.88
355.491	1216.88
355.718	1178.88
355.945	1224.88
356.172	1196.88
356.399	1223.88
356.626	1241.88
356.853	1263.88
357.08	1228.88
357.307	1206.88
357.534	1208.88
357.761	1228.88
357.988	1231.88
358.215	1193.88
358.441	1184.88
358.668	1204.88
358.895	1220.88
359.122	1170.88
359.349	1209.88
359.576	1196.88
359.802	1217.88
360.029	1187.88
360.256	1213.88
360.483	1186.88
360.709	1185.88
360.936	1231.88
361.163	1232.88
361.39	1233.88
361.616	1248.88
361.843	1248.88
362.07	1280.88
362.296	1298.88
362.523	1195.88
362.749	1226.88
362.976	1209.88
363.203	1219.88
363.429	1199.88
363.656	1207.88
363.882	1209.88
364.109	1225.88
364.335	1205.88
364.562	1217.88
364.788	1210.88
365.015	1202.88
365.241	1176.88
365.468	1225.88
365.694	1194.88
365.92	1211.88
366.147	1201.88
366.373	1218.88
366.599	1195.88
366.826	1255.88
367.052	1181.88
367.278	1231.88
367.505	1208.88
367.731	1234.88
367.957	1226.88
368.184	1236.88
368.41	1226.88
368.636	1240.88
368.862	1242.88
369.089	1246.88
369.315	1262.88
369.541	1273.88
369.767	1239.88
369.993	1220.88
370.219	1230.88
370.445	1236.88
370.672	1211.88
370.898	1233.88
371.124	1229.88
371.35	1259.88
371.576	1273.88
371.802	1260.88
372.028	1244.88
372.254	1268.88
372.48	1270.88
372.706	1263.88
372.932	1278.88
373.158	1274.88
373.384	1279.88
373.61	1259.88
373.835	1269.88
374.061	1255.88
374.287	1272.88
374.513	1255.88
374.739	1256.88
374.965	1274.88
375.191	1254.88
375.416	1262.88
375.642	1253.88
375.868	1234.88
376.094	1240.88
376.319	1268.88
376.545	1234.88
376.771	1224.88
376.997	1240.88
377.222	1256.88
377.448	1202.88
377.674	1227.88
377.899	1249.88
378.125	1241.88
378.35	1243.88
378.576	1246.88
378.802	1222.88
379.027	1249.88
379.253	1217.88
379.478	1212.88
379.704	1203.88
379.929	1240.88
380.155	1206.88
380.38	1235.88
380.606	1195.88
380.831	1200.88
381.057	1240.88
381.282	1218.88
381.507	1195.88
381.733	1231.88
381.958	1236.88
382.184	1259.88
382.409	1248.88
382.634	1237.88
382.86	1264.88
383.085	1262.88
383.31	1242.88
383.535	1254.88
383.761	1257.88
383.986	1258.88
384.211	1278.88
384.436	1249.88
384.662	1278.88
384.887	1285.88
385.112	1286.88
385.337	1305.88
385.562	1284.88
385.787	1262.88
386.013	1336.88
386.238	1316.88
386.463	1304.88
386.688	1298.88
386.913	1308.88
387.138	1272.88
387.363	1315.88
387.588	1313.88
387.813	1316.88
388.038	1312.88
388.263	1288.88
388.488	1281.88
388.713	1319.88
388.938	1310.88
389.163	1333.88
389.387	1348.88
389.612	1316.88
389.837	1303.88
390.062	1306.88
390.287	1318.88
390.512	1348.88
390.736	1312.88
390.961	1339.88
391.186	1334.88
391.411	1360.88
391.636	1351.88
391.86	1351.88
392.085	1359.88
392.31	1336.88
392.534	1332.88
392.759	1350.88
392.984	1317.88
393.208	1348.88
393.433	1372.88
393.658	1379.88
393.882	1325.88
394.107	1356.88
394.331	1322.88
394.556	1352.88
394.78	1328.88
395.005	1323.88
395.229	1306.88
395.454	1336.88
395.678	1387.88
395.903	1377.88
396.127	1384.88
396.352	1334.88
396.576	1344.88
396.801	1366.88
397.025	1399.88
397.249	1394.88
397.474	1385.88
397.698	1380.88
397.922	1443.88
398.147	1378.88
398.371	1406.88
398.595	1436.88
398.82	1432.88
399.044	1471.88
399.268	1460.88
399.492	1518.88
399.717	1526.88
399.941	1550.88
400.165	1532.88
400.389	1509.88
400.613	1493.88
400.837	1487.88
401.062	1490.88
401.286	1473.88
401.51	1465.88
401.734	1464.88
401.958	1459.88
402.182	1451.88
402.406	1450.88
402.63	1432.88
402.854	1458.88
403.078	1445.88
403.302	1486.88
403.526	1474.88
403.75	1468.88
403.974	1479.88
404.198	1475.88
404.422	1462.88
404.645	1459.88
404.869	1495.88
405.093	1460.88
405.317	1456.88
405.541	1476.88
405.765	1520.88
405.988	1496.88
406.212	1531.88
406.436	1498.88
406.66	1528.88
406.883	1498.88
407.107	1530.88
407.331	1556.88
407.555	1591.88
407.778	1525.88
408.002	1591.88
408.226	1610.88
408.449	1564.88
408.673	1560.88
408.896	1566.88
409.12	1545.88
409.344	1567.88
409.567	1533.88
409.791	1516.88
410.014	1496.88
410.238	1503.88
410.461	1528.88
410.685	1503.88
410.908	1525.88
411.132	1514.88
411.355	1486.88
411.578	1508.88
411.802	1488.88
412.025	1499.88
412.249	1514.88
412.472	1491.88
412.695	1457.88
412.919	1486.88
413.142	1488.88
413.365	1489.88
413.589	1494.88
413.812	1445.88
414.035	1392.88
414.258	1493.88
414.482	1471.88
414.705	1473.88
414.928	1426.88
415.151	1460.88
415.374	1454.88
415.597	1402.88
415.821	1403.88
416.044	1422.88
416.267	1422.88
416.49	1432.88
416.713	1415.88
416.936	1392.88
417.159	1434.88
417.382	1417.88
417.605	1370.88
417.828	1404.88
418.051	1393.88
418.274	1416.88
418.497	1395.88
418.72	1372.88
418.943	1398.88
419.166	1452.88
419.389	1523.88
419.611	1498.88
419.834	1442.88
420.057	1458.88
420.28	1392.88
420.503	1431.88
420.726	1392.88
420.948	1407.88
421.171	1392.88
421.394	1395.88
421.617	1399.88
421.839	1420.88
422.062	1401.88
422.285	1355.88
422.507	1367.88
422.73	1419.88
422.953	1394.88
423.175	1399.88
423.398	1390.88
423.621	1374.88
423.843	1434.88
424.066	1404.88
424.288	1410.88
424.511	1425.88
424.733	1439.88
424.956	1418.88
425.178	1415.88
425.401	1424.88
425.623	1408.88
425.846	1386.88
426.068	1410.88
426.291	1379.88
426.513	1400.88
426.735	1383.88
426.958	1406.88
427.18	1412.88
427.402	1386.88
427.625	1387.88
427.847	1369.88
428.069	1369.88
428.292	1386.88
428.514	1365.88
428.736	1406.88
428.958	1418.88
429.181	1388.88
429.403	1400.88
429.625	1364.88
429.847	1349.88
430.069	1375.88
430.292	1401.88
430.514	1351.88
430.736	1394.88
430.958	1391.88
431.18	1402.88
431.402	1371.88
431.624	1362.88
431.846	1388.88
432.068	1350.88
432.29	1402.88
432.512	1382.88
432.734	1410.88
432.956	1390.88
433.178	1406.88
433.4	1448.88
433.622	1433.88
433.844	1445.88
434.066	1430.88
434.287	1426.88
434.509	1380.88
434.731	1420.88
434.953	1444.88
435.175	1440.88
435.397	1479.88
435.618	1436.88
435.84	1396.88
436.062	1393.88
436.284	1431.88
436.505	1413.88
436.727	1391.88
436.949	1436.88
437.17	1424.88
437.392	1411.88
437.614	1381.88
437.835	1340.88
438.057	1410.88
438.278	1374.88
438.5	1366.88
438.721	1376.88
438.943	1383.88
439.165	1345.88
439.386	1387.88
439.608	1396.88
439.829	1380.88
440.05	1377.88
440.272	1393.88
440.493	1410.88
440.715	1456.88
440.936	1405.88
441.158	1370.88
441.379	1390.88
441.6	1439.88
441.822	1428.88
442.043	1441.88
442.264	1415.88
442.486	1439.88
442.707	1424.88
442.928	1385.88
443.149	1435.88
443.371	1452.88
443.592	1503.88
443.813	1490.88
444.034	1398.88
444.255	1430.88
444.476	1507.88
444.698	1493.88
444.919	1544.88
445.14	1568.88
445.361	1521.88
445.582	1454.88
445.803	1412.88
446.024	1397.88
446.245	1416.88
446.466	1393.88
446.687	1358.88
446.908	1385.88
447.129	1333.88
447.35	1363.88
447.571	1342.88
447.792	1319.88
448.013	1341.88
448.234	1311.88
448.455	1332.88
448.675	1303.88
448.896	1299.88
449.117	1305.88
449.338	1289.88
449.559	1257.88
449.779	1317.88
450	1278.88
450.221	1289.88
450.442	1297.88
450.662	1284.88
450.883	1326.88
451.104	1340.88
451.324	1290.88
451.545	1342.88
451.766	1257.88
451.986	1257.88
452.207	1287.88
452.428	1262.88
452.648	1281.88
452.869	1244.88
453.089	1290.88
453.31	1300.88
453.53	1294.88
453.751	1274.88
453.971	1280.88
454.192	1299.88
454.412	1292.88
454.633	1293.88
454.853	1298.88
455.073	1267.88
455.294	1296.88
455.514	1286.88
455.734	1309.88
455.955	1339.88
456.175	1283.88
456.395	1272.88
456.616	1264.88
456.836	1241.88
457.056	1270.88
457.276	1258.88
457.497	1293.88
457.717	1305.88
457.937	1304.88
458.157	1265.88
458.377	1292.88
458.598	1300.88
458.818	1292.88
459.038	1282.88
459.258	1339.88
459.478	1401.88
459.698	1510.88
459.918	1468.88
460.138	1445.88
460.358	1439.88
460.578	1442.88
460.798	1492.88
461.018	1490.88
461.238	1439.88
461.458	1425.88
461.678	1422.88
461.898	1428.88
462.118	1417.88
462.338	1478.88
462.558	1502.88
462.777	1527.88
462.997	1560.88
463.217	1546.88
463.437	1600.88
463.657	1602.88
463.876	1520.88
464.096	1539.88
464.316	1522.88
464.536	1509.88
464.755	1498.88
464.975	1410.88
465.195	1431.88
465.414	1423.88
465.634	1416.88
465.854	1403.88
466.073	1379.88
466.293	1376.88
466.512	1357.88
466.732	1350.88
466.951	1372.88
467.171	1358.88
467.391	1361.88
467.61	1350.88
467.829	1337.88
468.049	1392.88
468.268	1305.88
468.488	1346.88
468.707	1363.88
468.927	1371.88
469.146	1383.88
469.365	1402.88
469.585	1376.88
469.804	1350.88
470.023	1334.88
470.243	1353.88
470.462	1359.88
470.681	1340.88
470.901	1358.88
471.12	1334.88
471.339	1369.88
471.558	1388.88
471.777	1400.88
471.997	1396.88
472.216	1355.88
472.435	1341.88
472.654	1327.88
472.873	1320.88
473.092	1404.88
473.311	1376.88
473.53	1397.88
473.749	1394.88
473.968	1355.88
474.187	1352.88
474.406	1357.88
474.625	1390.88
474.844	1404.88
475.063	1432.88
475.282	1422.88
475.501	1439.88
475.72	1425.88
475.939	1394.88
476.158	1418.88
476.377	1446.88
476.596	1416.88
476.814	1476.88
477.033	1467.88
477.252	1506.88
477.471	1474.88
477.69	1523.88
477.908	1526.88
478.127	1543.88
478.346	1550.88
478.564	1552.88
478.783	1570.88
479.002	1658.88
479.22	1645.88
479.439	1635.88
479.658	1582.88
479.876	1582.88
480.095	1559.88
480.313	1598.88
480.532	1615.88
480.751	1602.88
480.969	1641.88
481.188	1593.88
481.406	1624.88
481.624	1612.88
481.843	1629.88
482.061	1622.88
482.28	1616.88
482.498	1588.88
482.717	1612.88
482.935	1658.88
483.153	1674.88
483.372	1685.88
483.59	1760.88
483.808	1660.88
484.027	1651.88
484.245	1656.88
484.463	1624.88
484.681	1689.88
484.9	1654.88
485.118	1711.88
485.336	1654.88
485.554	1658.88
485.772	1707.88
485.99	1684.88
486.209	1692.88
486.427	1653.88
486.645	1677.88
486.863	1672.88
487.081	1701.88
487.299	1673.88
487.517	1642.88
487.735	1720.88
487.953	1714.88
488.171	1714.88
488.389	1702.88
488.607	1678.88
488.825	1705.88
489.043	1648.88
489.261	1666.88
489.479	1688.88
489.696	1699.88
489.914	1703.88
490.132	1699.88
490.35	1721.88
490.568	1694.88
490.786	1710.88
491.003	1697.88
491.221	1731.88
491.439	1715.88
491.657	1713.88
491.874	1736.88
492.092	1764.88
492.31	1762.88
492.527	1774.88
492.745	1767.88
492.963	1730.88
493.18	1743.88
493.398	1726.88
493.615	1750.88
493.833	1774.88
494.05	1787.88
494.268	1719.88
494.485	1794.88
494.703	1788.88
494.92	1785.88
495.138	1799.88
495.355	1790.88
495.573	1794.88
495.79	1795.88
496.008	1819.88
496.225	1751.88
496.442	1783.88
496.66	1792.88
496.877	1832.88
497.094	1824.88
497.312	1870.88
497.529	1840.88
497.746	1877.88
497.963	1889.88
498.181	1918.88
498.398	1908.88
498.615	1932.88
498.832	1995.88
499.049	2009.88
499.267	2025.88
499.484	2116.88
499.701	2154.88
499.918	2186.88
500.135	2225.88
500.352	2288.88
500.569	2289.88
500.786	2288.88
501.003	2251.88
501.22	2217.88
501.437	2167.88
501.654	2121.88
501.871	2080.88
502.088	2112.88
502.305	2073.88
502.522	2009.88
502.739	1955.88
502.956	1899.88
503.172	1881.88
503.389	1892.88
503.606	1844.88
503.823	1844.88
504.04	1786.88
504.256	1823.88
504.473	1769.88
504.69	1742.88
504.907	1750.88
505.123	1746.88
505.34	1698.88
505.557	1684.88
505.773	1620.88
505.99	1655.88
506.207	1642.88
506.423	1639.88
506.64	1626.88
506.856	1607.88
507.073	1572.88
507.289	1584.88
507.506	1561.88
507.722	1573.88
507.939	1564.88
508.155	1565.88
508.372	1588.88
508.588	1518.88
508.805	1502.88
509.021	1512.88
509.238	1510.88
509.454	1514.88
509.67	1509.88
509.887	1462.88
510.103	1476.88
510.319	1489.88
510.536	1457.88
510.752	1417.88
510.968	1420.88
511.184	1466.88
511.401	1466.88
511.617	1430.88
511.833	1461.88
512.049	1463.88
512.265	1483.88
512.481	1433.88
512.698	1461.88
512.914	1427.88
513.13	1440.88
513.346	1450.88
513.562	1425.88
513.778	1398.88
513.994	1438.88
514.21	1434.88
514.426	1445.88
514.642	1420.88
514.858	1427.88
515.074	1387.88
515.29	1476.88
515.506	1439.88
515.721	1462.88
515.937	1460.88
516.153	1457.88
516.369	1472.88
516.585	1448.88
516.801	1449.88
517.016	1444.88
517.232	1495.88
517.448	1469.88
517.664	1460.88
517.879	1468.88
518.095	1483.88
518.311	1461.88
518.527	1450.88
518.742	1441.88
518.958	1418.88
519.173	1419.88
519.389	1443.88
519.605	1393.88
519.82	1432.88
520.036	1397.88
520.251	1433.88
520.467	1396.88
520.682	1346.88
520.898	1377.88
521.113	1355.88
521.329	1349.88
521.544	1351.88
521.76	1364.88
521.975	1353.88
522.19	1357.88
522.406	1310.88
522.621	1311.88
522.836	1364.88
523.052	1347.88
523.267	1309.88
523.482	1313.88
523.698	1326.88
523.913	1298.88
524.128	1312.88
524.343	1331.88
524.559	1311.88
524.774	1313.88
524.989	1324.88
525.204	1298.88
525.419	1302.88
525.634	1297.88
525.849	1303.88
526.064	1301.88
526.28	1292.88
526.495	1241.88
526.71	1278.88
526.925	1248.88
527.14	1237.88
527.355	1256.88
527.57	1249.88
527.785	1288.88
527.999	1239.88
528.214	1282.88
528.429	1247.88
528.644	1243.88
528.859	1237.88
529.074	1284.88
529.289	1293.88
529.503	1253.88
529.718	1289.88
529.933	1249.88
530.148	1230.88
530.363	1251.88
530.577	1245.88
530.792	1234.88
531.007	1225.88
531.221	1256.88
531.436	1215.88
531.651	1213.88
531.865	1205.88
532.08	1214.88
532.295	1230.88
532.509	1216.88
532.724	1233.88
532.938	1213.88
533.153	1238.88
533.367	1248.88
533.582	1217.88
533.796	1221.88
534.011	1205.88
534.225	1211.88
534.44	1179.88
534.654	1167.88
534.868	1198.88
535.083	1176.88
535.297	1191.88
535.511	1157.88
535.726	1153.88
535.94	1178.88
536.154	1181.88
536.369	1148.88
536.583	1164.88
536.797	1151.88
537.011	1134.88
537.225	1172.88
537.44	1152.88
537.654	1132.88
537.868	1132.88
538.082	1136.88
538.296	1126.88
538.51	1130.88
538.724	1148.88
538.938	1130.88
539.153	1129.88
539.367	1129.88
539.581	1122.88
539.795	1111.88
540.009	1110.88
540.222	1119.88
540.436	1105.88
540.65	1115.88
540.864	1125.88
541.078	1122.88
541.292	1102.88
541.506	1107.88
541.72	1122.88
541.934	1124.88
542.147	1119.88
542.361	1112.88
542.575	1113.88
542.789	1102.88
543.002	1107.88
543.216	1089.88
543.43	1114.88
543.644	1096.88
543.857	1086.88
544.071	1110.88
544.285	1111.88
544.498	1086.88
544.712	1090.88
544.925	1083.88
545.139	1081.88
545.352	1078.88
545.566	1075.88
545.779	1114.88
545.993	1066.88
546.206	1124.88
546.42	1096.88
546.633	1080.88
546.847	1109.88
547.06	1077.88
547.274	1053.88
547.487	1105.88
547.7	1079.88
547.914	1123.88
548.127	1073.88
548.34	1072.88
548.554	1043.88
548.767	1075.88
548.98	1089.88
549.193	1044.88
549.407	1054.88
549.62	1048.88
549.833	1040.88
550.046	1084.88
550.259	1049.88
550.473	1034.88
550.686	1050.88
550.899	1055.88
551.112	1058.88
551.325	1023.88
551.538	1010.88
551.751	1034.88
551.964	1020.88
552.177	1051.88
552.39	1054.88
552.603	1038.88
552.816	1023.88
553.029	1037.88
553.242	1037.88
553.455	1040.88
553.667	1059.88
553.88	1012.88
554.093	1029.88
554.306	1010.88
554.519	1000.88
554.732	1036.88
554.944	987.88
555.157	993.88
555.37	1001.88
555.583	977.88
555.795	978.88
556.008	985.88
556.221	979.88
556.433	934.88
556.646	926.88
556.859	962.88
557.071	920.88
557.284	975.88
557.496	947.88
557.709	906.88
557.921	927.88
558.134	955.88
558.346	948.88
558.559	947.88
558.771	935.88
558.984	917.88
559.196	912.88
559.409	921.88
559.621	907.88
559.833	915.88
560.046	902.88
560.258	892.88
560.47	915.88
560.683	927.88
560.895	892.88
561.107	916.88
561.32	881.88
561.532	905.88
561.744	911.88
561.956	897.88
562.168	912.88
562.381	888.88
562.593	887.88
562.805	886.88
563.017	882.88
563.229	887.88
563.441	892.88
563.653	895.88
563.865	887.88
564.077	905.88
564.289	921.88
564.501	909.88
564.713	930.88
564.925	915.88
565.137	909.88
565.349	931.88
565.561	968.88
565.773	915.88
565.985	944.88
566.197	927.88
566.408	955.88
566.62	979.88
566.832	950.88
567.044	980.88
567.255	962.88
567.467	967.88
567.679	953.88
567.891	951.88
568.102	954.88
568.314	918.88
568.526	922.88
568.737	912.88
568.949	883.88
569.161	862.88
569.372	870.88
569.584	887.88
569.795	853.88
570.007	802.88
570.218	836.88
570.43	815.88
570.641	832.88
570.853	839.88
571.064	805.88
571.276	805.88
571.487	796.88
571.698	775.88
571.91	778.88
572.121	768.88
572.333	755.88
572.544	751.88
572.755	729.88
572.966	734.88
573.178	746.88
573.389	714.88
573.6	731.88
573.811	713.88
574.023	736.88
574.234	699.88
574.445	703.88
574.656	728.88
574.867	721.88
575.078	705.88
575.289	712.88
575.501	680.88
575.712	679.88
575.923	705.88
576.134	694.88
576.345	676.88
576.556	683.88
576.767	667.88
576.978	679.88
577.188	675.88
577.399	666.88
577.61	668.88
577.821	663.88
578.032	651.88
578.243	674.88
578.454	650.88
578.665	658.88
578.875	639.88
579.086	650.88
579.297	642.88
579.508	658.88
579.718	639.88
579.929	632.88
580.14	640.88
580.35	639.88
580.561	639.88
580.772	633.88
580.982	648.88
581.193	665.88
581.403	636.88
581.614	645.88
581.825	612.88
582.035	624.88
582.246	588.88
582.456	606.88
582.667	614.88
582.877	594.88
583.087	605.88
583.298	580.88
583.508	607.88
583.719	583.88
583.929	594.88
584.139	599.88
584.35	604.88
584.56	612.88
584.77	600.88
584.981	570.88
585.191	570.88
585.401	574.88
585.611	591.88
585.821	597.88
586.032	570.88
586.242	555.88
586.452	568.88
586.662	566.88
586.872	571.88
587.082	578.88
587.292	574.88
587.502	575.88
587.713	591.88
587.923	546.88
588.133	566.88
588.343	578.88
588.553	555.88
588.762	574.88
588.972	571.88
589.182	620.88
589.392	608.88
589.602	562.88
589.812	596.88
590.022	590.88
590.232	567.88
590.441	550.88
590.651	562.88
590.861	558.88
591.071	560.88
591.281	578.88
591.49	565.88
591.7	569.88
591.91	555.88
592.119	551.88
592.329	571.88
592.539	564.88
592.748	550.88
592.958	569.88
593.167	575.88
593.377	539.88
593.587	564.88
593.796	555.88
594.006	547.88
594.215	555.88
594.424	550.88
594.634	531.88
594.843	534.88
595.053	568.88
595.262	530.88
595.472	524.88
595.681	540.88
595.89	527.88
596.1	522.88
596.309	508.88
596.518	513.88
596.727	497.88
596.937	496.88
597.146	503.88
597.355	511.88
597.564	495.88
597.774	496.88
597.983	490.88
598.192	468.88
598.401	474.88
598.61	484.88
598.819	490.88
599.028	492.88
599.237	470.88
599.446	464.88
599.655	478.88
599.864	480.88
600.073	478.88
600.282	480.88
600.491	484.88
600.7	472.88
600.909	459.88
601.118	465.88
601.327	449.88
601.536	458.88
601.745	440.88
601.953	473.88
602.162	452.88
602.371	458.88
602.58	458.88
602.789	467.88
602.997	442.88
603.206	456.88
603.415	454.88
603.623	448.88
603.832	426.88
604.041	453.88
604.249	435.88
604.458	438.88
604.666	452.88
604.875	424.88
605.084	436.88
605.292	448.88
605.501	425.88
605.709	436.88
605.918	454.88
606.126	426.88
606.334	444.88
606.543	427.88
606.751	419.88
606.96	450.88
607.168	447.88
607.376	421.88
607.585	432.88
607.793	437.88
608.001	421.88
608.21	425.88
608.418	411.88
608.626	403.88
608.834	419.88
609.043	433.88
609.251	404.88
609.459	400.88
609.667	425.88
609.875	410.88
610.083	410.88
610.291	404.88
610.499	411.88
610.707	408.88
610.916	419.88
611.124	424.88
611.332	405.88
611.54	406.88
611.748	419.88
611.955	397.88
612.163	392.88
612.371	415.88
612.579	403.88
612.787	407.88
612.995	418.88
613.203	414.88
613.411	387.88
613.618	397.88
613.826	415.88
614.034	389.88
614.242	408.88
614.449	390.88
614.657	404.88
614.865	384.88
615.072	395.88
615.28	402.88
615.488	405.88
615.695	386.88
615.903	386.88
616.111	400.88
616.318	396.88
616.526	394.88
616.733	394.88
616.941	395.88
617.148	395.88
617.356	389.88
617.563	391.88
617.771	395.88
617.978	392.88
618.185	359.88
618.393	370.88
618.6	382.88
618.807	378.88
619.015	380.88
619.222	396.88
619.429	378.88
619.637	379.88
619.844	374.88
620.051	370.88
620.258	380.88
620.466	359.88
620.673	369.88
620.88	377.88
621.087	367.88
621.294	369.88
621.501	368.88
621.708	371.88
621.915	353.88
622.122	355.88
622.329	368.88
622.536	378.88
622.743	350.88
622.95	359.88
623.157	342.88
623.364	358.88
623.571	341.88
623.778	354.88
623.985	376.88
624.192	366.88
624.399	362.88
624.606	342.88
624.812	341.88
625.019	347.88
625.226	358.88
625.433	363.88
625.639	347.88
625.846	326.88
626.053	358.88
626.259	322.88
626.466	339.88
626.673	322.88
626.879	323.88
627.086	343.88
627.293	327.88
627.499	326.88
627.706	339.88
627.912	321.88
628.119	328.88
628.325	322.88
628.532	322.88
628.738	319.88
628.945	326.88
629.151	307.88
629.357	314.88
629.564	320.88
629.77	315.88
629.976	309.88
630.183	328.88
630.389	326.88
630.595	312.88
630.802	308.88
631.008	320.88
631.214	317.88
631.42	320.88
631.627	318.88
631.833	306.88
632.039	303.88
632.245	297.88
632.451	311.88
632.657	317.88
632.863	313.88
633.069	291.88
633.275	297.88
633.481	294.88
633.688	304.88
633.893	306.88
634.099	318.88
634.305	292.88
634.511	295.88
634.717	286.88
634.923	314.88
635.129	283.88
635.335	294.88
635.541	306.88
635.747	286.88
635.952	289.88
636.158	287.88
636.364	304.88
636.57	293.88
636.775	290.88
636.981	305.88
637.187	296.88
637.392	304.88
637.598	298.88
637.804	270.88
638.009	286.88
638.215	295.88
638.421	293.88
638.626	293.88
638.832	291.88
639.037	269.88
639.243	284.88
639.448	281.88
639.654	294.88
639.859	282.88
640.065	286.88
640.27	290.88
640.475	289.88
640.681	278.88
640.886	284.88
641.091	283.88
641.297	277.88
641.502	282.88
641.707	296.88
641.913	260.88
642.118	276.88
642.323	286.88
642.528	261.88
642.733	277.88
642.939	275.88
643.144	285.88
643.349	269.88
643.554	281.88
643.759	274.88
643.964	275.88
644.169	294.88
644.374	264.88
644.579	268.88
644.784	290.88
644.989	284.88
645.194	277.88
645.399	275.88
645.604	278.88
645.809	275.88
646.014	282.88
646.219	279.88
646.423	284.88
646.628	257.88
646.833	281.88
647.038	266.88
647.243	270.88
647.447	298.88
647.652	283.88
647.857	278.88
648.062	298.88
648.266	279.88
648.471	282.88
648.676	286.88
648.88	286.88
649.085	286.88
649.289	284.88
649.494	284.88
649.698	248.88
649.903	268.88
650.107	242.88
650.312	284.88
650.516	273.88
650.721	265.88
650.925	265.88
651.13	264.88
651.334	268.88
651.539	266.88
651.743	261.88
651.947	270.88
652.152	281.88
652.356	272.88
652.56	252.88
652.764	249.88
652.969	246.88
653.173	240.88
653.377	258.88
653.581	250.88
653.785	243.88
653.99	225.88
654.194	238.88
654.398	256.88
654.602	235.88
654.806	243.88
655.01	242.88
655.214	235.88
655.418	233.88
655.622	233.88
655.826	235.88
656.03	256.88
656.234	235.88
656.438	223.88
656.642	243.88
656.846	231.88
657.049	204.88
657.253	196.88
657.457	204.88
657.661	199.88
657.865	197.88
658.068	188.88
658.272	172.88
658.476	175.88
658.68	151.88
658.883	147.88
659.087	153.88
659.291	160.88
659.494	144.88
659.698	121.88
659.901	138.88
660.105	137.88
660.309	116.88
660.512	128.88
660.716	116.88
660.919	113.88
661.123	127.88
661.326	122.88
661.53	106.88
661.733	102.88
661.936	97.88
662.14	103.88
662.343	94.88
662.546	96.88
662.75	84.88
662.953	102.88
663.156	90.88
663.36	83.88
663.563	84.88
663.766	91.88
663.969	84.88
664.173	83.88
664.376	72.88
664.579	69.88
664.782	80.88
664.985	95.88
665.188	90.88
665.391	86.88
665.594	75.88
665.797	85.88
666	80.88
666.203	73.88
666.406	84.88
666.609	82.88
666.812	83.88
667.015	82.88
667.218	82.88
667.421	73.88
667.624	83.88
667.827	86.88
668.03	64.88
668.232	75.88
668.435	75.88
668.638	81.88
668.841	76.88
669.043	94.88
669.246	87.88
669.449	68.88
669.651	79.88
669.854	80.88
670.057	78.88
670.259	82.88
670.462	79.88
670.665	62.88
670.867	80.88
671.07	87.88
671.272	77.88
671.475	88.88
671.677	72.88
671.88	76.88
672.082	79.88
672.284	86.88
672.487	87.88
672.689	78.88
672.892	74.88
