Data from Ni(NO3)2@0.125M.TitratingCurve.Agarose3%dH2O.NegLispCup.LampEnergy10.LIBS07252019_HRD10591_18-09-42-567.txt Node
Date: Thu Jul 25 18:09:42 EDT 2019
User: cochatt
Spectrometer: HR+D1059
Trigger mode: 1
Integration Time (sec): 1.000000E-1
Scans to average: 1
Electric dark correction enabled: true
Nonlinearity correction enabled: false
Boxcar width: 0
XAxis mode: Wavelengths
Number of Pixels in Spectrum: 2048
>>>>>Begin Spectral Data<<<<<
223.165	-20.06
223.4	-20.06
223.635	-20.06
223.869	-25.06
224.104	-12.06
224.338	-23.06
224.573	1.94
224.808	-24.06
225.042	-3.06
225.277	-4.06
225.511	-1.06
225.746	2.94
225.98	6.94
226.215	3.94
226.449	7.94
226.683	24.94
226.918	30.94
227.152	32.94
227.387	27.94
227.621	29.94
227.856	46.94
228.09	52.94
228.324	46.94
228.559	53.94
228.793	63.94
229.027	81.94
229.262	89.94
229.496	94.94
229.73	97.94
229.964	83.94
230.199	95.94
230.433	113.94
230.667	113.94
230.901	112.94
231.136	98.94
231.37	110.94
231.604	116.94
231.838	112.94
232.072	118.94
232.306	134.94
232.541	114.94
232.775	116.94
233.009	126.94
233.243	126.94
233.477	122.94
233.711	119.94
233.945	120.94
234.179	123.94
234.413	122.94
234.647	135.94
234.881	132.94
235.115	124.94
235.349	129.94
235.583	134.94
235.817	113.94
236.051	130.94
236.285	115.94
236.519	118.94
236.753	127.94
236.987	133.94
237.221	130.94
237.455	127.94
237.689	130.94
237.922	110.94
238.156	123.94
238.39	127.94
238.624	120.94
238.858	132.94
239.091	142.94
239.325	141.94
239.559	132.94
239.793	140.94
240.027	131.94
240.26	152.94
240.494	137.94
240.728	130.94
240.961	139.94
241.195	131.94
241.429	139.94
241.662	139.94
241.896	134.94
242.13	150.94
242.363	139.94
242.597	139.94
242.83	147.94
243.064	142.94
243.298	155.94
243.531	152.94
243.765	151.94
243.998	149.94
244.232	148.94
244.465	143.94
244.699	160.94
244.932	159.94
245.166	153.94
245.399	159.94
245.633	163.94
245.866	160.94
246.099	152.94
246.333	149.94
246.566	159.94
246.8	179.94
247.033	164.94
247.266	175.94
247.5	178.94
247.733	182.94
247.966	170.94
248.2	176.94
248.433	189.94
248.666	179.94
248.899	172.94
249.133	183.94
249.366	189.94
249.599	192.94
249.832	183.94
250.066	181.94
250.299	185.94
250.532	183.94
250.765	193.94
250.998	194.94
251.231	205.94
251.465	194.94
251.698	200.94
251.931	200.94
252.164	202.94
252.397	184.94
252.63	194.94
252.863	203.94
253.096	203.94
253.329	220.94
253.562	197.94
253.795	187.94
254.028	201.94
254.261	204.94
254.494	208.94
254.727	219.94
254.96	207.94
255.193	201.94
255.426	187.94
255.659	212.94
255.892	205.94
256.124	214.94
256.357	208.94
256.59	208.94
256.823	209.94
257.056	210.94
257.289	219.94
257.521	220.94
257.754	226.94
257.987	218.94
258.22	212.94
258.452	234.94
258.685	231.94
258.918	233.94
259.151	207.94
259.383	209.94
259.616	227.94
259.849	250.94
260.081	250.94
260.314	236.94
260.547	250.94
260.779	230.94
261.012	234.94
261.244	208.94
261.477	232.94
261.71	247.94
261.942	242.94
262.175	234.94
262.407	223.94
262.64	237.94
262.872	238.94
263.105	246.94
263.337	246.94
263.57	248.94
263.802	247.94
264.035	237.94
264.267	255.94
264.499	255.94
264.732	257.94
264.964	257.94
265.197	248.94
265.429	226.94
265.661	262.94
265.894	246.94
266.126	256.94
266.358	265.94
266.591	261.94
266.823	256.94
267.055	267.94
267.287	260.94
267.52	249.94
267.752	274.94
267.984	268.94
268.216	264.94
268.448	293.94
268.681	273.94
268.913	291.94
269.145	270.94
269.377	267.94
269.609	272.94
269.841	269.94
270.073	262.94
270.306	273.94
270.538	289.94
270.77	263.94
271.002	264.94
271.234	272.94
271.466	284.94
271.698	287.94
271.93	283.94
272.162	277.94
272.394	278.94
272.626	266.94
272.858	274.94
273.09	281.94
273.322	280.94
273.553	280.94
273.785	276.94
274.017	290.94
274.249	290.94
274.481	290.94
274.713	294.94
274.945	278.94
275.176	296.94
275.408	296.94
275.64	290.94
275.872	286.94
276.104	315.94
276.335	293.94
276.567	283.94
276.799	292.94
277.031	304.94
277.262	304.94
277.494	295.94
277.726	302.94
277.957	299.94
278.189	306.94
278.421	295.94
278.652	311.94
278.884	308.94
279.115	312.94
279.347	309.94
279.579	327.94
279.81	306.94
280.042	319.94
280.273	318.94
280.505	318.94
280.736	323.94
280.968	306.94
281.199	304.94
281.431	316.94
281.662	310.94
281.894	316.94
282.125	340.94
282.356	340.94
282.588	340.94
282.819	319.94
283.051	327.94
283.282	335.94
283.513	352.94
283.745	343.94
283.976	331.94
284.207	343.94
284.439	344.94
284.67	348.94
284.901	352.94
285.132	349.94
285.364	341.94
285.595	355.94
285.826	335.94
286.057	343.94
286.288	354.94
286.52	350.94
286.751	343.94
286.982	349.94
287.213	352.94
287.444	345.94
287.675	357.94
287.906	355.94
288.138	364.94
288.369	367.94
288.6	358.94
288.831	368.94
289.062	362.94
289.293	370.94
289.524	354.94
289.755	370.94
289.986	372.94
290.217	374.94
290.448	358.94
290.679	369.94
290.91	363.94
291.141	358.94
291.371	371.94
291.602	360.94
291.833	373.94
292.064	362.94
292.295	369.94
292.526	359.94
292.757	374.94
292.987	370.94
293.218	372.94
293.449	368.94
293.68	387.94
293.91	375.94
294.141	353.94
294.372	357.94
294.603	364.94
294.833	392.94
295.064	377.94
295.295	366.94
295.525	353.94
295.756	394.94
295.987	363.94
296.217	400.94
296.448	394.94
296.679	376.94
296.909	388.94
297.14	390.94
297.37	405.94
297.601	414.94
297.831	392.94
298.062	395.94
298.292	420.94
298.523	422.94
298.753	402.94
298.984	414.94
299.214	414.94
299.445	387.94
299.675	390.94
299.905	422.94
300.136	401.94
300.366	409.94
300.597	421.94
300.827	417.94
301.057	401.94
301.288	421.94
301.518	410.94
301.748	414.94
301.979	436.94
302.209	421.94
302.439	418.94
302.669	420.94
302.9	418.94
303.13	414.94
303.36	424.94
303.59	401.94
303.82	396.94
304.051	412.94
304.281	409.94
304.511	409.94
304.741	403.94
304.971	432.94
305.201	410.94
305.431	404.94
305.661	424.94
305.891	417.94
306.121	413.94
306.352	420.94
306.582	406.94
306.812	421.94
307.042	404.94
307.272	396.94
307.502	411.94
307.731	385.94
307.961	424.94
308.191	396.94
308.421	418.94
308.651	402.94
308.881	407.94
309.111	394.94
309.341	407.94
309.571	422.94
309.8	406.94
310.03	412.94
310.26	410.94
310.49	395.94
310.72	402.94
310.949	432.94
311.179	402.94
311.409	402.94
311.639	435.94
311.868	411.94
312.098	417.94
312.328	414.94
312.557	415.94
312.787	438.94
313.017	437.94
313.246	426.94
313.476	406.94
313.706	444.94
313.935	438.94
314.165	427.94
314.394	440.94
314.624	436.94
314.853	440.94
315.083	414.94
315.312	429.94
315.542	430.94
315.771	416.94
316.001	442.94
316.23	438.94
316.46	436.94
316.689	421.94
316.919	423.94
317.148	443.94
317.377	435.94
317.607	427.94
317.836	412.94
318.065	409.94
318.295	423.94
318.524	410.94
318.753	425.94
318.983	437.94
319.212	442.94
319.441	408.94
319.67	420.94
319.9	420.94
320.129	426.94
320.358	447.94
320.587	448.94
320.816	449.94
321.046	428.94
321.275	456.94
321.504	448.94
321.733	444.94
321.962	422.94
322.191	432.94
322.42	436.94
322.649	428.94
322.878	436.94
323.108	434.94
323.337	455.94
323.566	432.94
323.795	450.94
324.024	449.94
324.253	457.94
324.482	455.94
324.71	436.94
324.939	449.94
325.168	473.94
325.397	466.94
325.626	456.94
325.855	460.94
326.084	460.94
326.313	485.94
326.542	485.94
326.77	497.94
326.999	473.94
327.228	484.94
327.457	452.94
327.686	464.94
327.914	470.94
328.143	479.94
328.372	465.94
328.6	471.94
328.829	491.94
329.058	492.94
329.287	488.94
329.515	477.94
329.744	483.94
329.972	486.94
330.201	491.94
330.43	478.94
330.658	458.94
330.887	498.94
331.115	506.94
331.344	512.94
331.572	508.94
331.801	517.94
332.03	530.94
332.258	540.94
332.486	555.94
332.715	564.94
332.943	601.94
333.172	622.94
333.4	658.94
333.629	685.94
333.857	661.94
334.085	667.94
334.314	654.94
334.542	646.94
334.771	614.94
334.999	602.94
335.227	635.94
335.455	606.94
335.684	610.94
335.912	599.94
336.14	588.94
336.369	576.94
336.597	567.94
336.825	571.94
337.053	576.94
337.281	579.94
337.51	575.94
337.738	559.94
337.966	556.94
338.194	537.94
338.422	535.94
338.65	539.94
338.878	554.94
339.106	524.94
339.334	536.94
339.562	531.94
339.79	502.94
340.018	483.94
340.246	510.94
340.474	500.94
340.702	516.94
340.93	515.94
341.158	527.94
341.386	501.94
341.614	504.94
341.842	494.94
342.07	502.94
342.298	531.94
342.526	514.94
342.754	494.94
342.981	518.94
343.209	516.94
343.437	547.94
343.665	577.94
343.893	611.94
344.12	640.94
344.348	634.94
344.576	562.94
344.804	546.94
345.031	534.94
345.259	531.94
345.487	507.94
345.714	504.94
345.942	508.94
346.17	516.94
346.397	506.94
346.625	516.94
346.853	481.94
347.08	510.94
347.308	489.94
347.535	508.94
347.763	495.94
347.99	498.94
348.218	516.94
348.445	501.94
348.673	498.94
348.9	497.94
349.128	497.94
349.355	474.94
349.583	477.94
349.81	489.94
350.037	478.94
350.265	489.94
350.492	482.94
350.72	496.94
350.947	473.94
351.174	496.94
351.402	484.94
351.629	508.94
351.856	487.94
352.083	475.94
352.311	500.94
352.538	491.94
352.765	500.94
352.992	464.94
353.22	479.94
353.447	465.94
353.674	492.94
353.901	481.94
354.128	476.94
354.355	475.94
354.583	479.94
354.81	491.94
355.037	491.94
355.264	503.94
355.491	478.94
355.718	488.94
355.945	487.94
356.172	485.94
356.399	499.94
356.626	486.94
356.853	474.94
357.08	469.94
357.307	478.94
357.534	508.94
357.761	472.94
357.988	504.94
358.215	464.94
358.441	466.94
358.668	472.94
358.895	463.94
359.122	503.94
359.349	487.94
359.576	478.94
359.802	489.94
360.029	471.94
360.256	473.94
360.483	478.94
360.709	473.94
360.936	474.94
361.163	478.94
361.39	483.94
361.616	481.94
361.843	472.94
362.07	487.94
362.296	453.94
362.523	468.94
362.749	498.94
362.976	475.94
363.203	474.94
363.429	471.94
363.656	479.94
363.882	458.94
364.109	459.94
364.335	463.94
364.562	481.94
364.788	476.94
365.015	491.94
365.241	478.94
365.468	468.94
365.694	472.94
365.92	492.94
366.147	470.94
366.373	474.94
366.599	464.94
366.826	473.94
367.052	491.94
367.278	470.94
367.505	479.94
367.731	482.94
367.957	484.94
368.184	471.94
368.41	474.94
368.636	489.94
368.862	494.94
369.089	488.94
369.315	491.94
369.541	496.94
369.767	491.94
369.993	497.94
370.219	515.94
370.445	504.94
370.672	502.94
370.898	510.94
371.124	512.94
371.35	512.94
371.576	518.94
371.802	524.94
372.028	524.94
372.254	504.94
372.48	523.94
372.706	527.94
372.932	535.94
373.158	530.94
373.384	535.94
373.61	504.94
373.835	513.94
374.061	522.94
374.287	515.94
374.513	540.94
374.739	551.94
374.965	580.94
375.191	576.94
375.416	571.94
375.642	567.94
375.868	573.94
376.094	532.94
376.319	521.94
376.545	523.94
376.771	528.94
376.997	530.94
377.222	539.94
377.448	518.94
377.674	529.94
377.899	517.94
378.125	513.94
378.35	530.94
378.576	521.94
378.802	503.94
379.027	505.94
379.253	513.94
379.478	496.94
379.704	497.94
379.929	505.94
380.155	509.94
380.38	502.94
380.606	514.94
380.831	507.94
381.057	516.94
381.282	513.94
381.507	522.94
381.733	537.94
381.958	506.94
382.184	538.94
382.409	522.94
382.634	535.94
382.86	551.94
383.085	555.94
383.31	566.94
383.535	580.94
383.761	569.94
383.986	577.94
384.211	604.94
384.436	609.94
384.662	611.94
384.887	631.94
385.112	605.94
385.337	634.94
385.562	634.94
385.787	635.94
386.013	637.94
386.238	639.94
386.463	629.94
386.688	601.94
386.913	607.94
387.138	618.94
387.363	613.94
387.588	609.94
387.813	620.94
388.038	590.94
388.263	602.94
388.488	588.94
388.713	610.94
388.938	606.94
389.163	608.94
389.387	610.94
389.612	614.94
389.837	602.94
390.062	576.94
390.287	608.94
390.512	598.94
390.736	627.94
390.961	610.94
391.186	640.94
391.411	647.94
391.636	657.94
391.86	702.94
392.085	714.94
392.31	679.94
392.534	668.94
392.759	683.94
392.984	663.94
393.208	644.94
393.433	628.94
393.658	659.94
393.882	651.94
394.107	658.94
394.331	662.94
394.556	668.94
394.78	664.94
395.005	665.94
395.229	674.94
395.454	706.94
395.678	719.94
395.903	697.94
396.127	676.94
396.352	658.94
396.576	642.94
396.801	631.94
397.025	654.94
397.249	648.94
397.474	684.94
397.698	650.94
397.922	676.94
398.147	653.94
398.371	686.94
398.595	731.94
398.82	747.94
399.044	788.94
399.268	898.94
399.492	1071.94
399.717	1226.94
399.941	1196.94
400.165	1020.94
400.389	914.94
400.613	828.94
400.837	806.94
401.062	807.94
401.286	749.94
401.51	755.94
401.734	775.94
401.958	761.94
402.182	784.94
402.406	800.94
402.63	806.94
402.854	810.94
403.078	856.94
403.302	873.94
403.526	883.94
403.75	912.94
403.974	934.94
404.198	922.94
404.422	894.94
404.645	870.94
404.869	900.94
405.093	894.94
405.317	870.94
405.541	863.94
405.765	833.94
405.988	842.94
406.212	844.94
406.436	833.94
406.66	883.94
406.883	871.94
407.107	951.94
407.331	972.94
407.555	1016.94
407.778	1027.94
408.002	978.94
408.226	928.94
408.449	921.94
408.673	896.94
408.896	854.94
409.12	889.94
409.344	908.94
409.567	892.94
409.791	899.94
410.014	895.94
410.238	895.94
410.461	864.94
410.685	883.94
410.908	878.94
411.132	809.94
411.355	822.94
411.578	823.94
411.802	794.94
412.025	807.94
412.249	827.94
412.472	844.94
412.695	800.94
412.919	759.94
413.142	771.94
413.365	804.94
413.589	803.94
413.812	739.94
414.035	761.94
414.258	793.94
414.482	798.94
414.705	790.94
414.928	805.94
415.151	804.94
415.374	773.94
415.597	786.94
415.821	775.94
416.044	750.94
416.267	753.94
416.49	760.94
416.713	759.94
416.936	754.94
417.159	800.94
417.382	776.94
417.605	760.94
417.828	787.94
418.051	784.94
418.274	784.94
418.497	790.94
418.72	780.94
418.943	794.94
419.166	860.94
419.389	890.94
419.611	883.94
419.834	859.94
420.057	789.94
420.28	800.94
420.503	763.94
420.726	761.94
420.948	782.94
421.171	788.94
421.394	799.94
421.617	776.94
421.839	794.94
422.062	801.94
422.285	783.94
422.507	827.94
422.73	825.94
422.953	831.94
423.175	850.94
423.398	859.94
423.621	856.94
423.843	831.94
424.066	847.94
424.288	832.94
424.511	842.94
424.733	830.94
424.956	819.94
425.178	773.94
425.401	806.94
425.623	778.94
425.846	773.94
426.068	791.94
426.291	760.94
426.513	731.94
426.735	726.94
426.958	715.94
427.18	725.94
427.402	721.94
427.625	717.94
427.847	717.94
428.069	714.94
428.292	730.94
428.514	715.94
428.736	688.94
428.958	682.94
429.181	690.94
429.403	666.94
429.625	684.94
429.847	682.94
430.069	683.94
430.292	690.94
430.514	664.94
430.736	686.94
430.958	683.94
431.18	668.94
431.402	654.94
431.624	674.94
431.846	697.94
432.068	700.94
432.29	713.94
432.512	694.94
432.734	718.94
432.956	695.94
433.178	704.94
433.4	716.94
433.622	719.94
433.844	715.94
434.066	726.94
434.287	712.94
434.509	750.94
434.731	786.94
434.953	785.94
435.175	809.94
435.397	785.94
435.618	777.94
435.84	746.94
436.062	728.94
436.284	700.94
436.505	716.94
436.727	723.94
436.949	714.94
437.17	714.94
437.392	705.94
437.614	714.94
437.835	678.94
438.057	682.94
438.278	689.94
438.5	682.94
438.721	672.94
438.943	706.94
439.165	674.94
439.386	694.94
439.608	729.94
439.829	724.94
440.05	712.94
440.272	722.94
440.493	735.94
440.715	762.94
440.936	742.94
441.158	750.94
441.379	783.94
441.6	798.94
441.822	819.94
442.043	810.94
442.264	797.94
442.486	816.94
442.707	790.94
442.928	802.94
443.149	820.94
443.371	816.94
443.592	816.94
443.813	788.94
444.034	816.94
444.255	830.94
444.476	874.94
444.698	950.94
444.919	996.94
445.14	1058.94
445.361	914.94
445.582	823.94
445.803	791.94
446.024	757.94
446.245	752.94
446.466	748.94
446.687	734.94
446.908	734.94
447.129	741.94
447.35	730.94
447.571	682.94
447.792	686.94
448.013	659.94
448.234	682.94
448.455	658.94
448.675	664.94
448.896	650.94
449.117	644.94
449.338	663.94
449.559	642.94
449.779	666.94
450	630.94
450.221	681.94
450.442	694.94
450.662	684.94
450.883	678.94
451.104	694.94
451.324	672.94
451.545	686.94
451.766	692.94
451.986	680.94
452.207	688.94
452.428	701.94
452.648	691.94
452.869	651.94
453.089	651.94
453.31	673.94
453.53	665.94
453.751	647.94
453.971	651.94
454.192	632.94
454.412	640.94
454.633	626.94
454.853	627.94
455.073	634.94
455.294	622.94
455.514	623.94
455.734	636.94
455.955	613.94
456.175	598.94
456.395	604.94
456.616	609.94
456.836	622.94
457.056	606.94
457.276	622.94
457.497	617.94
457.717	620.94
457.937	619.94
458.157	631.94
458.377	615.94
458.598	632.94
458.818	652.94
459.038	680.94
459.258	676.94
459.478	712.94
459.698	729.94
459.918	743.94
460.138	834.94
460.358	863.94
460.578	848.94
460.798	871.94
461.018	884.94
461.238	867.94
461.458	843.94
461.678	842.94
461.898	829.94
462.118	855.94
462.338	902.94
462.558	948.94
462.777	948.94
462.997	1065.94
463.217	1192.94
463.437	1185.94
463.657	1078.94
463.876	994.94
464.096	983.94
464.316	1018.94
464.536	990.94
464.755	972.94
464.975	954.94
465.195	895.94
465.414	831.94
465.634	785.94
465.854	765.94
466.073	729.94
466.293	721.94
466.512	715.94
466.732	721.94
466.951	719.94
467.171	691.94
467.391	697.94
467.61	707.94
467.829	690.94
468.049	693.94
468.268	684.94
468.488	659.94
468.707	671.94
468.927	658.94
469.146	663.94
469.365	666.94
469.585	659.94
469.804	698.94
470.023	670.94
470.243	723.94
470.462	739.94
470.681	721.94
470.901	730.94
471.12	701.94
471.339	697.94
471.558	690.94
471.777	689.94
471.997	675.94
472.216	659.94
472.435	664.94
472.654	627.94
472.873	630.94
473.092	645.94
473.311	628.94
473.53	651.94
473.749	632.94
473.968	682.94
474.187	645.94
474.406	640.94
474.625	640.94
474.844	617.94
475.063	656.94
475.282	630.94
475.501	660.94
475.72	653.94
475.939	645.94
476.158	676.94
476.377	676.94
476.596	662.94
476.814	667.94
477.033	695.94
477.252	708.94
477.471	703.94
477.69	736.94
477.908	732.94
478.127	752.94
478.346	778.94
478.564	795.94
478.783	809.94
479.002	815.94
479.22	822.94
479.439	786.94
479.658	807.94
479.876	786.94
480.095	824.94
480.313	866.94
480.532	891.94
480.751	852.94
480.969	814.94
481.188	798.94
481.406	768.94
481.624	760.94
481.843	750.94
482.061	754.94
482.28	732.94
482.498	713.94
482.717	745.94
482.935	748.94
483.153	745.94
483.372	727.94
483.59	757.94
483.808	734.94
484.027	731.94
484.245	717.94
484.463	741.94
484.681	733.94
484.9	781.94
485.118	780.94
485.336	782.94
485.554	786.94
485.772	779.94
485.99	775.94
486.209	783.94
486.427	799.94
486.645	800.94
486.863	806.94
487.081	778.94
487.299	784.94
487.517	797.94
487.735	788.94
487.953	779.94
488.171	795.94
488.389	776.94
488.607	747.94
488.825	759.94
489.043	745.94
489.261	764.94
489.479	766.94
489.696	786.94
489.914	774.94
490.132	772.94
490.35	772.94
490.568	787.94
490.786	780.94
491.003	779.94
491.221	801.94
491.439	786.94
491.657	793.94
491.874	803.94
492.092	799.94
492.31	802.94
492.527	797.94
492.745	813.94
492.963	790.94
493.18	816.94
493.398	823.94
493.615	836.94
493.833	840.94
494.05	838.94
494.268	833.94
494.485	841.94
494.703	847.94
494.92	833.94
495.138	828.94
495.355	820.94
495.573	842.94
495.79	843.94
496.008	868.94
496.225	836.94
496.442	827.94
496.66	852.94
496.877	852.94
497.094	867.94
497.312	897.94
497.529	875.94
497.746	900.94
497.963	936.94
498.181	975.94
498.398	1030.94
498.615	1099.94
498.832	1142.94
499.049	1258.94
499.267	1330.94
499.484	1480.94
499.701	1660.94
499.918	1817.94
500.135	2134.94
500.352	2474.94
500.569	2641.94
500.786	2625.94
501.003	2377.94
501.22	2047.94
501.437	1825.94
501.654	1584.94
501.871	1422.94
502.088	1285.94
502.305	1209.94
502.522	1128.94
502.739	1103.94
502.956	1023.94
503.172	1011.94
503.389	959.94
503.606	908.94
503.823	929.94
504.04	915.94
504.256	928.94
504.473	978.94
504.69	978.94
504.907	951.94
505.123	908.94
505.34	843.94
505.557	798.94
505.773	816.94
505.99	799.94
506.207	766.94
506.423	744.94
506.64	748.94
506.856	752.94
507.073	735.94
507.289	734.94
507.506	735.94
507.722	741.94
507.939	714.94
508.155	694.94
508.372	717.94
508.588	690.94
508.805	687.94
509.021	687.94
509.238	713.94
509.454	688.94
509.67	657.94
509.887	692.94
510.103	679.94
510.319	666.94
510.536	683.94
510.752	655.94
510.968	688.94
511.184	686.94
511.401	651.94
511.617	648.94
511.833	656.94
512.049	647.94
512.265	676.94
512.481	664.94
512.698	661.94
512.914	660.94
513.13	660.94
513.346	694.94
513.562	667.94
513.778	659.94
513.994	667.94
514.21	683.94
514.426	685.94
514.642	674.94
514.858	683.94
515.074	705.94
515.29	700.94
515.506	680.94
515.721	708.94
515.937	694.94
516.153	726.94
516.369	777.94
516.585	776.94
516.801	785.94
517.016	859.94
517.232	880.94
517.448	911.94
517.664	962.94
517.879	950.94
518.095	954.94
518.311	915.94
518.527	876.94
518.742	826.94
518.958	792.94
519.173	763.94
519.389	746.94
519.605	752.94
519.82	721.94
520.036	697.94
520.251	704.94
520.467	680.94
520.682	678.94
520.898	665.94
521.113	689.94
521.329	665.94
521.544	646.94
521.76	646.94
521.975	653.94
522.19	641.94
522.406	633.94
522.621	648.94
522.836	642.94
523.052	657.94
523.267	629.94
523.482	636.94
523.698	652.94
523.913	633.94
524.128	630.94
524.343	630.94
524.559	635.94
524.774	633.94
524.989	601.94
525.204	602.94
525.419	623.94
525.634	602.94
525.849	599.94
526.064	615.94
526.28	619.94
526.495	623.94
526.71	625.94
526.925	615.94
527.14	595.94
527.355	626.94
527.57	608.94
527.785	603.94
527.999	599.94
528.214	623.94
528.429	622.94
528.644	628.94
528.859	630.94
529.074	632.94
529.289	632.94
529.503	620.94
529.718	624.94
529.933	632.94
530.148	605.94
530.363	594.94
530.577	623.94
530.792	612.94
531.007	618.94
531.221	616.94
531.436	623.94
531.651	606.94
531.865	632.94
532.08	613.94
532.295	624.94
532.509	602.94
532.724	605.94
532.938	615.94
533.153	633.94
533.367	623.94
533.582	586.94
533.796	612.94
534.011	597.94
534.225	601.94
534.44	608.94
534.654	599.94
534.868	613.94
535.083	599.94
535.297	579.94
535.511	592.94
535.726	603.94
535.94	604.94
536.154	612.94
536.369	580.94
536.583	577.94
536.797	580.94
537.011	588.94
537.225	585.94
537.44	567.94
537.654	587.94
537.868	575.94
538.082	556.94
538.296	564.94
538.51	574.94
538.724	554.94
538.938	554.94
539.153	561.94
539.367	586.94
539.581	577.94
539.795	563.94
540.009	566.94
540.222	568.94
540.436	564.94
540.65	545.94
540.864	549.94
541.078	537.94
541.292	564.94
541.506	528.94
541.72	574.94
541.934	549.94
542.147	564.94
542.361	533.94
542.575	543.94
542.789	544.94
543.002	539.94
543.216	551.94
543.43	519.94
543.644	548.94
543.857	562.94
544.071	526.94
544.285	560.94
544.498	562.94
544.712	563.94
544.925	550.94
545.139	540.94
545.352	580.94
545.566	571.94
545.779	557.94
545.993	601.94
546.206	577.94
546.42	565.94
546.633	564.94
546.847	570.94
547.06	569.94
547.274	552.94
547.487	588.94
547.7	577.94
547.914	586.94
548.127	575.94
548.34	580.94
548.554	585.94
548.767	585.94
548.98	581.94
549.193	574.94
549.407	564.94
549.62	577.94
549.833	588.94
550.046	599.94
550.259	588.94
550.473	571.94
550.686	574.94
550.899	544.94
551.112	559.94
551.325	530.94
551.538	536.94
551.751	560.94
551.964	571.94
552.177	558.94
552.39	555.94
552.603	574.94
552.816	613.94
553.029	620.94
553.242	622.94
553.455	646.94
553.667	644.94
553.88	630.94
554.093	586.94
554.306	607.94
554.519	586.94
554.732	538.94
554.944	576.94
555.157	542.94
555.37	572.94
555.583	543.94
555.795	532.94
556.008	498.94
556.221	523.94
556.433	488.94
556.646	526.94
556.859	503.94
557.071	504.94
557.284	484.94
557.496	494.94
557.709	479.94
557.921	499.94
558.134	499.94
558.346	504.94
558.559	478.94
558.771	490.94
558.984	482.94
559.196	469.94
559.409	466.94
559.621	484.94
559.833	466.94
560.046	502.94
560.258	463.94
560.47	478.94
560.683	455.94
560.895	491.94
561.107	463.94
561.32	461.94
561.532	459.94
561.744	446.94
561.956	477.94
562.168	460.94
562.381	461.94
562.593	451.94
562.805	485.94
563.017	477.94
563.229	453.94
563.441	495.94
563.653	476.94
563.865	474.94
564.077	496.94
564.289	482.94
564.501	489.94
564.713	505.94
564.925	502.94
565.137	508.94
565.349	512.94
565.561	535.94
565.773	542.94
565.985	565.94
566.197	592.94
566.408	622.94
566.62	725.94
566.832	755.94
567.044	756.94
567.255	769.94
567.467	810.94
567.679	855.94
567.891	912.94
568.102	933.94
568.314	865.94
568.526	808.94
568.737	687.94
568.949	650.94
569.161	591.94
569.372	546.94
569.584	539.94
569.795	494.94
570.007	485.94
570.218	473.94
570.43	484.94
570.641	478.94
570.853	461.94
571.064	486.94
571.276	502.94
571.487	483.94
571.698	448.94
571.91	474.94
572.121	438.94
572.333	433.94
572.544	427.94
572.755	401.94
572.966	403.94
573.178	406.94
573.389	403.94
573.6	402.94
573.811	396.94
574.023	392.94
574.234	386.94
574.445	386.94
574.656	408.94
574.867	403.94
575.078	404.94
575.289	370.94
575.501	388.94
575.712	371.94
575.923	374.94
576.134	378.94
576.345	363.94
576.556	360.94
576.767	369.94
576.978	384.94
577.188	368.94
577.399	376.94
577.61	358.94
577.821	353.94
578.032	357.94
578.243	359.94
578.454	367.94
578.665	360.94
578.875	338.94
579.086	332.94
579.297	359.94
579.508	339.94
579.718	351.94
579.929	337.94
580.14	330.94
580.35	328.94
580.561	343.94
580.772	342.94
580.982	335.94
581.193	348.94
581.403	346.94
581.614	330.94
581.825	350.94
582.035	331.94
582.246	327.94
582.456	342.94
582.667	341.94
582.877	320.94
583.087	342.94
583.298	345.94
583.508	327.94
583.719	328.94
583.929	342.94
584.139	314.94
584.35	323.94
584.56	337.94
584.77	310.94
584.981	336.94
585.191	322.94
585.401	322.94
585.611	311.94
585.821	326.94
586.032	308.94
586.242	326.94
586.452	307.94
586.662	340.94
586.872	318.94
587.082	327.94
587.292	307.94
587.502	329.94
587.713	317.94
587.923	323.94
588.133	318.94
588.343	311.94
588.553	322.94
588.762	321.94
588.972	328.94
589.182	322.94
589.392	315.94
589.602	321.94
589.812	317.94
590.022	331.94
590.232	330.94
590.441	311.94
590.651	299.94
590.861	346.94
591.071	315.94
591.281	322.94
591.49	335.94
591.7	322.94
591.91	356.94
592.119	348.94
592.329	356.94
592.539	355.94
592.748	377.94
592.958	384.94
593.167	397.94
593.377	404.94
593.587	409.94
593.796	412.94
594.006	427.94
594.215	420.94
594.424	406.94
594.634	429.94
594.843	385.94
595.053	379.94
595.262	369.94
595.472	342.94
595.681	343.94
595.89	343.94
596.1	318.94
596.309	315.94
596.518	309.94
596.727	295.94
596.937	307.94
597.146	298.94
597.355	302.94
597.564	287.94
597.774	291.94
597.983	289.94
598.192	292.94
598.401	286.94
598.61	267.94
598.819	287.94
599.028	281.94
599.237	295.94
599.446	304.94
599.655	279.94
599.864	285.94
600.073	266.94
600.282	283.94
600.491	262.94
600.7	257.94
600.909	276.94
601.118	275.94
601.327	274.94
601.536	277.94
601.745	291.94
601.953	280.94
602.162	279.94
602.371	243.94
602.58	278.94
602.789	276.94
602.997	287.94
603.206	258.94
603.415	268.94
603.623	258.94
603.832	262.94
604.041	271.94
604.249	274.94
604.458	233.94
604.666	262.94
604.875	260.94
605.084	267.94
605.292	273.94
605.501	258.94
605.709	266.94
605.918	280.94
606.126	254.94
606.334	244.94
606.543	276.94
606.751	268.94
606.96	270.94
607.168	245.94
607.376	248.94
607.585	259.94
607.793	251.94
608.001	250.94
608.21	251.94
608.418	251.94
608.626	248.94
608.834	240.94
609.043	263.94
609.251	250.94
609.459	238.94
609.667	241.94
609.875	242.94
610.083	247.94
610.291	248.94
610.499	231.94
610.707	237.94
610.916	238.94
611.124	247.94
611.332	232.94
611.54	236.94
611.748	251.94
611.955	257.94
612.163	231.94
612.371	266.94
612.579	239.94
612.787	233.94
612.995	252.94
613.203	240.94
613.411	247.94
613.618	249.94
613.826	242.94
614.034	238.94
614.242	255.94
614.449	235.94
614.657	248.94
614.865	252.94
615.072	246.94
615.28	233.94
615.488	254.94
615.695	247.94
615.903	248.94
616.111	243.94
616.318	255.94
616.526	259.94
616.733	270.94
616.941	245.94
617.148	245.94
617.356	258.94
617.563	251.94
617.771	250.94
617.978	239.94
618.185	233.94
618.393	243.94
618.6	242.94
618.807	260.94
619.015	252.94
619.222	248.94
619.429	227.94
619.637	234.94
619.844	222.94
620.051	223.94
620.258	233.94
620.466	228.94
620.673	234.94
620.88	235.94
621.087	218.94
621.294	227.94
621.501	219.94
621.708	223.94
621.915	221.94
622.122	234.94
622.329	218.94
622.536	242.94
622.743	204.94
622.95	221.94
623.157	215.94
623.364	205.94
623.571	233.94
623.778	224.94
623.985	217.94
624.192	213.94
624.399	214.94
624.606	220.94
624.812	217.94
625.019	223.94
625.226	219.94
625.433	208.94
625.639	218.94
625.846	194.94
626.053	221.94
626.259	209.94
626.466	210.94
626.673	195.94
626.879	206.94
627.086	206.94
627.293	199.94
627.499	209.94
627.706	209.94
627.912	212.94
628.119	199.94
628.325	208.94
628.532	192.94
628.738	196.94
628.945	190.94
629.151	207.94
629.357	200.94
629.564	191.94
629.77	195.94
629.976	203.94
630.183	200.94
630.389	185.94
630.595	200.94
630.802	187.94
631.008	211.94
631.214	194.94
631.42	199.94
631.627	198.94
631.833	191.94
632.039	185.94
632.245	183.94
632.451	190.94
632.657	177.94
632.863	200.94
633.069	179.94
633.275	186.94
633.481	189.94
633.688	185.94
633.893	189.94
634.099	181.94
634.305	191.94
634.511	187.94
634.717	179.94
634.923	183.94
635.129	186.94
635.335	179.94
635.541	193.94
635.747	181.94
635.952	188.94
636.158	166.94
636.364	182.94
636.57	183.94
636.775	181.94
636.981	188.94
637.187	184.94
637.392	171.94
637.598	179.94
637.804	188.94
638.009	181.94
638.215	186.94
638.421	176.94
638.626	178.94
638.832	184.94
639.037	174.94
639.243	175.94
639.448	166.94
639.654	177.94
639.859	190.94
640.065	183.94
640.27	179.94
640.475	169.94
640.681	182.94
640.886	167.94
641.091	175.94
641.297	172.94
641.502	154.94
641.707	160.94
641.913	164.94
642.118	165.94
642.323	164.94
642.528	170.94
642.733	176.94
642.939	179.94
643.144	162.94
643.349	164.94
643.554	165.94
643.759	167.94
643.964	170.94
644.169	170.94
644.374	163.94
644.579	168.94
644.784	151.94
644.989	170.94
645.194	156.94
645.399	162.94
645.604	147.94
645.809	166.94
646.014	154.94
646.219	183.94
646.423	163.94
646.628	156.94
646.833	166.94
647.038	169.94
647.243	166.94
647.447	162.94
647.652	166.94
647.857	183.94
648.062	167.94
648.266	156.94
648.471	170.94
648.676	182.94
648.88	162.94
649.085	171.94
649.289	169.94
649.494	163.94
649.698	184.94
649.903	164.94
650.107	172.94
650.312	150.94
650.516	158.94
650.721	151.94
650.925	136.94
651.13	159.94
651.334	158.94
651.539	136.94
651.743	146.94
651.947	152.94
652.152	150.94
652.356	143.94
652.56	154.94
652.764	131.94
652.969	146.94
653.173	140.94
653.377	136.94
653.581	131.94
653.785	126.94
653.99	129.94
654.194	131.94
654.398	124.94
654.602	131.94
654.806	120.94
655.01	124.94
655.214	131.94
655.418	134.94
655.622	126.94
655.826	144.94
656.03	136.94
656.234	122.94
656.438	120.94
656.642	116.94
656.846	117.94
657.049	114.94
657.253	109.94
657.457	102.94
657.661	111.94
657.865	103.94
658.068	102.94
658.272	94.94
658.476	95.94
658.68	95.94
658.883	112.94
659.087	104.94
659.291	94.94
659.494	82.94
659.698	91.94
659.901	104.94
660.105	96.94
660.309	109.94
660.512	92.94
660.716	90.94
660.919	83.94
661.123	84.94
661.326	91.94
661.53	91.94
661.733	88.94
661.936	92.94
662.14	77.94
662.343	76.94
662.546	83.94
662.75	86.94
662.953	81.94
663.156	78.94
663.36	80.94
663.563	74.94
663.766	87.94
663.969	83.94
664.173	82.94
664.376	75.94
664.579	73.94
664.782	84.94
664.985	63.94
665.188	81.94
665.391	87.94
665.594	91.94
665.797	78.94
666	90.94
666.203	87.94
666.406	82.94
666.609	83.94
666.812	69.94
667.015	83.94
667.218	86.94
667.421	80.94
667.624	85.94
667.827	73.94
668.03	98.94
668.232	73.94
668.435	79.94
668.638	83.94
668.841	84.94
669.043	90.94
669.246	76.94
669.449	81.94
669.651	80.94
669.854	92.94
670.057	80.94
670.259	67.94
670.462	77.94
670.665	71.94
670.867	88.94
671.07	78.94
671.272	82.94
671.475	79.94
671.677	71.94
671.88	81.94
672.082	76.94
672.284	79.94
672.487	74.94
672.689	68.94
672.892	80.94
