Data from Ni(NO3)2@0.0625M.TitratingCurve.Agarose3%dH2O.NegLispCup.LampEnergy10.LIBS07252019_HRD10591_18-12-50-569.txt Node
Date: Thu Jul 25 18:12:50 EDT 2019
User: cochatt
Spectrometer: HR+D1059
Trigger mode: 1
Integration Time (sec): 1.000000E-1
Scans to average: 1
Electric dark correction enabled: true
Nonlinearity correction enabled: false
Boxcar width: 0
XAxis mode: Wavelengths
Number of Pixels in Spectrum: 2048
>>>>>Begin Spectral Data<<<<<
223.165	-29.88
223.4	-29.88
223.635	-29.88
223.869	-10.88
224.104	-9.88
224.338	-24.88
224.573	-14.88
224.808	-13.88
225.042	-9.88
225.277	-4.88
225.511	0.12
225.746	6.12
225.98	6.12
226.215	10.12
226.449	14.12
226.683	22.12
226.918	28.12
227.152	32.12
227.387	31.12
227.621	38.12
227.856	44.12
228.09	31.12
228.324	34.12
228.559	49.12
228.793	63.12
229.027	113.12
229.262	108.12
229.496	126.12
229.73	134.12
229.964	140.12
230.199	146.12
230.433	137.12
230.667	145.12
230.901	165.12
231.136	135.12
231.37	155.12
231.604	161.12
231.838	163.12
232.072	169.12
232.306	161.12
232.541	165.12
232.775	165.12
233.009	151.12
233.243	154.12
233.477	148.12
233.711	161.12
233.945	147.12
234.179	159.12
234.413	166.12
234.647	153.12
234.881	155.12
235.115	158.12
235.349	139.12
235.583	159.12
235.817	167.12
236.051	170.12
236.285	165.12
236.519	157.12
236.753	164.12
236.987	168.12
237.221	161.12
237.455	158.12
237.689	176.12
237.922	178.12
238.156	169.12
238.39	172.12
238.624	175.12
238.858	172.12
239.091	168.12
239.325	180.12
239.559	203.12
239.793	186.12
240.027	181.12
240.26	184.12
240.494	206.12
240.728	186.12
240.961	191.12
241.195	188.12
241.429	196.12
241.662	200.12
241.896	200.12
242.13	209.12
242.363	205.12
242.597	193.12
242.83	228.12
243.064	211.12
243.298	215.12
243.531	226.12
243.765	224.12
243.998	221.12
244.232	210.12
244.465	214.12
244.699	204.12
244.932	228.12
245.166	230.12
245.399	240.12
245.633	223.12
245.866	225.12
246.099	235.12
246.333	245.12
246.566	241.12
246.8	233.12
247.033	228.12
247.266	233.12
247.5	238.12
247.733	240.12
247.966	243.12
248.2	242.12
248.433	247.12
248.666	250.12
248.899	273.12
249.133	250.12
249.366	252.12
249.599	266.12
249.832	256.12
250.066	258.12
250.299	257.12
250.532	268.12
250.765	269.12
250.998	264.12
251.231	280.12
251.465	303.12
251.698	283.12
251.931	279.12
252.164	278.12
252.397	285.12
252.63	274.12
252.863	281.12
253.096	275.12
253.329	280.12
253.562	283.12
253.795	293.12
254.028	293.12
254.261	294.12
254.494	300.12
254.727	285.12
254.96	307.12
255.193	284.12
255.426	311.12
255.659	293.12
255.892	287.12
256.124	309.12
256.357	317.12
256.59	291.12
256.823	314.12
257.056	305.12
257.289	307.12
257.521	312.12
257.754	315.12
257.987	311.12
258.22	327.12
258.452	307.12
258.685	329.12
258.918	330.12
259.151	347.12
259.383	328.12
259.616	323.12
259.849	325.12
260.081	348.12
260.314	348.12
260.547	344.12
260.779	343.12
261.012	331.12
261.244	327.12
261.477	335.12
261.71	328.12
261.942	358.12
262.175	365.12
262.407	356.12
262.64	349.12
262.872	348.12
263.105	350.12
263.337	356.12
263.57	367.12
263.802	369.12
264.035	361.12
264.267	362.12
264.499	365.12
264.732	360.12
264.964	357.12
265.197	348.12
265.429	378.12
265.661	375.12
265.894	376.12
266.126	368.12
266.358	402.12
266.591	386.12
266.823	382.12
267.055	374.12
267.287	374.12
267.52	400.12
267.752	378.12
267.984	388.12
268.216	391.12
268.448	403.12
268.681	387.12
268.913	392.12
269.145	394.12
269.377	367.12
269.609	383.12
269.841	404.12
270.073	380.12
270.306	395.12
270.538	389.12
270.77	408.12
271.002	416.12
271.234	393.12
271.466	401.12
271.698	408.12
271.93	407.12
272.162	408.12
272.394	423.12
272.626	420.12
272.858	403.12
273.09	393.12
273.322	412.12
273.553	412.12
273.785	414.12
274.017	425.12
274.249	434.12
274.481	424.12
274.713	440.12
274.945	427.12
275.176	436.12
275.408	425.12
275.64	428.12
275.872	439.12
276.104	455.12
276.335	444.12
276.567	433.12
276.799	438.12
277.031	452.12
277.262	447.12
277.494	471.12
277.726	462.12
277.957	459.12
278.189	455.12
278.421	465.12
278.652	453.12
278.884	452.12
279.115	479.12
279.347	453.12
279.579	457.12
279.81	467.12
280.042	462.12
280.273	488.12
280.505	481.12
280.736	481.12
280.968	483.12
281.199	469.12
281.431	475.12
281.662	486.12
281.894	495.12
282.125	481.12
282.356	511.12
282.588	491.12
282.819	499.12
283.051	489.12
283.282	486.12
283.513	508.12
283.745	527.12
283.976	523.12
284.207	511.12
284.439	521.12
284.67	519.12
284.901	514.12
285.132	526.12
285.364	519.12
285.595	521.12
285.826	518.12
286.057	521.12
286.288	513.12
286.52	514.12
286.751	518.12
286.982	548.12
287.213	529.12
287.444	534.12
287.675	541.12
287.906	549.12
288.138	525.12
288.369	532.12
288.6	545.12
288.831	541.12
289.062	552.12
289.293	555.12
289.524	551.12
289.755	552.12
289.986	550.12
290.217	543.12
290.448	574.12
290.679	567.12
290.91	561.12
291.141	577.12
291.371	571.12
291.602	539.12
291.833	563.12
292.064	543.12
292.295	537.12
292.526	548.12
292.757	580.12
292.987	578.12
293.218	551.12
293.449	563.12
293.68	561.12
293.91	576.12
294.141	572.12
294.372	555.12
294.603	578.12
294.833	591.12
295.064	586.12
295.295	570.12
295.525	584.12
295.756	559.12
295.987	563.12
296.217	568.12
296.448	571.12
296.679	604.12
296.909	582.12
297.14	597.12
297.37	584.12
297.601	597.12
297.831	614.12
298.062	605.12
298.292	611.12
298.523	617.12
298.753	636.12
298.984	618.12
299.214	603.12
299.445	618.12
299.675	611.12
299.905	623.12
300.136	621.12
300.366	623.12
300.597	643.12
300.827	637.12
301.057	663.12
301.288	640.12
301.518	649.12
301.748	661.12
301.979	659.12
302.209	634.12
302.439	651.12
302.669	636.12
302.9	638.12
303.13	647.12
303.36	624.12
303.59	612.12
303.82	637.12
304.051	635.12
304.281	644.12
304.511	615.12
304.741	632.12
304.971	643.12
305.201	648.12
305.431	646.12
305.661	663.12
305.891	629.12
306.121	644.12
306.352	636.12
306.582	633.12
306.812	610.12
307.042	623.12
307.272	606.12
307.502	623.12
307.731	609.12
307.961	592.12
308.191	596.12
308.421	625.12
308.651	607.12
308.881	598.12
309.111	612.12
309.341	626.12
309.571	613.12
309.8	630.12
310.03	632.12
310.26	659.12
310.49	639.12
310.72	656.12
310.949	623.12
311.179	631.12
311.409	632.12
311.639	635.12
311.868	658.12
312.098	651.12
312.328	648.12
312.557	651.12
312.787	661.12
313.017	667.12
313.246	646.12
313.476	633.12
313.706	665.12
313.935	666.12
314.165	674.12
314.394	666.12
314.624	675.12
314.853	680.12
315.083	673.12
315.312	665.12
315.542	676.12
315.771	644.12
316.001	652.12
316.23	688.12
316.46	638.12
316.689	646.12
316.919	648.12
317.148	648.12
317.377	665.12
317.607	653.12
317.836	647.12
318.065	631.12
318.295	625.12
318.524	643.12
318.753	652.12
318.983	649.12
319.212	623.12
319.441	652.12
319.67	649.12
319.9	675.12
320.129	654.12
320.358	650.12
320.587	657.12
320.816	646.12
321.046	663.12
321.275	678.12
321.504	679.12
321.733	674.12
321.962	655.12
322.191	656.12
322.42	633.12
322.649	635.12
322.878	672.12
323.108	653.12
323.337	683.12
323.566	701.12
323.795	687.12
324.024	663.12
324.253	688.12
324.482	675.12
324.71	684.12
324.939	668.12
325.168	690.12
325.397	679.12
325.626	671.12
325.855	694.12
326.084	716.12
326.313	735.12
326.542	718.12
326.77	739.12
326.999	721.12
327.228	723.12
327.457	731.12
327.686	717.12
327.914	740.12
328.143	707.12
328.372	698.12
328.6	723.12
328.829	709.12
329.058	715.12
329.287	733.12
329.515	728.12
329.744	737.12
329.972	721.12
330.201	731.12
330.43	753.12
330.658	727.12
330.887	775.12
331.115	753.12
331.344	768.12
331.572	784.12
331.801	798.12
332.03	804.12
332.258	816.12
332.486	832.12
332.715	856.12
332.943	903.12
333.172	931.12
333.4	983.12
333.629	996.12
333.857	962.12
334.085	970.12
334.314	970.12
334.542	950.12
334.771	945.12
334.999	931.12
335.227	936.12
335.455	930.12
335.684	891.12
335.912	901.12
336.14	879.12
336.369	868.12
336.597	879.12
336.825	895.12
337.053	905.12
337.281	899.12
337.51	888.12
337.738	837.12
337.966	811.12
338.194	847.12
338.422	804.12
338.65	788.12
338.878	781.12
339.106	784.12
339.334	787.12
339.562	790.12
339.79	745.12
340.018	778.12
340.246	771.12
340.474	754.12
340.702	767.12
340.93	768.12
341.158	788.12
341.386	797.12
341.614	820.12
341.842	801.12
342.07	774.12
342.298	751.12
342.526	751.12
342.754	788.12
342.981	785.12
343.209	777.12
343.437	808.12
343.665	840.12
343.893	915.12
344.12	959.12
344.348	955.12
344.576	879.12
344.804	852.12
345.031	837.12
345.259	800.12
345.487	782.12
345.714	792.12
345.942	780.12
346.17	790.12
346.397	775.12
346.625	753.12
346.853	750.12
347.08	744.12
347.308	758.12
347.535	769.12
347.763	781.12
347.99	742.12
348.218	771.12
348.445	783.12
348.673	761.12
348.9	737.12
349.128	736.12
349.355	771.12
349.583	757.12
349.81	753.12
350.037	704.12
350.265	717.12
350.492	709.12
350.72	708.12
350.947	718.12
351.174	708.12
351.402	721.12
351.629	723.12
351.856	760.12
352.083	736.12
352.311	719.12
352.538	744.12
352.765	770.12
352.992	725.12
353.22	714.12
353.447	710.12
353.674	701.12
353.901	703.12
354.128	709.12
354.355	706.12
354.583	714.12
354.81	681.12
355.037	724.12
355.264	717.12
355.491	745.12
355.718	711.12
355.945	725.12
356.172	714.12
356.399	730.12
356.626	741.12
356.853	773.12
357.08	724.12
357.307	722.12
357.534	708.12
357.761	716.12
357.988	705.12
358.215	735.12
358.441	714.12
358.668	714.12
358.895	706.12
359.122	704.12
359.349	730.12
359.576	712.12
359.802	746.12
360.029	719.12
360.256	729.12
360.483	730.12
360.709	717.12
360.936	745.12
361.163	731.12
361.39	736.12
361.616	754.12
361.843	733.12
362.07	717.12
362.296	742.12
362.523	715.12
362.749	697.12
362.976	711.12
363.203	712.12
363.429	709.12
363.656	719.12
363.882	705.12
364.109	717.12
364.335	706.12
364.562	712.12
364.788	704.12
365.015	702.12
365.241	698.12
365.468	709.12
365.694	695.12
365.92	712.12
366.147	708.12
366.373	705.12
366.599	667.12
366.826	684.12
367.052	721.12
367.278	717.12
367.505	715.12
367.731	739.12
367.957	714.12
368.184	698.12
368.41	715.12
368.636	723.12
368.862	745.12
369.089	743.12
369.315	731.12
369.541	717.12
369.767	755.12
369.993	763.12
370.219	753.12
370.445	772.12
370.672	755.12
370.898	768.12
371.124	764.12
371.35	810.12
371.576	803.12
371.802	774.12
372.028	778.12
372.254	775.12
372.48	769.12
372.706	801.12
372.932	820.12
373.158	823.12
373.384	799.12
373.61	781.12
373.835	758.12
374.061	753.12
374.287	780.12
374.513	782.12
374.739	827.12
374.965	870.12
375.191	860.12
375.416	882.12
375.642	810.12
375.868	821.12
376.094	811.12
376.319	828.12
376.545	792.12
376.771	791.12
376.997	799.12
377.222	777.12
377.448	773.12
377.674	787.12
377.899	787.12
378.125	778.12
378.35	769.12
378.576	784.12
378.802	758.12
379.027	771.12
379.253	763.12
379.478	780.12
379.704	763.12
379.929	778.12
380.155	782.12
380.38	772.12
380.606	763.12
380.831	787.12
381.057	769.12
381.282	758.12
381.507	784.12
381.733	809.12
381.958	782.12
382.184	776.12
382.409	797.12
382.634	812.12
382.86	801.12
383.085	837.12
383.31	808.12
383.535	866.12
383.761	848.12
383.986	849.12
384.211	891.12
384.436	917.12
384.662	903.12
384.887	931.12
385.112	947.12
385.337	949.12
385.562	954.12
385.787	951.12
386.013	967.12
386.238	968.12
386.463	934.12
386.688	961.12
386.913	938.12
387.138	932.12
387.363	944.12
387.588	909.12
387.813	927.12
388.038	913.12
388.263	943.12
388.488	931.12
388.713	934.12
388.938	934.12
389.163	917.12
389.387	901.12
389.612	914.12
389.837	899.12
390.062	897.12
390.287	916.12
390.512	912.12
390.736	912.12
390.961	951.12
391.186	952.12
391.411	969.12
391.636	1017.12
391.86	1045.12
392.085	1051.12
392.31	1073.12
392.534	1044.12
392.759	1005.12
392.984	1020.12
393.208	985.12
393.433	989.12
393.658	991.12
393.882	979.12
394.107	986.12
394.331	999.12
394.556	973.12
394.78	989.12
395.005	1010.12
395.229	950.12
395.454	1045.12
395.678	1033.12
395.903	1034.12
396.127	1037.12
396.352	1020.12
396.576	986.12
396.801	983.12
397.025	1040.12
397.249	1029.12
397.474	1032.12
397.698	1034.12
397.922	1049.12
398.147	1040.12
398.371	1091.12
398.595	1123.12
398.82	1140.12
399.044	1232.12
399.268	1345.12
399.492	1566.12
399.717	1766.12
399.941	1834.12
400.165	1617.12
400.389	1452.12
400.613	1348.12
400.837	1254.12
401.062	1215.12
401.286	1178.12
401.51	1171.12
401.734	1189.12
401.958	1185.12
402.182	1204.12
402.406	1235.12
402.63	1259.12
402.854	1264.12
403.078	1273.12
403.302	1294.12
403.526	1335.12
403.75	1335.12
403.974	1366.12
404.198	1382.12
404.422	1383.12
404.645	1353.12
404.869	1341.12
405.093	1347.12
405.317	1331.12
405.541	1285.12
405.765	1305.12
405.988	1301.12
406.212	1297.12
406.436	1292.12
406.66	1341.12
406.883	1352.12
407.107	1457.12
407.331	1523.12
407.555	1546.12
407.778	1531.12
408.002	1513.12
408.226	1464.12
408.449	1420.12
408.673	1360.12
408.896	1363.12
409.12	1317.12
409.344	1334.12
409.567	1335.12
409.791	1394.12
410.014	1354.12
410.238	1314.12
410.461	1335.12
410.685	1336.12
410.908	1292.12
411.132	1223.12
411.355	1205.12
411.578	1222.12
411.802	1228.12
412.025	1216.12
412.249	1291.12
412.472	1233.12
412.695	1204.12
412.919	1182.12
413.142	1155.12
413.365	1154.12
413.589	1203.12
413.812	1165.12
414.035	1142.12
414.258	1143.12
414.482	1165.12
414.705	1225.12
414.928	1192.12
415.151	1240.12
415.374	1177.12
415.597	1152.12
415.821	1144.12
416.044	1159.12
416.267	1147.12
416.49	1146.12
416.713	1161.12
416.936	1171.12
417.159	1135.12
417.382	1186.12
417.605	1147.12
417.828	1156.12
418.051	1176.12
418.274	1163.12
418.497	1113.12
418.72	1167.12
418.943	1208.12
419.166	1297.12
419.389	1361.12
419.611	1330.12
419.834	1251.12
420.057	1234.12
420.28	1203.12
420.503	1148.12
420.726	1159.12
420.948	1159.12
421.171	1203.12
421.394	1179.12
421.617	1150.12
421.839	1149.12
422.062	1170.12
422.285	1163.12
422.507	1186.12
422.73	1195.12
422.953	1202.12
423.175	1231.12
423.398	1227.12
423.621	1277.12
423.843	1269.12
424.066	1260.12
424.288	1244.12
424.511	1223.12
424.733	1220.12
424.956	1196.12
425.178	1189.12
425.401	1179.12
425.623	1185.12
425.846	1143.12
426.068	1149.12
426.291	1139.12
426.513	1096.12
426.735	1101.12
426.958	1112.12
427.18	1089.12
427.402	1082.12
427.625	1087.12
427.847	1063.12
428.069	1057.12
428.292	1043.12
428.514	1058.12
428.736	1035.12
428.958	1084.12
429.181	1004.12
429.403	1013.12
429.625	1027.12
429.847	1011.12
430.069	1004.12
430.292	1031.12
430.514	1009.12
430.736	1004.12
430.958	1035.12
431.18	1023.12
431.402	1037.12
431.624	1036.12
431.846	1050.12
432.068	1049.12
432.29	1061.12
432.512	1036.12
432.734	1035.12
432.956	1037.12
433.178	1079.12
433.4	1051.12
433.622	1060.12
433.844	1057.12
434.066	1092.12
434.287	1094.12
434.509	1107.12
434.731	1183.12
434.953	1190.12
435.175	1220.12
435.397	1209.12
435.618	1183.12
435.84	1124.12
436.062	1051.12
436.284	1036.12
436.505	1051.12
436.727	1082.12
436.949	1099.12
437.17	1043.12
437.392	1054.12
437.614	1056.12
437.835	1025.12
438.057	1021.12
438.278	989.12
438.5	1022.12
438.721	1032.12
438.943	1051.12
439.165	991.12
439.386	1015.12
439.608	1046.12
439.829	1053.12
440.05	1052.12
440.272	1067.12
440.493	1077.12
440.715	1114.12
440.936	1108.12
441.158	1109.12
441.379	1126.12
441.6	1184.12
441.822	1217.12
442.043	1187.12
442.264	1161.12
442.486	1156.12
442.707	1173.12
442.928	1163.12
443.149	1179.12
443.371	1165.12
443.592	1209.12
443.813	1179.12
444.034	1212.12
444.255	1239.12
444.476	1314.12
444.698	1380.12
444.919	1452.12
445.14	1475.12
445.361	1367.12
445.582	1237.12
445.803	1166.12
446.024	1126.12
446.245	1151.12
446.466	1113.12
446.687	1073.12
446.908	1071.12
447.129	1031.12
447.35	1023.12
447.571	1056.12
447.792	994.12
448.013	990.12
448.234	985.12
448.455	969.12
448.675	971.12
448.896	992.12
449.117	936.12
449.338	950.12
449.559	963.12
449.779	946.12
450	976.12
450.221	961.12
450.442	964.12
450.662	1025.12
450.883	992.12
451.104	1000.12
451.324	997.12
451.545	1000.12
451.766	969.12
451.986	961.12
452.207	975.12
452.428	976.12
452.648	981.12
452.869	977.12
453.089	977.12
453.31	984.12
453.53	955.12
453.751	970.12
453.971	936.12
454.192	959.12
454.412	935.12
454.633	897.12
454.853	925.12
455.073	948.12
455.294	937.12
455.514	931.12
455.734	899.12
455.955	941.12
456.175	906.12
456.395	899.12
456.616	914.12
456.836	905.12
457.056	922.12
457.276	889.12
457.497	907.12
457.717	902.12
457.937	936.12
458.157	930.12
458.377	934.12
458.598	971.12
458.818	971.12
459.038	1009.12
459.258	1049.12
459.478	1063.12
459.698	1143.12
459.918	1146.12
460.138	1221.12
460.358	1229.12
460.578	1259.12
460.798	1301.12
461.018	1313.12
461.238	1264.12
461.458	1265.12
461.678	1245.12
461.898	1261.12
462.118	1282.12
462.338	1384.12
462.558	1387.12
462.777	1412.12
462.997	1595.12
463.217	1689.12
463.437	1716.12
463.657	1621.12
463.876	1504.12
464.096	1464.12
464.316	1497.12
464.536	1501.12
464.755	1467.12
464.975	1381.12
465.195	1289.12
465.414	1240.12
465.634	1153.12
465.854	1141.12
466.073	1100.12
466.293	1091.12
466.512	1083.12
466.732	1014.12
466.951	1039.12
467.171	1018.12
467.391	1041.12
467.61	992.12
467.829	1009.12
468.049	1019.12
468.268	990.12
468.488	997.12
468.707	995.12
468.927	980.12
469.146	984.12
469.365	1017.12
469.585	1025.12
469.804	1044.12
470.023	1043.12
470.243	1047.12
470.462	1067.12
470.681	1051.12
470.901	1081.12
471.12	1055.12
471.339	1021.12
471.558	1020.12
471.777	1040.12
471.997	1021.12
472.216	983.12
472.435	978.12
472.654	1003.12
472.873	968.12
473.092	936.12
473.311	939.12
473.53	963.12
473.749	964.12
473.968	954.12
474.187	933.12
474.406	975.12
474.625	946.12
474.844	978.12
475.063	969.12
475.282	947.12
475.501	977.12
475.72	988.12
475.939	987.12
476.158	997.12
476.377	1014.12
476.596	1003.12
476.814	985.12
477.033	1013.12
477.252	991.12
477.471	1066.12
477.69	1070.12
477.908	1136.12
478.127	1148.12
478.346	1151.12
478.564	1181.12
478.783	1192.12
479.002	1232.12
479.22	1235.12
479.439	1221.12
479.658	1203.12
479.876	1211.12
480.095	1247.12
480.313	1277.12
480.532	1311.12
480.751	1369.12
480.969	1302.12
481.188	1203.12
481.406	1178.12
481.624	1151.12
481.843	1139.12
482.061	1123.12
482.28	1088.12
482.498	1098.12
482.717	1113.12
482.935	1115.12
483.153	1121.12
483.372	1107.12
483.59	1127.12
483.808	1121.12
484.027	1115.12
484.245	1140.12
484.463	1119.12
484.681	1164.12
484.9	1178.12
485.118	1122.12
485.336	1145.12
485.554	1179.12
485.772	1175.12
485.99	1168.12
486.209	1182.12
486.427	1195.12
486.645	1173.12
486.863	1209.12
487.081	1178.12
487.299	1164.12
487.517	1172.12
487.735	1172.12
487.953	1176.12
488.171	1130.12
488.389	1151.12
488.607	1167.12
488.825	1133.12
489.043	1149.12
489.261	1140.12
489.479	1157.12
489.696	1142.12
489.914	1145.12
490.132	1165.12
490.35	1169.12
490.568	1153.12
490.786	1160.12
491.003	1161.12
491.221	1154.12
491.439	1135.12
491.657	1177.12
491.874	1189.12
492.092	1176.12
492.31	1217.12
492.527	1199.12
492.745	1196.12
492.963	1180.12
493.18	1202.12
493.398	1207.12
493.615	1194.12
493.833	1195.12
494.05	1217.12
494.268	1233.12
494.485	1228.12
494.703	1226.12
494.92	1229.12
495.138	1206.12
495.355	1225.12
495.573	1220.12
495.79	1242.12
496.008	1232.12
496.225	1246.12
496.442	1261.12
496.66	1275.12
496.877	1264.12
497.094	1321.12
497.312	1329.12
497.529	1331.12
497.746	1413.12
497.963	1427.12
498.181	1479.12
498.398	1559.12
498.615	1632.12
498.832	1764.12
499.049	1890.12
499.267	2053.12
499.484	2236.12
499.701	2461.12
499.918	2743.12
500.135	3123.12
500.352	3586.12
500.569	3813.12
500.786	3753.12
501.003	3417.12
501.22	3137.12
501.437	2796.12
501.654	2442.12
501.871	2197.12
502.088	2019.12
502.305	1910.12
502.522	1804.12
502.739	1707.12
502.956	1644.12
503.172	1578.12
503.389	1484.12
503.606	1464.12
503.823	1435.12
504.04	1421.12
504.256	1426.12
504.473	1480.12
504.69	1497.12
504.907	1483.12
505.123	1395.12
505.34	1267.12
505.557	1220.12
505.773	1222.12
505.99	1218.12
506.207	1144.12
506.423	1148.12
506.64	1139.12
506.856	1093.12
507.073	1105.12
507.289	1107.12
507.506	1107.12
507.722	1088.12
507.939	1039.12
508.155	1068.12
508.372	1042.12
508.588	1057.12
508.805	1051.12
509.021	1052.12
509.238	1034.12
509.454	1019.12
509.67	1019.12
509.887	1020.12
510.103	1029.12
510.319	988.12
510.536	1028.12
510.752	1021.12
510.968	988.12
511.184	989.12
511.401	1015.12
511.617	998.12
511.833	995.12
512.049	976.12
512.265	1000.12
512.481	994.12
512.698	961.12
512.914	956.12
513.13	1008.12
513.346	1008.12
513.562	1003.12
513.778	1024.12
513.994	1007.12
514.21	990.12
514.426	1011.12
514.642	1045.12
514.858	1017.12
515.074	1034.12
515.29	1025.12
515.506	1045.12
515.721	1064.12
515.937	1080.12
516.153	1103.12
516.369	1136.12
516.585	1151.12
516.801	1187.12
517.016	1226.12
517.232	1305.12
517.448	1340.12
517.664	1380.12
517.879	1421.12
518.095	1427.12
518.311	1375.12
518.527	1328.12
518.742	1279.12
518.958	1212.12
519.173	1144.12
519.389	1156.12
519.605	1107.12
519.82	1065.12
520.036	1059.12
520.251	1015.12
520.467	1009.12
520.682	981.12
520.898	996.12
521.113	983.12
521.329	995.12
521.544	995.12
521.76	953.12
521.975	966.12
522.19	950.12
522.406	966.12
522.621	960.12
522.836	935.12
523.052	939.12
523.267	929.12
523.482	929.12
523.698	928.12
523.913	919.12
524.128	919.12
524.343	941.12
524.559	945.12
524.774	915.12
524.989	899.12
525.204	903.12
525.419	926.12
525.634	898.12
525.849	901.12
526.064	914.12
526.28	952.12
526.495	911.12
526.71	889.12
526.925	921.12
527.14	896.12
527.355	892.12
527.57	905.12
527.785	941.12
527.999	877.12
528.214	926.12
528.429	907.12
528.644	924.12
528.859	900.12
529.074	892.12
529.289	918.12
529.503	915.12
529.718	891.12
529.933	908.12
530.148	903.12
530.363	902.12
530.577	904.12
530.792	908.12
531.007	888.12
531.221	908.12
531.436	897.12
531.651	909.12
531.865	915.12
532.08	911.12
532.295	896.12
532.509	905.12
532.724	888.12
532.938	901.12
533.153	904.12
533.367	893.12
533.582	878.12
533.796	889.12
534.011	892.12
534.225	877.12
534.44	865.12
534.654	885.12
534.868	900.12
535.083	902.12
535.297	897.12
535.511	882.12
535.726	854.12
535.94	881.12
536.154	849.12
536.369	851.12
536.583	873.12
536.797	860.12
537.011	844.12
537.225	843.12
537.44	837.12
537.654	825.12
537.868	837.12
538.082	821.12
538.296	819.12
538.51	824.12
538.724	855.12
538.938	824.12
539.153	809.12
539.367	844.12
539.581	778.12
539.795	830.12
540.009	807.12
540.222	812.12
540.436	833.12
540.65	819.12
540.864	816.12
541.078	834.12
541.292	821.12
541.506	820.12
541.72	787.12
541.934	809.12
542.147	807.12
542.361	824.12
542.575	812.12
542.789	799.12
543.002	795.12
543.216	795.12
543.43	782.12
543.644	807.12
543.857	802.12
544.071	801.12
544.285	817.12
544.498	805.12
544.712	793.12
544.925	805.12
545.139	819.12
545.352	823.12
545.566	821.12
545.779	855.12
545.993	840.12
546.206	849.12
546.42	824.12
546.633	804.12
546.847	812.12
547.06	801.12
547.274	825.12
547.487	813.12
547.7	795.12
547.914	830.12
548.127	826.12
548.34	821.12
548.554	812.12
548.767	857.12
548.98	822.12
549.193	811.12
549.407	820.12
549.62	816.12
549.833	879.12
550.046	841.12
550.259	809.12
550.473	812.12
550.686	807.12
550.899	806.12
551.112	801.12
551.325	780.12
551.538	828.12
551.751	807.12
551.964	799.12
552.177	807.12
552.39	845.12
552.603	840.12
552.816	876.12
553.029	882.12
553.242	907.12
553.455	909.12
553.667	930.12
553.88	880.12
554.093	903.12
554.306	856.12
554.519	840.12
554.732	798.12
554.944	796.12
555.157	816.12
555.37	803.12
555.583	775.12
555.795	760.12
556.008	755.12
556.221	729.12
556.433	721.12
556.646	724.12
556.859	725.12
557.071	721.12
557.284	711.12
557.496	705.12
557.709	717.12
557.921	688.12
558.134	703.12
558.346	687.12
558.559	709.12
558.771	699.12
558.984	680.12
559.196	680.12
559.409	705.12
559.621	691.12
559.833	676.12
560.046	681.12
560.258	674.12
560.47	680.12
560.683	671.12
560.895	660.12
561.107	668.12
561.32	683.12
561.532	679.12
561.744	708.12
561.956	678.12
562.168	680.12
562.381	684.12
562.593	684.12
562.805	689.12
563.017	691.12
563.229	704.12
563.441	695.12
563.653	694.12
563.865	681.12
564.077	713.12
564.289	710.12
564.501	726.12
564.713	724.12
564.925	741.12
565.137	760.12
565.349	755.12
565.561	775.12
565.773	805.12
565.985	865.12
566.197	884.12
566.408	937.12
566.62	1025.12
566.832	1101.12
567.044	1156.12
567.255	1178.12
567.467	1183.12
567.679	1265.12
567.891	1343.12
568.102	1324.12
568.314	1315.12
568.526	1172.12
568.737	1078.12
568.949	963.12
569.161	893.12
569.372	831.12
569.584	779.12
569.795	755.12
570.007	739.12
570.218	755.12
570.43	733.12
570.641	709.12
570.853	710.12
571.064	722.12
571.276	733.12
571.487	688.12
571.698	687.12
571.91	653.12
572.121	627.12
572.333	620.12
572.544	607.12
572.755	600.12
572.966	626.12
573.178	585.12
573.389	583.12
573.6	562.12
573.811	566.12
574.023	565.12
574.234	577.12
574.445	594.12
574.656	587.12
574.867	600.12
575.078	567.12
575.289	580.12
575.501	548.12
575.712	539.12
575.923	540.12
576.134	553.12
576.345	547.12
576.556	549.12
576.767	525.12
576.978	544.12
577.188	543.12
577.399	523.12
577.61	530.12
577.821	514.12
578.032	502.12
578.243	525.12
578.454	515.12
578.665	500.12
578.875	505.12
579.086	515.12
579.297	533.12
579.508	512.12
579.718	481.12
579.929	509.12
580.14	497.12
580.35	503.12
580.561	516.12
580.772	510.12
580.982	532.12
581.193	498.12
581.403	474.12
581.614	498.12
581.825	499.12
582.035	473.12
582.246	479.12
582.456	490.12
582.667	483.12
582.877	481.12
583.087	468.12
583.298	458.12
583.508	478.12
583.719	480.12
583.929	473.12
584.139	472.12
584.35	463.12
584.56	472.12
584.77	476.12
584.981	469.12
585.191	468.12
585.401	456.12
585.611	483.12
585.821	463.12
586.032	472.12
586.242	480.12
586.452	454.12
586.662	478.12
586.872	458.12
587.082	458.12
587.292	471.12
587.502	440.12
587.713	447.12
587.923	444.12
588.133	456.12
588.343	442.12
588.553	453.12
588.762	441.12
588.972	476.12
589.182	460.12
589.392	471.12
589.602	449.12
589.812	487.12
590.022	469.12
590.232	478.12
590.441	465.12
590.651	468.12
590.861	478.12
591.071	471.12
591.281	476.12
591.49	465.12
591.7	479.12
591.91	472.12
592.119	511.12
592.329	522.12
592.539	518.12
592.748	539.12
592.958	569.12
593.167	565.12
593.377	581.12
593.587	572.12
593.796	583.12
594.006	625.12
594.215	595.12
594.424	584.12
594.634	596.12
594.843	563.12
595.053	553.12
595.262	536.12
595.472	491.12
595.681	488.12
595.89	465.12
596.1	476.12
596.309	445.12
596.518	462.12
596.727	436.12
596.937	437.12
597.146	429.12
597.355	442.12
597.564	421.12
597.774	417.12
597.983	420.12
598.192	405.12
598.401	422.12
598.61	423.12
598.819	416.12
599.028	387.12
599.237	392.12
599.446	407.12
599.655	397.12
599.864	413.12
600.073	378.12
600.282	383.12
600.491	396.12
600.7	388.12
600.909	383.12
601.118	377.12
601.327	384.12
601.536	379.12
601.745	379.12
601.953	368.12
602.162	387.12
602.371	383.12
602.58	372.12
602.789	358.12
602.997	376.12
603.206	391.12
603.415	387.12
603.623	373.12
603.832	381.12
604.041	364.12
604.249	367.12
604.458	365.12
604.666	361.12
604.875	347.12
605.084	367.12
605.292	360.12
605.501	371.12
605.709	358.12
605.918	359.12
606.126	358.12
606.334	342.12
606.543	379.12
606.751	359.12
606.96	375.12
607.168	353.12
607.376	351.12
607.585	357.12
607.793	349.12
608.001	344.12
608.21	328.12
608.418	339.12
608.626	343.12
608.834	349.12
609.043	372.12
609.251	353.12
609.459	337.12
609.667	341.12
609.875	340.12
610.083	357.12
610.291	336.12
610.499	359.12
610.707	335.12
610.916	332.12
611.124	345.12
611.332	333.12
611.54	330.12
611.748	337.12
611.955	338.12
612.163	346.12
612.371	321.12
612.579	343.12
612.787	330.12
612.995	356.12
613.203	332.12
613.411	344.12
613.618	352.12
613.826	334.12
614.034	312.12
614.242	328.12
614.449	338.12
614.657	313.12
614.865	311.12
615.072	320.12
615.28	327.12
615.488	337.12
615.695	334.12
615.903	333.12
616.111	321.12
616.318	352.12
616.526	339.12
616.733	329.12
616.941	337.12
617.148	324.12
617.356	338.12
617.563	324.12
617.771	327.12
617.978	300.12
618.185	329.12
618.393	320.12
618.6	323.12
618.807	332.12
619.015	333.12
619.222	332.12
619.429	328.12
619.637	341.12
619.844	320.12
620.051	322.12
620.258	311.12
620.466	312.12
620.673	289.12
620.88	300.12
621.087	326.12
621.294	298.12
621.501	311.12
621.708	292.12
621.915	291.12
622.122	295.12
622.329	317.12
622.536	295.12
622.743	303.12
622.95	299.12
623.157	288.12
623.364	300.12
623.571	297.12
623.778	296.12
623.985	290.12
624.192	295.12
624.399	284.12
624.606	277.12
624.812	276.12
625.019	285.12
625.226	293.12
625.433	289.12
625.639	286.12
625.846	285.12
626.053	286.12
626.259	275.12
626.466	278.12
626.673	273.12
626.879	266.12
627.086	261.12
627.293	292.12
627.499	296.12
627.706	278.12
627.912	282.12
628.119	291.12
628.325	277.12
628.532	258.12
628.738	283.12
628.945	273.12
629.151	276.12
629.357	279.12
629.564	248.12
629.77	265.12
629.976	263.12
630.183	269.12
630.389	257.12
630.595	264.12
630.802	258.12
631.008	269.12
631.214	272.12
631.42	270.12
631.627	269.12
631.833	263.12
632.039	253.12
632.245	234.12
632.451	259.12
632.657	264.12
632.863	247.12
633.069	251.12
633.275	256.12
633.481	250.12
633.688	240.12
633.893	273.12
634.099	242.12
634.305	231.12
634.511	236.12
634.717	231.12
634.923	244.12
635.129	247.12
635.335	225.12
635.541	244.12
635.747	243.12
635.952	241.12
636.158	232.12
636.364	264.12
636.57	252.12
636.775	266.12
636.981	240.12
637.187	239.12
637.392	238.12
637.598	227.12
637.804	233.12
638.009	229.12
638.215	253.12
638.421	219.12
638.626	232.12
638.832	225.12
639.037	233.12
639.243	252.12
639.448	237.12
639.654	239.12
639.859	235.12
640.065	228.12
640.27	232.12
640.475	233.12
640.681	225.12
640.886	225.12
641.091	220.12
641.297	238.12
641.502	210.12
641.707	218.12
641.913	242.12
642.118	197.12
642.323	224.12
642.528	224.12
642.733	209.12
642.939	233.12
643.144	232.12
643.349	212.12
643.554	207.12
643.759	221.12
643.964	234.12
644.169	213.12
644.374	221.12
644.579	210.12
644.784	206.12
644.989	233.12
645.194	222.12
645.399	213.12
645.604	195.12
645.809	218.12
646.014	226.12
646.219	219.12
646.423	217.12
646.628	239.12
646.833	213.12
647.038	212.12
647.243	216.12
647.447	223.12
647.652	237.12
647.857	225.12
648.062	237.12
648.266	232.12
648.471	236.12
648.676	222.12
648.88	239.12
649.085	223.12
649.289	217.12
649.494	213.12
649.698	217.12
649.903	216.12
650.107	201.12
650.312	220.12
650.516	200.12
650.721	201.12
650.925	203.12
651.13	195.12
651.334	205.12
651.539	196.12
651.743	197.12
651.947	188.12
652.152	186.12
652.356	186.12
652.56	183.12
652.764	191.12
652.969	193.12
653.173	185.12
653.377	164.12
653.581	181.12
653.785	156.12
653.99	165.12
654.194	172.12
654.398	163.12
654.602	178.12
654.806	165.12
655.01	155.12
655.214	153.12
655.418	177.12
655.622	177.12
655.826	171.12
656.03	153.12
656.234	159.12
656.438	161.12
656.642	169.12
656.846	155.12
657.049	151.12
657.253	142.12
657.457	142.12
657.661	139.12
657.865	140.12
658.068	139.12
658.272	124.12
658.476	123.12
658.68	134.12
658.883	122.12
659.087	119.12
659.291	100.12
659.494	118.12
659.698	115.12
659.901	115.12
660.105	115.12
660.309	98.12
660.512	99.12
660.716	99.12
660.919	98.12
661.123	116.12
661.326	99.12
661.53	97.12
661.733	86.12
661.936	96.12
662.14	96.12
662.343	99.12
662.546	83.12
662.75	93.12
662.953	91.12
663.156	91.12
663.36	75.12
663.563	76.12
663.766	87.12
663.969	91.12
664.173	79.12
664.376	93.12
664.579	66.12
664.782	78.12
664.985	75.12
665.188	85.12
665.391	99.12
665.594	81.12
665.797	81.12
666	83.12
666.203	78.12
666.406	91.12
666.609	77.12
666.812	77.12
667.015	77.12
667.218	80.12
667.421	77.12
667.624	92.12
667.827	84.12
668.03	71.12
668.232	75.12
668.435	93.12
668.638	65.12
668.841	89.12
669.043	93.12
669.246	72.12
669.449	72.12
669.651	80.12
669.854	81.12
670.057	78.12
670.259	80.12
670.462	73.12
670.665	65.12
670.867	71.12
671.07	83.12
671.272	96.12
671.475	81.12
671.677	68.12
671.88	76.12
672.082	67.12
672.284	97.12
672.487	86.12
672.689	77.12
672.892	77.12
