Data from Ni(NO3)2@0.125M.TitratingCurve.Agarose3%dH2O.NegLispCup.LampEnergy10.LIBS07252019_HRD10591_18-11-28-568.txt Node
Date: Thu Jul 25 18:11:28 EDT 2019
User: cochatt
Spectrometer: HR+D1059
Trigger mode: 1
Integration Time (sec): 1.000000E-1
Scans to average: 1
Electric dark correction enabled: true
Nonlinearity correction enabled: false
Boxcar width: 0
XAxis mode: Wavelengths
Number of Pixels in Spectrum: 2048
>>>>>Begin Spectral Data<<<<<
223.165	-14.56
223.4	-14.56
223.635	-14.56
223.869	-26.56
224.104	10.44
224.338	-27.56
224.573	-15.56
224.808	-24.56
225.042	-1.56
225.277	-25.56
225.511	-2.56
225.746	5.44
225.98	6.44
226.215	18.44
226.449	17.44
226.683	27.44
226.918	20.44
227.152	32.44
227.387	35.44
227.621	46.44
227.856	41.44
228.09	30.44
228.324	42.44
228.559	42.44
228.793	73.44
229.027	111.44
229.262	140.44
229.496	128.44
229.73	130.44
229.964	126.44
230.199	156.44
230.433	140.44
230.667	144.44
230.901	138.44
231.136	147.44
231.37	161.44
231.604	163.44
231.838	147.44
232.072	150.44
232.306	184.44
232.541	178.44
232.775	170.44
233.009	153.44
233.243	171.44
233.477	170.44
233.711	174.44
233.945	171.44
234.179	182.44
234.413	166.44
234.647	168.44
234.881	169.44
235.115	171.44
235.349	182.44
235.583	170.44
235.817	169.44
236.051	187.44
236.285	183.44
236.519	175.44
236.753	176.44
236.987	175.44
237.221	179.44
237.455	177.44
237.689	187.44
237.922	192.44
238.156	204.44
238.39	186.44
238.624	190.44
238.858	171.44
239.091	206.44
239.325	209.44
239.559	204.44
239.793	202.44
240.027	192.44
240.26	213.44
240.494	204.44
240.728	215.44
240.961	203.44
241.195	202.44
241.429	221.44
241.662	221.44
241.896	219.44
242.13	217.44
242.363	234.44
242.597	233.44
242.83	226.44
243.064	230.44
243.298	244.44
243.531	233.44
243.765	240.44
243.998	251.44
244.232	225.44
244.465	240.44
244.699	235.44
244.932	257.44
245.166	256.44
245.399	267.44
245.633	260.44
245.866	251.44
246.099	268.44
246.333	254.44
246.566	246.44
246.8	264.44
247.033	273.44
247.266	263.44
247.5	292.44
247.733	280.44
247.966	295.44
248.2	288.44
248.433	294.44
248.666	290.44
248.899	266.44
249.133	292.44
249.366	300.44
249.599	289.44
249.832	297.44
250.066	308.44
250.299	290.44
250.532	308.44
250.765	321.44
250.998	298.44
251.231	299.44
251.465	307.44
251.698	313.44
251.931	305.44
252.164	325.44
252.397	315.44
252.63	325.44
252.863	343.44
253.096	337.44
253.329	355.44
253.562	327.44
253.795	317.44
254.028	324.44
254.261	352.44
254.494	334.44
254.727	321.44
254.96	326.44
255.193	339.44
255.426	343.44
255.659	333.44
255.892	331.44
256.124	347.44
256.357	356.44
256.59	336.44
256.823	360.44
257.056	359.44
257.289	353.44
257.521	359.44
257.754	342.44
257.987	342.44
258.22	358.44
258.452	368.44
258.685	367.44
258.918	364.44
259.151	364.44
259.383	377.44
259.616	372.44
259.849	372.44
260.081	393.44
260.314	380.44
260.547	388.44
260.779	393.44
261.012	388.44
261.244	403.44
261.477	391.44
261.71	393.44
261.942	406.44
262.175	401.44
262.407	392.44
262.64	392.44
262.872	408.44
263.105	418.44
263.337	436.44
263.57	428.44
263.802	413.44
264.035	412.44
264.267	430.44
264.499	423.44
264.732	414.44
264.964	426.44
265.197	411.44
265.429	417.44
265.661	416.44
265.894	438.44
266.126	437.44
266.358	441.44
266.591	424.44
266.823	421.44
267.055	446.44
267.287	429.44
267.52	441.44
267.752	434.44
267.984	448.44
268.216	453.44
268.448	448.44
268.681	436.44
268.913	449.44
269.145	434.44
269.377	457.44
269.609	456.44
269.841	436.44
270.073	460.44
270.306	459.44
270.538	451.44
270.77	485.44
271.002	464.44
271.234	473.44
271.466	471.44
271.698	473.44
271.93	480.44
272.162	487.44
272.394	475.44
272.626	490.44
272.858	485.44
273.09	488.44
273.322	507.44
273.553	506.44
273.785	499.44
274.017	505.44
274.249	497.44
274.481	513.44
274.713	507.44
274.945	488.44
275.176	486.44
275.408	504.44
275.64	524.44
275.872	502.44
276.104	518.44
276.335	526.44
276.567	513.44
276.799	539.44
277.031	539.44
277.262	538.44
277.494	520.44
277.726	530.44
277.957	548.44
278.189	520.44
278.421	546.44
278.652	545.44
278.884	556.44
279.115	555.44
279.347	538.44
279.579	532.44
279.81	549.44
280.042	526.44
280.273	551.44
280.505	555.44
280.736	562.44
280.968	570.44
281.199	564.44
281.431	566.44
281.662	574.44
281.894	587.44
282.125	569.44
282.356	593.44
282.588	580.44
282.819	588.44
283.051	586.44
283.282	580.44
283.513	606.44
283.745	595.44
283.976	570.44
284.207	595.44
284.439	628.44
284.67	610.44
284.901	588.44
285.132	600.44
285.364	598.44
285.595	632.44
285.826	604.44
286.057	622.44
286.288	597.44
286.52	621.44
286.751	628.44
286.982	634.44
287.213	636.44
287.444	622.44
287.675	640.44
287.906	630.44
288.138	636.44
288.369	635.44
288.6	661.44
288.831	655.44
289.062	628.44
289.293	631.44
289.524	645.44
289.755	653.44
289.986	634.44
290.217	653.44
290.448	638.44
290.679	668.44
290.91	670.44
291.141	650.44
291.371	660.44
291.602	633.44
291.833	648.44
292.064	658.44
292.295	653.44
292.526	658.44
292.757	649.44
292.987	644.44
293.218	634.44
293.449	663.44
293.68	685.44
293.91	652.44
294.141	662.44
294.372	639.44
294.603	676.44
294.833	662.44
295.064	662.44
295.295	653.44
295.525	637.44
295.756	663.44
295.987	665.44
296.217	679.44
296.448	712.44
296.679	673.44
296.909	662.44
297.14	692.44
297.37	668.44
297.601	699.44
297.831	694.44
298.062	704.44
298.292	717.44
298.523	710.44
298.753	743.44
298.984	692.44
299.214	702.44
299.445	684.44
299.675	713.44
299.905	728.44
300.136	705.44
300.366	699.44
300.597	729.44
300.827	756.44
301.057	776.44
301.288	755.44
301.518	744.44
301.748	766.44
301.979	762.44
302.209	766.44
302.439	777.44
302.669	723.44
302.9	754.44
303.13	740.44
303.36	760.44
303.59	755.44
303.82	736.44
304.051	752.44
304.281	746.44
304.511	745.44
304.741	758.44
304.971	758.44
305.201	746.44
305.431	734.44
305.661	733.44
305.891	759.44
306.121	758.44
306.352	724.44
306.582	693.44
306.812	725.44
307.042	713.44
307.272	744.44
307.502	718.44
307.731	729.44
307.961	720.44
308.191	736.44
308.421	732.44
308.651	736.44
308.881	722.44
309.111	729.44
309.341	735.44
309.571	777.44
309.8	748.44
310.03	753.44
310.26	753.44
310.49	740.44
310.72	724.44
310.949	758.44
311.179	763.44
311.409	731.44
311.639	757.44
311.868	754.44
312.098	754.44
312.328	763.44
312.557	766.44
312.787	795.44
313.017	772.44
313.246	792.44
313.476	768.44
313.706	782.44
313.935	796.44
314.165	796.44
314.394	817.44
314.624	811.44
314.853	799.44
315.083	804.44
315.312	783.44
315.542	786.44
315.771	791.44
316.001	791.44
316.23	768.44
316.46	747.44
316.689	775.44
316.919	798.44
317.148	774.44
317.377	784.44
317.607	770.44
317.836	811.44
318.065	770.44
318.295	785.44
318.524	795.44
318.753	806.44
318.983	783.44
319.212	786.44
319.441	773.44
319.67	796.44
319.9	786.44
320.129	786.44
320.358	763.44
320.587	805.44
320.816	802.44
321.046	804.44
321.275	801.44
321.504	809.44
321.733	770.44
321.962	775.44
322.191	808.44
322.42	779.44
322.649	778.44
322.878	784.44
323.108	796.44
323.337	808.44
323.566	804.44
323.795	815.44
324.024	839.44
324.253	828.44
324.482	814.44
324.71	810.44
324.939	817.44
325.168	816.44
325.397	831.44
325.626	853.44
325.855	858.44
326.084	843.44
326.313	873.44
326.542	855.44
326.77	885.44
326.999	884.44
327.228	855.44
327.457	852.44
327.686	842.44
327.914	892.44
328.143	879.44
328.372	861.44
328.6	874.44
328.829	850.44
329.058	853.44
329.287	872.44
329.515	885.44
329.744	874.44
329.972	908.44
330.201	888.44
330.43	921.44
330.658	909.44
330.887	919.44
331.115	916.44
331.344	913.44
331.572	910.44
331.801	938.44
332.03	958.44
332.258	1015.44
332.486	1036.44
332.715	1060.44
332.943	1103.44
333.172	1140.44
333.4	1220.44
333.629	1229.44
333.857	1220.44
334.085	1176.44
334.314	1151.44
334.542	1150.44
334.771	1109.44
334.999	1106.44
335.227	1105.44
335.455	1102.44
335.684	1092.44
335.912	1075.44
336.14	1091.44
336.369	1060.44
336.597	1090.44
336.825	1050.44
337.053	1077.44
337.281	1053.44
337.51	988.44
337.738	992.44
337.966	1006.44
338.194	1006.44
338.422	973.44
338.65	978.44
338.878	979.44
339.106	971.44
339.334	973.44
339.562	955.44
339.79	928.44
340.018	916.44
340.246	939.44
340.474	907.44
340.702	901.44
340.93	933.44
341.158	925.44
341.386	911.44
341.614	947.44
341.842	897.44
342.07	923.44
342.298	902.44
342.526	908.44
342.754	899.44
342.981	913.44
343.209	944.44
343.437	983.44
343.665	1045.44
343.893	1153.44
344.12	1160.44
344.348	1093.44
344.576	1042.44
344.804	990.44
345.031	930.44
345.259	958.44
345.487	938.44
345.714	920.44
345.942	880.44
346.17	934.44
346.397	901.44
346.625	907.44
346.853	889.44
347.08	884.44
347.308	896.44
347.535	892.44
347.763	894.44
347.99	898.44
348.218	915.44
348.445	888.44
348.673	875.44
348.9	874.44
349.128	910.44
349.355	876.44
349.583	871.44
349.81	897.44
350.037	868.44
350.265	845.44
350.492	872.44
350.72	853.44
350.947	830.44
351.174	869.44
351.402	862.44
351.629	856.44
351.856	853.44
352.083	840.44
352.311	833.44
352.538	844.44
352.765	818.44
352.992	865.44
353.22	835.44
353.447	852.44
353.674	840.44
353.901	858.44
354.128	852.44
354.355	841.44
354.583	832.44
354.81	845.44
355.037	852.44
355.264	859.44
355.491	861.44
355.718	864.44
355.945	853.44
356.172	876.44
356.399	867.44
356.626	848.44
356.853	883.44
357.08	829.44
357.307	851.44
357.534	868.44
357.761	886.44
357.988	869.44
358.215	854.44
358.441	824.44
358.668	862.44
358.895	852.44
359.122	867.44
359.349	865.44
359.576	878.44
359.802	868.44
360.029	845.44
360.256	858.44
360.483	861.44
360.709	863.44
360.936	856.44
361.163	851.44
361.39	854.44
361.616	849.44
361.843	834.44
362.07	847.44
362.296	842.44
362.523	842.44
362.749	854.44
362.976	845.44
363.203	833.44
363.429	875.44
363.656	876.44
363.882	856.44
364.109	854.44
364.335	846.44
364.562	854.44
364.788	818.44
365.015	843.44
365.241	867.44
365.468	873.44
365.694	877.44
365.92	853.44
366.147	849.44
366.373	853.44
366.599	852.44
366.826	839.44
367.052	832.44
367.278	866.44
367.505	840.44
367.731	873.44
367.957	846.44
368.184	859.44
368.41	877.44
368.636	861.44
368.862	858.44
369.089	857.44
369.315	857.44
369.541	892.44
369.767	868.44
369.993	887.44
370.219	869.44
370.445	884.44
370.672	898.44
370.898	904.44
371.124	949.44
371.35	931.44
371.576	930.44
371.802	910.44
372.028	914.44
372.254	929.44
372.48	948.44
372.706	931.44
372.932	979.44
373.158	960.44
373.384	966.44
373.61	946.44
373.835	949.44
374.061	908.44
374.287	964.44
374.513	954.44
374.739	995.44
374.965	1012.44
375.191	1032.44
375.416	1015.44
375.642	985.44
375.868	965.44
376.094	966.44
376.319	967.44
376.545	959.44
376.771	926.44
376.997	944.44
377.222	929.44
377.448	934.44
377.674	948.44
377.899	931.44
378.125	909.44
378.35	922.44
378.576	914.44
378.802	948.44
379.027	941.44
379.253	898.44
379.478	900.44
379.704	920.44
379.929	906.44
380.155	906.44
380.38	904.44
380.606	936.44
380.831	945.44
381.057	934.44
381.282	940.44
381.507	916.44
381.733	933.44
381.958	945.44
382.184	977.44
382.409	978.44
382.634	975.44
382.86	969.44
383.085	997.44
383.31	1010.44
383.535	1038.44
383.761	1042.44
383.986	1065.44
384.211	1082.44
384.436	1110.44
384.662	1145.44
384.887	1143.44
385.112	1146.44
385.337	1162.44
385.562	1124.44
385.787	1108.44
386.013	1114.44
386.238	1131.44
386.463	1161.44
386.688	1131.44
386.913	1096.44
387.138	1092.44
387.363	1106.44
387.588	1130.44
387.813	1116.44
388.038	1097.44
388.263	1092.44
388.488	1144.44
388.713	1139.44
388.938	1111.44
389.163	1101.44
389.387	1115.44
389.612	1114.44
389.837	1115.44
390.062	1091.44
390.287	1080.44
390.512	1101.44
390.736	1137.44
390.961	1136.44
391.186	1157.44
391.411	1187.44
391.636	1221.44
391.86	1264.44
392.085	1281.44
392.31	1280.44
392.534	1250.44
392.759	1207.44
392.984	1179.44
393.208	1204.44
393.433	1190.44
393.658	1195.44
393.882	1210.44
394.107	1233.44
394.331	1217.44
394.556	1219.44
394.78	1208.44
395.005	1201.44
395.229	1179.44
395.454	1252.44
395.678	1288.44
395.903	1313.44
396.127	1252.44
396.352	1196.44
396.576	1159.44
396.801	1178.44
397.025	1190.44
397.249	1240.44
397.474	1251.44
397.698	1278.44
397.922	1271.44
398.147	1278.44
398.371	1306.44
398.595	1329.44
398.82	1398.44
399.044	1507.44
399.268	1700.44
399.492	1960.44
399.717	2215.44
399.941	2196.44
400.165	1885.44
400.389	1732.44
400.613	1602.44
400.837	1509.44
401.062	1438.44
401.286	1470.44
401.51	1451.44
401.734	1386.44
401.958	1438.44
402.182	1453.44
402.406	1498.44
402.63	1494.44
402.854	1516.44
403.078	1577.44
403.302	1578.44
403.526	1620.44
403.75	1630.44
403.974	1688.44
404.198	1702.44
404.422	1720.44
404.645	1643.44
404.869	1641.44
405.093	1654.44
405.317	1586.44
405.541	1594.44
405.765	1552.44
405.988	1526.44
406.212	1545.44
406.436	1566.44
406.66	1615.44
406.883	1660.44
407.107	1740.44
407.331	1798.44
407.555	1876.44
407.778	1857.44
408.002	1781.44
408.226	1748.44
408.449	1710.44
408.673	1652.44
408.896	1613.44
409.12	1601.44
409.344	1622.44
409.567	1611.44
409.791	1670.44
410.014	1616.44
410.238	1612.44
410.461	1564.44
410.685	1589.44
410.908	1515.44
411.132	1526.44
411.355	1488.44
411.578	1473.44
411.802	1476.44
412.025	1471.44
412.249	1506.44
412.472	1499.44
412.695	1440.44
412.919	1420.44
413.142	1394.44
413.365	1417.44
413.589	1444.44
413.812	1406.44
414.035	1397.44
414.258	1387.44
414.482	1396.44
414.705	1465.44
414.928	1463.44
415.151	1422.44
415.374	1430.44
415.597	1436.44
415.821	1410.44
416.044	1400.44
416.267	1347.44
416.49	1350.44
416.713	1373.44
416.936	1422.44
417.159	1414.44
417.382	1404.44
417.605	1366.44
417.828	1392.44
418.051	1384.44
418.274	1401.44
418.497	1376.44
418.72	1462.44
418.943	1446.44
419.166	1554.44
419.389	1596.44
419.611	1593.44
419.834	1515.44
420.057	1459.44
420.28	1446.44
420.503	1376.44
420.726	1363.44
420.948	1358.44
421.171	1376.44
421.394	1404.44
421.617	1375.44
421.839	1364.44
422.062	1438.44
422.285	1410.44
422.507	1484.44
422.73	1451.44
422.953	1438.44
423.175	1461.44
423.398	1508.44
423.621	1491.44
423.843	1508.44
424.066	1512.44
424.288	1482.44
424.511	1473.44
424.733	1449.44
424.956	1377.44
425.178	1394.44
425.401	1414.44
425.623	1388.44
425.846	1369.44
426.068	1350.44
426.291	1344.44
426.513	1298.44
426.735	1296.44
426.958	1303.44
427.18	1268.44
427.402	1249.44
427.625	1266.44
427.847	1218.44
428.069	1223.44
428.292	1284.44
428.514	1206.44
428.736	1212.44
428.958	1226.44
429.181	1181.44
429.403	1186.44
429.625	1202.44
429.847	1192.44
430.069	1206.44
430.292	1204.44
430.514	1201.44
430.736	1179.44
430.958	1228.44
431.18	1204.44
431.402	1242.44
431.624	1212.44
431.846	1255.44
432.068	1251.44
432.29	1312.44
432.512	1204.44
432.734	1243.44
432.956	1225.44
433.178	1245.44
433.4	1237.44
433.622	1240.44
433.844	1260.44
434.066	1235.44
434.287	1272.44
434.509	1334.44
434.731	1363.44
434.953	1397.44
435.175	1422.44
435.397	1393.44
435.618	1345.44
435.84	1286.44
436.062	1214.44
436.284	1228.44
436.505	1226.44
436.727	1256.44
436.949	1246.44
437.17	1236.44
437.392	1209.44
437.614	1188.44
437.835	1200.44
438.057	1204.44
438.278	1170.44
438.5	1176.44
438.721	1173.44
438.943	1204.44
439.165	1168.44
439.386	1186.44
439.608	1192.44
439.829	1213.44
440.05	1222.44
440.272	1236.44
440.493	1224.44
440.715	1232.44
440.936	1286.44
441.158	1308.44
441.379	1318.44
441.6	1348.44
441.822	1385.44
442.043	1399.44
442.264	1356.44
442.486	1342.44
442.707	1382.44
442.928	1355.44
443.149	1376.44
443.371	1385.44
443.592	1411.44
443.813	1398.44
444.034	1417.44
444.255	1461.44
444.476	1510.44
444.698	1624.44
444.919	1683.44
445.14	1741.44
445.361	1566.44
445.582	1436.44
445.803	1372.44
446.024	1296.44
446.245	1307.44
446.466	1283.44
446.687	1245.44
446.908	1253.44
447.129	1212.44
447.35	1202.44
447.571	1194.44
447.792	1152.44
448.013	1174.44
448.234	1145.44
448.455	1179.44
448.675	1106.44
448.896	1131.44
449.117	1115.44
449.338	1130.44
449.559	1124.44
449.779	1106.44
450	1108.44
450.221	1086.44
450.442	1170.44
450.662	1120.44
450.883	1163.44
451.104	1129.44
451.324	1173.44
451.545	1146.44
451.766	1134.44
451.986	1116.44
452.207	1096.44
452.428	1138.44
452.648	1128.44
452.869	1083.44
453.089	1073.44
453.31	1109.44
453.53	1086.44
453.751	1071.44
453.971	1100.44
454.192	1100.44
454.412	1077.44
454.633	1032.44
454.853	1058.44
455.073	1040.44
455.294	1073.44
455.514	1044.44
455.734	1056.44
455.955	1013.44
456.175	1028.44
456.395	1029.44
456.616	1036.44
456.836	1018.44
457.056	1041.44
457.276	1032.44
457.497	1063.44
457.717	1037.44
457.937	1047.44
458.157	1088.44
458.377	1080.44
458.598	1131.44
458.818	1127.44
459.038	1157.44
459.258	1196.44
459.478	1236.44
459.698	1269.44
459.918	1313.44
460.138	1371.44
460.358	1482.44
460.578	1500.44
460.798	1459.44
461.018	1526.44
461.238	1471.44
461.458	1434.44
461.678	1481.44
461.898	1486.44
462.118	1464.44
462.338	1566.44
462.558	1613.44
462.777	1664.44
462.997	1817.44
463.217	2017.44
463.437	2001.44
463.657	1815.44
463.876	1701.44
464.096	1712.44
464.316	1722.44
464.536	1806.44
464.755	1638.44
464.975	1573.44
465.195	1511.44
465.414	1405.44
465.634	1304.44
465.854	1254.44
466.073	1247.44
466.293	1226.44
466.512	1206.44
466.732	1167.44
466.951	1176.44
467.171	1180.44
467.391	1196.44
467.61	1143.44
467.829	1123.44
468.049	1142.44
468.268	1138.44
468.488	1129.44
468.707	1100.44
468.927	1080.44
469.146	1093.44
469.365	1100.44
469.585	1118.44
469.804	1157.44
470.023	1220.44
470.243	1206.44
470.462	1210.44
470.681	1185.44
470.901	1209.44
471.12	1197.44
471.339	1146.44
471.558	1146.44
471.777	1144.44
471.997	1123.44
472.216	1120.44
472.435	1106.44
472.654	1100.44
472.873	1068.44
473.092	1083.44
473.311	1076.44
473.53	1088.44
473.749	1078.44
473.968	1090.44
474.187	1086.44
474.406	1063.44
474.625	1086.44
474.844	1088.44
475.063	1104.44
475.282	1072.44
475.501	1101.44
475.72	1137.44
475.939	1133.44
476.158	1124.44
476.377	1122.44
476.596	1132.44
476.814	1164.44
477.033	1174.44
477.252	1194.44
477.471	1194.44
477.69	1236.44
477.908	1254.44
478.127	1287.44
478.346	1302.44
478.564	1329.44
478.783	1341.44
479.002	1408.44
479.22	1398.44
479.439	1372.44
479.658	1370.44
479.876	1350.44
480.095	1381.44
480.313	1456.44
480.532	1527.44
480.751	1524.44
480.969	1453.44
481.188	1326.44
481.406	1294.44
481.624	1276.44
481.843	1282.44
482.061	1282.44
482.28	1300.44
482.498	1258.44
482.717	1232.44
482.935	1234.44
483.153	1238.44
483.372	1235.44
483.59	1240.44
483.808	1257.44
484.027	1242.44
484.245	1267.44
484.463	1291.44
484.681	1299.44
484.9	1296.44
485.118	1328.44
485.336	1291.44
485.554	1330.44
485.772	1348.44
485.99	1318.44
486.209	1330.44
486.427	1343.44
486.645	1322.44
486.863	1339.44
487.081	1330.44
487.299	1309.44
487.517	1332.44
487.735	1323.44
487.953	1322.44
488.171	1353.44
488.389	1348.44
488.607	1314.44
488.825	1306.44
489.043	1321.44
489.261	1299.44
489.479	1316.44
489.696	1261.44
489.914	1314.44
490.132	1312.44
490.35	1330.44
490.568	1293.44
490.786	1341.44
491.003	1314.44
491.221	1319.44
491.439	1316.44
491.657	1327.44
491.874	1349.44
492.092	1304.44
492.31	1314.44
492.527	1336.44
492.745	1350.44
492.963	1360.44
493.18	1341.44
493.398	1366.44
493.615	1394.44
493.833	1373.44
494.05	1397.44
494.268	1386.44
494.485	1389.44
494.703	1409.44
494.92	1408.44
495.138	1358.44
495.355	1380.44
495.573	1393.44
495.79	1394.44
496.008	1401.44
496.225	1400.44
496.442	1394.44
496.66	1430.44
496.877	1448.44
497.094	1478.44
497.312	1517.44
497.529	1529.44
497.746	1592.44
497.963	1579.44
498.181	1669.44
498.398	1752.44
498.615	1873.44
498.832	2023.44
499.049	2205.44
499.267	2354.44
499.484	2578.44
499.701	2910.44
499.918	3192.44
500.135	3676.44
500.352	4242.44
500.569	4476.44
500.786	4412.44
501.003	4080.44
501.22	3638.44
501.437	3133.44
501.654	2756.44
501.871	2461.44
502.088	2273.44
502.305	2098.44
502.522	2040.44
502.739	1929.44
502.956	1864.44
503.172	1737.44
503.389	1670.44
503.606	1620.44
503.823	1570.44
504.04	1594.44
504.256	1604.44
504.473	1677.44
504.69	1704.44
504.907	1676.44
505.123	1570.44
505.34	1443.44
505.557	1372.44
505.773	1349.44
505.99	1305.44
506.207	1274.44
506.423	1264.44
506.64	1243.44
506.856	1250.44
507.073	1211.44
507.289	1215.44
507.506	1219.44
507.722	1211.44
507.939	1225.44
508.155	1200.44
508.372	1161.44
508.588	1168.44
508.805	1179.44
509.021	1144.44
509.238	1130.44
509.454	1150.44
509.67	1120.44
509.887	1125.44
510.103	1089.44
510.319	1126.44
510.536	1116.44
510.752	1101.44
510.968	1110.44
511.184	1106.44
511.401	1115.44
511.617	1082.44
511.833	1120.44
512.049	1103.44
512.265	1104.44
512.481	1105.44
512.698	1082.44
512.914	1086.44
513.13	1065.44
513.346	1092.44
513.562	1098.44
513.778	1125.44
513.994	1128.44
514.21	1124.44
514.426	1121.44
514.642	1125.44
514.858	1133.44
515.074	1203.44
515.29	1149.44
515.506	1162.44
515.721	1186.44
515.937	1227.44
516.153	1218.44
516.369	1237.44
516.585	1257.44
516.801	1301.44
517.016	1381.44
517.232	1434.44
517.448	1564.44
517.664	1566.44
517.879	1597.44
518.095	1585.44
518.311	1579.44
518.527	1500.44
518.742	1409.44
518.958	1339.44
519.173	1316.44
519.389	1288.44
519.605	1235.44
519.82	1187.44
520.036	1175.44
520.251	1168.44
520.467	1146.44
520.682	1143.44
520.898	1124.44
521.113	1107.44
521.329	1091.44
521.544	1107.44
521.76	1073.44
521.975	1051.44
522.19	1076.44
522.406	1042.44
522.621	1043.44
522.836	1030.44
523.052	1037.44
523.267	1043.44
523.482	1015.44
523.698	1035.44
523.913	999.44
524.128	1026.44
524.343	981.44
524.559	983.44
524.774	1008.44
524.989	1010.44
525.204	1005.44
525.419	988.44
525.634	989.44
525.849	979.44
526.064	1020.44
526.28	997.44
526.495	984.44
526.71	979.44
526.925	997.44
527.14	963.44
527.355	993.44
527.57	1005.44
527.785	980.44
527.999	986.44
528.214	966.44
528.429	1036.44
528.644	1012.44
528.859	1008.44
529.074	1016.44
529.289	983.44
529.503	1004.44
529.718	997.44
529.933	979.44
530.148	985.44
530.363	1005.44
530.577	976.44
530.792	1004.44
531.007	986.44
531.221	1003.44
531.436	998.44
531.651	986.44
531.865	1010.44
532.08	986.44
532.295	964.44
532.509	1005.44
532.724	1008.44
532.938	994.44
533.153	1012.44
533.367	1008.44
533.582	974.44
533.796	993.44
534.011	996.44
534.225	977.44
534.44	974.44
534.654	963.44
534.868	977.44
535.083	970.44
535.297	962.44
535.511	956.44
535.726	946.44
535.94	966.44
536.154	938.44
536.369	938.44
536.583	910.44
536.797	912.44
537.011	916.44
537.225	915.44
537.44	922.44
537.654	915.44
537.868	932.44
538.082	891.44
538.296	888.44
538.51	906.44
538.724	906.44
538.938	903.44
539.153	912.44
539.367	900.44
539.581	897.44
539.795	882.44
540.009	864.44
540.222	875.44
540.436	892.44
540.65	916.44
540.864	880.44
541.078	885.44
541.292	917.44
541.506	905.44
541.72	912.44
541.934	867.44
542.147	889.44
542.361	891.44
542.575	876.44
542.789	883.44
543.002	866.44
543.216	885.44
543.43	854.44
543.644	854.44
543.857	883.44
544.071	884.44
544.285	910.44
544.498	888.44
544.712	887.44
544.925	887.44
545.139	868.44
545.352	910.44
545.566	899.44
545.779	904.44
545.993	896.44
546.206	909.44
546.42	882.44
546.633	887.44
546.847	910.44
547.06	937.44
547.274	884.44
547.487	906.44
547.7	905.44
547.914	897.44
548.127	896.44
548.34	891.44
548.554	915.44
548.767	913.44
548.98	934.44
549.193	930.44
549.407	927.44
549.62	925.44
549.833	977.44
550.046	941.44
550.259	921.44
550.473	905.44
550.686	881.44
550.899	894.44
551.112	892.44
551.325	884.44
551.538	899.44
551.751	867.44
551.964	862.44
552.177	930.44
552.39	894.44
552.603	908.44
552.816	952.44
553.029	969.44
553.242	1009.44
553.455	1024.44
553.667	1019.44
553.88	1013.44
554.093	964.44
554.306	948.44
554.519	914.44
554.732	903.44
554.944	888.44
555.157	857.44
555.37	842.44
555.583	841.44
555.795	839.44
556.008	793.44
556.221	792.44
556.433	801.44
556.646	776.44
556.859	785.44
557.071	795.44
557.284	786.44
557.496	784.44
557.709	775.44
557.921	787.44
558.134	756.44
558.346	774.44
558.559	777.44
558.771	744.44
558.984	733.44
559.196	746.44
559.409	731.44
559.621	771.44
559.833	728.44
560.046	747.44
560.258	731.44
560.47	760.44
560.683	780.44
560.895	738.44
561.107	736.44
561.32	754.44
561.532	742.44
561.744	753.44
561.956	740.44
562.168	714.44
562.381	735.44
562.593	746.44
562.805	739.44
563.017	756.44
563.229	737.44
563.441	732.44
563.653	740.44
563.865	755.44
564.077	778.44
564.289	766.44
564.501	753.44
564.713	787.44
564.925	809.44
565.137	822.44
565.349	828.44
565.561	831.44
565.773	903.44
565.985	932.44
566.197	962.44
566.408	1074.44
566.62	1136.44
566.832	1245.44
567.044	1252.44
567.255	1239.44
567.467	1259.44
567.679	1394.44
567.891	1484.44
568.102	1544.44
568.314	1476.44
568.526	1317.44
568.737	1192.44
568.949	1083.44
569.161	985.44
569.372	909.44
569.584	818.44
569.795	804.44
570.007	810.44
570.218	780.44
570.43	756.44
570.641	763.44
570.853	792.44
571.064	773.44
571.276	774.44
571.487	747.44
571.698	735.44
571.91	671.44
572.121	680.44
572.333	677.44
572.544	645.44
572.755	651.44
572.966	629.44
573.178	617.44
573.389	615.44
573.6	615.44
573.811	629.44
574.023	614.44
574.234	625.44
574.445	614.44
574.656	616.44
574.867	611.44
575.078	605.44
575.289	607.44
575.501	596.44
575.712	572.44
575.923	596.44
576.134	585.44
576.345	577.44
576.556	564.44
576.767	544.44
576.978	570.44
577.188	562.44
577.399	565.44
577.61	562.44
577.821	550.44
578.032	554.44
578.243	545.44
578.454	566.44
578.665	525.44
578.875	545.44
579.086	548.44
579.297	534.44
579.508	536.44
579.718	555.44
579.929	519.44
580.14	516.44
580.35	517.44
580.561	533.44
580.772	504.44
580.982	524.44
581.193	525.44
581.403	524.44
581.614	515.44
581.825	523.44
582.035	512.44
582.246	520.44
582.456	533.44
582.667	508.44
582.877	480.44
583.087	510.44
583.298	498.44
583.508	481.44
583.719	491.44
583.929	509.44
584.139	468.44
584.35	478.44
584.56	481.44
584.77	485.44
584.981	465.44
585.191	510.44
585.401	466.44
585.611	480.44
585.821	483.44
586.032	493.44
586.242	476.44
586.452	491.44
586.662	496.44
586.872	490.44
587.082	487.44
587.292	469.44
587.502	480.44
587.713	474.44
587.923	485.44
588.133	496.44
588.343	489.44
588.553	470.44
588.762	466.44
588.972	482.44
589.182	484.44
589.392	486.44
589.602	508.44
589.812	495.44
590.022	496.44
590.232	471.44
590.441	495.44
590.651	483.44
590.861	492.44
591.071	507.44
591.281	493.44
591.49	497.44
591.7	502.44
591.91	518.44
592.119	525.44
592.329	540.44
592.539	538.44
592.748	574.44
592.958	602.44
593.167	610.44
593.377	618.44
593.587	634.44
593.796	632.44
594.006	610.44
594.215	628.44
594.424	650.44
594.634	631.44
594.843	590.44
595.053	556.44
595.262	546.44
595.472	532.44
595.681	528.44
595.89	494.44
596.1	498.44
596.309	485.44
596.518	460.44
596.727	450.44
596.937	429.44
597.146	444.44
597.355	451.44
597.564	471.44
597.774	452.44
597.983	424.44
598.192	421.44
598.401	422.44
598.61	421.44
598.819	435.44
599.028	424.44
599.237	402.44
599.446	399.44
599.655	419.44
599.864	404.44
600.073	420.44
600.282	415.44
600.491	417.44
600.7	407.44
600.909	408.44
601.118	403.44
601.327	404.44
601.536	413.44
601.745	386.44
601.953	396.44
602.162	416.44
602.371	388.44
602.58	392.44
602.789	397.44
602.997	394.44
603.206	368.44
603.415	382.44
603.623	373.44
603.832	375.44
604.041	383.44
604.249	381.44
604.458	384.44
604.666	386.44
604.875	375.44
605.084	370.44
605.292	363.44
605.501	357.44
605.709	382.44
605.918	379.44
606.126	353.44
606.334	373.44
606.543	362.44
606.751	374.44
606.96	365.44
607.168	368.44
607.376	361.44
607.585	365.44
607.793	379.44
608.001	382.44
608.21	361.44
608.418	370.44
608.626	365.44
608.834	360.44
609.043	358.44
609.251	363.44
609.459	357.44
609.667	374.44
609.875	348.44
610.083	344.44
610.291	357.44
610.499	344.44
610.707	366.44
610.916	349.44
611.124	363.44
611.332	358.44
611.54	349.44
611.748	361.44
611.955	366.44
612.163	356.44
612.371	351.44
612.579	362.44
612.787	338.44
612.995	353.44
613.203	333.44
613.411	335.44
613.618	354.44
613.826	346.44
614.034	349.44
614.242	354.44
614.449	328.44
614.657	350.44
614.865	344.44
615.072	357.44
615.28	347.44
615.488	349.44
615.695	354.44
615.903	371.44
616.111	332.44
616.318	363.44
616.526	368.44
616.733	368.44
616.941	382.44
617.148	354.44
617.356	354.44
617.563	350.44
617.771	348.44
617.978	340.44
618.185	346.44
618.393	352.44
618.6	339.44
618.807	346.44
619.015	348.44
619.222	337.44
619.429	349.44
619.637	342.44
619.844	360.44
620.051	332.44
620.258	337.44
620.466	306.44
620.673	299.44
620.88	316.44
621.087	326.44
621.294	324.44
621.501	319.44
621.708	323.44
621.915	312.44
622.122	334.44
622.329	316.44
622.536	309.44
622.743	326.44
622.95	311.44
623.157	294.44
623.364	290.44
623.571	302.44
623.778	308.44
623.985	308.44
624.192	305.44
624.399	289.44
624.606	288.44
624.812	308.44
625.019	282.44
625.226	294.44
625.433	297.44
625.639	295.44
625.846	291.44
626.053	276.44
626.259	297.44
626.466	295.44
626.673	297.44
626.879	282.44
627.086	291.44
627.293	280.44
627.499	276.44
627.706	280.44
627.912	284.44
628.119	274.44
628.325	282.44
628.532	291.44
628.738	280.44
628.945	281.44
629.151	259.44
629.357	288.44
629.564	258.44
629.77	272.44
629.976	268.44
630.183	259.44
630.389	267.44
630.595	276.44
630.802	262.44
631.008	265.44
631.214	280.44
631.42	272.44
631.627	267.44
631.833	242.44
632.039	269.44
632.245	257.44
632.451	249.44
632.657	249.44
632.863	259.44
633.069	246.44
633.275	244.44
633.481	268.44
633.688	261.44
633.893	237.44
634.099	268.44
634.305	244.44
634.511	243.44
634.717	265.44
634.923	245.44
635.129	254.44
635.335	233.44
635.541	226.44
635.747	238.44
635.952	250.44
636.158	243.44
636.364	240.44
636.57	249.44
636.775	239.44
636.981	229.44
637.187	256.44
637.392	247.44
637.598	253.44
637.804	247.44
638.009	239.44
638.215	248.44
638.421	244.44
638.626	234.44
638.832	240.44
639.037	226.44
639.243	241.44
639.448	239.44
639.654	235.44
639.859	224.44
640.065	219.44
640.27	224.44
640.475	234.44
640.681	217.44
640.886	221.44
641.091	233.44
641.297	232.44
641.502	226.44
641.707	226.44
641.913	226.44
642.118	230.44
642.323	210.44
642.528	240.44
642.733	207.44
642.939	222.44
643.144	215.44
643.349	232.44
643.554	210.44
643.759	186.44
643.964	202.44
644.169	218.44
644.374	216.44
644.579	224.44
644.784	228.44
644.989	221.44
645.194	221.44
645.399	212.44
645.604	214.44
645.809	218.44
646.014	208.44
646.219	237.44
646.423	215.44
646.628	224.44
646.833	227.44
647.038	250.44
647.243	230.44
647.447	223.44
647.652	231.44
647.857	223.44
648.062	237.44
648.266	237.44
648.471	252.44
648.676	247.44
648.88	224.44
649.085	235.44
649.289	248.44
649.494	228.44
649.698	224.44
649.903	204.44
650.107	210.44
650.312	207.44
650.516	214.44
650.721	220.44
650.925	208.44
651.13	188.44
651.334	204.44
651.539	194.44
651.743	211.44
651.947	200.44
652.152	197.44
652.356	199.44
652.56	205.44
652.764	185.44
652.969	181.44
653.173	181.44
653.377	189.44
653.581	177.44
653.785	189.44
653.99	173.44
654.194	192.44
654.398	180.44
654.602	166.44
654.806	175.44
655.01	182.44
655.214	174.44
655.418	169.44
655.622	158.44
655.826	191.44
656.03	173.44
656.234	194.44
656.438	189.44
656.642	186.44
656.846	170.44
657.049	164.44
657.253	171.44
657.457	146.44
657.661	144.44
657.865	125.44
658.068	132.44
658.272	129.44
658.476	114.44
658.68	124.44
658.883	125.44
659.087	103.44
659.291	107.44
659.494	117.44
659.698	130.44
659.901	101.44
660.105	91.44
660.309	107.44
660.512	112.44
660.716	103.44
660.919	105.44
661.123	93.44
661.326	94.44
661.53	105.44
661.733	86.44
661.936	103.44
662.14	87.44
662.343	88.44
662.546	70.44
662.75	97.44
662.953	85.44
663.156	85.44
663.36	87.44
663.563	73.44
663.766	71.44
663.969	89.44
664.173	98.44
664.376	76.44
664.579	83.44
664.782	90.44
664.985	89.44
665.188	76.44
665.391	67.44
665.594	84.44
665.797	72.44
666	81.44
666.203	94.44
666.406	79.44
666.609	86.44
666.812	75.44
667.015	74.44
667.218	69.44
667.421	68.44
667.624	77.44
667.827	71.44
668.03	108.44
668.232	81.44
668.435	85.44
668.638	95.44
668.841	84.44
669.043	78.44
669.246	73.44
669.449	87.44
669.651	70.44
669.854	70.44
670.057	91.44
670.259	89.44
670.462	79.44
670.665	92.44
670.867	83.44
671.07	78.44
671.272	88.44
671.475	85.44
671.677	80.44
671.88	76.44
672.082	92.44
672.284	82.44
672.487	93.44
672.689	83.44
672.892	75.44
