Data from Ni(NO3)2@0.5M.TitratingCurve.Agarose3%dH2O.NegLispCup.LampEnergy10.LIBS07252019_HRD10591_17-58-00-564.txt Node
Date: Thu Jul 25 17:58:00 EDT 2019
User: cochatt
Spectrometer: HR+D1059
Trigger mode: 1
Integration Time (sec): 1.000000E-1
Scans to average: 1
Electric dark correction enabled: true
Nonlinearity correction enabled: false
Boxcar width: 0
XAxis mode: Wavelengths
Number of Pixels in Spectrum: 2048
>>>>>Begin Spectral Data<<<<<
223.165	-20.88
223.4	-20.88
223.635	-20.88
223.869	-21.88
224.104	-19.88
224.338	-9.88
224.573	-17.88
224.808	-7.88
225.042	-4.88
225.277	-8.88
225.511	0.12
225.746	-15.88
225.98	8.12
226.215	4.12
226.449	25.12
226.683	32.12
226.918	26.12
227.152	32.12
227.387	37.12
227.621	28.12
227.856	45.12
228.09	54.12
228.324	47.12
228.559	50.12
228.793	98.12
229.027	156.12
229.262	181.12
229.496	178.12
229.73	189.12
229.964	223.12
230.199	273.12
230.433	288.12
230.667	257.12
230.901	257.12
231.136	215.12
231.37	228.12
231.604	249.12
231.838	250.12
232.072	281.12
232.306	249.12
232.541	229.12
232.775	218.12
233.009	207.12
233.243	196.12
233.477	194.12
233.711	221.12
233.945	228.12
234.179	225.12
234.413	217.12
234.647	242.12
234.881	234.12
235.115	253.12
235.349	201.12
235.583	213.12
235.817	221.12
236.051	212.12
236.285	229.12
236.519	229.12
236.753	224.12
236.987	224.12
237.221	229.12
237.455	217.12
237.689	221.12
237.922	234.12
238.156	232.12
238.39	241.12
238.624	219.12
238.858	248.12
239.091	258.12
239.325	238.12
239.559	260.12
239.793	295.12
240.027	322.12
240.26	286.12
240.494	273.12
240.728	266.12
240.961	264.12
241.195	267.12
241.429	274.12
241.662	295.12
241.896	329.12
242.13	336.12
242.363	299.12
242.597	286.12
242.83	274.12
243.064	287.12
243.298	292.12
243.531	311.12
243.765	310.12
243.998	326.12
244.232	326.12
244.465	329.12
244.699	309.12
244.932	311.12
245.166	303.12
245.399	304.12
245.633	306.12
245.866	312.12
246.099	317.12
246.333	332.12
246.566	325.12
246.8	316.12
247.033	342.12
247.266	331.12
247.5	346.12
247.733	348.12
247.966	335.12
248.2	334.12
248.433	358.12
248.666	367.12
248.899	358.12
249.133	377.12
249.366	396.12
249.599	392.12
249.832	377.12
250.066	369.12
250.299	379.12
250.532	384.12
250.765	412.12
250.998	427.12
251.231	447.12
251.465	464.12
251.698	463.12
251.931	402.12
252.164	419.12
252.397	414.12
252.63	430.12
252.863	429.12
253.096	436.12
253.329	436.12
253.562	432.12
253.795	436.12
254.028	438.12
254.261	457.12
254.494	462.12
254.727	467.12
254.96	476.12
255.193	460.12
255.426	463.12
255.659	486.12
255.892	489.12
256.124	471.12
256.357	488.12
256.59	472.12
256.823	471.12
257.056	480.12
257.289	488.12
257.521	525.12
257.754	522.12
257.987	506.12
258.22	512.12
258.452	500.12
258.685	518.12
258.918	527.12
259.151	536.12
259.383	532.12
259.616	539.12
259.849	536.12
260.081	524.12
260.314	544.12
260.547	537.12
260.779	536.12
261.012	551.12
261.244	561.12
261.477	567.12
261.71	576.12
261.942	564.12
262.175	576.12
262.407	582.12
262.64	558.12
262.872	562.12
263.105	598.12
263.337	577.12
263.57	607.12
263.802	584.12
264.035	606.12
264.267	600.12
264.499	590.12
264.732	605.12
264.964	603.12
265.197	617.12
265.429	589.12
265.661	597.12
265.894	637.12
266.126	647.12
266.358	640.12
266.591	625.12
266.823	618.12
267.055	640.12
267.287	628.12
267.52	637.12
267.752	643.12
267.984	628.12
268.216	648.12
268.448	653.12
268.681	655.12
268.913	654.12
269.145	625.12
269.377	646.12
269.609	650.12
269.841	673.12
270.073	669.12
270.306	650.12
270.538	673.12
270.77	643.12
271.002	686.12
271.234	679.12
271.466	689.12
271.698	689.12
271.93	677.12
272.162	661.12
272.394	672.12
272.626	677.12
272.858	666.12
273.09	679.12
273.322	708.12
273.553	700.12
273.785	715.12
274.017	705.12
274.249	716.12
274.481	719.12
274.713	695.12
274.945	725.12
275.176	744.12
275.408	713.12
275.64	706.12
275.872	738.12
276.104	733.12
276.335	710.12
276.567	712.12
276.799	737.12
277.031	749.12
277.262	752.12
277.494	758.12
277.726	732.12
277.957	746.12
278.189	722.12
278.421	764.12
278.652	745.12
278.884	770.12
279.115	764.12
279.347	744.12
279.579	752.12
279.81	790.12
280.042	758.12
280.273	758.12
280.505	759.12
280.736	786.12
280.968	785.12
281.199	778.12
281.431	788.12
281.662	808.12
281.894	781.12
282.125	778.12
282.356	801.12
282.588	784.12
282.819	801.12
283.051	808.12
283.282	768.12
283.513	818.12
283.745	837.12
283.976	815.12
284.207	792.12
284.439	815.12
284.67	805.12
284.901	816.12
285.132	830.12
285.364	811.12
285.595	789.12
285.826	824.12
286.057	825.12
286.288	837.12
286.52	861.12
286.751	811.12
286.982	854.12
287.213	839.12
287.444	861.12
287.675	830.12
287.906	843.12
288.138	834.12
288.369	829.12
288.6	847.12
288.831	884.12
289.062	838.12
289.293	869.12
289.524	860.12
289.755	861.12
289.986	861.12
290.217	847.12
290.448	858.12
290.679	848.12
290.91	872.12
291.141	859.12
291.371	843.12
291.602	862.12
291.833	840.12
292.064	870.12
292.295	849.12
292.526	851.12
292.757	884.12
292.987	862.12
293.218	836.12
293.449	864.12
293.68	880.12
293.91	861.12
294.141	842.12
294.372	864.12
294.603	882.12
294.833	896.12
295.064	866.12
295.295	847.12
295.525	877.12
295.756	880.12
295.987	880.12
296.217	875.12
296.448	895.12
296.679	900.12
296.909	869.12
297.14	889.12
297.37	899.12
297.601	920.12
297.831	896.12
298.062	905.12
298.292	912.12
298.523	918.12
298.753	897.12
298.984	934.12
299.214	937.12
299.445	930.12
299.675	926.12
299.905	954.12
300.136	929.12
300.366	983.12
300.597	1002.12
300.827	979.12
301.057	952.12
301.288	968.12
301.518	973.12
301.748	970.12
301.979	956.12
302.209	969.12
302.439	980.12
302.669	965.12
302.9	968.12
303.13	969.12
303.36	942.12
303.59	948.12
303.82	986.12
304.051	999.12
304.281	1014.12
304.511	959.12
304.741	960.12
304.971	995.12
305.201	1040.12
305.431	1048.12
305.661	1041.12
305.891	1033.12
306.121	1058.12
306.352	991.12
306.582	968.12
306.812	999.12
307.042	997.12
307.272	990.12
307.502	985.12
307.731	1001.12
307.961	1029.12
308.191	1024.12
308.421	1007.12
308.651	1017.12
308.881	1011.12
309.111	992.12
309.341	1007.12
309.571	1026.12
309.8	1044.12
310.03	1051.12
310.26	1119.12
310.49	1097.12
310.72	1076.12
310.949	1038.12
311.179	1037.12
311.409	1064.12
311.639	1054.12
311.868	1064.12
312.098	1083.12
312.328	1090.12
312.557	1086.12
312.787	1057.12
313.017	1070.12
313.246	1113.12
313.476	1154.12
313.706	1152.12
313.935	1122.12
314.165	1102.12
314.394	1145.12
314.624	1121.12
314.853	1112.12
315.083	1108.12
315.312	1111.12
315.542	1114.12
315.771	1138.12
316.001	1105.12
316.23	1136.12
316.46	1141.12
316.689	1165.12
316.919	1174.12
317.148	1150.12
317.377	1145.12
317.607	1152.12
317.836	1129.12
318.065	1206.12
318.295	1155.12
318.524	1188.12
318.753	1169.12
318.983	1176.12
319.212	1156.12
319.441	1207.12
319.67	1192.12
319.9	1192.12
320.129	1215.12
320.358	1210.12
320.587	1218.12
320.816	1236.12
321.046	1227.12
321.275	1210.12
321.504	1243.12
321.733	1249.12
321.962	1243.12
322.191	1230.12
322.42	1248.12
322.649	1245.12
322.878	1238.12
323.108	1262.12
323.337	1256.12
323.566	1268.12
323.795	1293.12
324.024	1302.12
324.253	1275.12
324.482	1273.12
324.71	1274.12
324.939	1262.12
325.168	1328.12
325.397	1316.12
325.626	1295.12
325.855	1298.12
326.084	1327.12
326.313	1332.12
326.542	1302.12
326.77	1315.12
326.999	1329.12
327.228	1333.12
327.457	1312.12
327.686	1305.12
327.914	1330.12
328.143	1342.12
328.372	1302.12
328.6	1296.12
328.829	1329.12
329.058	1322.12
329.287	1368.12
329.515	1349.12
329.744	1357.12
329.972	1346.12
330.201	1344.12
330.43	1316.12
330.658	1352.12
330.887	1388.12
331.115	1396.12
331.344	1400.12
331.572	1366.12
331.801	1405.12
332.03	1378.12
332.258	1407.12
332.486	1385.12
332.715	1398.12
332.943	1424.12
333.172	1400.12
333.4	1430.12
333.629	1428.12
333.857	1428.12
334.085	1423.12
334.314	1426.12
334.542	1433.12
334.771	1457.12
334.999	1445.12
335.227	1450.12
335.455	1460.12
335.684	1446.12
335.912	1497.12
336.14	1476.12
336.369	1462.12
336.597	1476.12
336.825	1481.12
337.053	1500.12
337.281	1526.12
337.51	1471.12
337.738	1512.12
337.966	1479.12
338.194	1505.12
338.422	1499.12
338.65	1423.12
338.878	1479.12
339.106	1469.12
339.334	1513.12
339.562	1516.12
339.79	1424.12
340.018	1442.12
340.246	1436.12
340.474	1435.12
340.702	1432.12
340.93	1456.12
341.158	1465.12
341.386	1486.12
341.614	1563.12
341.842	1526.12
342.07	1441.12
342.298	1460.12
342.526	1460.12
342.754	1473.12
342.981	1450.12
343.209	1454.12
343.437	1487.12
343.665	1508.12
343.893	1492.12
344.12	1474.12
344.348	1454.12
344.576	1481.12
344.804	1520.12
345.031	1525.12
345.259	1470.12
345.487	1505.12
345.714	1514.12
345.942	1534.12
346.17	1524.12
346.397	1495.12
346.625	1470.12
346.853	1418.12
347.08	1424.12
347.308	1444.12
347.535	1453.12
347.763	1430.12
347.99	1427.12
348.218	1418.12
348.445	1416.12
348.673	1423.12
348.9	1431.12
349.128	1427.12
349.355	1467.12
349.583	1469.12
349.81	1433.12
350.037	1414.12
350.265	1398.12
350.492	1420.12
350.72	1408.12
350.947	1406.12
351.174	1449.12
351.402	1483.12
351.629	1510.12
351.856	1481.12
352.083	1443.12
352.311	1458.12
352.538	1493.12
352.765	1532.12
352.992	1408.12
353.22	1372.12
353.447	1369.12
353.674	1344.12
353.901	1367.12
354.128	1363.12
354.355	1401.12
354.583	1382.12
354.81	1402.12
355.037	1407.12
355.264	1383.12
355.491	1374.12
355.718	1378.12
355.945	1406.12
356.172	1358.12
356.399	1416.12
356.626	1443.12
356.853	1446.12
357.08	1413.12
357.307	1418.12
357.534	1380.12
357.761	1377.12
357.988	1367.12
358.215	1381.12
358.441	1369.12
358.668	1404.12
358.895	1362.12
359.122	1378.12
359.349	1386.12
359.576	1351.12
359.802	1387.12
360.029	1393.12
360.256	1403.12
360.483	1408.12
360.709	1391.12
360.936	1393.12
361.163	1407.12
361.39	1448.12
361.616	1415.12
361.843	1446.12
362.07	1521.12
362.296	1455.12
362.523	1393.12
362.749	1357.12
362.976	1388.12
363.203	1411.12
363.429	1380.12
363.656	1400.12
363.882	1387.12
364.109	1382.12
364.335	1375.12
364.562	1388.12
364.788	1375.12
365.015	1356.12
365.241	1389.12
365.468	1398.12
365.694	1402.12
365.92	1406.12
366.147	1416.12
366.373	1393.12
366.599	1382.12
366.826	1401.12
367.052	1384.12
367.278	1435.12
367.505	1406.12
367.731	1417.12
367.957	1430.12
368.184	1382.12
368.41	1404.12
368.636	1414.12
368.862	1404.12
369.089	1419.12
369.315	1462.12
369.541	1406.12
369.767	1402.12
369.993	1446.12
370.219	1416.12
370.445	1445.12
370.672	1428.12
370.898	1410.12
371.124	1447.12
371.35	1425.12
371.576	1440.12
371.802	1420.12
372.028	1419.12
372.254	1441.12
372.48	1456.12
372.706	1449.12
372.932	1398.12
373.158	1426.12
373.384	1440.12
373.61	1396.12
373.835	1436.12
374.061	1443.12
374.287	1483.12
374.513	1450.12
374.739	1440.12
374.965	1430.12
375.191	1396.12
375.416	1435.12
375.642	1405.12
375.868	1420.12
376.094	1457.12
376.319	1425.12
376.545	1421.12
376.771	1395.12
376.997	1372.12
377.222	1414.12
377.448	1401.12
377.674	1424.12
377.899	1394.12
378.125	1433.12
378.35	1419.12
378.576	1396.12
378.802	1374.12
379.027	1408.12
379.253	1406.12
379.478	1385.12
379.704	1389.12
379.929	1387.12
380.155	1365.12
380.38	1400.12
380.606	1388.12
380.831	1416.12
381.057	1409.12
381.282	1362.12
381.507	1392.12
381.733	1402.12
381.958	1403.12
382.184	1397.12
382.409	1386.12
382.634	1372.12
382.86	1412.12
383.085	1424.12
383.31	1434.12
383.535	1423.12
383.761	1418.12
383.986	1450.12
384.211	1444.12
384.436	1428.12
384.662	1446.12
384.887	1451.12
385.112	1429.12
385.337	1476.12
385.562	1471.12
385.787	1480.12
386.013	1490.12
386.238	1458.12
386.463	1480.12
386.688	1490.12
386.913	1468.12
387.138	1467.12
387.363	1484.12
387.588	1444.12
387.813	1504.12
388.038	1453.12
388.263	1442.12
388.488	1456.12
388.713	1474.12
388.938	1489.12
389.163	1467.12
389.387	1496.12
389.612	1453.12
389.837	1460.12
390.062	1463.12
390.287	1504.12
390.512	1484.12
390.736	1473.12
390.961	1490.12
391.186	1488.12
391.411	1502.12
391.636	1511.12
391.86	1504.12
392.085	1527.12
392.31	1466.12
392.534	1482.12
392.759	1510.12
392.984	1500.12
393.208	1507.12
393.433	1540.12
393.658	1520.12
393.882	1508.12
394.107	1490.12
394.331	1500.12
394.556	1508.12
394.78	1498.12
395.005	1503.12
395.229	1489.12
395.454	1522.12
395.678	1503.12
395.903	1515.12
396.127	1526.12
396.352	1488.12
396.576	1517.12
396.801	1514.12
397.025	1558.12
397.249	1557.12
397.474	1540.12
397.698	1540.12
397.922	1527.12
398.147	1519.12
398.371	1556.12
398.595	1552.12
398.82	1571.12
399.044	1605.12
399.268	1605.12
399.492	1625.12
399.717	1625.12
399.941	1665.12
400.165	1682.12
400.389	1618.12
400.613	1616.12
400.837	1598.12
401.062	1615.12
401.286	1640.12
401.51	1613.12
401.734	1588.12
401.958	1635.12
402.182	1594.12
402.406	1586.12
402.63	1606.12
402.854	1608.12
403.078	1614.12
403.302	1596.12
403.526	1631.12
403.75	1602.12
403.974	1624.12
404.198	1608.12
404.422	1610.12
404.645	1592.12
404.869	1599.12
405.093	1627.12
405.317	1602.12
405.541	1620.12
405.765	1644.12
405.988	1620.12
406.212	1685.12
406.436	1668.12
406.66	1663.12
406.883	1673.12
407.107	1685.12
407.331	1674.12
407.555	1711.12
407.778	1725.12
408.002	1722.12
408.226	1692.12
408.449	1745.12
408.673	1734.12
408.896	1682.12
409.12	1706.12
409.344	1688.12
409.567	1699.12
409.791	1709.12
410.014	1665.12
410.238	1664.12
410.461	1686.12
410.685	1645.12
410.908	1641.12
411.132	1652.12
411.355	1629.12
411.578	1663.12
411.802	1609.12
412.025	1614.12
412.249	1615.12
412.472	1633.12
412.695	1631.12
412.919	1606.12
413.142	1633.12
413.365	1598.12
413.589	1622.12
413.812	1632.12
414.035	1630.12
414.258	1631.12
414.482	1641.12
414.705	1592.12
414.928	1617.12
415.151	1606.12
415.374	1562.12
415.597	1566.12
415.821	1590.12
416.044	1588.12
416.267	1548.12
416.49	1553.12
416.713	1537.12
416.936	1534.12
417.159	1579.12
417.382	1568.12
417.605	1558.12
417.828	1565.12
418.051	1560.12
418.274	1536.12
418.497	1534.12
418.72	1593.12
418.943	1519.12
419.166	1614.12
419.389	1708.12
419.611	1628.12
419.834	1649.12
420.057	1556.12
420.28	1558.12
420.503	1501.12
420.726	1529.12
420.948	1518.12
421.171	1502.12
421.394	1573.12
421.617	1535.12
421.839	1528.12
422.062	1581.12
422.285	1494.12
422.507	1520.12
422.73	1499.12
422.953	1612.12
423.175	1552.12
423.398	1502.12
423.621	1494.12
423.843	1545.12
424.066	1544.12
424.288	1560.12
424.511	1545.12
424.733	1531.12
424.956	1548.12
425.178	1528.12
425.401	1556.12
425.623	1555.12
425.846	1506.12
426.068	1525.12
426.291	1577.12
426.513	1565.12
426.735	1537.12
426.958	1541.12
427.18	1495.12
427.402	1517.12
427.625	1522.12
427.847	1548.12
428.069	1525.12
428.292	1531.12
428.514	1536.12
428.736	1524.12
428.958	1582.12
429.181	1544.12
429.403	1522.12
429.625	1558.12
429.847	1490.12
430.069	1509.12
430.292	1515.12
430.514	1488.12
430.736	1540.12
430.958	1551.12
431.18	1524.12
431.402	1535.12
431.624	1527.12
431.846	1545.12
432.068	1519.12
432.29	1551.12
432.512	1498.12
432.734	1547.12
432.956	1580.12
433.178	1592.12
433.4	1604.12
433.622	1626.12
433.844	1609.12
434.066	1620.12
434.287	1607.12
434.509	1528.12
434.731	1584.12
434.953	1559.12
435.175	1592.12
435.397	1611.12
435.618	1571.12
435.84	1558.12
436.062	1562.12
436.284	1555.12
436.505	1549.12
436.727	1559.12
436.949	1540.12
437.17	1589.12
437.392	1576.12
437.614	1520.12
437.835	1453.12
438.057	1498.12
438.278	1470.12
438.5	1516.12
438.721	1492.12
438.943	1519.12
439.165	1506.12
439.386	1488.12
439.608	1548.12
439.829	1500.12
440.05	1526.12
440.272	1534.12
440.493	1560.12
440.715	1608.12
440.936	1551.12
441.158	1576.12
441.379	1539.12
441.6	1582.12
441.822	1578.12
442.043	1584.12
442.264	1558.12
442.486	1584.12
442.707	1562.12
442.928	1552.12
443.149	1592.12
443.371	1633.12
443.592	1653.12
443.813	1632.12
444.034	1555.12
444.255	1571.12
444.476	1598.12
444.698	1609.12
444.919	1660.12
445.14	1717.12
445.361	1638.12
445.582	1628.12
445.803	1568.12
446.024	1555.12
446.245	1560.12
446.466	1515.12
446.687	1506.12
446.908	1486.12
447.129	1482.12
447.35	1463.12
447.571	1463.12
447.792	1443.12
448.013	1434.12
448.234	1428.12
448.455	1444.12
448.675	1448.12
448.896	1430.12
449.117	1401.12
449.338	1457.12
449.559	1416.12
449.779	1382.12
450	1422.12
450.221	1404.12
450.442	1397.12
450.662	1397.12
450.883	1439.12
451.104	1484.12
451.324	1457.12
451.545	1435.12
451.766	1399.12
451.986	1380.12
452.207	1388.12
452.428	1394.12
452.648	1432.12
452.869	1418.12
453.089	1447.12
453.31	1426.12
453.53	1400.12
453.751	1402.12
453.971	1408.12
454.192	1436.12
454.412	1457.12
454.633	1454.12
454.853	1412.12
455.073	1352.12
455.294	1425.12
455.514	1410.12
455.734	1488.12
455.955	1451.12
456.175	1473.12
456.395	1426.12
456.616	1389.12
456.836	1384.12
457.056	1403.12
457.276	1369.12
457.497	1400.12
457.717	1439.12
457.937	1458.12
458.157	1393.12
458.377	1403.12
458.598	1408.12
458.818	1420.12
459.038	1438.12
459.258	1455.12
459.478	1540.12
459.698	1642.12
459.918	1643.12
460.138	1607.12
460.358	1584.12
460.578	1579.12
460.798	1637.12
461.018	1656.12
461.238	1592.12
461.458	1541.12
461.678	1521.12
461.898	1557.12
462.118	1521.12
462.338	1571.12
462.558	1628.12
462.777	1673.12
462.997	1679.12
463.217	1686.12
463.437	1740.12
463.657	1715.12
463.876	1630.12
464.096	1688.12
464.316	1623.12
464.536	1634.12
464.755	1625.12
464.975	1595.12
465.195	1578.12
465.414	1554.12
465.634	1544.12
465.854	1485.12
466.073	1493.12
466.293	1491.12
466.512	1498.12
466.732	1478.12
466.951	1509.12
467.171	1510.12
467.391	1554.12
467.61	1507.12
467.829	1506.12
468.049	1474.12
468.268	1484.12
468.488	1494.12
468.707	1498.12
468.927	1480.12
469.146	1518.12
469.365	1552.12
469.585	1506.12
469.804	1507.12
470.023	1517.12
470.243	1484.12
470.462	1466.12
470.681	1492.12
470.901	1476.12
471.12	1525.12
471.339	1528.12
471.558	1503.12
471.777	1503.12
471.997	1504.12
472.216	1488.12
472.435	1505.12
472.654	1467.12
472.873	1473.12
473.092	1490.12
473.311	1519.12
473.53	1561.12
473.749	1516.12
473.968	1505.12
474.187	1512.12
474.406	1534.12
474.625	1555.12
474.844	1524.12
475.063	1568.12
475.282	1591.12
475.501	1592.12
475.72	1567.12
475.939	1564.12
476.158	1610.12
476.377	1580.12
476.596	1592.12
476.814	1631.12
477.033	1643.12
477.252	1604.12
477.471	1652.12
477.69	1683.12
477.908	1722.12
478.127	1686.12
478.346	1683.12
478.564	1720.12
478.783	1756.12
479.002	1784.12
479.22	1869.12
479.439	1786.12
479.658	1740.12
479.876	1750.12
480.095	1775.12
480.313	1768.12
480.532	1806.12
480.751	1736.12
480.969	1741.12
481.188	1795.12
481.406	1810.12
481.624	1782.12
481.843	1752.12
482.061	1776.12
482.28	1788.12
482.498	1780.12
482.717	1783.12
482.935	1826.12
483.153	1838.12
483.372	1904.12
483.59	1938.12
483.808	1857.12
484.027	1845.12
484.245	1825.12
484.463	1826.12
484.681	1846.12
484.9	1814.12
485.118	1837.12
485.336	1837.12
485.554	1871.12
485.772	1876.12
485.99	1846.12
486.209	1833.12
486.427	1853.12
486.645	1859.12
486.863	1877.12
487.081	1864.12
487.299	1845.12
487.517	1930.12
487.735	1920.12
487.953	1904.12
488.171	1885.12
488.389	1945.12
488.607	1912.12
488.825	1871.12
489.043	1883.12
489.261	1857.12
489.479	1874.12
489.696	1855.12
489.914	1868.12
490.132	1887.12
490.35	1880.12
490.568	1900.12
490.786	1943.12
491.003	1868.12
491.221	1903.12
491.439	1929.12
491.657	1872.12
491.874	1951.12
492.092	1961.12
492.31	1934.12
492.527	1924.12
492.745	1924.12
492.963	1879.12
493.18	1942.12
493.398	1935.12
493.615	1908.12
493.833	1964.12
494.05	1933.12
494.268	1929.12
494.485	1938.12
494.703	1941.12
494.92	1964.12
495.138	1962.12
495.355	1957.12
495.573	1997.12
495.79	1934.12
496.008	1999.12
496.225	1980.12
496.442	1937.12
496.66	1978.12
496.877	1984.12
497.094	2029.12
497.312	1992.12
497.529	2041.12
497.746	2033.12
497.963	2045.12
498.181	2080.12
498.398	2146.12
498.615	2169.12
498.832	2117.12
499.049	2192.12
499.267	2192.12
499.484	2230.12
499.701	2278.12
499.918	2258.12
500.135	2307.12
500.352	2333.12
500.569	2324.12
500.786	2362.12
501.003	2366.12
501.22	2347.12
501.437	2335.12
501.654	2281.12
501.871	2233.12
502.088	2230.12
502.305	2178.12
502.522	2221.12
502.739	2134.12
502.956	2088.12
503.172	2059.12
503.389	2009.12
503.606	1980.12
503.823	1966.12
504.04	1969.12
504.256	1977.12
504.473	1941.12
504.69	1879.12
504.907	1886.12
505.123	1931.12
505.34	1871.12
505.557	1841.12
505.773	1850.12
505.99	1846.12
506.207	1759.12
506.423	1811.12
506.64	1740.12
506.856	1738.12
507.073	1741.12
507.289	1769.12
507.506	1760.12
507.722	1743.12
507.939	1741.12
508.155	1733.12
508.372	1748.12
508.588	1708.12
508.805	1687.12
509.021	1690.12
509.238	1680.12
509.454	1635.12
509.67	1670.12
509.887	1652.12
510.103	1680.12
510.319	1670.12
510.536	1585.12
510.752	1610.12
510.968	1618.12
511.184	1604.12
511.401	1620.12
511.617	1602.12
511.833	1588.12
512.049	1576.12
512.265	1585.12
512.481	1596.12
512.698	1587.12
512.914	1598.12
513.13	1580.12
513.346	1607.12
513.562	1599.12
513.778	1592.12
513.994	1563.12
514.21	1571.12
514.426	1591.12
514.642	1596.12
514.858	1606.12
515.074	1589.12
515.29	1629.12
515.506	1619.12
515.721	1612.12
515.937	1592.12
516.153	1607.12
516.369	1629.12
516.585	1570.12
516.801	1593.12
517.016	1600.12
517.232	1623.12
517.448	1611.12
517.664	1627.12
517.879	1629.12
518.095	1592.12
518.311	1566.12
518.527	1566.12
518.742	1613.12
518.958	1544.12
519.173	1585.12
519.389	1570.12
519.605	1559.12
519.82	1561.12
520.036	1562.12
520.251	1513.12
520.467	1570.12
520.682	1534.12
520.898	1532.12
521.113	1524.12
521.329	1551.12
521.544	1495.12
521.76	1469.12
521.975	1497.12
522.19	1476.12
522.406	1499.12
522.621	1471.12
522.836	1479.12
523.052	1488.12
523.267	1484.12
523.482	1455.12
523.698	1410.12
523.913	1452.12
524.128	1426.12
524.343	1455.12
524.559	1460.12
524.774	1432.12
524.989	1455.12
525.204	1469.12
525.419	1448.12
525.634	1451.12
525.849	1423.12
526.064	1423.12
526.28	1424.12
526.495	1426.12
526.71	1410.12
526.925	1398.12
527.14	1422.12
527.355	1397.12
527.57	1371.12
527.785	1373.12
527.999	1369.12
528.214	1385.12
528.429	1430.12
528.644	1408.12
528.859	1382.12
529.074	1399.12
529.289	1386.12
529.503	1426.12
529.718	1384.12
529.933	1373.12
530.148	1392.12
530.363	1365.12
530.577	1359.12
530.792	1366.12
531.007	1349.12
531.221	1361.12
531.436	1359.12
531.651	1358.12
531.865	1322.12
532.08	1359.12
532.295	1335.12
532.509	1361.12
532.724	1326.12
532.938	1372.12
533.153	1348.12
533.367	1348.12
533.582	1378.12
533.796	1350.12
534.011	1322.12
534.225	1298.12
534.44	1316.12
534.654	1279.12
534.868	1325.12
535.083	1318.12
535.297	1324.12
535.511	1345.12
535.726	1300.12
535.94	1298.12
536.154	1299.12
536.369	1269.12
536.583	1277.12
536.797	1265.12
537.011	1281.12
537.225	1269.12
537.44	1262.12
537.654	1290.12
537.868	1247.12
538.082	1260.12
538.296	1255.12
538.51	1230.12
538.724	1255.12
538.938	1254.12
539.153	1229.12
539.367	1241.12
539.581	1229.12
539.795	1257.12
540.009	1240.12
540.222	1226.12
540.436	1246.12
540.65	1229.12
540.864	1204.12
541.078	1230.12
541.292	1237.12
541.506	1217.12
541.72	1252.12
541.934	1248.12
542.147	1243.12
542.361	1246.12
542.575	1227.12
542.789	1185.12
543.002	1201.12
543.216	1208.12
543.43	1201.12
543.644	1200.12
543.857	1214.12
544.071	1204.12
544.285	1208.12
544.498	1200.12
544.712	1217.12
544.925	1184.12
545.139	1205.12
545.352	1182.12
545.566	1172.12
545.779	1189.12
545.993	1204.12
546.206	1220.12
546.42	1198.12
546.633	1212.12
546.847	1171.12
547.06	1197.12
547.274	1145.12
547.487	1188.12
547.7	1173.12
547.914	1197.12
548.127	1210.12
548.34	1171.12
548.554	1166.12
548.767	1157.12
548.98	1175.12
549.193	1168.12
549.407	1152.12
549.62	1152.12
549.833	1184.12
550.046	1146.12
550.259	1145.12
550.473	1169.12
550.686	1172.12
550.899	1152.12
551.112	1164.12
551.325	1110.12
551.538	1153.12
551.751	1099.12
551.964	1086.12
552.177	1080.12
552.39	1126.12
552.603	1124.12
552.816	1092.12
553.029	1115.12
553.242	1146.12
553.455	1100.12
553.667	1137.12
553.88	1117.12
554.093	1099.12
554.306	1056.12
554.519	1069.12
554.732	1086.12
554.944	1117.12
555.157	1096.12
555.37	1077.12
555.583	1067.12
555.795	1064.12
556.008	1071.12
556.221	1051.12
556.433	1032.12
556.646	1051.12
556.859	1048.12
557.071	1038.12
557.284	1043.12
557.496	1017.12
557.709	1032.12
557.921	1023.12
558.134	1030.12
558.346	1002.12
558.559	1002.12
558.771	1018.12
558.984	1008.12
559.196	996.12
559.409	1009.12
559.621	1006.12
559.833	981.12
560.046	1003.12
560.258	991.12
560.47	983.12
560.683	989.12
560.895	982.12
561.107	975.12
561.32	1004.12
561.532	970.12
561.744	991.12
561.956	975.12
562.168	988.12
562.381	983.12
562.593	937.12
562.805	978.12
563.017	987.12
563.229	951.12
563.441	987.12
563.653	970.12
563.865	960.12
564.077	960.12
564.289	964.12
564.501	970.12
564.713	987.12
564.925	994.12
565.137	1007.12
565.349	972.12
565.561	1005.12
565.773	1012.12
565.985	968.12
566.197	1006.12
566.408	959.12
566.62	996.12
566.832	1030.12
567.044	1008.12
567.255	1022.12
567.467	976.12
567.679	992.12
567.891	980.12
568.102	989.12
568.314	1007.12
568.526	993.12
568.737	962.12
568.949	964.12
569.161	934.12
569.372	908.12
569.584	922.12
569.795	914.12
570.007	889.12
570.218	891.12
570.43	896.12
570.641	895.12
570.853	897.12
571.064	877.12
571.276	887.12
571.487	845.12
571.698	866.12
571.91	848.12
572.121	861.12
572.333	831.12
572.544	818.12
572.755	826.12
572.966	841.12
573.178	793.12
573.389	822.12
573.6	809.12
573.811	798.12
574.023	802.12
574.234	790.12
574.445	758.12
574.656	779.12
574.867	778.12
575.078	752.12
575.289	761.12
575.501	767.12
575.712	720.12
575.923	771.12
576.134	760.12
576.345	751.12
576.556	760.12
576.767	745.12
576.978	733.12
577.188	706.12
577.399	753.12
577.61	734.12
577.821	722.12
578.032	708.12
578.243	738.12
578.454	721.12
578.665	730.12
578.875	702.12
579.086	703.12
579.297	708.12
579.508	732.12
579.718	713.12
579.929	708.12
580.14	700.12
580.35	673.12
580.561	676.12
580.772	679.12
580.982	682.12
581.193	689.12
581.403	701.12
581.614	676.12
581.825	669.12
582.035	676.12
582.246	671.12
582.456	651.12
582.667	682.12
582.877	670.12
583.087	647.12
583.298	660.12
583.508	641.12
583.719	658.12
583.929	661.12
584.139	662.12
584.35	653.12
584.56	648.12
584.77	646.12
584.981	634.12
585.191	662.12
585.401	628.12
585.611	617.12
585.821	652.12
586.032	644.12
586.242	635.12
586.452	648.12
586.662	622.12
586.872	638.12
587.082	603.12
587.292	605.12
587.502	629.12
587.713	621.12
587.923	617.12
588.133	635.12
588.343	628.12
588.553	627.12
588.762	635.12
588.972	615.12
589.182	706.12
589.392	674.12
589.602	628.12
589.812	644.12
590.022	621.12
590.232	624.12
590.441	609.12
590.651	582.12
590.861	596.12
591.071	584.12
591.281	610.12
591.49	596.12
591.7	598.12
591.91	598.12
592.119	596.12
592.329	598.12
592.539	609.12
592.748	609.12
592.958	602.12
593.167	586.12
593.377	590.12
593.587	587.12
593.796	601.12
594.006	594.12
594.215	596.12
594.424	593.12
594.634	593.12
594.843	573.12
595.053	584.12
595.262	595.12
595.472	572.12
595.681	561.12
595.89	567.12
596.1	548.12
596.309	550.12
596.518	551.12
596.727	548.12
596.937	531.12
597.146	536.12
597.355	551.12
597.564	560.12
597.774	541.12
597.983	538.12
598.192	522.12
598.401	533.12
598.61	539.12
598.819	507.12
599.028	542.12
599.237	531.12
599.446	519.12
599.655	510.12
599.864	520.12
600.073	502.12
600.282	511.12
600.491	495.12
600.7	506.12
600.909	518.12
601.118	516.12
601.327	500.12
601.536	478.12
601.745	509.12
601.953	513.12
602.162	500.12
602.371	519.12
602.58	493.12
602.789	500.12
602.997	490.12
603.206	494.12
603.415	470.12
603.623	497.12
603.832	510.12
604.041	482.12
604.249	493.12
604.458	468.12
604.666	465.12
604.875	459.12
605.084	474.12
605.292	479.12
605.501	489.12
605.709	466.12
605.918	482.12
606.126	492.12
606.334	477.12
606.543	498.12
606.751	463.12
606.96	482.12
607.168	495.12
607.376	460.12
607.585	480.12
607.793	479.12
608.001	458.12
608.21	454.12
608.418	455.12
608.626	460.12
608.834	460.12
609.043	463.12
609.251	457.12
609.459	463.12
609.667	463.12
609.875	452.12
610.083	476.12
610.291	462.12
610.499	460.12
610.707	460.12
610.916	432.12
611.124	480.12
611.332	452.12
611.54	466.12
611.748	436.12
611.955	448.12
612.163	456.12
612.371	439.12
612.579	440.12
612.787	445.12
612.995	429.12
613.203	450.12
613.411	425.12
613.618	432.12
613.826	433.12
614.034	449.12
614.242	426.12
614.449	419.12
614.657	438.12
614.865	434.12
615.072	445.12
615.28	457.12
615.488	417.12
615.695	435.12
615.903	416.12
616.111	414.12
616.318	453.12
616.526	440.12
616.733	433.12
616.941	431.12
617.148	428.12
617.356	423.12
617.563	402.12
617.771	422.12
617.978	424.12
618.185	419.12
618.393	393.12
618.6	420.12
618.807	424.12
619.015	412.12
619.222	414.12
619.429	413.12
619.637	404.12
619.844	403.12
620.051	403.12
620.258	413.12
620.466	386.12
620.673	396.12
620.88	390.12
621.087	390.12
621.294	395.12
621.501	401.12
621.708	385.12
621.915	384.12
622.122	406.12
622.329	390.12
622.536	391.12
622.743	386.12
622.95	399.12
623.157	397.12
623.364	392.12
623.571	381.12
623.778	402.12
623.985	408.12
624.192	386.12
624.399	376.12
624.606	364.12
624.812	375.12
625.019	381.12
625.226	372.12
625.433	400.12
625.639	373.12
625.846	380.12
626.053	363.12
626.259	359.12
626.466	397.12
626.673	384.12
626.879	362.12
627.086	350.12
627.293	370.12
627.499	372.12
627.706	365.12
627.912	364.12
628.119	376.12
628.325	362.12
628.532	353.12
628.738	348.12
628.945	350.12
629.151	349.12
629.357	349.12
629.564	357.12
629.77	350.12
629.976	354.12
630.183	331.12
630.389	334.12
630.595	333.12
630.802	355.12
631.008	340.12
631.214	358.12
631.42	337.12
631.627	352.12
631.833	343.12
632.039	343.12
632.245	348.12
632.451	347.12
632.657	349.12
632.863	338.12
633.069	335.12
633.275	341.12
633.481	338.12
633.688	346.12
633.893	342.12
634.099	338.12
634.305	318.12
634.511	328.12
634.717	324.12
634.923	341.12
635.129	322.12
635.335	334.12
635.541	332.12
635.747	338.12
635.952	332.12
636.158	331.12
636.364	328.12
636.57	339.12
636.775	329.12
636.981	312.12
637.187	314.12
637.392	322.12
637.598	315.12
637.804	334.12
638.009	317.12
638.215	333.12
638.421	313.12
638.626	323.12
638.832	326.12
639.037	315.12
639.243	342.12
639.448	305.12
639.654	319.12
639.859	301.12
640.065	324.12
640.27	319.12
640.475	314.12
640.681	300.12
640.886	309.12
641.091	313.12
641.297	320.12
641.502	309.12
641.707	314.12
641.913	315.12
642.118	318.12
642.323	290.12
642.528	313.12
642.733	316.12
642.939	296.12
643.144	295.12
643.349	296.12
643.554	304.12
643.759	309.12
643.964	312.12
644.169	313.12
644.374	285.12
644.579	300.12
644.784	320.12
644.989	297.12
645.194	303.12
645.399	324.12
645.604	299.12
645.809	295.12
646.014	299.12
646.219	312.12
646.423	321.12
646.628	305.12
646.833	308.12
647.038	298.12
647.243	312.12
647.447	328.12
647.652	346.12
647.857	317.12
648.062	302.12
648.266	306.12
648.471	305.12
648.676	317.12
648.88	313.12
649.085	322.12
649.289	295.12
649.494	301.12
649.698	292.12
649.903	312.12
650.107	314.12
650.312	299.12
650.516	301.12
650.721	300.12
650.925	288.12
651.13	297.12
651.334	304.12
651.539	302.12
651.743	295.12
651.947	292.12
652.152	279.12
652.356	281.12
652.56	281.12
652.764	282.12
652.969	301.12
653.173	289.12
653.377	264.12
653.581	264.12
653.785	278.12
653.99	274.12
654.194	270.12
654.398	259.12
654.602	241.12
654.806	278.12
655.01	253.12
655.214	239.12
655.418	255.12
655.622	258.12
655.826	262.12
656.03	246.12
656.234	254.12
656.438	249.12
656.642	249.12
656.846	246.12
657.049	235.12
657.253	231.12
657.457	225.12
657.661	200.12
657.865	191.12
658.068	201.12
658.272	186.12
658.476	180.12
658.68	187.12
658.883	170.12
659.087	160.12
659.291	144.12
659.494	152.12
659.698	154.12
659.901	151.12
660.105	137.12
660.309	145.12
660.512	128.12
660.716	128.12
660.919	123.12
661.123	105.12
661.326	111.12
661.53	104.12
661.733	96.12
661.936	106.12
662.14	117.12
662.343	92.12
662.546	104.12
662.75	95.12
662.953	112.12
663.156	100.12
663.36	94.12
663.563	98.12
663.766	98.12
663.969	94.12
664.173	101.12
664.376	95.12
664.579	90.12
664.782	97.12
664.985	72.12
665.188	73.12
665.391	90.12
665.594	88.12
665.797	93.12
666	78.12
666.203	85.12
666.406	90.12
666.609	78.12
666.812	97.12
667.015	84.12
667.218	85.12
667.421	76.12
667.624	73.12
667.827	79.12
668.03	89.12
668.232	72.12
668.435	87.12
668.638	81.12
668.841	73.12
669.043	97.12
669.246	87.12
669.449	98.12
669.651	91.12
669.854	92.12
670.057	85.12
670.259	82.12
670.462	90.12
670.665	84.12
670.867	95.12
671.07	88.12
671.272	82.12
671.475	75.12
671.677	79.12
671.88	75.12
672.082	80.12
672.284	71.12
672.487	81.12
672.689	79.12
672.892	84.12
