Data from Ni(NO3)2@0.25M.TitratingCurve.Agarose3%dH2O.NegLispCup.LampEnergy10.LIBS07252019_HRD10591_18-05-39-566.txt Node
Date: Thu Jul 25 18:05:39 EDT 2019
User: cochatt
Spectrometer: HR+D1059
Trigger mode: 1
Integration Time (sec): 1.000000E-1
Scans to average: 1
Electric dark correction enabled: true
Nonlinearity correction enabled: false
Boxcar width: 0
XAxis mode: Wavelengths
Number of Pixels in Spectrum: 2048
>>>>>Begin Spectral Data<<<<<
223.165	-18.62
223.4	-18.62
223.635	-18.62
223.869	-17.62
224.104	-12.62
224.338	-13.62
224.573	-14.62
224.808	-15.62
225.042	-0.62
225.277	-2.62
225.511	-7.62
225.746	-3.62
225.98	8.38
226.215	4.38
226.449	10.38
226.683	24.38
226.918	24.38
227.152	35.38
227.387	37.38
227.621	48.38
227.856	52.38
228.09	41.38
228.324	71.38
228.559	43.38
228.793	76.38
229.027	114.38
229.262	115.38
229.496	124.38
229.73	109.38
229.964	108.38
230.199	114.38
230.433	116.38
230.667	119.38
230.901	118.38
231.136	112.38
231.37	137.38
231.604	133.38
231.838	134.38
232.072	139.38
232.306	140.38
232.541	142.38
232.775	142.38
233.009	149.38
233.243	146.38
233.477	124.38
233.711	121.38
233.945	142.38
234.179	147.38
234.413	145.38
234.647	131.38
234.881	127.38
235.115	148.38
235.349	137.38
235.583	148.38
235.817	148.38
236.051	151.38
236.285	143.38
236.519	142.38
236.753	150.38
236.987	149.38
237.221	149.38
237.455	145.38
237.689	145.38
237.922	150.38
238.156	149.38
238.39	137.38
238.624	148.38
238.858	148.38
239.091	157.38
239.325	154.38
239.559	173.38
239.793	151.38
240.027	154.38
240.26	162.38
240.494	173.38
240.728	172.38
240.961	179.38
241.195	183.38
241.429	170.38
241.662	171.38
241.896	174.38
242.13	187.38
242.363	166.38
242.597	178.38
242.83	192.38
243.064	188.38
243.298	178.38
243.531	178.38
243.765	200.38
243.998	186.38
244.232	179.38
244.465	193.38
244.699	181.38
244.932	187.38
245.166	195.38
245.399	188.38
245.633	202.38
245.866	196.38
246.099	186.38
246.333	188.38
246.566	190.38
246.8	202.38
247.033	211.38
247.266	201.38
247.5	205.38
247.733	206.38
247.966	203.38
248.2	227.38
248.433	217.38
248.666	210.38
248.899	232.38
249.133	221.38
249.366	228.38
249.599	225.38
249.832	230.38
250.066	236.38
250.299	240.38
250.532	225.38
250.765	225.38
250.998	230.38
251.231	236.38
251.465	249.38
251.698	226.38
251.931	226.38
252.164	228.38
252.397	253.38
252.63	275.38
252.863	258.38
253.096	258.38
253.329	263.38
253.562	266.38
253.795	271.38
254.028	262.38
254.261	247.38
254.494	264.38
254.727	249.38
254.96	264.38
255.193	274.38
255.426	268.38
255.659	260.38
255.892	266.38
256.124	286.38
256.357	270.38
256.59	270.38
256.823	274.38
257.056	267.38
257.289	280.38
257.521	288.38
257.754	285.38
257.987	288.38
258.22	276.38
258.452	278.38
258.685	286.38
258.918	294.38
259.151	299.38
259.383	281.38
259.616	279.38
259.849	281.38
260.081	292.38
260.314	299.38
260.547	299.38
260.779	309.38
261.012	311.38
261.244	319.38
261.477	311.38
261.71	305.38
261.942	307.38
262.175	313.38
262.407	304.38
262.64	315.38
262.872	314.38
263.105	310.38
263.337	317.38
263.57	320.38
263.802	317.38
264.035	317.38
264.267	322.38
264.499	313.38
264.732	318.38
264.964	343.38
265.197	336.38
265.429	335.38
265.661	314.38
265.894	336.38
266.126	319.38
266.358	346.38
266.591	323.38
266.823	328.38
267.055	328.38
267.287	350.38
267.52	354.38
267.752	354.38
267.984	343.38
268.216	350.38
268.448	346.38
268.681	352.38
268.913	337.38
269.145	352.38
269.377	352.38
269.609	348.38
269.841	346.38
270.073	359.38
270.306	359.38
270.538	351.38
270.77	358.38
271.002	358.38
271.234	355.38
271.466	359.38
271.698	362.38
271.93	374.38
272.162	370.38
272.394	375.38
272.626	389.38
272.858	390.38
273.09	389.38
273.322	376.38
273.553	373.38
273.785	365.38
274.017	353.38
274.249	377.38
274.481	392.38
274.713	381.38
274.945	380.38
275.176	396.38
275.408	387.38
275.64	381.38
275.872	402.38
276.104	405.38
276.335	388.38
276.567	394.38
276.799	398.38
277.031	385.38
277.262	381.38
277.494	403.38
277.726	397.38
277.957	404.38
278.189	414.38
278.421	420.38
278.652	415.38
278.884	405.38
279.115	408.38
279.347	402.38
279.579	397.38
279.81	437.38
280.042	409.38
280.273	445.38
280.505	418.38
280.736	429.38
280.968	427.38
281.199	403.38
281.431	424.38
281.662	442.38
281.894	425.38
282.125	438.38
282.356	434.38
282.588	448.38
282.819	440.38
283.051	452.38
283.282	436.38
283.513	427.38
283.745	442.38
283.976	429.38
284.207	448.38
284.439	441.38
284.67	447.38
284.901	462.38
285.132	455.38
285.364	442.38
285.595	452.38
285.826	448.38
286.057	470.38
286.288	447.38
286.52	461.38
286.751	448.38
286.982	459.38
287.213	456.38
287.444	451.38
287.675	468.38
287.906	456.38
288.138	481.38
288.369	466.38
288.6	474.38
288.831	494.38
289.062	484.38
289.293	475.38
289.524	465.38
289.755	483.38
289.986	483.38
290.217	470.38
290.448	466.38
290.679	476.38
290.91	487.38
291.141	482.38
291.371	477.38
291.602	479.38
291.833	489.38
292.064	487.38
292.295	479.38
292.526	475.38
292.757	485.38
292.987	495.38
293.218	464.38
293.449	490.38
293.68	491.38
293.91	501.38
294.141	493.38
294.372	489.38
294.603	492.38
294.833	491.38
295.064	481.38
295.295	516.38
295.525	473.38
295.756	492.38
295.987	493.38
296.217	501.38
296.448	514.38
296.679	510.38
296.909	511.38
297.14	512.38
297.37	531.38
297.601	502.38
297.831	508.38
298.062	496.38
298.292	529.38
298.523	541.38
298.753	527.38
298.984	527.38
299.214	534.38
299.445	520.38
299.675	529.38
299.905	512.38
300.136	529.38
300.366	545.38
300.597	550.38
300.827	533.38
301.057	540.38
301.288	566.38
301.518	552.38
301.748	564.38
301.979	564.38
302.209	562.38
302.439	578.38
302.669	542.38
302.9	549.38
303.13	549.38
303.36	537.38
303.59	544.38
303.82	577.38
304.051	558.38
304.281	544.38
304.511	572.38
304.741	561.38
304.971	573.38
305.201	529.38
305.431	556.38
305.661	544.38
305.891	561.38
306.121	547.38
306.352	544.38
306.582	540.38
306.812	527.38
307.042	534.38
307.272	544.38
307.502	546.38
307.731	550.38
307.961	566.38
308.191	564.38
308.421	542.38
308.651	544.38
308.881	522.38
309.111	535.38
309.341	542.38
309.571	519.38
309.8	564.38
310.03	540.38
310.26	543.38
310.49	562.38
310.72	569.38
310.949	550.38
311.179	550.38
311.409	587.38
311.639	558.38
311.868	569.38
312.098	591.38
312.328	558.38
312.557	579.38
312.787	577.38
313.017	579.38
313.246	595.38
313.476	570.38
313.706	610.38
313.935	586.38
314.165	605.38
314.394	606.38
314.624	588.38
314.853	579.38
315.083	607.38
315.312	594.38
315.542	615.38
315.771	590.38
316.001	577.38
316.23	608.38
316.46	570.38
316.689	597.38
316.919	612.38
317.148	582.38
317.377	585.38
317.607	580.38
317.836	581.38
318.065	611.38
318.295	593.38
318.524	629.38
318.753	602.38
318.983	598.38
319.212	605.38
319.441	596.38
319.67	618.38
319.9	590.38
320.129	605.38
320.358	593.38
320.587	589.38
320.816	602.38
321.046	601.38
321.275	592.38
321.504	587.38
321.733	616.38
321.962	602.38
322.191	617.38
322.42	608.38
322.649	612.38
322.878	636.38
323.108	621.38
323.337	632.38
323.566	665.38
323.795	645.38
324.024	622.38
324.253	638.38
324.482	640.38
324.71	613.38
324.939	646.38
325.168	636.38
325.397	629.38
325.626	661.38
325.855	662.38
326.084	660.38
326.313	675.38
326.542	666.38
326.77	672.38
326.999	646.38
327.228	651.38
327.457	690.38
327.686	678.38
327.914	668.38
328.143	693.38
328.372	676.38
328.6	684.38
328.829	681.38
329.058	663.38
329.287	674.38
329.515	694.38
329.744	680.38
329.972	713.38
330.201	706.38
330.43	681.38
330.658	717.38
330.887	709.38
331.115	721.38
331.344	723.38
331.572	748.38
331.801	753.38
332.03	744.38
332.258	776.38
332.486	804.38
332.715	805.38
332.943	864.38
333.172	856.38
333.4	878.38
333.629	902.38
333.857	944.38
334.085	893.38
334.314	918.38
334.542	888.38
334.771	882.38
334.999	892.38
335.227	876.38
335.455	893.38
335.684	867.38
335.912	858.38
336.14	857.38
336.369	830.38
336.597	835.38
336.825	822.38
337.053	811.38
337.281	824.38
337.51	814.38
337.738	802.38
337.966	772.38
338.194	775.38
338.422	774.38
338.65	746.38
338.878	783.38
339.106	767.38
339.334	734.38
339.562	739.38
339.79	740.38
340.018	730.38
340.246	724.38
340.474	731.38
340.702	736.38
340.93	736.38
341.158	738.38
341.386	755.38
341.614	764.38
341.842	754.38
342.07	740.38
342.298	734.38
342.526	736.38
342.754	746.38
342.981	747.38
343.209	723.38
343.437	764.38
343.665	836.38
343.893	885.38
344.12	902.38
344.348	897.38
344.576	849.38
344.804	827.38
345.031	795.38
345.259	768.38
345.487	757.38
345.714	745.38
345.942	736.38
346.17	752.38
346.397	700.38
346.625	728.38
346.853	732.38
347.08	696.38
347.308	718.38
347.535	700.38
347.763	712.38
347.99	709.38
348.218	723.38
348.445	708.38
348.673	683.38
348.9	730.38
349.128	701.38
349.355	707.38
349.583	715.38
349.81	678.38
350.037	700.38
350.265	658.38
350.492	705.38
350.72	710.38
350.947	685.38
351.174	696.38
351.402	704.38
351.629	710.38
351.856	695.38
352.083	678.38
352.311	685.38
352.538	708.38
352.765	701.38
352.992	660.38
353.22	677.38
353.447	693.38
353.674	668.38
353.901	680.38
354.128	693.38
354.355	673.38
354.583	681.38
354.81	684.38
355.037	700.38
355.264	659.38
355.491	665.38
355.718	663.38
355.945	675.38
356.172	681.38
356.399	724.38
356.626	716.38
356.853	714.38
357.08	678.38
357.307	702.38
357.534	672.38
357.761	692.38
357.988	693.38
358.215	675.38
358.441	677.38
358.668	647.38
358.895	708.38
359.122	680.38
359.349	685.38
359.576	698.38
359.802	688.38
360.029	707.38
360.256	670.38
360.483	685.38
360.709	692.38
360.936	709.38
361.163	685.38
361.39	669.38
361.616	689.38
361.843	690.38
362.07	698.38
362.296	684.38
362.523	674.38
362.749	683.38
362.976	683.38
363.203	681.38
363.429	690.38
363.656	684.38
363.882	679.38
364.109	692.38
364.335	672.38
364.562	658.38
364.788	664.38
365.015	691.38
365.241	675.38
365.468	688.38
365.694	672.38
365.92	674.38
366.147	675.38
366.373	673.38
366.599	693.38
366.826	676.38
367.052	673.38
367.278	702.38
367.505	692.38
367.731	706.38
367.957	664.38
368.184	693.38
368.41	672.38
368.636	680.38
368.862	685.38
369.089	685.38
369.315	684.38
369.541	692.38
369.767	692.38
369.993	705.38
370.219	698.38
370.445	700.38
370.672	713.38
370.898	718.38
371.124	737.38
371.35	722.38
371.576	776.38
371.802	710.38
372.028	712.38
372.254	713.38
372.48	764.38
372.706	735.38
372.932	757.38
373.158	772.38
373.384	756.38
373.61	737.38
373.835	749.38
374.061	729.38
374.287	753.38
374.513	735.38
374.739	796.38
374.965	801.38
375.191	821.38
375.416	792.38
375.642	782.38
375.868	770.38
376.094	748.38
376.319	761.38
376.545	742.38
376.771	738.38
376.997	729.38
377.222	739.38
377.448	740.38
377.674	753.38
377.899	749.38
378.125	732.38
378.35	695.38
378.576	723.38
378.802	713.38
379.027	709.38
379.253	730.38
379.478	721.38
379.704	700.38
379.929	713.38
380.155	715.38
380.38	710.38
380.606	704.38
380.831	748.38
381.057	737.38
381.282	727.38
381.507	692.38
381.733	722.38
381.958	750.38
382.184	756.38
382.409	728.38
382.634	774.38
382.86	755.38
383.085	778.38
383.31	811.38
383.535	790.38
383.761	793.38
383.986	804.38
384.211	801.38
384.436	818.38
384.662	855.38
384.887	870.38
385.112	866.38
385.337	877.38
385.562	875.38
385.787	922.38
386.013	896.38
386.238	917.38
386.463	894.38
386.688	876.38
386.913	884.38
387.138	873.38
387.363	869.38
387.588	852.38
387.813	870.38
388.038	885.38
388.263	868.38
388.488	894.38
388.713	885.38
388.938	880.38
389.163	845.38
389.387	846.38
389.612	849.38
389.837	862.38
390.062	852.38
390.287	836.38
390.512	856.38
390.736	871.38
390.961	901.38
391.186	926.38
391.411	938.38
391.636	942.38
391.86	986.38
392.085	993.38
392.31	978.38
392.534	958.38
392.759	945.38
392.984	939.38
393.208	927.38
393.433	902.38
393.658	921.38
393.882	898.38
394.107	960.38
394.331	939.38
394.556	925.38
394.78	956.38
395.005	924.38
395.229	921.38
395.454	964.38
395.678	992.38
395.903	985.38
396.127	970.38
396.352	963.38
396.576	924.38
396.801	966.38
397.025	987.38
397.249	956.38
397.474	984.38
397.698	987.38
397.922	1001.38
398.147	1014.38
398.371	1024.38
398.595	1057.38
398.82	1077.38
399.044	1162.38
399.268	1310.38
399.492	1489.38
399.717	1614.38
399.941	1613.38
400.165	1499.38
400.389	1376.38
400.613	1245.38
400.837	1186.38
401.062	1168.38
401.286	1098.38
401.51	1112.38
401.734	1113.38
401.958	1131.38
402.182	1129.38
402.406	1142.38
402.63	1152.38
402.854	1155.38
403.078	1184.38
403.302	1218.38
403.526	1235.38
403.75	1206.38
403.974	1251.38
404.198	1266.38
404.422	1239.38
404.645	1241.38
404.869	1238.38
405.093	1256.38
405.317	1222.38
405.541	1208.38
405.765	1191.38
405.988	1207.38
406.212	1231.38
406.436	1202.38
406.66	1277.38
406.883	1256.38
407.107	1376.38
407.331	1365.38
407.555	1429.38
407.778	1410.38
408.002	1370.38
408.226	1363.38
408.449	1340.38
408.673	1258.38
408.896	1251.38
409.12	1243.38
409.344	1248.38
409.567	1256.38
409.791	1223.38
410.014	1249.38
410.238	1241.38
410.461	1238.38
410.685	1215.38
410.908	1213.38
411.132	1170.38
411.355	1163.38
411.578	1152.38
411.802	1165.38
412.025	1166.38
412.249	1200.38
412.472	1165.38
412.695	1170.38
412.919	1113.38
413.142	1106.38
413.365	1115.38
413.589	1124.38
413.812	1098.38
414.035	1124.38
414.258	1118.38
414.482	1124.38
414.705	1128.38
414.928	1101.38
415.151	1171.38
415.374	1117.38
415.597	1145.38
415.821	1101.38
416.044	1112.38
416.267	1074.38
416.49	1060.38
416.713	1077.38
416.936	1102.38
417.159	1065.38
417.382	1079.38
417.605	1090.38
417.828	1105.38
418.051	1120.38
418.274	1137.38
418.497	1109.38
418.72	1161.38
418.943	1137.38
419.166	1183.38
419.389	1269.38
419.611	1230.38
419.834	1192.38
420.057	1145.38
420.28	1146.38
420.503	1108.38
420.726	1086.38
420.948	1072.38
421.171	1091.38
421.394	1079.38
421.617	1120.38
421.839	1144.38
422.062	1117.38
422.285	1087.38
422.507	1129.38
422.73	1138.38
422.953	1159.38
423.175	1131.38
423.398	1141.38
423.621	1184.38
423.843	1177.38
424.066	1184.38
424.288	1147.38
424.511	1155.38
424.733	1132.38
424.956	1103.38
425.178	1131.38
425.401	1107.38
425.623	1099.38
425.846	1083.38
426.068	1085.38
426.291	1082.38
426.513	1061.38
426.735	1059.38
426.958	1065.38
427.18	1020.38
427.402	1050.38
427.625	1036.38
427.847	999.38
428.069	999.38
428.292	1001.38
428.514	979.38
428.736	984.38
428.958	1001.38
429.181	999.38
429.403	990.38
429.625	984.38
429.847	958.38
430.069	978.38
430.292	964.38
430.514	956.38
430.736	986.38
430.958	990.38
431.18	981.38
431.402	977.38
431.624	1018.38
431.846	987.38
432.068	1022.38
432.29	998.38
432.512	967.38
432.734	996.38
432.956	1008.38
433.178	984.38
433.4	999.38
433.622	1013.38
433.844	1033.38
434.066	1027.38
434.287	1032.38
434.509	1069.38
434.731	1076.38
434.953	1111.38
435.175	1115.38
435.397	1127.38
435.618	1048.38
435.84	1012.38
436.062	1014.38
436.284	989.38
436.505	999.38
436.727	1007.38
436.949	997.38
437.17	984.38
437.392	996.38
437.614	995.38
437.835	964.38
438.057	986.38
438.278	966.38
438.5	945.38
438.721	942.38
438.943	973.38
439.165	988.38
439.386	998.38
439.608	1021.38
439.829	1027.38
440.05	1041.38
440.272	1034.38
440.493	1032.38
440.715	1052.38
440.936	1066.38
441.158	1059.38
441.379	1057.38
441.6	1134.38
441.822	1129.38
442.043	1132.38
442.264	1122.38
442.486	1060.38
442.707	1097.38
442.928	1112.38
443.149	1129.38
443.371	1124.38
443.592	1152.38
443.813	1113.38
444.034	1154.38
444.255	1156.38
444.476	1213.38
444.698	1250.38
444.919	1305.38
445.14	1427.38
445.361	1300.38
445.582	1184.38
445.803	1117.38
446.024	1078.38
446.245	1051.38
446.466	1046.38
446.687	1072.38
446.908	1056.38
447.129	1004.38
447.35	979.38
447.571	983.38
447.792	941.38
448.013	977.38
448.234	952.38
448.455	967.38
448.675	914.38
448.896	941.38
449.117	906.38
449.338	905.38
449.559	899.38
449.779	954.38
450	956.38
450.221	950.38
450.442	936.38
450.662	933.38
450.883	929.38
451.104	959.38
451.324	924.38
451.545	913.38
451.766	938.38
451.986	923.38
452.207	927.38
452.428	900.38
452.648	941.38
452.869	910.38
453.089	892.38
453.31	910.38
453.53	894.38
453.751	889.38
453.971	884.38
454.192	884.38
454.412	857.38
454.633	892.38
454.853	895.38
455.073	882.38
455.294	876.38
455.514	863.38
455.734	862.38
455.955	826.38
456.175	847.38
456.395	864.38
456.616	862.38
456.836	865.38
457.056	865.38
457.276	863.38
457.497	891.38
457.717	870.38
457.937	857.38
458.157	879.38
458.377	900.38
458.598	909.38
458.818	924.38
459.038	960.38
459.258	987.38
459.478	1012.38
459.698	1038.38
459.918	1118.38
460.138	1094.38
460.358	1154.38
460.578	1178.38
460.798	1146.38
461.018	1207.38
461.238	1162.38
461.458	1181.38
461.678	1167.38
461.898	1228.38
462.118	1194.38
462.338	1274.38
462.558	1343.38
462.777	1350.38
462.997	1499.38
463.217	1556.38
463.437	1535.38
463.657	1442.38
463.876	1406.38
464.096	1411.38
464.316	1369.38
464.536	1387.38
464.755	1353.38
464.975	1303.38
465.195	1220.38
465.414	1162.38
465.634	1095.38
465.854	1060.38
466.073	1064.38
466.293	1015.38
466.512	1013.38
466.732	970.38
466.951	974.38
467.171	974.38
467.391	950.38
467.61	954.38
467.829	956.38
468.049	931.38
468.268	930.38
468.488	932.38
468.707	928.38
468.927	928.38
469.146	930.38
469.365	969.38
469.585	944.38
469.804	958.38
470.023	984.38
470.243	987.38
470.462	988.38
470.681	1017.38
470.901	1011.38
471.12	966.38
471.339	966.38
471.558	958.38
471.777	938.38
471.997	949.38
472.216	939.38
472.435	926.38
472.654	919.38
472.873	896.38
473.092	928.38
473.311	900.38
473.53	929.38
473.749	898.38
473.968	885.38
474.187	897.38
474.406	890.38
474.625	893.38
474.844	914.38
475.063	944.38
475.282	915.38
475.501	908.38
475.72	911.38
475.939	925.38
476.158	937.38
476.377	957.38
476.596	947.38
476.814	972.38
477.033	986.38
477.252	956.38
477.471	1001.38
477.69	1012.38
477.908	1040.38
478.127	1040.38
478.346	1084.38
478.564	1092.38
478.783	1113.38
479.002	1116.38
479.22	1138.38
479.439	1141.38
479.658	1133.38
479.876	1104.38
480.095	1114.38
480.313	1158.38
480.532	1180.38
480.751	1181.38
480.969	1173.38
481.188	1117.38
481.406	1088.38
481.624	1072.38
481.843	1035.38
482.061	1044.38
482.28	1035.38
482.498	985.38
482.717	1030.38
482.935	1036.38
483.153	1020.38
483.372	1018.38
483.59	1036.38
483.808	1041.38
484.027	1012.38
484.245	1044.38
484.463	1067.38
484.681	1059.38
484.9	1050.38
485.118	1032.38
485.336	1039.38
485.554	1045.38
485.772	1061.38
485.99	1066.38
486.209	1085.38
486.427	1058.38
486.645	1043.38
486.863	1072.38
487.081	1077.38
487.299	1056.38
487.517	1068.38
487.735	1091.38
487.953	1069.38
488.171	1076.38
488.389	1089.38
488.607	1062.38
488.825	1025.38
489.043	1063.38
489.261	1061.38
489.479	1051.38
489.696	1093.38
489.914	1040.38
490.132	1111.38
490.35	1108.38
490.568	1069.38
490.786	1076.38
491.003	1099.38
491.221	1094.38
491.439	1087.38
491.657	1102.38
491.874	1098.38
492.092	1121.38
492.31	1114.38
492.527	1127.38
492.745	1140.38
492.963	1126.38
493.18	1116.38
493.398	1116.38
493.615	1157.38
493.833	1151.38
494.05	1126.38
494.268	1164.38
494.485	1145.38
494.703	1178.38
494.92	1206.38
495.138	1215.38
495.355	1148.38
495.573	1165.38
495.79	1164.38
496.008	1168.38
496.225	1203.38
496.442	1198.38
496.66	1227.38
496.877	1252.38
497.094	1273.38
497.312	1288.38
497.529	1309.38
497.746	1329.38
497.963	1352.38
498.181	1438.38
498.398	1500.38
498.615	1581.38
498.832	1676.38
499.049	1837.38
499.267	1977.38
499.484	2149.38
499.701	2370.38
499.918	2590.38
500.135	2872.38
500.352	3220.38
500.569	3326.38
500.786	3292.38
501.003	3092.38
501.22	2825.38
501.437	2537.38
501.654	2244.38
501.871	2104.38
502.088	1932.38
502.305	1802.38
502.522	1709.38
502.739	1640.38
502.956	1513.38
503.172	1501.38
503.389	1464.38
503.606	1358.38
503.823	1337.38
504.04	1344.38
504.256	1337.38
504.473	1334.38
504.69	1367.38
504.907	1328.38
505.123	1267.38
505.34	1197.38
505.557	1175.38
505.773	1148.38
505.99	1128.38
506.207	1098.38
506.423	1084.38
506.64	1072.38
506.856	1070.38
507.073	1047.38
507.289	1076.38
507.506	1040.38
507.722	1012.38
507.939	999.38
508.155	984.38
508.372	985.38
508.588	972.38
508.805	966.38
509.021	941.38
509.238	941.38
509.454	937.38
509.67	932.38
509.887	937.38
510.103	936.38
510.319	942.38
510.536	935.38
510.752	928.38
510.968	927.38
511.184	928.38
511.401	937.38
511.617	919.38
511.833	928.38
512.049	902.38
512.265	929.38
512.481	939.38
512.698	920.38
512.914	930.38
513.13	923.38
513.346	894.38
513.562	928.38
513.778	908.38
513.994	937.38
514.21	917.38
514.426	962.38
514.642	954.38
514.858	961.38
515.074	933.38
515.29	975.38
515.506	937.38
515.721	1008.38
515.937	1005.38
516.153	1024.38
516.369	1034.38
516.585	1092.38
516.801	1090.38
517.016	1148.38
517.232	1185.38
517.448	1229.38
517.664	1264.38
517.879	1261.38
518.095	1253.38
518.311	1251.38
518.527	1200.38
518.742	1168.38
518.958	1120.38
519.173	1078.38
519.389	1053.38
519.605	1002.38
519.82	977.38
520.036	948.38
520.251	941.38
520.467	947.38
520.682	954.38
520.898	919.38
521.113	924.38
521.329	900.38
521.544	903.38
521.76	887.38
521.975	901.38
522.19	886.38
522.406	872.38
522.621	870.38
522.836	885.38
523.052	851.38
523.267	873.38
523.482	868.38
523.698	854.38
523.913	861.38
524.128	880.38
524.343	894.38
524.559	818.38
524.774	817.38
524.989	870.38
525.204	857.38
525.419	832.38
525.634	859.38
525.849	845.38
526.064	829.38
526.28	822.38
526.495	842.38
526.71	837.38
526.925	824.38
527.14	823.38
527.355	808.38
527.57	834.38
527.785	834.38
527.999	806.38
528.214	810.38
528.429	839.38
528.644	820.38
528.859	801.38
529.074	827.38
529.289	846.38
529.503	818.38
529.718	846.38
529.933	806.38
530.148	824.38
530.363	834.38
530.577	812.38
530.792	833.38
531.007	838.38
531.221	828.38
531.436	813.38
531.651	811.38
531.865	803.38
532.08	828.38
532.295	828.38
532.509	799.38
532.724	809.38
532.938	790.38
533.153	802.38
533.367	826.38
533.582	839.38
533.796	816.38
534.011	834.38
534.225	802.38
534.44	806.38
534.654	820.38
534.868	786.38
535.083	796.38
535.297	795.38
535.511	795.38
535.726	779.38
535.94	770.38
536.154	787.38
536.369	805.38
536.583	768.38
536.797	764.38
537.011	784.38
537.225	780.38
537.44	769.38
537.654	745.38
537.868	773.38
538.082	747.38
538.296	748.38
538.51	779.38
538.724	786.38
538.938	740.38
539.153	740.38
539.367	771.38
539.581	786.38
539.795	744.38
540.009	738.38
540.222	736.38
540.436	747.38
540.65	745.38
540.864	749.38
541.078	746.38
541.292	740.38
541.506	743.38
541.72	755.38
541.934	743.38
542.147	768.38
542.361	754.38
542.575	735.38
542.789	719.38
543.002	747.38
543.216	742.38
543.43	769.38
543.644	723.38
543.857	740.38
544.071	767.38
544.285	755.38
544.498	749.38
544.712	750.38
544.925	770.38
545.139	760.38
545.352	770.38
545.566	763.38
545.779	778.38
545.993	783.38
546.206	786.38
546.42	769.38
546.633	783.38
546.847	756.38
547.06	748.38
547.274	755.38
547.487	760.38
547.7	780.38
547.914	755.38
548.127	793.38
548.34	774.38
548.554	803.38
548.767	787.38
548.98	757.38
549.193	754.38
549.407	759.38
549.62	787.38
549.833	809.38
550.046	797.38
550.259	775.38
550.473	777.38
550.686	772.38
550.899	774.38
551.112	740.38
551.325	738.38
551.538	745.38
551.751	747.38
551.964	747.38
552.177	791.38
552.39	782.38
552.603	784.38
552.816	813.38
553.029	814.38
553.242	838.38
553.455	832.38
553.667	838.38
553.88	821.38
554.093	795.38
554.306	808.38
554.519	776.38
554.732	757.38
554.944	724.38
555.157	746.38
555.37	712.38
555.583	720.38
555.795	690.38
556.008	707.38
556.221	700.38
556.433	689.38
556.646	685.38
556.859	648.38
557.071	670.38
557.284	717.38
557.496	666.38
557.709	658.38
557.921	664.38
558.134	660.38
558.346	654.38
558.559	659.38
558.771	636.38
558.984	668.38
559.196	618.38
559.409	644.38
559.621	634.38
559.833	626.38
560.046	630.38
560.258	600.38
560.47	640.38
560.683	651.38
560.895	620.38
561.107	622.38
561.32	624.38
561.532	635.38
561.744	630.38
561.956	627.38
562.168	635.38
562.381	647.38
562.593	628.38
562.805	638.38
563.017	637.38
563.229	645.38
563.441	643.38
563.653	652.38
563.865	650.38
564.077	643.38
564.289	649.38
564.501	668.38
564.713	657.38
564.925	683.38
565.137	702.38
565.349	709.38
565.561	736.38
565.773	772.38
565.985	803.38
566.197	844.38
566.408	880.38
566.62	948.38
566.832	1022.38
567.044	1028.38
567.255	1022.38
567.467	1074.38
567.679	1111.38
567.891	1180.38
568.102	1140.38
568.314	1115.38
568.526	1026.38
568.737	918.38
568.949	870.38
569.161	833.38
569.372	764.38
569.584	716.38
569.795	699.38
570.007	691.38
570.218	663.38
570.43	662.38
570.641	642.38
570.853	654.38
571.064	655.38
571.276	646.38
571.487	625.38
571.698	607.38
571.91	576.38
572.121	585.38
572.333	589.38
572.544	566.38
572.755	542.38
572.966	534.38
573.178	548.38
573.389	554.38
573.6	523.38
573.811	518.38
574.023	540.38
574.234	512.38
574.445	518.38
574.656	518.38
574.867	518.38
575.078	508.38
575.289	516.38
575.501	531.38
575.712	524.38
575.923	494.38
576.134	512.38
576.345	505.38
576.556	490.38
576.767	483.38
576.978	494.38
577.188	481.38
577.399	482.38
577.61	469.38
577.821	457.38
578.032	457.38
578.243	485.38
578.454	474.38
578.665	470.38
578.875	469.38
579.086	469.38
579.297	461.38
579.508	446.38
579.718	468.38
579.929	425.38
580.14	428.38
580.35	433.38
580.561	466.38
580.772	451.38
580.982	449.38
581.193	441.38
581.403	436.38
581.614	457.38
581.825	452.38
582.035	427.38
582.246	400.38
582.456	445.38
582.667	432.38
582.877	436.38
583.087	428.38
583.298	430.38
583.508	437.38
583.719	437.38
583.929	439.38
584.139	435.38
584.35	411.38
584.56	425.38
584.77	406.38
584.981	429.38
585.191	409.38
585.401	409.38
585.611	414.38
585.821	419.38
586.032	421.38
586.242	417.38
586.452	429.38
586.662	425.38
586.872	411.38
587.082	419.38
587.292	423.38
587.502	434.38
587.713	425.38
587.923	420.38
588.133	400.38
588.343	414.38
588.553	418.38
588.762	391.38
588.972	391.38
589.182	426.38
589.392	439.38
589.602	440.38
589.812	438.38
590.022	424.38
590.232	410.38
590.441	400.38
590.651	418.38
590.861	403.38
591.071	427.38
591.281	437.38
591.49	417.38
591.7	420.38
591.91	425.38
592.119	443.38
592.329	453.38
592.539	476.38
592.748	473.38
592.958	502.38
593.167	493.38
593.377	540.38
593.587	519.38
593.796	548.38
594.006	523.38
594.215	523.38
594.424	513.38
594.634	491.38
594.843	485.38
595.053	487.38
595.262	452.38
595.472	436.38
595.681	432.38
595.89	452.38
596.1	439.38
596.309	409.38
596.518	409.38
596.727	403.38
596.937	402.38
597.146	381.38
597.355	380.38
597.564	385.38
597.774	372.38
597.983	370.38
598.192	355.38
598.401	360.38
598.61	367.38
598.819	372.38
599.028	346.38
599.237	361.38
599.446	353.38
599.655	342.38
599.864	335.38
600.073	338.38
600.282	344.38
600.491	343.38
600.7	366.38
600.909	346.38
601.118	341.38
601.327	355.38
601.536	341.38
601.745	350.38
601.953	368.38
602.162	342.38
602.371	348.38
602.58	343.38
602.789	352.38
602.997	336.38
603.206	330.38
603.415	325.38
603.623	325.38
603.832	329.38
604.041	340.38
604.249	321.38
604.458	323.38
604.666	328.38
604.875	322.38
605.084	311.38
605.292	333.38
605.501	312.38
605.709	310.38
605.918	318.38
606.126	325.38
606.334	330.38
606.543	304.38
606.751	313.38
606.96	318.38
607.168	324.38
607.376	314.38
607.585	315.38
607.793	321.38
608.001	322.38
608.21	313.38
608.418	306.38
608.626	313.38
608.834	308.38
609.043	308.38
609.251	322.38
609.459	305.38
609.667	314.38
609.875	307.38
610.083	295.38
610.291	325.38
610.499	330.38
610.707	316.38
610.916	313.38
611.124	297.38
611.332	305.38
611.54	316.38
611.748	298.38
611.955	292.38
612.163	322.38
612.371	294.38
612.579	290.38
612.787	301.38
612.995	305.38
613.203	286.38
613.411	292.38
613.618	306.38
613.826	302.38
614.034	292.38
614.242	296.38
614.449	301.38
614.657	298.38
614.865	276.38
615.072	314.38
615.28	317.38
615.488	321.38
615.695	292.38
615.903	300.38
616.111	294.38
616.318	317.38
616.526	303.38
616.733	305.38
616.941	295.38
617.148	299.38
617.356	309.38
617.563	290.38
617.771	302.38
617.978	285.38
618.185	297.38
618.393	301.38
618.6	311.38
618.807	296.38
619.015	289.38
619.222	292.38
619.429	291.38
619.637	286.38
619.844	280.38
620.051	277.38
620.258	260.38
620.466	269.38
620.673	276.38
620.88	278.38
621.087	262.38
621.294	279.38
621.501	270.38
621.708	280.38
621.915	275.38
622.122	270.38
622.329	274.38
622.536	269.38
622.743	269.38
622.95	276.38
623.157	285.38
623.364	278.38
623.571	283.38
623.778	264.38
623.985	264.38
624.192	265.38
624.399	253.38
624.606	249.38
624.812	270.38
625.019	264.38
625.226	274.38
625.433	275.38
625.639	263.38
625.846	258.38
626.053	274.38
626.259	270.38
626.466	259.38
626.673	248.38
626.879	242.38
627.086	260.38
627.293	244.38
627.499	235.38
627.706	253.38
627.912	245.38
628.119	243.38
628.325	256.38
628.532	224.38
628.738	249.38
628.945	251.38
629.151	260.38
629.357	256.38
629.564	237.38
629.77	240.38
629.976	234.38
630.183	221.38
630.389	245.38
630.595	235.38
630.802	219.38
631.008	225.38
631.214	230.38
631.42	246.38
631.627	248.38
631.833	232.38
632.039	233.38
632.245	211.38
632.451	214.38
632.657	233.38
632.863	226.38
633.069	228.38
633.275	224.38
633.481	217.38
633.688	235.38
633.893	216.38
634.099	225.38
634.305	224.38
634.511	219.38
634.717	226.38
634.923	227.38
635.129	207.38
635.335	222.38
635.541	237.38
635.747	226.38
635.952	197.38
636.158	215.38
636.364	237.38
636.57	206.38
636.775	200.38
636.981	220.38
637.187	208.38
637.392	219.38
637.598	224.38
637.804	211.38
638.009	210.38
638.215	215.38
638.421	197.38
638.626	216.38
638.832	215.38
639.037	208.38
639.243	208.38
639.448	197.38
639.654	192.38
639.859	197.38
640.065	208.38
640.27	218.38
640.475	217.38
640.681	206.38
640.886	194.38
641.091	205.38
641.297	195.38
641.502	198.38
641.707	206.38
641.913	194.38
642.118	189.38
642.323	197.38
642.528	213.38
642.733	208.38
642.939	203.38
643.144	203.38
643.349	207.38
643.554	204.38
643.759	200.38
643.964	200.38
644.169	195.38
644.374	211.38
644.579	203.38
644.784	186.38
644.989	189.38
645.194	186.38
645.399	202.38
645.604	199.38
645.809	177.38
646.014	182.38
646.219	189.38
646.423	198.38
646.628	205.38
646.833	202.38
647.038	196.38
647.243	204.38
647.447	192.38
647.652	220.38
647.857	200.38
648.062	212.38
648.266	212.38
648.471	206.38
648.676	203.38
648.88	204.38
649.085	212.38
649.289	197.38
649.494	193.38
649.698	208.38
649.903	196.38
650.107	185.38
650.312	174.38
650.516	187.38
650.721	172.38
650.925	178.38
651.13	173.38
651.334	163.38
651.539	180.38
651.743	189.38
651.947	165.38
652.152	171.38
652.356	166.38
652.56	167.38
652.764	166.38
652.969	162.38
653.173	165.38
653.377	167.38
653.581	153.38
653.785	154.38
653.99	150.38
654.194	143.38
654.398	150.38
654.602	155.38
654.806	141.38
655.01	154.38
655.214	138.38
655.418	150.38
655.622	139.38
655.826	135.38
656.03	151.38
656.234	149.38
656.438	147.38
656.642	140.38
656.846	131.38
657.049	134.38
657.253	132.38
657.457	126.38
657.661	121.38
657.865	107.38
658.068	122.38
658.272	116.38
658.476	124.38
658.68	98.38
658.883	102.38
659.087	108.38
659.291	121.38
659.494	101.38
659.698	99.38
659.901	92.38
660.105	97.38
660.309	96.38
660.512	92.38
660.716	97.38
660.919	102.38
661.123	105.38
661.326	92.38
661.53	94.38
661.733	92.38
661.936	87.38
662.14	89.38
662.343	93.38
662.546	70.38
662.75	85.38
662.953	97.38
663.156	72.38
663.36	78.38
663.563	78.38
663.766	85.38
663.969	81.38
664.173	76.38
664.376	82.38
664.579	80.38
664.782	85.38
664.985	97.38
665.188	102.38
665.391	89.38
665.594	81.38
665.797	63.38
666	87.38
666.203	83.38
666.406	83.38
666.609	87.38
666.812	82.38
667.015	95.38
667.218	91.38
667.421	87.38
667.624	75.38
667.827	80.38
668.03	88.38
668.232	82.38
668.435	80.38
668.638	87.38
668.841	81.38
669.043	97.38
669.246	84.38
669.449	73.38
669.651	82.38
669.854	85.38
670.057	80.38
670.259	85.38
670.462	87.38
670.665	88.38
670.867	87.38
671.07	87.38
671.272	86.38
671.475	93.38
671.677	81.38
671.88	66.38
672.082	94.38
672.284	98.38
672.487	83.38
672.689	76.38
672.892	86.38
