Data from Ni(NO3)2@0.5M.TitratingCurve.Agarose3%dH2O.NegLispCup.LampEnergy10.LIBS07252019_HRD10591_18-00-24-564.txt Node
Date: Thu Jul 25 18:00:24 EDT 2019
User: cochatt
Spectrometer: HR+D1059
Trigger mode: 1
Integration Time (sec): 1.000000E-1
Scans to average: 1
Electric dark correction enabled: true
Nonlinearity correction enabled: false
Boxcar width: 0
XAxis mode: Wavelengths
Number of Pixels in Spectrum: 2048
>>>>>Begin Spectral Data<<<<<
223.165	-15.88
223.4	-15.88
223.635	-15.88
223.869	-34.88
224.104	-18.88
224.338	-10.88
224.573	-8.88
224.808	-18.88
225.042	4.12
225.277	-13.88
225.511	4.12
225.746	-7.88
225.98	10.12
226.215	26.12
226.449	19.12
226.683	11.12
226.918	26.12
227.152	29.12
227.387	36.12
227.621	34.12
227.856	45.12
228.09	34.12
228.324	42.12
228.559	53.12
228.793	75.12
229.027	125.12
229.262	111.12
229.496	143.12
229.73	143.12
229.964	165.12
230.199	164.12
230.433	186.12
230.667	170.12
230.901	173.12
231.136	154.12
231.37	157.12
231.604	188.12
231.838	169.12
232.072	193.12
232.306	166.12
232.541	163.12
232.775	165.12
233.009	170.12
233.243	168.12
233.477	165.12
233.711	172.12
233.945	190.12
234.179	175.12
234.413	166.12
234.647	175.12
234.881	160.12
235.115	193.12
235.349	176.12
235.583	174.12
235.817	170.12
236.051	170.12
236.285	184.12
236.519	185.12
236.753	168.12
236.987	179.12
237.221	194.12
237.455	196.12
237.689	191.12
237.922	186.12
238.156	195.12
238.39	187.12
238.624	192.12
238.858	197.12
239.091	200.12
239.325	212.12
239.559	216.12
239.793	219.12
240.027	226.12
240.26	200.12
240.494	206.12
240.728	208.12
240.961	218.12
241.195	208.12
241.429	218.12
241.662	214.12
241.896	240.12
242.13	255.12
242.363	225.12
242.597	218.12
242.83	224.12
243.064	209.12
243.298	221.12
243.531	226.12
243.765	248.12
243.998	247.12
244.232	251.12
244.465	265.12
244.699	234.12
244.932	249.12
245.166	229.12
245.399	258.12
245.633	227.12
245.866	248.12
246.099	246.12
246.333	256.12
246.566	256.12
246.8	247.12
247.033	268.12
247.266	264.12
247.5	268.12
247.733	252.12
247.966	252.12
248.2	277.12
248.433	291.12
248.666	278.12
248.899	288.12
249.133	280.12
249.366	292.12
249.599	292.12
249.832	305.12
250.066	285.12
250.299	284.12
250.532	292.12
250.765	312.12
250.998	312.12
251.231	309.12
251.465	325.12
251.698	341.12
251.931	312.12
252.164	291.12
252.397	334.12
252.63	312.12
252.863	338.12
253.096	316.12
253.329	325.12
253.562	328.12
253.795	333.12
254.028	313.12
254.261	328.12
254.494	326.12
254.727	355.12
254.96	332.12
255.193	334.12
255.426	350.12
255.659	346.12
255.892	363.12
256.124	312.12
256.357	378.12
256.59	357.12
256.823	346.12
257.056	357.12
257.289	363.12
257.521	364.12
257.754	368.12
257.987	354.12
258.22	360.12
258.452	355.12
258.685	353.12
258.918	366.12
259.151	370.12
259.383	364.12
259.616	362.12
259.849	389.12
260.081	396.12
260.314	411.12
260.547	363.12
260.779	378.12
261.012	405.12
261.244	404.12
261.477	392.12
261.71	388.12
261.942	417.12
262.175	434.12
262.407	406.12
262.64	416.12
262.872	400.12
263.105	409.12
263.337	421.12
263.57	397.12
263.802	416.12
264.035	400.12
264.267	418.12
264.499	414.12
264.732	419.12
264.964	440.12
265.197	450.12
265.429	407.12
265.661	424.12
265.894	428.12
266.126	446.12
266.358	438.12
266.591	450.12
266.823	452.12
267.055	438.12
267.287	429.12
267.52	455.12
267.752	450.12
267.984	442.12
268.216	474.12
268.448	466.12
268.681	464.12
268.913	477.12
269.145	454.12
269.377	456.12
269.609	450.12
269.841	483.12
270.073	458.12
270.306	484.12
270.538	469.12
270.77	461.12
271.002	459.12
271.234	447.12
271.466	471.12
271.698	460.12
271.93	475.12
272.162	489.12
272.394	487.12
272.626	505.12
272.858	508.12
273.09	484.12
273.322	483.12
273.553	488.12
273.785	490.12
274.017	485.12
274.249	495.12
274.481	514.12
274.713	486.12
274.945	500.12
275.176	481.12
275.408	489.12
275.64	481.12
275.872	530.12
276.104	522.12
276.335	521.12
276.567	534.12
276.799	516.12
277.031	526.12
277.262	522.12
277.494	509.12
277.726	522.12
277.957	548.12
278.189	532.12
278.421	522.12
278.652	551.12
278.884	551.12
279.115	543.12
279.347	543.12
279.579	570.12
279.81	544.12
280.042	562.12
280.273	550.12
280.505	538.12
280.736	552.12
280.968	572.12
281.199	566.12
281.431	564.12
281.662	548.12
281.894	570.12
282.125	569.12
282.356	580.12
282.588	584.12
282.819	579.12
283.051	573.12
283.282	539.12
283.513	581.12
283.745	599.12
283.976	598.12
284.207	581.12
284.439	576.12
284.67	571.12
284.901	584.12
285.132	584.12
285.364	597.12
285.595	595.12
285.826	566.12
286.057	594.12
286.288	598.12
286.52	602.12
286.751	624.12
286.982	587.12
287.213	622.12
287.444	629.12
287.675	626.12
287.906	601.12
288.138	611.12
288.369	613.12
288.6	636.12
288.831	628.12
289.062	607.12
289.293	626.12
289.524	620.12
289.755	613.12
289.986	642.12
290.217	625.12
290.448	644.12
290.679	618.12
290.91	644.12
291.141	616.12
291.371	634.12
291.602	626.12
291.833	621.12
292.064	632.12
292.295	648.12
292.526	651.12
292.757	627.12
292.987	624.12
293.218	640.12
293.449	647.12
293.68	627.12
293.91	656.12
294.141	664.12
294.372	653.12
294.603	660.12
294.833	638.12
295.064	631.12
295.295	641.12
295.525	656.12
295.756	660.12
295.987	651.12
296.217	660.12
296.448	652.12
296.679	672.12
296.909	650.12
297.14	673.12
297.37	662.12
297.601	692.12
297.831	702.12
298.062	682.12
298.292	704.12
298.523	681.12
298.753	677.12
298.984	711.12
299.214	680.12
299.445	708.12
299.675	725.12
299.905	677.12
300.136	683.12
300.366	714.12
300.597	722.12
300.827	725.12
301.057	715.12
301.288	696.12
301.518	717.12
301.748	715.12
301.979	718.12
302.209	722.12
302.439	728.12
302.669	691.12
302.9	723.12
303.13	737.12
303.36	738.12
303.59	740.12
303.82	723.12
304.051	750.12
304.281	764.12
304.511	714.12
304.741	722.12
304.971	756.12
305.201	780.12
305.431	752.12
305.661	755.12
305.891	741.12
306.121	742.12
306.352	732.12
306.582	740.12
306.812	720.12
307.042	748.12
307.272	741.12
307.502	739.12
307.731	720.12
307.961	727.12
308.191	726.12
308.421	715.12
308.651	751.12
308.881	716.12
309.111	720.12
309.341	730.12
309.571	729.12
309.8	770.12
310.03	778.12
310.26	776.12
310.49	769.12
310.72	759.12
310.949	756.12
311.179	756.12
311.409	768.12
311.639	773.12
311.868	759.12
312.098	768.12
312.328	742.12
312.557	779.12
312.787	774.12
313.017	770.12
313.246	786.12
313.476	812.12
313.706	808.12
313.935	776.12
314.165	794.12
314.394	778.12
314.624	790.12
314.853	816.12
315.083	813.12
315.312	780.12
315.542	842.12
315.771	786.12
316.001	780.12
316.23	811.12
316.46	799.12
316.689	796.12
316.919	810.12
317.148	767.12
317.377	803.12
317.607	794.12
317.836	788.12
318.065	798.12
318.295	800.12
318.524	799.12
318.753	808.12
318.983	806.12
319.212	818.12
319.441	799.12
319.67	814.12
319.9	803.12
320.129	807.12
320.358	806.12
320.587	831.12
320.816	818.12
321.046	822.12
321.275	834.12
321.504	819.12
321.733	836.12
321.962	822.12
322.191	818.12
322.42	841.12
322.649	841.12
322.878	834.12
323.108	823.12
323.337	837.12
323.566	853.12
323.795	868.12
324.024	857.12
324.253	858.12
324.482	860.12
324.71	837.12
324.939	859.12
325.168	872.12
325.397	852.12
325.626	884.12
325.855	865.12
326.084	884.12
326.313	878.12
326.542	890.12
326.77	871.12
326.999	851.12
327.228	887.12
327.457	865.12
327.686	892.12
327.914	917.12
328.143	883.12
328.372	890.12
328.6	886.12
328.829	878.12
329.058	897.12
329.287	886.12
329.515	925.12
329.744	903.12
329.972	888.12
330.201	909.12
330.43	926.12
330.658	898.12
330.887	918.12
331.115	931.12
331.344	968.12
331.572	959.12
331.801	963.12
332.03	975.12
332.258	959.12
332.486	948.12
332.715	1000.12
332.943	1026.12
333.172	1045.12
333.4	1036.12
333.629	1069.12
333.857	1086.12
334.085	1062.12
334.314	1088.12
334.542	1055.12
334.771	1099.12
334.999	1087.12
335.227	1065.12
335.455	1089.12
335.684	1077.12
335.912	1088.12
336.14	1052.12
336.369	1078.12
336.597	1072.12
336.825	1071.12
337.053	1052.12
337.281	1044.12
337.51	1053.12
337.738	1011.12
337.966	1029.12
338.194	1028.12
338.422	997.12
338.65	981.12
338.878	994.12
339.106	982.12
339.334	1013.12
339.562	995.12
339.79	970.12
340.018	961.12
340.246	979.12
340.474	967.12
340.702	970.12
340.93	980.12
341.158	962.12
341.386	994.12
341.614	1012.12
341.842	971.12
342.07	938.12
342.298	951.12
342.526	981.12
342.754	944.12
342.981	966.12
343.209	965.12
343.437	997.12
343.665	1060.12
343.893	1061.12
344.12	1086.12
344.348	1081.12
344.576	1075.12
344.804	1065.12
345.031	992.12
345.259	992.12
345.487	979.12
345.714	976.12
345.942	1013.12
346.17	1024.12
346.397	973.12
346.625	964.12
346.853	903.12
347.08	932.12
347.308	925.12
347.535	914.12
347.763	897.12
347.99	933.12
348.218	931.12
348.445	891.12
348.673	900.12
348.9	898.12
349.128	916.12
349.355	940.12
349.583	944.12
349.81	920.12
350.037	880.12
350.265	915.12
350.492	942.12
350.72	902.12
350.947	890.12
351.174	905.12
351.402	933.12
351.629	946.12
351.856	909.12
352.083	872.12
352.311	937.12
352.538	919.12
352.765	950.12
352.992	907.12
353.22	904.12
353.447	869.12
353.674	850.12
353.901	876.12
354.128	884.12
354.355	891.12
354.583	853.12
354.81	864.12
355.037	883.12
355.264	902.12
355.491	878.12
355.718	874.12
355.945	888.12
356.172	884.12
356.399	896.12
356.626	902.12
356.853	917.12
357.08	920.12
357.307	897.12
357.534	906.12
357.761	907.12
357.988	892.12
358.215	887.12
358.441	884.12
358.668	910.12
358.895	883.12
359.122	882.12
359.349	893.12
359.576	872.12
359.802	900.12
360.029	910.12
360.256	893.12
360.483	879.12
360.709	874.12
360.936	892.12
361.163	906.12
361.39	885.12
361.616	908.12
361.843	913.12
362.07	952.12
362.296	944.12
362.523	910.12
362.749	926.12
362.976	902.12
363.203	886.12
363.429	905.12
363.656	926.12
363.882	898.12
364.109	905.12
364.335	891.12
364.562	889.12
364.788	888.12
365.015	919.12
365.241	891.12
365.468	903.12
365.694	901.12
365.92	891.12
366.147	906.12
366.373	894.12
366.599	913.12
366.826	913.12
367.052	889.12
367.278	903.12
367.505	916.12
367.731	914.12
367.957	900.12
368.184	900.12
368.41	923.12
368.636	937.12
368.862	932.12
369.089	937.12
369.315	957.12
369.541	933.12
369.767	940.12
369.993	954.12
370.219	925.12
370.445	940.12
370.672	954.12
370.898	933.12
371.124	979.12
371.35	957.12
371.576	981.12
371.802	960.12
372.028	998.12
372.254	980.12
372.48	1008.12
372.706	979.12
372.932	986.12
373.158	995.12
373.384	1012.12
373.61	997.12
373.835	997.12
374.061	975.12
374.287	988.12
374.513	1001.12
374.739	1016.12
374.965	1024.12
375.191	1043.12
375.416	1052.12
375.642	1029.12
375.868	1000.12
376.094	997.12
376.319	992.12
376.545	979.12
376.771	953.12
376.997	951.12
377.222	968.12
377.448	1002.12
377.674	989.12
377.899	962.12
378.125	933.12
378.35	973.12
378.576	963.12
378.802	946.12
379.027	940.12
379.253	932.12
379.478	973.12
379.704	957.12
379.929	969.12
380.155	984.12
380.38	945.12
380.606	935.12
380.831	946.12
381.057	954.12
381.282	963.12
381.507	963.12
381.733	971.12
381.958	966.12
382.184	1013.12
382.409	993.12
382.634	968.12
382.86	980.12
383.085	1022.12
383.31	994.12
383.535	1032.12
383.761	1012.12
383.986	1032.12
384.211	1054.12
384.436	1055.12
384.662	1034.12
384.887	1074.12
385.112	1052.12
385.337	1108.12
385.562	1082.12
385.787	1065.12
386.013	1107.12
386.238	1105.12
386.463	1112.12
386.688	1133.12
386.913	1112.12
387.138	1138.12
387.363	1132.12
387.588	1131.12
387.813	1124.12
388.038	1095.12
388.263	1154.12
388.488	1158.12
388.713	1113.12
388.938	1090.12
389.163	1099.12
389.387	1133.12
389.612	1117.12
389.837	1122.12
390.062	1120.12
390.287	1154.12
390.512	1125.12
390.736	1083.12
390.961	1129.12
391.186	1137.12
391.411	1158.12
391.636	1213.12
391.86	1166.12
392.085	1232.12
392.31	1222.12
392.534	1188.12
392.759	1156.12
392.984	1205.12
393.208	1218.12
393.433	1197.12
393.658	1179.12
393.882	1177.12
394.107	1165.12
394.331	1179.12
394.556	1160.12
394.78	1170.12
395.005	1172.12
395.229	1174.12
395.454	1208.12
395.678	1229.12
395.903	1227.12
396.127	1237.12
396.352	1205.12
396.576	1242.12
396.801	1181.12
397.025	1206.12
397.249	1236.12
397.474	1222.12
397.698	1237.12
397.922	1281.12
398.147	1251.12
398.371	1330.12
398.595	1329.12
398.82	1339.12
399.044	1425.12
399.268	1494.12
399.492	1599.12
399.717	1672.12
399.941	1697.12
400.165	1633.12
400.389	1579.12
400.613	1479.12
400.837	1467.12
401.062	1451.12
401.286	1414.12
401.51	1373.12
401.734	1380.12
401.958	1370.12
402.182	1376.12
402.406	1371.12
402.63	1363.12
402.854	1368.12
403.078	1369.12
403.302	1370.12
403.526	1401.12
403.75	1422.12
403.974	1480.12
404.198	1399.12
404.422	1417.12
404.645	1434.12
404.869	1405.12
405.093	1421.12
405.317	1409.12
405.541	1422.12
405.765	1445.12
405.988	1446.12
406.212	1446.12
406.436	1474.12
406.66	1485.12
406.883	1493.12
407.107	1568.12
407.331	1600.12
407.555	1655.12
407.778	1638.12
408.002	1637.12
408.226	1650.12
408.449	1598.12
408.673	1530.12
408.896	1551.12
409.12	1508.12
409.344	1508.12
409.567	1523.12
409.791	1487.12
410.014	1478.12
410.238	1483.12
410.461	1482.12
410.685	1492.12
410.908	1446.12
411.132	1474.12
411.355	1417.12
411.578	1433.12
411.802	1444.12
412.025	1439.12
412.249	1443.12
412.472	1481.12
412.695	1416.12
412.919	1366.12
413.142	1390.12
413.365	1360.12
413.589	1381.12
413.812	1376.12
414.035	1365.12
414.258	1358.12
414.482	1395.12
414.705	1350.12
414.928	1370.12
415.151	1372.12
415.374	1349.12
415.597	1378.12
415.821	1361.12
416.044	1318.12
416.267	1306.12
416.49	1316.12
416.713	1315.12
416.936	1321.12
417.159	1328.12
417.382	1310.12
417.605	1322.12
417.828	1303.12
418.051	1337.12
418.274	1328.12
418.497	1291.12
418.72	1321.12
418.943	1336.12
419.166	1399.12
419.389	1453.12
419.611	1477.12
419.834	1421.12
420.057	1381.12
420.28	1365.12
420.503	1308.12
420.726	1291.12
420.948	1322.12
421.171	1315.12
421.394	1312.12
421.617	1309.12
421.839	1313.12
422.062	1334.12
422.285	1274.12
422.507	1329.12
422.73	1316.12
422.953	1328.12
423.175	1320.12
423.398	1336.12
423.621	1313.12
423.843	1325.12
424.066	1325.12
424.288	1352.12
424.511	1286.12
424.733	1324.12
424.956	1270.12
425.178	1325.12
425.401	1297.12
425.623	1345.12
425.846	1276.12
426.068	1282.12
426.291	1275.12
426.513	1303.12
426.735	1258.12
426.958	1260.12
427.18	1255.12
427.402	1238.12
427.625	1255.12
427.847	1220.12
428.069	1246.12
428.292	1239.12
428.514	1206.12
428.736	1236.12
428.958	1261.12
429.181	1226.12
429.403	1230.12
429.625	1229.12
429.847	1212.12
430.069	1220.12
430.292	1227.12
430.514	1204.12
430.736	1200.12
430.958	1222.12
431.18	1229.12
431.402	1226.12
431.624	1188.12
431.846	1206.12
432.068	1229.12
432.29	1252.12
432.512	1206.12
432.734	1270.12
432.956	1229.12
433.178	1254.12
433.4	1270.12
433.622	1277.12
433.844	1266.12
434.066	1260.12
434.287	1284.12
434.509	1268.12
434.731	1329.12
434.953	1334.12
435.175	1338.12
435.397	1352.12
435.618	1297.12
435.84	1254.12
436.062	1244.12
436.284	1238.12
436.505	1209.12
436.727	1225.12
436.949	1213.12
437.17	1257.12
437.392	1225.12
437.614	1211.12
437.835	1174.12
438.057	1201.12
438.278	1181.12
438.5	1166.12
438.721	1180.12
438.943	1211.12
439.165	1161.12
439.386	1193.12
439.608	1221.12
439.829	1229.12
440.05	1197.12
440.272	1234.12
440.493	1217.12
440.715	1224.12
440.936	1248.12
441.158	1275.12
441.379	1288.12
441.6	1298.12
441.822	1317.12
442.043	1338.12
442.264	1294.12
442.486	1275.12
442.707	1314.12
442.928	1284.12
443.149	1313.12
443.371	1326.12
443.592	1373.12
443.813	1339.12
444.034	1284.12
444.255	1358.12
444.476	1414.12
444.698	1401.12
444.919	1447.12
445.14	1548.12
445.361	1420.12
445.582	1376.12
445.803	1316.12
446.024	1277.12
446.245	1252.12
446.466	1228.12
446.687	1202.12
446.908	1228.12
447.129	1203.12
447.35	1174.12
447.571	1169.12
447.792	1194.12
448.013	1169.12
448.234	1139.12
448.455	1133.12
448.675	1123.12
448.896	1089.12
449.117	1120.12
449.338	1132.12
449.559	1121.12
449.779	1120.12
450	1099.12
450.221	1104.12
450.442	1110.12
450.662	1104.12
450.883	1141.12
451.104	1164.12
451.324	1155.12
451.545	1124.12
451.766	1136.12
451.986	1092.12
452.207	1115.12
452.428	1097.12
452.648	1093.12
452.869	1124.12
453.089	1066.12
453.31	1118.12
453.53	1053.12
453.751	1060.12
453.971	1066.12
454.192	1094.12
454.412	1110.12
454.633	1072.12
454.853	1067.12
455.073	1082.12
455.294	1098.12
455.514	1061.12
455.734	1097.12
455.955	1094.12
456.175	1087.12
456.395	1054.12
456.616	1069.12
456.836	1056.12
457.056	1068.12
457.276	1069.12
457.497	1090.12
457.717	1107.12
457.937	1086.12
458.157	1089.12
458.377	1104.12
458.598	1120.12
458.818	1155.12
459.038	1170.12
459.258	1174.12
459.478	1253.12
459.698	1305.12
459.918	1304.12
460.138	1322.12
460.358	1324.12
460.578	1322.12
460.798	1399.12
461.018	1398.12
461.238	1362.12
461.458	1362.12
461.678	1350.12
461.898	1381.12
462.118	1366.12
462.338	1447.12
462.558	1446.12
462.777	1461.12
462.997	1565.12
463.217	1602.12
463.437	1671.12
463.657	1638.12
463.876	1534.12
464.096	1594.12
464.316	1539.12
464.536	1499.12
464.755	1441.12
464.975	1428.12
465.195	1383.12
465.414	1350.12
465.634	1290.12
465.854	1257.12
466.073	1266.12
466.293	1192.12
466.512	1229.12
466.732	1204.12
466.951	1201.12
467.171	1188.12
467.391	1202.12
467.61	1170.12
467.829	1128.12
468.049	1144.12
468.268	1156.12
468.488	1146.12
468.707	1154.12
468.927	1148.12
469.146	1172.12
469.365	1190.12
469.585	1166.12
469.804	1184.12
470.023	1177.12
470.243	1158.12
470.462	1182.12
470.681	1206.12
470.901	1174.12
471.12	1156.12
471.339	1173.12
471.558	1174.12
471.777	1159.12
471.997	1188.12
472.216	1147.12
472.435	1116.12
472.654	1137.12
472.873	1134.12
473.092	1126.12
473.311	1156.12
473.53	1122.12
473.749	1134.12
473.968	1159.12
474.187	1110.12
474.406	1160.12
474.625	1114.12
474.844	1151.12
475.063	1140.12
475.282	1155.12
475.501	1188.12
475.72	1149.12
475.939	1169.12
476.158	1181.12
476.377	1204.12
476.596	1206.12
476.814	1203.12
477.033	1213.12
477.252	1210.12
477.471	1219.12
477.69	1251.12
477.908	1291.12
478.127	1286.12
478.346	1309.12
478.564	1337.12
478.783	1358.12
479.002	1405.12
479.22	1414.12
479.439	1395.12
479.658	1370.12
479.876	1350.12
480.095	1415.12
480.313	1416.12
480.532	1389.12
480.751	1431.12
480.969	1408.12
481.188	1408.12
481.406	1341.12
481.624	1330.12
481.843	1367.12
482.061	1339.12
482.28	1337.12
482.498	1331.12
482.717	1318.12
482.935	1344.12
483.153	1348.12
483.372	1346.12
483.59	1385.12
483.808	1370.12
484.027	1373.12
484.245	1353.12
484.463	1381.12
484.681	1399.12
484.9	1364.12
485.118	1385.12
485.336	1352.12
485.554	1396.12
485.772	1416.12
485.99	1401.12
486.209	1402.12
486.427	1389.12
486.645	1368.12
486.863	1373.12
487.081	1409.12
487.299	1384.12
487.517	1397.12
487.735	1422.12
487.953	1398.12
488.171	1434.12
488.389	1394.12
488.607	1384.12
488.825	1360.12
489.043	1398.12
489.261	1354.12
489.479	1380.12
489.696	1388.12
489.914	1377.12
490.132	1379.12
490.35	1377.12
490.568	1354.12
490.786	1410.12
491.003	1384.12
491.221	1420.12
491.439	1408.12
491.657	1436.12
491.874	1405.12
492.092	1423.12
492.31	1421.12
492.527	1397.12
492.745	1448.12
492.963	1422.12
493.18	1389.12
493.398	1410.12
493.615	1406.12
493.833	1464.12
494.05	1418.12
494.268	1445.12
494.485	1480.12
494.703	1398.12
494.92	1447.12
495.138	1476.12
495.355	1459.12
495.573	1466.12
495.79	1474.12
496.008	1440.12
496.225	1485.12
496.442	1510.12
496.66	1548.12
496.877	1529.12
497.094	1528.12
497.312	1614.12
497.529	1604.12
497.746	1667.12
497.963	1682.12
498.181	1778.12
498.398	1773.12
498.615	1833.12
498.832	1961.12
499.049	2004.12
499.267	2106.12
499.484	2261.12
499.701	2416.12
499.918	2557.12
500.135	2756.12
500.352	2939.12
500.569	3002.12
500.786	2992.12
501.003	2815.12
501.22	2710.12
501.437	2540.12
501.654	2340.12
501.871	2224.12
502.088	2121.12
502.305	2006.12
502.522	1920.12
502.739	1867.12
502.956	1780.12
503.172	1740.12
503.389	1654.12
503.606	1705.12
503.823	1621.12
504.04	1616.12
504.256	1606.12
504.473	1634.12
504.69	1557.12
504.907	1560.12
505.123	1527.12
505.34	1469.12
505.557	1405.12
505.773	1393.12
505.99	1379.12
506.207	1366.12
506.423	1335.12
506.64	1287.12
506.856	1297.12
507.073	1321.12
507.289	1308.12
507.506	1281.12
507.722	1248.12
507.939	1247.12
508.155	1243.12
508.372	1227.12
508.588	1233.12
508.805	1214.12
509.021	1191.12
509.238	1197.12
509.454	1220.12
509.67	1189.12
509.887	1158.12
510.103	1207.12
510.319	1152.12
510.536	1172.12
510.752	1158.12
510.968	1144.12
511.184	1152.12
511.401	1133.12
511.617	1157.12
511.833	1137.12
512.049	1124.12
512.265	1142.12
512.481	1147.12
512.698	1146.12
512.914	1158.12
513.13	1154.12
513.346	1126.12
513.562	1148.12
513.778	1158.12
513.994	1171.12
514.21	1148.12
514.426	1156.12
514.642	1155.12
514.858	1140.12
515.074	1141.12
515.29	1212.12
515.506	1193.12
515.721	1220.12
515.937	1224.12
516.153	1234.12
516.369	1244.12
516.585	1241.12
516.801	1277.12
517.016	1312.12
517.232	1347.12
517.448	1376.12
517.664	1368.12
517.879	1365.12
518.095	1387.12
518.311	1347.12
518.527	1302.12
518.742	1298.12
518.958	1281.12
519.173	1282.12
519.389	1216.12
519.605	1196.12
519.82	1157.12
520.036	1141.12
520.251	1144.12
520.467	1135.12
520.682	1138.12
520.898	1109.12
521.113	1094.12
521.329	1081.12
521.544	1094.12
521.76	1094.12
521.975	1074.12
522.19	1075.12
522.406	1078.12
522.621	1059.12
522.836	1079.12
523.052	1056.12
523.267	1047.12
523.482	1059.12
523.698	1053.12
523.913	1028.12
524.128	1061.12
524.343	1028.12
524.559	1039.12
524.774	1026.12
524.989	1050.12
525.204	1054.12
525.419	1038.12
525.634	1037.12
525.849	1034.12
526.064	1037.12
526.28	1036.12
526.495	1013.12
526.71	1003.12
526.925	1023.12
527.14	1005.12
527.355	1000.12
527.57	994.12
527.785	1018.12
527.999	1013.12
528.214	1003.12
528.429	976.12
528.644	1008.12
528.859	1026.12
529.074	990.12
529.289	995.12
529.503	995.12
529.718	983.12
529.933	998.12
530.148	978.12
530.363	1008.12
530.577	984.12
530.792	965.12
531.007	985.12
531.221	978.12
531.436	970.12
531.651	1017.12
531.865	1000.12
532.08	996.12
532.295	994.12
532.509	950.12
532.724	996.12
532.938	997.12
533.153	979.12
533.367	969.12
533.582	967.12
533.796	985.12
534.011	976.12
534.225	964.12
534.44	988.12
534.654	997.12
534.868	934.12
535.083	991.12
535.297	916.12
535.511	921.12
535.726	944.12
535.94	930.12
536.154	948.12
536.369	914.12
536.583	917.12
536.797	912.12
537.011	929.12
537.225	881.12
537.44	894.12
537.654	924.12
537.868	899.12
538.082	892.12
538.296	911.12
538.51	901.12
538.724	930.12
538.938	904.12
539.153	894.12
539.367	894.12
539.581	900.12
539.795	889.12
540.009	873.12
540.222	917.12
540.436	874.12
540.65	899.12
540.864	882.12
541.078	878.12
541.292	910.12
541.506	893.12
541.72	893.12
541.934	886.12
542.147	908.12
542.361	889.12
542.575	884.12
542.789	857.12
543.002	868.12
543.216	836.12
543.43	836.12
543.644	874.12
543.857	891.12
544.071	886.12
544.285	891.12
544.498	878.12
544.712	892.12
544.925	894.12
545.139	891.12
545.352	882.12
545.566	889.12
545.779	916.12
545.993	891.12
546.206	890.12
546.42	888.12
546.633	889.12
546.847	885.12
547.06	910.12
547.274	901.12
547.487	884.12
547.7	891.12
547.914	898.12
548.127	910.12
548.34	892.12
548.554	871.12
548.767	892.12
548.98	882.12
549.193	897.12
549.407	889.12
549.62	913.12
549.833	883.12
550.046	902.12
550.259	897.12
550.473	886.12
550.686	880.12
550.899	868.12
551.112	888.12
551.325	852.12
551.538	872.12
551.751	886.12
551.964	888.12
552.177	869.12
552.39	882.12
552.603	904.12
552.816	902.12
553.029	891.12
553.242	925.12
553.455	926.12
553.667	925.12
553.88	890.12
554.093	901.12
554.306	876.12
554.519	862.12
554.732	873.12
554.944	834.12
555.157	844.12
555.37	822.12
555.583	838.12
555.795	811.12
556.008	816.12
556.221	826.12
556.433	780.12
556.646	808.12
556.859	795.12
557.071	791.12
557.284	772.12
557.496	782.12
557.709	781.12
557.921	792.12
558.134	729.12
558.346	757.12
558.559	758.12
558.771	745.12
558.984	758.12
559.196	756.12
559.409	747.12
559.621	775.12
559.833	730.12
560.046	753.12
560.258	736.12
560.47	741.12
560.683	756.12
560.895	716.12
561.107	715.12
561.32	730.12
561.532	747.12
561.744	746.12
561.956	734.12
562.168	710.12
562.381	739.12
562.593	740.12
562.805	763.12
563.017	766.12
563.229	769.12
563.441	718.12
563.653	750.12
563.865	740.12
564.077	749.12
564.289	787.12
564.501	822.12
564.713	814.12
564.925	813.12
565.137	803.12
565.349	820.12
565.561	835.12
565.773	839.12
565.985	878.12
566.197	913.12
566.408	940.12
566.62	970.12
566.832	1022.12
567.044	1049.12
567.255	1041.12
567.467	1039.12
567.679	1059.12
567.891	1085.12
568.102	1076.12
568.314	1033.12
568.526	1002.12
568.737	938.12
568.949	902.12
569.161	873.12
569.372	829.12
569.584	810.12
569.795	794.12
570.007	779.12
570.218	755.12
570.43	762.12
570.641	752.12
570.853	722.12
571.064	725.12
571.276	730.12
571.487	691.12
571.698	704.12
571.91	686.12
572.121	704.12
572.333	666.12
572.544	640.12
572.755	662.12
572.966	637.12
573.178	606.12
573.389	612.12
573.6	607.12
573.811	597.12
574.023	596.12
574.234	600.12
574.445	603.12
574.656	627.12
574.867	601.12
575.078	574.12
575.289	590.12
575.501	584.12
575.712	584.12
575.923	584.12
576.134	592.12
576.345	572.12
576.556	558.12
576.767	570.12
576.978	564.12
577.188	560.12
577.399	540.12
577.61	578.12
577.821	566.12
578.032	541.12
578.243	569.12
578.454	541.12
578.665	554.12
578.875	524.12
579.086	536.12
579.297	537.12
579.508	535.12
579.718	550.12
579.929	530.12
580.14	506.12
580.35	515.12
580.561	516.12
580.772	517.12
580.982	512.12
581.193	517.12
581.403	518.12
581.614	508.12
581.825	520.12
582.035	507.12
582.246	526.12
582.456	491.12
582.667	491.12
582.877	506.12
583.087	514.12
583.298	493.12
583.508	508.12
583.719	491.12
583.929	502.12
584.139	506.12
584.35	484.12
584.56	486.12
584.77	480.12
584.981	489.12
585.191	500.12
585.401	486.12
585.611	486.12
585.821	480.12
586.032	493.12
586.242	504.12
586.452	506.12
586.662	493.12
586.872	500.12
587.082	472.12
587.292	467.12
587.502	486.12
587.713	470.12
587.923	472.12
588.133	473.12
588.343	469.12
588.553	474.12
588.762	484.12
588.972	503.12
589.182	506.12
589.392	518.12
589.602	502.12
589.812	485.12
590.022	501.12
590.232	472.12
590.441	479.12
590.651	471.12
590.861	485.12
591.071	504.12
591.281	500.12
591.49	507.12
591.7	488.12
591.91	521.12
592.119	493.12
592.329	518.12
592.539	505.12
592.748	516.12
592.958	518.12
593.167	524.12
593.377	526.12
593.587	524.12
593.796	540.12
594.006	541.12
594.215	519.12
594.424	538.12
594.634	546.12
594.843	510.12
595.053	517.12
595.262	519.12
595.472	482.12
595.681	481.12
595.89	459.12
596.1	475.12
596.309	472.12
596.518	486.12
596.727	461.12
596.937	466.12
597.146	446.12
597.355	451.12
597.564	458.12
597.774	436.12
597.983	445.12
598.192	437.12
598.401	428.12
598.61	413.12
598.819	414.12
599.028	410.12
599.237	396.12
599.446	397.12
599.655	397.12
599.864	422.12
600.073	394.12
600.282	402.12
600.491	422.12
600.7	413.12
600.909	393.12
601.118	405.12
601.327	412.12
601.536	397.12
601.745	401.12
601.953	381.12
602.162	385.12
602.371	395.12
602.58	385.12
602.789	363.12
602.997	373.12
603.206	374.12
603.415	391.12
603.623	388.12
603.832	398.12
604.041	355.12
604.249	378.12
604.458	381.12
604.666	370.12
604.875	356.12
605.084	371.12
605.292	370.12
605.501	395.12
605.709	387.12
605.918	381.12
606.126	379.12
606.334	375.12
606.543	363.12
606.751	352.12
606.96	378.12
607.168	358.12
607.376	362.12
607.585	342.12
607.793	364.12
608.001	368.12
608.21	358.12
608.418	375.12
608.626	345.12
608.834	360.12
609.043	370.12
609.251	352.12
609.459	338.12
609.667	362.12
609.875	338.12
610.083	361.12
610.291	361.12
610.499	343.12
610.707	365.12
610.916	348.12
611.124	342.12
611.332	355.12
611.54	358.12
611.748	334.12
611.955	360.12
612.163	356.12
612.371	350.12
612.579	344.12
612.787	348.12
612.995	348.12
613.203	366.12
613.411	343.12
613.618	355.12
613.826	347.12
614.034	353.12
614.242	362.12
614.449	317.12
614.657	343.12
614.865	344.12
615.072	337.12
615.28	345.12
615.488	333.12
615.695	338.12
615.903	341.12
616.111	327.12
616.318	338.12
616.526	347.12
616.733	333.12
616.941	340.12
617.148	334.12
617.356	342.12
617.563	345.12
617.771	349.12
617.978	338.12
618.185	334.12
618.393	327.12
618.6	341.12
618.807	335.12
619.015	345.12
619.222	322.12
619.429	324.12
619.637	315.12
619.844	323.12
620.051	320.12
620.258	319.12
620.466	312.12
620.673	324.12
620.88	322.12
621.087	298.12
621.294	317.12
621.501	324.12
621.708	308.12
621.915	321.12
622.122	317.12
622.329	328.12
622.536	312.12
622.743	312.12
622.95	292.12
623.157	304.12
623.364	320.12
623.571	291.12
623.778	299.12
623.985	320.12
624.192	320.12
624.399	302.12
624.606	306.12
624.812	297.12
625.019	296.12
625.226	307.12
625.433	313.12
625.639	292.12
625.846	284.12
626.053	284.12
626.259	298.12
626.466	301.12
626.673	293.12
626.879	301.12
627.086	291.12
627.293	318.12
627.499	297.12
627.706	292.12
627.912	296.12
628.119	280.12
628.325	298.12
628.532	277.12
628.738	285.12
628.945	294.12
629.151	283.12
629.357	273.12
629.564	286.12
629.77	273.12
629.976	276.12
630.183	285.12
630.389	266.12
630.595	281.12
630.802	273.12
631.008	282.12
631.214	281.12
631.42	274.12
631.627	275.12
631.833	270.12
632.039	268.12
632.245	263.12
632.451	284.12
632.657	268.12
632.863	254.12
633.069	254.12
633.275	277.12
633.481	272.12
633.688	269.12
633.893	274.12
634.099	266.12
634.305	262.12
634.511	257.12
634.717	263.12
634.923	264.12
635.129	256.12
635.335	243.12
635.541	259.12
635.747	263.12
635.952	260.12
636.158	258.12
636.364	258.12
636.57	262.12
636.775	271.12
636.981	260.12
637.187	259.12
637.392	251.12
637.598	261.12
637.804	265.12
638.009	254.12
638.215	252.12
638.421	252.12
638.626	246.12
638.832	248.12
639.037	225.12
639.243	248.12
639.448	252.12
639.654	244.12
639.859	235.12
640.065	256.12
640.27	270.12
640.475	251.12
640.681	240.12
640.886	235.12
641.091	243.12
641.297	254.12
641.502	229.12
641.707	225.12
641.913	248.12
642.118	253.12
642.323	244.12
642.528	243.12
642.733	252.12
642.939	261.12
643.144	222.12
643.349	246.12
643.554	216.12
643.759	250.12
643.964	248.12
644.169	233.12
644.374	241.12
644.579	233.12
644.784	233.12
644.989	251.12
645.194	233.12
645.399	240.12
645.604	225.12
645.809	231.12
646.014	228.12
646.219	227.12
646.423	246.12
646.628	235.12
646.833	241.12
647.038	250.12
647.243	249.12
647.447	247.12
647.652	246.12
647.857	252.12
648.062	254.12
648.266	249.12
648.471	256.12
648.676	247.12
648.88	237.12
649.085	254.12
649.289	229.12
649.494	230.12
649.698	262.12
649.903	246.12
650.107	251.12
650.312	240.12
650.516	244.12
650.721	235.12
650.925	232.12
651.13	232.12
651.334	245.12
651.539	230.12
651.743	215.12
651.947	235.12
652.152	240.12
652.356	233.12
652.56	222.12
652.764	233.12
652.969	216.12
653.173	213.12
653.377	222.12
653.581	224.12
653.785	217.12
653.99	227.12
654.194	218.12
654.398	220.12
654.602	220.12
654.806	233.12
655.01	229.12
655.214	218.12
655.418	214.12
655.622	213.12
655.826	215.12
656.03	216.12
656.234	220.12
656.438	236.12
656.642	211.12
656.846	212.12
657.049	197.12
657.253	207.12
657.457	208.12
657.661	184.12
657.865	163.12
658.068	177.12
658.272	164.12
658.476	166.12
658.68	140.12
658.883	138.12
659.087	130.12
659.291	131.12
659.494	124.12
659.698	128.12
659.901	126.12
660.105	119.12
660.309	100.12
660.512	112.12
660.716	121.12
660.919	103.12
661.123	102.12
661.326	98.12
661.53	102.12
661.733	109.12
661.936	93.12
662.14	79.12
662.343	94.12
662.546	88.12
662.75	92.12
662.953	97.12
663.156	84.12
663.36	89.12
663.563	106.12
663.766	99.12
663.969	84.12
664.173	84.12
664.376	103.12
664.579	106.12
664.782	93.12
664.985	90.12
665.188	93.12
665.391	85.12
665.594	82.12
665.797	84.12
666	78.12
666.203	81.12
666.406	74.12
666.609	70.12
666.812	83.12
667.015	78.12
667.218	97.12
667.421	92.12
667.624	84.12
667.827	99.12
668.03	101.12
668.232	80.12
668.435	90.12
668.638	96.12
668.841	76.12
669.043	84.12
669.246	84.12
669.449	80.12
669.651	91.12
669.854	79.12
670.057	83.12
670.259	92.12
670.462	81.12
670.665	79.12
670.867	79.12
671.07	83.12
671.272	70.12
671.475	86.12
671.677	86.12
671.88	70.12
672.082	74.12
672.284	86.12
672.487	69.12
672.689	86.12
672.892	70.12
