Data from Ni(NO3)2@0.25M.TitratingCurve.Agarose3%dH2O.NegLispCup.LampEnergy10.LIBS07252019_HRD10591_18-03-11-565.txt Node
Date: Thu Jul 25 18:03:11 EDT 2019
User: cochatt
Spectrometer: HR+D1059
Trigger mode: 1
Integration Time (sec): 1.000000E-1
Scans to average: 1
Electric dark correction enabled: true
Nonlinearity correction enabled: false
Boxcar width: 0
XAxis mode: Wavelengths
Number of Pixels in Spectrum: 2048
>>>>>Begin Spectral Data<<<<<
223.165	-20.31
223.4	-20.31
223.635	-20.31
223.869	-12.31
224.104	-6.31
224.338	-6.31
224.573	-17.31
224.808	-20.31
225.042	-9.31
225.277	-12.31
225.511	-3.31
225.746	-18.31
225.98	21.69
226.215	9.69
226.449	12.69
226.683	17.69
226.918	23.69
227.152	40.69
227.387	26.69
227.621	44.69
227.856	57.69
228.09	53.69
228.324	55.69
228.559	52.69
228.793	67.69
229.027	69.69
229.262	97.69
229.496	84.69
229.73	94.69
229.964	81.69
230.199	100.69
230.433	90.69
230.667	96.69
230.901	85.69
231.136	107.69
231.37	104.69
231.604	115.69
231.838	92.69
232.072	105.69
232.306	105.69
232.541	107.69
232.775	101.69
233.009	91.69
233.243	100.69
233.477	105.69
233.711	111.69
233.945	96.69
234.179	105.69
234.413	109.69
234.647	105.69
234.881	112.69
235.115	108.69
235.349	87.69
235.583	97.69
235.817	115.69
236.051	94.69
236.285	114.69
236.519	99.69
236.753	99.69
236.987	106.69
237.221	91.69
237.455	100.69
237.689	100.69
237.922	104.69
238.156	97.69
238.39	104.69
238.624	119.69
238.858	126.69
239.091	100.69
239.325	103.69
239.559	105.69
239.793	115.69
240.027	100.69
240.26	102.69
240.494	105.69
240.728	99.69
240.961	107.69
241.195	103.69
241.429	122.69
241.662	102.69
241.896	118.69
242.13	119.69
242.363	109.69
242.597	108.69
242.83	103.69
243.064	116.69
243.298	99.69
243.531	116.69
243.765	117.69
243.998	119.69
244.232	125.69
244.465	125.69
244.699	104.69
244.932	110.69
245.166	104.69
245.399	116.69
245.633	126.69
245.866	128.69
246.099	121.69
246.333	129.69
246.566	124.69
246.8	116.69
247.033	141.69
247.266	108.69
247.5	127.69
247.733	125.69
247.966	133.69
248.2	137.69
248.433	132.69
248.666	143.69
248.899	140.69
249.133	156.69
249.366	145.69
249.599	159.69
249.832	142.69
250.066	161.69
250.299	160.69
250.532	145.69
250.765	173.69
250.998	163.69
251.231	169.69
251.465	191.69
251.698	174.69
251.931	166.69
252.164	174.69
252.397	180.69
252.63	181.69
252.863	208.69
253.096	200.69
253.329	206.69
253.562	192.69
253.795	202.69
254.028	200.69
254.261	208.69
254.494	193.69
254.727	213.69
254.96	221.69
255.193	209.69
255.426	226.69
255.659	232.69
255.892	225.69
256.124	224.69
256.357	223.69
256.59	226.69
256.823	233.69
257.056	243.69
257.289	248.69
257.521	253.69
257.754	252.69
257.987	250.69
258.22	251.69
258.452	261.69
258.685	267.69
258.918	246.69
259.151	263.69
259.383	257.69
259.616	266.69
259.849	262.69
260.081	269.69
260.314	256.69
260.547	284.69
260.779	270.69
261.012	279.69
261.244	281.69
261.477	291.69
261.71	292.69
261.942	273.69
262.175	280.69
262.407	270.69
262.64	291.69
262.872	282.69
263.105	293.69
263.337	287.69
263.57	283.69
263.802	302.69
264.035	301.69
264.267	297.69
264.499	311.69
264.732	317.69
264.964	298.69
265.197	283.69
265.429	323.69
265.661	312.69
265.894	295.69
266.126	317.69
266.358	281.69
266.591	302.69
266.823	323.69
267.055	296.69
267.287	319.69
267.52	310.69
267.752	304.69
267.984	311.69
268.216	281.69
268.448	310.69
268.681	318.69
268.913	331.69
269.145	318.69
269.377	296.69
269.609	311.69
269.841	322.69
270.073	317.69
270.306	332.69
270.538	319.69
270.77	319.69
271.002	320.69
271.234	335.69
271.466	332.69
271.698	333.69
271.93	332.69
272.162	318.69
272.394	332.69
272.626	328.69
272.858	304.69
273.09	342.69
273.322	315.69
273.553	322.69
273.785	302.69
274.017	311.69
274.249	317.69
274.481	335.69
274.713	316.69
274.945	319.69
275.176	330.69
275.408	339.69
275.64	335.69
275.872	319.69
276.104	331.69
276.335	321.69
276.567	316.69
276.799	336.69
277.031	337.69
277.262	314.69
277.494	300.69
277.726	324.69
277.957	329.69
278.189	321.69
278.421	325.69
278.652	331.69
278.884	340.69
279.115	340.69
279.347	326.69
279.579	355.69
279.81	320.69
280.042	313.69
280.273	321.69
280.505	328.69
280.736	333.69
280.968	323.69
281.199	349.69
281.431	319.69
281.662	319.69
281.894	319.69
282.125	320.69
282.356	346.69
282.588	331.69
282.819	346.69
283.051	329.69
283.282	329.69
283.513	328.69
283.745	337.69
283.976	329.69
284.207	310.69
284.439	325.69
284.67	328.69
284.901	364.69
285.132	347.69
285.364	321.69
285.595	329.69
285.826	315.69
286.057	301.69
286.288	348.69
286.52	324.69
286.751	320.69
286.982	323.69
287.213	325.69
287.444	308.69
287.675	333.69
287.906	340.69
288.138	325.69
288.369	331.69
288.6	333.69
288.831	313.69
289.062	347.69
289.293	350.69
289.524	326.69
289.755	318.69
289.986	311.69
290.217	340.69
290.448	331.69
290.679	331.69
290.91	323.69
291.141	311.69
291.371	312.69
291.602	325.69
291.833	328.69
292.064	312.69
292.295	323.69
292.526	339.69
292.757	321.69
292.987	327.69
293.218	312.69
293.449	309.69
293.68	329.69
293.91	323.69
294.141	322.69
294.372	308.69
294.603	320.69
294.833	331.69
295.064	317.69
295.295	333.69
295.525	319.69
295.756	323.69
295.987	317.69
296.217	313.69
296.448	309.69
296.679	331.69
296.909	337.69
297.14	298.69
297.37	311.69
297.601	328.69
297.831	314.69
298.062	347.69
298.292	327.69
298.523	331.69
298.753	338.69
298.984	337.69
299.214	322.69
299.445	329.69
299.675	325.69
299.905	352.69
300.136	336.69
300.366	349.69
300.597	355.69
300.827	348.69
301.057	360.69
301.288	341.69
301.518	346.69
301.748	357.69
301.979	351.69
302.209	360.69
302.439	345.69
302.669	339.69
302.9	351.69
303.13	351.69
303.36	367.69
303.59	364.69
303.82	375.69
304.051	346.69
304.281	359.69
304.511	374.69
304.741	377.69
304.971	364.69
305.201	364.69
305.431	369.69
305.661	380.69
305.891	360.69
306.121	347.69
306.352	349.69
306.582	360.69
306.812	337.69
307.042	358.69
307.272	357.69
307.502	363.69
307.731	375.69
307.961	374.69
308.191	374.69
308.421	381.69
308.651	396.69
308.881	379.69
309.111	394.69
309.341	394.69
309.571	383.69
309.8	390.69
310.03	391.69
310.26	423.69
310.49	392.69
310.72	400.69
310.949	394.69
311.179	407.69
311.409	415.69
311.639	440.69
311.868	424.69
312.098	429.69
312.328	412.69
312.557	413.69
312.787	422.69
313.017	421.69
313.246	455.69
313.476	441.69
313.706	454.69
313.935	437.69
314.165	469.69
314.394	444.69
314.624	443.69
314.853	459.69
315.083	471.69
315.312	446.69
315.542	470.69
315.771	464.69
316.001	464.69
316.23	492.69
316.46	496.69
316.689	476.69
316.919	494.69
317.148	491.69
317.377	516.69
317.607	511.69
317.836	486.69
318.065	513.69
318.295	513.69
318.524	516.69
318.753	525.69
318.983	539.69
319.212	539.69
319.441	557.69
319.67	560.69
319.9	540.69
320.129	554.69
320.358	561.69
320.587	570.69
320.816	573.69
321.046	570.69
321.275	571.69
321.504	592.69
321.733	585.69
321.962	594.69
322.191	602.69
322.42	586.69
322.649	621.69
322.878	609.69
323.108	622.69
323.337	611.69
323.566	606.69
323.795	636.69
324.024	644.69
324.253	644.69
324.482	660.69
324.71	648.69
324.939	660.69
325.168	647.69
325.397	677.69
325.626	650.69
325.855	684.69
326.084	683.69
326.313	702.69
326.542	696.69
326.77	696.69
326.999	718.69
327.228	696.69
327.457	702.69
327.686	724.69
327.914	721.69
328.143	720.69
328.372	724.69
328.6	729.69
328.829	757.69
329.058	747.69
329.287	752.69
329.515	756.69
329.744	770.69
329.972	768.69
330.201	751.69
330.43	745.69
330.658	761.69
330.887	793.69
331.115	784.69
331.344	785.69
331.572	795.69
331.801	802.69
332.03	820.69
332.258	821.69
332.486	807.69
332.715	825.69
332.943	835.69
333.172	838.69
333.4	844.69
333.629	856.69
333.857	869.69
334.085	856.69
334.314	875.69
334.542	890.69
334.771	894.69
334.999	875.69
335.227	901.69
335.455	886.69
335.684	890.69
335.912	864.69
336.14	892.69
336.369	907.69
336.597	926.69
336.825	896.69
337.053	922.69
337.281	923.69
337.51	916.69
337.738	904.69
337.966	891.69
338.194	922.69
338.422	892.69
338.65	887.69
338.878	888.69
339.106	874.69
339.334	848.69
339.562	860.69
339.79	919.69
340.018	877.69
340.246	896.69
340.474	917.69
340.702	879.69
340.93	881.69
341.158	862.69
341.386	876.69
341.614	841.69
341.842	871.69
342.07	869.69
342.298	896.69
342.526	879.69
342.754	870.69
342.981	856.69
343.209	887.69
343.437	917.69
343.665	927.69
343.893	893.69
344.12	923.69
344.348	924.69
344.576	908.69
344.804	913.69
345.031	896.69
345.259	935.69
345.487	888.69
345.714	897.69
345.942	888.69
346.17	896.69
346.397	879.69
346.625	895.69
346.853	874.69
347.08	855.69
347.308	872.69
347.535	871.69
347.763	881.69
347.99	877.69
348.218	880.69
348.445	861.69
348.673	846.69
348.9	867.69
349.128	896.69
349.355	846.69
349.583	881.69
349.81	853.69
350.037	847.69
350.265	854.69
350.492	827.69
350.72	861.69
350.947	874.69
351.174	844.69
351.402	867.69
351.629	837.69
351.856	844.69
352.083	830.69
352.311	872.69
352.538	845.69
352.765	851.69
352.992	829.69
353.22	835.69
353.447	820.69
353.674	822.69
353.901	855.69
354.128	865.69
354.355	841.69
354.583	830.69
354.81	837.69
355.037	860.69
355.264	822.69
355.491	837.69
355.718	838.69
355.945	847.69
356.172	848.69
356.399	830.69
356.626	848.69
356.853	854.69
357.08	824.69
357.307	792.69
357.534	828.69
357.761	833.69
357.988	855.69
358.215	805.69
358.441	840.69
358.668	840.69
358.895	809.69
359.122	801.69
359.349	832.69
359.576	830.69
359.802	821.69
360.029	834.69
360.256	816.69
360.483	819.69
360.709	837.69
360.936	822.69
361.163	833.69
361.39	826.69
361.616	817.69
361.843	839.69
362.07	839.69
362.296	847.69
362.523	783.69
362.749	833.69
362.976	824.69
363.203	803.69
363.429	807.69
363.656	796.69
363.882	823.69
364.109	821.69
364.335	812.69
364.562	809.69
364.788	821.69
365.015	816.69
365.241	810.69
365.468	799.69
365.694	797.69
365.92	824.69
366.147	812.69
366.373	817.69
366.599	808.69
366.826	811.69
367.052	821.69
367.278	804.69
367.505	809.69
367.731	801.69
367.957	787.69
368.184	786.69
368.41	807.69
368.636	786.69
368.862	810.69
369.089	807.69
369.315	814.69
369.541	793.69
369.767	815.69
369.993	791.69
370.219	801.69
370.445	782.69
370.672	817.69
370.898	803.69
371.124	812.69
371.35	812.69
371.576	808.69
371.802	812.69
372.028	791.69
372.254	818.69
372.48	843.69
372.706	821.69
372.932	821.69
373.158	817.69
373.384	827.69
373.61	792.69
373.835	800.69
374.061	791.69
374.287	803.69
374.513	792.69
374.739	826.69
374.965	832.69
375.191	816.69
375.416	816.69
375.642	813.69
375.868	793.69
376.094	788.69
376.319	776.69
376.545	791.69
376.771	794.69
376.997	783.69
377.222	781.69
377.448	748.69
377.674	745.69
377.899	774.69
378.125	761.69
378.35	748.69
378.576	764.69
378.802	760.69
379.027	786.69
379.253	743.69
379.478	744.69
379.704	733.69
379.929	735.69
380.155	747.69
380.38	771.69
380.606	739.69
380.831	768.69
381.057	767.69
381.282	749.69
381.507	750.69
381.733	737.69
381.958	749.69
382.184	758.69
382.409	767.69
382.634	761.69
382.86	751.69
383.085	759.69
383.31	785.69
383.535	783.69
383.761	747.69
383.986	764.69
384.211	773.69
384.436	772.69
384.662	775.69
384.887	786.69
385.112	775.69
385.337	793.69
385.562	755.69
385.787	770.69
386.013	784.69
386.238	788.69
386.463	796.69
386.688	779.69
386.913	777.69
387.138	758.69
387.363	809.69
387.588	820.69
387.813	793.69
388.038	804.69
388.263	795.69
388.488	797.69
388.713	799.69
388.938	766.69
389.163	798.69
389.387	805.69
389.612	809.69
389.837	795.69
390.062	764.69
390.287	793.69
390.512	793.69
390.736	797.69
390.961	825.69
391.186	783.69
391.411	792.69
391.636	817.69
391.86	839.69
392.085	830.69
392.31	821.69
392.534	819.69
392.759	813.69
392.984	819.69
393.208	819.69
393.433	823.69
393.658	846.69
393.882	838.69
394.107	833.69
394.331	837.69
394.556	837.69
394.78	825.69
395.005	819.69
395.229	806.69
395.454	831.69
395.678	837.69
395.903	848.69
396.127	837.69
396.352	839.69
396.576	844.69
396.801	831.69
397.025	857.69
397.249	865.69
397.474	847.69
397.698	848.69
397.922	849.69
398.147	886.69
398.371	871.69
398.595	881.69
398.82	873.69
399.044	903.69
399.268	949.69
399.492	986.69
399.717	1004.69
399.941	992.69
400.165	999.69
400.389	975.69
400.613	947.69
400.837	950.69
401.062	978.69
401.286	943.69
401.51	925.69
401.734	920.69
401.958	929.69
402.182	952.69
402.406	926.69
402.63	923.69
402.854	933.69
403.078	918.69
403.302	942.69
403.526	932.69
403.75	948.69
403.974	955.69
404.198	949.69
404.422	935.69
404.645	947.69
404.869	972.69
405.093	996.69
405.317	959.69
405.541	981.69
405.765	967.69
405.988	945.69
406.212	992.69
406.436	974.69
406.66	1020.69
406.883	965.69
407.107	1009.69
407.331	1005.69
407.555	1047.69
407.778	1047.69
408.002	1012.69
408.226	1041.69
408.449	1046.69
408.673	1015.69
408.896	1017.69
409.12	1031.69
409.344	1030.69
409.567	1038.69
409.791	1013.69
410.014	1039.69
410.238	1025.69
410.461	1021.69
410.685	1019.69
410.908	1005.69
411.132	984.69
411.355	1002.69
411.578	994.69
411.802	1013.69
412.025	1012.69
412.249	1031.69
412.472	1005.69
412.695	1011.69
412.919	1000.69
413.142	1008.69
413.365	1012.69
413.589	1010.69
413.812	993.69
414.035	1000.69
414.258	990.69
414.482	1007.69
414.705	1019.69
414.928	1012.69
415.151	988.69
415.374	999.69
415.597	1002.69
415.821	991.69
416.044	1016.69
416.267	977.69
416.49	984.69
416.713	997.69
416.936	1025.69
417.159	984.69
417.382	989.69
417.605	954.69
417.828	987.69
418.051	995.69
418.274	943.69
418.497	987.69
418.72	995.69
418.943	985.69
419.166	1033.69
419.389	1089.69
419.611	1081.69
419.834	1027.69
420.057	1019.69
420.28	1014.69
420.503	1002.69
420.726	989.69
420.948	967.69
421.171	1022.69
421.394	1032.69
421.617	1021.69
421.839	984.69
422.062	1021.69
422.285	1011.69
422.507	1043.69
422.73	1039.69
422.953	1030.69
423.175	1046.69
423.398	1036.69
423.621	1029.69
423.843	1055.69
424.066	1035.69
424.288	1022.69
424.511	1055.69
424.733	1016.69
424.956	998.69
425.178	1017.69
425.401	1045.69
425.623	1011.69
425.846	1030.69
426.068	1042.69
426.291	1075.69
426.513	1031.69
426.735	1030.69
426.958	1033.69
427.18	1024.69
427.402	1015.69
427.625	1019.69
427.847	1002.69
428.069	1004.69
428.292	1064.69
428.514	1034.69
428.736	1012.69
428.958	1057.69
429.181	1038.69
429.403	1026.69
429.625	1032.69
429.847	1036.69
430.069	1016.69
430.292	1051.69
430.514	1053.69
430.736	1034.69
430.958	1040.69
431.18	1044.69
431.402	1048.69
431.624	1022.69
431.846	1037.69
432.068	1027.69
432.29	1032.69
432.512	1026.69
432.734	1056.69
432.956	1067.69
433.178	1080.69
433.4	1036.69
433.622	1073.69
433.844	1039.69
434.066	1071.69
434.287	1054.69
434.509	1059.69
434.731	1055.69
434.953	1081.69
435.175	1078.69
435.397	1094.69
435.618	1053.69
435.84	1086.69
436.062	1075.69
436.284	1071.69
436.505	1065.69
436.727	1063.69
436.949	1072.69
437.17	1063.69
437.392	1050.69
437.614	1054.69
437.835	1071.69
438.057	1039.69
438.278	1029.69
438.5	1053.69
438.721	1045.69
438.943	1051.69
439.165	1036.69
439.386	1057.69
439.608	1094.69
439.829	1049.69
440.05	1084.69
440.272	1084.69
440.493	1053.69
440.715	1079.69
440.936	1069.69
441.158	1064.69
441.379	1119.69
441.6	1108.69
441.822	1075.69
442.043	1099.69
442.264	1093.69
442.486	1088.69
442.707	1089.69
442.928	1101.69
443.149	1077.69
443.371	1113.69
443.592	1084.69
443.813	1092.69
444.034	1085.69
444.255	1105.69
444.476	1107.69
444.698	1105.69
444.919	1140.69
445.14	1193.69
445.361	1147.69
445.582	1117.69
445.803	1070.69
446.024	1098.69
446.245	1095.69
446.466	1079.69
446.687	1057.69
446.908	1063.69
447.129	1072.69
447.35	1061.69
447.571	1046.69
447.792	1031.69
448.013	1028.69
448.234	1013.69
448.455	1011.69
448.675	1001.69
448.896	1030.69
449.117	1023.69
449.338	1017.69
449.559	996.69
449.779	997.69
450	1030.69
450.221	1006.69
450.442	1003.69
450.662	999.69
450.883	989.69
451.104	1018.69
451.324	1016.69
451.545	1009.69
451.766	1012.69
451.986	1000.69
452.207	1005.69
452.428	1008.69
452.648	982.69
452.869	948.69
453.089	934.69
453.31	974.69
453.53	973.69
453.751	945.69
453.971	964.69
454.192	972.69
454.412	942.69
454.633	983.69
454.853	958.69
455.073	993.69
455.294	970.69
455.514	930.69
455.734	977.69
455.955	964.69
456.175	936.69
456.395	917.69
456.616	940.69
456.836	963.69
457.056	978.69
457.276	943.69
457.497	967.69
457.717	966.69
457.937	968.69
458.157	991.69
458.377	988.69
458.598	986.69
458.818	1015.69
459.038	1016.69
459.258	1003.69
459.478	1035.69
459.698	1048.69
459.918	1042.69
460.138	1055.69
460.358	1058.69
460.578	1075.69
460.798	1083.69
461.018	1130.69
461.238	1109.69
461.458	1102.69
461.678	1096.69
461.898	1119.69
462.118	1090.69
462.338	1128.69
462.558	1153.69
462.777	1189.69
462.997	1159.69
463.217	1169.69
463.437	1189.69
463.657	1203.69
463.876	1175.69
464.096	1165.69
464.316	1166.69
464.536	1141.69
464.755	1137.69
464.975	1126.69
465.195	1127.69
465.414	1118.69
465.634	1099.69
465.854	1089.69
466.073	1061.69
466.293	1073.69
466.512	1071.69
466.732	1081.69
466.951	1045.69
467.171	1031.69
467.391	1068.69
467.61	1044.69
467.829	1062.69
468.049	1070.69
468.268	1042.69
468.488	1043.69
468.707	1046.69
468.927	1044.69
469.146	1030.69
469.365	1054.69
469.585	1021.69
469.804	1054.69
470.023	1036.69
470.243	1034.69
470.462	1071.69
470.681	1048.69
470.901	1099.69
471.12	1068.69
471.339	1076.69
471.558	1054.69
471.777	1079.69
471.997	1049.69
472.216	1048.69
472.435	1047.69
472.654	1020.69
472.873	1051.69
473.092	1040.69
473.311	1073.69
473.53	1051.69
473.749	1050.69
473.968	1063.69
474.187	1071.69
474.406	1054.69
474.625	1076.69
474.844	1089.69
475.063	1092.69
475.282	1075.69
475.501	1096.69
475.72	1118.69
475.939	1081.69
476.158	1084.69
476.377	1131.69
476.596	1117.69
476.814	1112.69
477.033	1132.69
477.252	1146.69
477.471	1158.69
477.69	1167.69
477.908	1178.69
478.127	1195.69
478.346	1188.69
478.564	1171.69
478.783	1190.69
479.002	1203.69
479.22	1216.69
479.439	1239.69
479.658	1223.69
479.876	1191.69
480.095	1216.69
480.313	1240.69
480.532	1242.69
480.751	1254.69
480.969	1220.69
481.188	1257.69
481.406	1227.69
481.624	1221.69
481.843	1247.69
482.061	1253.69
482.28	1218.69
482.498	1222.69
482.717	1238.69
482.935	1247.69
483.153	1278.69
483.372	1282.69
483.59	1287.69
483.808	1290.69
484.027	1251.69
484.245	1261.69
484.463	1300.69
484.681	1274.69
484.9	1282.69
485.118	1287.69
485.336	1286.69
485.554	1285.69
485.772	1283.69
485.99	1280.69
486.209	1285.69
486.427	1272.69
486.645	1290.69
486.863	1287.69
487.081	1288.69
487.299	1265.69
487.517	1315.69
487.735	1295.69
487.953	1384.69
488.171	1317.69
488.389	1322.69
488.607	1312.69
488.825	1285.69
489.043	1305.69
489.261	1292.69
489.479	1328.69
489.696	1313.69
489.914	1325.69
490.132	1343.69
490.35	1313.69
490.568	1312.69
490.786	1350.69
491.003	1363.69
491.221	1371.69
491.439	1359.69
491.657	1357.69
491.874	1393.69
492.092	1406.69
492.31	1397.69
492.527	1364.69
492.745	1374.69
492.963	1409.69
493.18	1404.69
493.398	1401.69
493.615	1379.69
493.833	1391.69
494.05	1386.69
494.268	1421.69
494.485	1374.69
494.703	1435.69
494.92	1401.69
495.138	1417.69
495.355	1400.69
495.573	1424.69
495.79	1464.69
496.008	1472.69
496.225	1447.69
496.442	1467.69
496.66	1480.69
496.877	1470.69
497.094	1506.69
497.312	1515.69
497.529	1505.69
497.746	1509.69
497.963	1549.69
498.181	1555.69
498.398	1615.69
498.615	1616.69
498.832	1658.69
499.049	1662.69
499.267	1686.69
499.484	1748.69
499.701	1780.69
499.918	1828.69
500.135	1904.69
500.352	1943.69
500.569	1956.69
500.786	1957.69
501.003	1897.69
501.22	1859.69
501.437	1832.69
501.654	1775.69
501.871	1775.69
502.088	1717.69
502.305	1693.69
502.522	1653.69
502.739	1614.69
502.956	1571.69
503.172	1563.69
503.389	1553.69
503.606	1475.69
503.823	1511.69
504.04	1503.69
504.256	1532.69
504.473	1465.69
504.69	1493.69
504.907	1488.69
505.123	1376.69
505.34	1408.69
505.557	1420.69
505.773	1349.69
505.99	1376.69
506.207	1367.69
506.423	1364.69
506.64	1321.69
506.856	1316.69
507.073	1302.69
507.289	1297.69
507.506	1295.69
507.722	1263.69
507.939	1265.69
508.155	1297.69
508.372	1259.69
508.588	1252.69
508.805	1256.69
509.021	1247.69
509.238	1181.69
509.454	1240.69
509.67	1224.69
509.887	1212.69
510.103	1245.69
510.319	1199.69
510.536	1197.69
510.752	1166.69
510.968	1197.69
511.184	1192.69
511.401	1166.69
511.617	1170.69
511.833	1147.69
512.049	1193.69
512.265	1179.69
512.481	1174.69
512.698	1146.69
512.914	1199.69
513.13	1172.69
513.346	1161.69
513.562	1179.69
513.778	1170.69
513.994	1139.69
514.21	1191.69
514.426	1160.69
514.642	1164.69
514.858	1162.69
515.074	1159.69
515.29	1182.69
515.506	1187.69
515.721	1190.69
515.937	1174.69
516.153	1197.69
516.369	1219.69
516.585	1206.69
516.801	1166.69
517.016	1196.69
517.232	1224.69
517.448	1245.69
517.664	1234.69
517.879	1237.69
518.095	1225.69
518.311	1235.69
518.527	1207.69
518.742	1225.69
518.958	1187.69
519.173	1201.69
519.389	1195.69
519.605	1183.69
519.82	1160.69
520.036	1189.69
520.251	1143.69
520.467	1162.69
520.682	1131.69
520.898	1156.69
521.113	1126.69
521.329	1139.69
521.544	1125.69
521.76	1095.69
521.975	1124.69
522.19	1125.69
522.406	1096.69
522.621	1104.69
522.836	1064.69
523.052	1118.69
523.267	1122.69
523.482	1087.69
523.698	1085.69
523.913	1079.69
524.128	1097.69
524.343	1109.69
524.559	1093.69
524.774	1063.69
524.989	1081.69
525.204	1101.69
525.419	1107.69
525.634	1102.69
525.849	1064.69
526.064	1083.69
526.28	1095.69
526.495	1075.69
526.71	1039.69
526.925	1059.69
527.14	1049.69
527.355	1053.69
527.57	1071.69
527.785	1047.69
527.999	1061.69
528.214	1064.69
528.429	1050.69
528.644	1050.69
528.859	1078.69
529.074	1081.69
529.289	1056.69
529.503	1070.69
529.718	1049.69
529.933	1026.69
530.148	1019.69
530.363	1033.69
530.577	1013.69
530.792	1057.69
531.007	1034.69
531.221	1029.69
531.436	1025.69
531.651	1043.69
531.865	1014.69
532.08	1022.69
532.295	1034.69
532.509	1036.69
532.724	1015.69
532.938	996.69
533.153	1018.69
533.367	1035.69
533.582	1022.69
533.796	1022.69
534.011	1020.69
534.225	991.69
534.44	989.69
534.654	1002.69
534.868	1019.69
535.083	1009.69
535.297	1021.69
535.511	993.69
535.726	1001.69
535.94	979.69
536.154	980.69
536.369	985.69
536.583	975.69
536.797	991.69
537.011	954.69
537.225	942.69
537.44	990.69
537.654	972.69
537.868	953.69
538.082	934.69
538.296	948.69
538.51	969.69
538.724	966.69
538.938	978.69
539.153	971.69
539.367	948.69
539.581	965.69
539.795	936.69
540.009	944.69
540.222	959.69
540.436	968.69
540.65	959.69
540.864	973.69
541.078	955.69
541.292	979.69
541.506	944.69
541.72	953.69
541.934	989.69
542.147	967.69
542.361	973.69
542.575	913.69
542.789	936.69
543.002	913.69
543.216	917.69
543.43	941.69
543.644	931.69
543.857	927.69
544.071	956.69
544.285	928.69
544.498	923.69
544.712	961.69
544.925	924.69
545.139	924.69
545.352	945.69
545.566	952.69
545.779	941.69
545.993	955.69
546.206	951.69
546.42	921.69
546.633	922.69
546.847	935.69
547.06	933.69
547.274	934.69
547.487	919.69
547.7	948.69
547.914	941.69
548.127	941.69
548.34	927.69
548.554	929.69
548.767	916.69
548.98	945.69
549.193	933.69
549.407	904.69
549.62	923.69
549.833	958.69
550.046	897.69
550.259	909.69
550.473	903.69
550.686	928.69
550.899	937.69
551.112	919.69
551.325	891.69
551.538	912.69
551.751	875.69
551.964	841.69
552.177	897.69
552.39	878.69
552.603	890.69
552.816	910.69
553.029	916.69
553.242	908.69
553.455	927.69
553.667	903.69
553.88	903.69
554.093	884.69
554.306	897.69
554.519	900.69
554.732	848.69
554.944	872.69
555.157	873.69
555.37	821.69
555.583	838.69
555.795	858.69
556.008	856.69
556.221	835.69
556.433	837.69
556.646	836.69
556.859	835.69
557.071	836.69
557.284	828.69
557.496	822.69
557.709	818.69
557.921	855.69
558.134	833.69
558.346	822.69
558.559	803.69
558.771	805.69
558.984	791.69
559.196	795.69
559.409	808.69
559.621	798.69
559.833	788.69
560.046	792.69
560.258	792.69
560.47	792.69
560.683	795.69
560.895	780.69
561.107	773.69
561.32	780.69
561.532	795.69
561.744	781.69
561.956	779.69
562.168	798.69
562.381	736.69
562.593	796.69
562.805	793.69
563.017	805.69
563.229	803.69
563.441	781.69
563.653	772.69
563.865	779.69
564.077	769.69
564.289	791.69
564.501	808.69
564.713	797.69
564.925	809.69
565.137	794.69
565.349	812.69
565.561	822.69
565.773	807.69
565.985	830.69
566.197	808.69
566.408	833.69
566.62	854.69
566.832	839.69
567.044	860.69
567.255	819.69
567.467	859.69
567.679	873.69
567.891	839.69
568.102	853.69
568.314	845.69
568.526	828.69
568.737	794.69
568.949	775.69
569.161	773.69
569.372	762.69
569.584	773.69
569.795	744.69
570.007	745.69
570.218	741.69
570.43	719.69
570.641	716.69
570.853	725.69
571.064	721.69
571.276	706.69
571.487	685.69
571.698	676.69
571.91	679.69
572.121	679.69
572.333	673.69
572.544	676.69
572.755	656.69
572.966	623.69
573.178	655.69
573.389	658.69
573.6	639.69
573.811	623.69
574.023	617.69
574.234	631.69
574.445	627.69
574.656	629.69
574.867	613.69
575.078	599.69
575.289	601.69
575.501	606.69
575.712	597.69
575.923	603.69
576.134	568.69
576.345	591.69
576.556	599.69
576.767	608.69
576.978	581.69
577.188	567.69
577.399	588.69
577.61	567.69
577.821	585.69
578.032	566.69
578.243	579.69
578.454	590.69
578.665	567.69
578.875	551.69
579.086	551.69
579.297	566.69
579.508	543.69
579.718	540.69
579.929	558.69
580.14	536.69
580.35	544.69
580.561	565.69
580.772	528.69
580.982	536.69
581.193	565.69
581.403	545.69
581.614	551.69
581.825	548.69
582.035	535.69
582.246	538.69
582.456	535.69
582.667	527.69
582.877	527.69
583.087	533.69
583.298	534.69
583.508	527.69
583.719	529.69
583.929	510.69
584.139	515.69
584.35	512.69
584.56	521.69
584.77	494.69
584.981	521.69
585.191	507.69
585.401	490.69
585.611	516.69
585.821	504.69
586.032	521.69
586.242	525.69
586.452	521.69
586.662	512.69
586.872	487.69
587.082	494.69
587.292	500.69
587.502	497.69
587.713	485.69
587.923	511.69
588.133	503.69
588.343	504.69
588.553	505.69
588.762	492.69
588.972	488.69
589.182	506.69
589.392	496.69
589.602	487.69
589.812	479.69
590.022	472.69
590.232	501.69
590.441	468.69
590.651	492.69
590.861	482.69
591.071	500.69
591.281	478.69
591.49	461.69
591.7	468.69
591.91	480.69
592.119	473.69
592.329	492.69
592.539	500.69
592.748	516.69
592.958	478.69
593.167	497.69
593.377	480.69
593.587	486.69
593.796	495.69
594.006	482.69
594.215	469.69
594.424	477.69
594.634	476.69
594.843	475.69
595.053	472.69
595.262	476.69
595.472	457.69
595.681	470.69
595.89	452.69
596.1	476.69
596.309	422.69
596.518	463.69
596.727	443.69
596.937	455.69
597.146	441.69
597.355	454.69
597.564	448.69
597.774	425.69
597.983	430.69
598.192	433.69
598.401	435.69
598.61	421.69
598.819	428.69
599.028	407.69
599.237	415.69
599.446	404.69
599.655	408.69
599.864	395.69
600.073	415.69
600.282	398.69
600.491	415.69
600.7	413.69
600.909	416.69
601.118	396.69
601.327	407.69
601.536	391.69
601.745	413.69
601.953	396.69
602.162	409.69
602.371	408.69
602.58	394.69
602.789	400.69
602.997	373.69
603.206	396.69
603.415	393.69
603.623	381.69
603.832	384.69
604.041	397.69
604.249	382.69
604.458	383.69
604.666	408.69
604.875	381.69
605.084	391.69
605.292	391.69
605.501	375.69
605.709	393.69
605.918	386.69
606.126	404.69
606.334	378.69
606.543	393.69
606.751	379.69
606.96	389.69
607.168	378.69
607.376	401.69
607.585	388.69
607.793	377.69
608.001	377.69
608.21	367.69
608.418	376.69
608.626	360.69
608.834	373.69
609.043	364.69
609.251	366.69
609.459	356.69
609.667	362.69
609.875	360.69
610.083	366.69
610.291	362.69
610.499	376.69
610.707	361.69
610.916	359.69
611.124	345.69
611.332	349.69
611.54	373.69
611.748	365.69
611.955	354.69
612.163	367.69
612.371	342.69
612.579	337.69
612.787	354.69
612.995	339.69
613.203	381.69
613.411	357.69
613.618	347.69
613.826	349.69
614.034	359.69
614.242	354.69
614.449	351.69
614.657	372.69
614.865	353.69
615.072	342.69
615.28	360.69
615.488	337.69
615.695	343.69
615.903	347.69
616.111	350.69
616.318	344.69
616.526	356.69
616.733	344.69
616.941	319.69
617.148	333.69
617.356	349.69
617.563	323.69
617.771	323.69
617.978	341.69
618.185	341.69
618.393	326.69
618.6	334.69
618.807	314.69
619.015	344.69
619.222	341.69
619.429	330.69
619.637	322.69
619.844	324.69
620.051	320.69
620.258	314.69
620.466	320.69
620.673	324.69
620.88	316.69
621.087	295.69
621.294	319.69
621.501	295.69
621.708	316.69
621.915	296.69
622.122	328.69
622.329	327.69
622.536	336.69
622.743	312.69
622.95	313.69
623.157	300.69
623.364	324.69
623.571	299.69
623.778	301.69
623.985	312.69
624.192	293.69
624.399	293.69
624.606	307.69
624.812	310.69
625.019	300.69
625.226	293.69
625.433	296.69
625.639	293.69
625.846	298.69
626.053	294.69
626.259	303.69
626.466	301.69
626.673	293.69
626.879	287.69
627.086	294.69
627.293	284.69
627.499	295.69
627.706	288.69
627.912	283.69
628.119	291.69
628.325	304.69
628.532	287.69
628.738	282.69
628.945	285.69
629.151	275.69
629.357	279.69
629.564	277.69
629.77	262.69
629.976	278.69
630.183	274.69
630.389	278.69
630.595	286.69
630.802	264.69
631.008	267.69
631.214	284.69
631.42	285.69
631.627	279.69
631.833	271.69
632.039	276.69
632.245	267.69
632.451	265.69
632.657	263.69
632.863	285.69
633.069	250.69
633.275	255.69
633.481	245.69
633.688	254.69
633.893	261.69
634.099	243.69
634.305	259.69
634.511	257.69
634.717	249.69
634.923	250.69
635.129	260.69
635.335	247.69
635.541	245.69
635.747	256.69
635.952	243.69
636.158	248.69
636.364	263.69
636.57	258.69
636.775	229.69
636.981	250.69
637.187	256.69
637.392	253.69
637.598	238.69
637.804	227.69
638.009	248.69
638.215	257.69
638.421	255.69
638.626	244.69
638.832	237.69
639.037	229.69
639.243	235.69
639.448	237.69
639.654	241.69
639.859	242.69
640.065	220.69
640.27	257.69
640.475	239.69
640.681	244.69
640.886	243.69
641.091	256.69
641.297	258.69
641.502	237.69
641.707	247.69
641.913	241.69
642.118	230.69
642.323	235.69
642.528	224.69
642.733	233.69
642.939	222.69
643.144	227.69
643.349	233.69
643.554	229.69
643.759	214.69
643.964	224.69
644.169	208.69
644.374	216.69
644.579	231.69
644.784	231.69
644.989	225.69
645.194	215.69
645.399	229.69
645.604	230.69
645.809	222.69
646.014	232.69
646.219	227.69
646.423	218.69
646.628	220.69
646.833	209.69
647.038	215.69
647.243	222.69
647.447	207.69
647.652	212.69
647.857	207.69
648.062	225.69
648.266	230.69
648.471	226.69
648.676	213.69
648.88	231.69
649.085	217.69
649.289	211.69
649.494	212.69
649.698	209.69
649.903	211.69
650.107	233.69
650.312	235.69
650.516	224.69
650.721	202.69
650.925	212.69
651.13	224.69
651.334	195.69
651.539	202.69
651.743	198.69
651.947	202.69
652.152	211.69
652.356	193.69
652.56	189.69
652.764	193.69
652.969	191.69
653.173	202.69
653.377	187.69
653.581	183.69
653.785	193.69
653.99	172.69
654.194	174.69
654.398	189.69
654.602	192.69
654.806	167.69
655.01	191.69
655.214	179.69
655.418	173.69
655.622	172.69
655.826	191.69
656.03	161.69
656.234	161.69
656.438	175.69
656.642	173.69
656.846	159.69
657.049	151.69
657.253	154.69
657.457	167.69
657.661	136.69
657.865	135.69
658.068	139.69
658.272	137.69
658.476	128.69
658.68	132.69
658.883	134.69
659.087	112.69
659.291	119.69
659.494	121.69
659.698	118.69
659.901	120.69
660.105	112.69
660.309	117.69
660.512	103.69
660.716	110.69
660.919	119.69
661.123	105.69
661.326	85.69
661.53	94.69
661.733	97.69
661.936	100.69
662.14	94.69
662.343	99.69
662.546	94.69
662.75	106.69
662.953	100.69
663.156	93.69
663.36	91.69
663.563	93.69
663.766	82.69
663.969	79.69
664.173	81.69
664.376	78.69
664.579	80.69
664.782	90.69
664.985	87.69
665.188	87.69
665.391	79.69
665.594	91.69
665.797	72.69
666	94.69
666.203	93.69
666.406	77.69
666.609	88.69
666.812	82.69
667.015	59.69
667.218	105.69
667.421	91.69
667.624	70.69
667.827	87.69
668.03	96.69
668.232	74.69
668.435	94.69
668.638	87.69
668.841	75.69
669.043	75.69
669.246	73.69
669.449	94.69
669.651	85.69
669.854	91.69
670.057	88.69
670.259	89.69
670.462	114.69
670.665	85.69
670.867	84.69
671.07	90.69
671.272	80.69
671.475	79.69
671.677	82.69
671.88	101.69
672.082	73.69
672.284	91.69
672.487	73.69
672.689	89.69
672.892	92.69
