Data from Ni(NO3)2@0.5M.TitratingCurve.Agarose3%dH2O.NegLispCup.LampEnergy10.LIBS07252019_HRD10591_17-58-43-564.txt Node
Date: Thu Jul 25 17:58:43 EDT 2019
User: cochatt
Spectrometer: HR+D1059
Trigger mode: 1
Integration Time (sec): 1.000000E-1
Scans to average: 1
Electric dark correction enabled: true
Nonlinearity correction enabled: false
Boxcar width: 0
XAxis mode: Wavelengths
Number of Pixels in Spectrum: 2048
>>>>>Begin Spectral Data<<<<<
223.165	-12.19
223.4	-12.19
223.635	-12.19
223.869	-9.19
224.104	-18.19
224.338	-13.19
224.573	-9.19
224.808	-12.19
225.042	-8.19
225.277	-7.19
225.511	-6.19
225.746	1.81
225.98	7.81
226.215	6.81
226.449	18.81
226.683	19.81
226.918	25.81
227.152	14.81
227.387	38.81
227.621	27.81
227.856	28.81
228.09	41.81
228.324	49.81
228.559	60.81
228.793	74.81
229.027	138.81
229.262	150.81
229.496	166.81
229.73	174.81
229.964	198.81
230.199	240.81
230.433	241.81
230.667	218.81
230.901	201.81
231.136	164.81
231.37	195.81
231.604	218.81
231.838	224.81
232.072	237.81
232.306	232.81
232.541	211.81
232.775	194.81
233.009	167.81
233.243	194.81
233.477	187.81
233.711	198.81
233.945	199.81
234.179	196.81
234.413	193.81
234.647	205.81
234.881	198.81
235.115	200.81
235.349	201.81
235.583	168.81
235.817	178.81
236.051	201.81
236.285	195.81
236.519	185.81
236.753	196.81
236.987	207.81
237.221	195.81
237.455	205.81
237.689	214.81
237.922	205.81
238.156	220.81
238.39	197.81
238.624	207.81
238.858	231.81
239.091	196.81
239.325	234.81
239.559	238.81
239.793	271.81
240.027	261.81
240.26	234.81
240.494	225.81
240.728	231.81
240.961	228.81
241.195	248.81
241.429	250.81
241.662	245.81
241.896	283.81
242.13	273.81
242.363	258.81
242.597	238.81
242.83	224.81
243.064	260.81
243.298	240.81
243.531	265.81
243.765	251.81
243.998	271.81
244.232	304.81
244.465	287.81
244.699	265.81
244.932	259.81
245.166	274.81
245.399	276.81
245.633	289.81
245.866	277.81
246.099	262.81
246.333	282.81
246.566	272.81
246.8	283.81
247.033	277.81
247.266	287.81
247.5	301.81
247.733	319.81
247.966	323.81
248.2	302.81
248.433	314.81
248.666	315.81
248.899	323.81
249.133	308.81
249.366	350.81
249.599	313.81
249.832	322.81
250.066	331.81
250.299	309.81
250.532	337.81
250.765	351.81
250.998	356.81
251.231	351.81
251.465	381.81
251.698	377.81
251.931	346.81
252.164	351.81
252.397	349.81
252.63	351.81
252.863	360.81
253.096	353.81
253.329	373.81
253.562	379.81
253.795	357.81
254.028	376.81
254.261	381.81
254.494	390.81
254.727	401.81
254.96	388.81
255.193	383.81
255.426	383.81
255.659	398.81
255.892	402.81
256.124	399.81
256.357	400.81
256.59	398.81
256.823	403.81
257.056	425.81
257.289	419.81
257.521	439.81
257.754	437.81
257.987	413.81
258.22	426.81
258.452	445.81
258.685	427.81
258.918	445.81
259.151	445.81
259.383	426.81
259.616	443.81
259.849	446.81
260.081	454.81
260.314	436.81
260.547	458.81
260.779	463.81
261.012	468.81
261.244	479.81
261.477	477.81
261.71	462.81
261.942	481.81
262.175	480.81
262.407	485.81
262.64	462.81
262.872	475.81
263.105	464.81
263.337	484.81
263.57	482.81
263.802	496.81
264.035	486.81
264.267	473.81
264.499	483.81
264.732	509.81
264.964	493.81
265.197	501.81
265.429	497.81
265.661	515.81
265.894	516.81
266.126	519.81
266.358	511.81
266.591	500.81
266.823	547.81
267.055	518.81
267.287	499.81
267.52	509.81
267.752	539.81
267.984	540.81
268.216	558.81
268.448	538.81
268.681	535.81
268.913	531.81
269.145	532.81
269.377	549.81
269.609	535.81
269.841	553.81
270.073	521.81
270.306	547.81
270.538	548.81
270.77	561.81
271.002	559.81
271.234	554.81
271.466	568.81
271.698	569.81
271.93	545.81
272.162	575.81
272.394	580.81
272.626	582.81
272.858	567.81
273.09	583.81
273.322	615.81
273.553	579.81
273.785	581.81
274.017	610.81
274.249	597.81
274.481	610.81
274.713	586.81
274.945	595.81
275.176	591.81
275.408	597.81
275.64	618.81
275.872	606.81
276.104	614.81
276.335	617.81
276.567	603.81
276.799	620.81
277.031	622.81
277.262	635.81
277.494	630.81
277.726	632.81
277.957	656.81
278.189	639.81
278.421	651.81
278.652	658.81
278.884	630.81
279.115	629.81
279.347	648.81
279.579	664.81
279.81	679.81
280.042	666.81
280.273	646.81
280.505	649.81
280.736	662.81
280.968	675.81
281.199	661.81
281.431	661.81
281.662	698.81
281.894	661.81
282.125	649.81
282.356	701.81
282.588	691.81
282.819	671.81
283.051	686.81
283.282	659.81
283.513	669.81
283.745	705.81
283.976	688.81
284.207	700.81
284.439	705.81
284.67	693.81
284.901	697.81
285.132	699.81
285.364	699.81
285.595	701.81
285.826	714.81
286.057	738.81
286.288	717.81
286.52	703.81
286.751	704.81
286.982	703.81
287.213	721.81
287.444	734.81
287.675	723.81
287.906	729.81
288.138	729.81
288.369	709.81
288.6	734.81
288.831	709.81
289.062	735.81
289.293	718.81
289.524	733.81
289.755	724.81
289.986	750.81
290.217	765.81
290.448	723.81
290.679	730.81
290.91	730.81
291.141	759.81
291.371	720.81
291.602	760.81
291.833	745.81
292.064	745.81
292.295	726.81
292.526	719.81
292.757	753.81
292.987	755.81
293.218	740.81
293.449	757.81
293.68	735.81
293.91	749.81
294.141	767.81
294.372	755.81
294.603	771.81
294.833	765.81
295.064	771.81
295.295	757.81
295.525	744.81
295.756	757.81
295.987	732.81
296.217	777.81
296.448	775.81
296.679	796.81
296.909	779.81
297.14	779.81
297.37	791.81
297.601	778.81
297.831	822.81
298.062	795.81
298.292	789.81
298.523	819.81
298.753	788.81
298.984	795.81
299.214	802.81
299.445	778.81
299.675	813.81
299.905	836.81
300.136	823.81
300.366	862.81
300.597	889.81
300.827	864.81
301.057	825.81
301.288	863.81
301.518	862.81
301.748	854.81
301.979	845.81
302.209	853.81
302.439	840.81
302.669	842.81
302.9	836.81
303.13	829.81
303.36	864.81
303.59	879.81
303.82	878.81
304.051	889.81
304.281	871.81
304.511	832.81
304.741	883.81
304.971	897.81
305.201	897.81
305.431	912.81
305.661	925.81
305.891	925.81
306.121	893.81
306.352	881.81
306.582	869.81
306.812	879.81
307.042	887.81
307.272	879.81
307.502	885.81
307.731	879.81
307.961	873.81
308.191	893.81
308.421	839.81
308.651	889.81
308.881	885.81
309.111	905.81
309.341	881.81
309.571	910.81
309.8	927.81
310.03	913.81
310.26	974.81
310.49	956.81
310.72	930.81
310.949	920.81
311.179	921.81
311.409	918.81
311.639	949.81
311.868	919.81
312.098	957.81
312.328	934.81
312.557	929.81
312.787	915.81
313.017	921.81
313.246	958.81
313.476	943.81
313.706	965.81
313.935	974.81
314.165	968.81
314.394	958.81
314.624	980.81
314.853	937.81
315.083	959.81
315.312	986.81
315.542	969.81
315.771	982.81
316.001	963.81
316.23	982.81
316.46	976.81
316.689	977.81
316.919	965.81
317.148	980.81
317.377	995.81
317.607	1001.81
317.836	975.81
318.065	993.81
318.295	983.81
318.524	991.81
318.753	999.81
318.983	992.81
319.212	981.81
319.441	1000.81
319.67	1025.81
319.9	1002.81
320.129	1034.81
320.358	1027.81
320.587	1018.81
320.816	1036.81
321.046	1024.81
321.275	1074.81
321.504	1084.81
321.733	1037.81
321.962	1077.81
322.191	1047.81
322.42	1029.81
322.649	1023.81
322.878	1058.81
323.108	1014.81
323.337	1077.81
323.566	1080.81
323.795	1072.81
324.024	1052.81
324.253	1087.81
324.482	1091.81
324.71	1090.81
324.939	1110.81
325.168	1089.81
325.397	1098.81
325.626	1100.81
325.855	1102.81
326.084	1096.81
326.313	1119.81
326.542	1123.81
326.77	1112.81
326.999	1104.81
327.228	1078.81
327.457	1127.81
327.686	1126.81
327.914	1111.81
328.143	1140.81
328.372	1131.81
328.6	1113.81
328.829	1110.81
329.058	1144.81
329.287	1162.81
329.515	1145.81
329.744	1161.81
329.972	1170.81
330.201	1153.81
330.43	1156.81
330.658	1173.81
330.887	1166.81
331.115	1187.81
331.344	1169.81
331.572	1162.81
331.801	1195.81
332.03	1207.81
332.258	1195.81
332.486	1237.81
332.715	1193.81
332.943	1207.81
333.172	1231.81
333.4	1239.81
333.629	1250.81
333.857	1247.81
334.085	1273.81
334.314	1251.81
334.542	1262.81
334.771	1250.81
334.999	1251.81
335.227	1270.81
335.455	1254.81
335.684	1292.81
335.912	1277.81
336.14	1299.81
336.369	1303.81
336.597	1296.81
336.825	1345.81
337.053	1345.81
337.281	1344.81
337.51	1329.81
337.738	1288.81
337.966	1272.81
338.194	1352.81
338.422	1306.81
338.65	1256.81
338.878	1290.81
339.106	1284.81
339.334	1317.81
339.562	1293.81
339.79	1259.81
340.018	1259.81
340.246	1254.81
340.474	1246.81
340.702	1250.81
340.93	1235.81
341.158	1280.81
341.386	1288.81
341.614	1330.81
341.842	1302.81
342.07	1242.81
342.298	1267.81
342.526	1275.81
342.754	1259.81
342.981	1262.81
343.209	1265.81
343.437	1291.81
343.665	1287.81
343.893	1267.81
344.12	1282.81
344.348	1314.81
344.576	1310.81
344.804	1336.81
345.031	1299.81
345.259	1302.81
345.487	1301.81
345.714	1285.81
345.942	1332.81
346.17	1354.81
346.397	1297.81
346.625	1235.81
346.853	1210.81
347.08	1231.81
347.308	1218.81
347.535	1240.81
347.763	1214.81
347.99	1210.81
348.218	1224.81
348.445	1205.81
348.673	1259.81
348.9	1212.81
349.128	1244.81
349.355	1252.81
349.583	1243.81
349.81	1191.81
350.037	1173.81
350.265	1209.81
350.492	1183.81
350.72	1206.81
350.947	1201.81
351.174	1215.81
351.402	1281.81
351.629	1275.81
351.856	1230.81
352.083	1229.81
352.311	1254.81
352.538	1289.81
352.765	1277.81
352.992	1170.81
353.22	1158.81
353.447	1185.81
353.674	1170.81
353.901	1163.81
354.128	1183.81
354.355	1164.81
354.583	1162.81
354.81	1157.81
355.037	1177.81
355.264	1176.81
355.491	1171.81
355.718	1155.81
355.945	1182.81
356.172	1151.81
356.399	1198.81
356.626	1241.81
356.853	1255.81
357.08	1181.81
357.307	1213.81
357.534	1194.81
357.761	1161.81
357.988	1156.81
358.215	1182.81
358.441	1181.81
358.668	1189.81
358.895	1171.81
359.122	1185.81
359.349	1161.81
359.576	1194.81
359.802	1179.81
360.029	1190.81
360.256	1161.81
360.483	1207.81
360.709	1178.81
360.936	1214.81
361.163	1200.81
361.39	1223.81
361.616	1186.81
361.843	1217.81
362.07	1275.81
362.296	1262.81
362.523	1197.81
362.749	1173.81
362.976	1184.81
363.203	1199.81
363.429	1167.81
363.656	1163.81
363.882	1179.81
364.109	1210.81
364.335	1195.81
364.562	1206.81
364.788	1200.81
365.015	1171.81
365.241	1183.81
365.468	1218.81
365.694	1204.81
365.92	1242.81
366.147	1197.81
366.373	1179.81
366.599	1202.81
366.826	1205.81
367.052	1188.81
367.278	1204.81
367.505	1203.81
367.731	1208.81
367.957	1218.81
368.184	1214.81
368.41	1217.81
368.636	1211.81
368.862	1241.81
369.089	1233.81
369.315	1233.81
369.541	1245.81
369.767	1216.81
369.993	1223.81
370.219	1212.81
370.445	1242.81
370.672	1247.81
370.898	1243.81
371.124	1252.81
371.35	1286.81
371.576	1242.81
371.802	1263.81
372.028	1236.81
372.254	1270.81
372.48	1277.81
372.706	1246.81
372.932	1266.81
373.158	1270.81
373.384	1256.81
373.61	1263.81
373.835	1263.81
374.061	1282.81
374.287	1273.81
374.513	1272.81
374.739	1313.81
374.965	1295.81
375.191	1286.81
375.416	1276.81
375.642	1283.81
375.868	1277.81
376.094	1271.81
376.319	1263.81
376.545	1239.81
376.771	1239.81
376.997	1266.81
377.222	1269.81
377.448	1295.81
377.674	1248.81
377.899	1242.81
378.125	1256.81
378.35	1252.81
378.576	1230.81
378.802	1226.81
379.027	1215.81
379.253	1258.81
379.478	1251.81
379.704	1250.81
379.929	1236.81
380.155	1239.81
380.38	1221.81
380.606	1240.81
380.831	1215.81
381.057	1243.81
381.282	1232.81
381.507	1262.81
381.733	1258.81
381.958	1250.81
382.184	1281.81
382.409	1284.81
382.634	1256.81
382.86	1277.81
383.085	1281.81
383.31	1312.81
383.535	1289.81
383.761	1287.81
383.986	1299.81
384.211	1318.81
384.436	1310.81
384.662	1321.81
384.887	1330.81
385.112	1318.81
385.337	1333.81
385.562	1319.81
385.787	1353.81
386.013	1392.81
386.238	1385.81
386.463	1377.81
386.688	1374.81
386.913	1383.81
387.138	1353.81
387.363	1372.81
387.588	1363.81
387.813	1380.81
388.038	1401.81
388.263	1351.81
388.488	1373.81
388.713	1394.81
388.938	1376.81
389.163	1361.81
389.387	1395.81
389.612	1359.81
389.837	1394.81
390.062	1408.81
390.287	1405.81
390.512	1418.81
390.736	1419.81
390.961	1391.81
391.186	1387.81
391.411	1415.81
391.636	1423.81
391.86	1414.81
392.085	1423.81
392.31	1422.81
392.534	1439.81
392.759	1465.81
392.984	1428.81
393.208	1443.81
393.433	1487.81
393.658	1445.81
393.882	1427.81
394.107	1410.81
394.331	1414.81
394.556	1436.81
394.78	1438.81
395.005	1395.81
395.229	1429.81
395.454	1410.81
395.678	1432.81
395.903	1436.81
396.127	1447.81
396.352	1454.81
396.576	1429.81
396.801	1478.81
397.025	1478.81
397.249	1468.81
397.474	1465.81
397.698	1472.81
397.922	1522.81
398.147	1530.81
398.371	1494.81
398.595	1526.81
398.82	1545.81
399.044	1569.81
399.268	1595.81
399.492	1638.81
399.717	1658.81
399.941	1675.81
400.165	1693.81
400.389	1685.81
400.613	1653.81
400.837	1640.81
401.062	1569.81
401.286	1619.81
401.51	1609.81
401.734	1537.81
401.958	1576.81
402.182	1581.81
402.406	1553.81
402.63	1569.81
402.854	1571.81
403.078	1549.81
403.302	1585.81
403.526	1589.81
403.75	1552.81
403.974	1587.81
404.198	1591.81
404.422	1575.81
404.645	1582.81
404.869	1611.81
405.093	1618.81
405.317	1600.81
405.541	1598.81
405.765	1618.81
405.988	1637.81
406.212	1649.81
406.436	1630.81
406.66	1675.81
406.883	1625.81
407.107	1670.81
407.331	1690.81
407.555	1711.81
407.778	1761.81
408.002	1691.81
408.226	1703.81
408.449	1722.81
408.673	1701.81
408.896	1691.81
409.12	1675.81
409.344	1695.81
409.567	1674.81
409.791	1656.81
410.014	1619.81
410.238	1637.81
410.461	1662.81
410.685	1626.81
410.908	1645.81
411.132	1634.81
411.355	1569.81
411.578	1625.81
411.802	1612.81
412.025	1560.81
412.249	1637.81
412.472	1658.81
412.695	1606.81
412.919	1578.81
413.142	1625.81
413.365	1607.81
413.589	1590.81
413.812	1602.81
414.035	1566.81
414.258	1597.81
414.482	1563.81
414.705	1567.81
414.928	1567.81
415.151	1574.81
415.374	1530.81
415.597	1550.81
415.821	1520.81
416.044	1535.81
416.267	1506.81
416.49	1504.81
416.713	1491.81
416.936	1531.81
417.159	1513.81
417.382	1491.81
417.605	1513.81
417.828	1521.81
418.051	1487.81
418.274	1501.81
418.497	1474.81
418.72	1486.81
418.943	1461.81
419.166	1574.81
419.389	1655.81
419.611	1634.81
419.834	1625.81
420.057	1535.81
420.28	1476.81
420.503	1438.81
420.726	1486.81
420.948	1446.81
421.171	1451.81
421.394	1494.81
421.617	1502.81
421.839	1503.81
422.062	1474.81
422.285	1447.81
422.507	1516.81
422.73	1474.81
422.953	1495.81
423.175	1477.81
423.398	1498.81
423.621	1469.81
423.843	1465.81
424.066	1493.81
424.288	1459.81
424.511	1477.81
424.733	1496.81
424.956	1500.81
425.178	1510.81
425.401	1490.81
425.623	1496.81
425.846	1481.81
426.068	1474.81
426.291	1490.81
426.513	1472.81
426.735	1492.81
426.958	1475.81
427.18	1472.81
427.402	1488.81
427.625	1506.81
427.847	1459.81
428.069	1466.81
428.292	1480.81
428.514	1493.81
428.736	1486.81
428.958	1488.81
429.181	1443.81
429.403	1450.81
429.625	1480.81
429.847	1468.81
430.069	1479.81
430.292	1459.81
430.514	1466.81
430.736	1493.81
430.958	1490.81
431.18	1447.81
431.402	1457.81
431.624	1438.81
431.846	1459.81
432.068	1467.81
432.29	1520.81
432.512	1486.81
432.734	1493.81
432.956	1464.81
433.178	1511.81
433.4	1514.81
433.622	1551.81
433.844	1524.81
434.066	1514.81
434.287	1518.81
434.509	1528.81
434.731	1477.81
434.953	1521.81
435.175	1570.81
435.397	1542.81
435.618	1514.81
435.84	1508.81
436.062	1479.81
436.284	1487.81
436.505	1505.81
436.727	1477.81
436.949	1491.81
437.17	1529.81
437.392	1488.81
437.614	1454.81
437.835	1425.81
438.057	1433.81
438.278	1453.81
438.5	1419.81
438.721	1425.81
438.943	1439.81
439.165	1441.81
439.386	1441.81
439.608	1453.81
439.829	1439.81
440.05	1453.81
440.272	1482.81
440.493	1464.81
440.715	1473.81
440.936	1524.81
441.158	1479.81
441.379	1470.81
441.6	1523.81
441.822	1498.81
442.043	1498.81
442.264	1459.81
442.486	1495.81
442.707	1533.81
442.928	1480.81
443.149	1546.81
443.371	1549.81
443.592	1622.81
443.813	1571.81
444.034	1538.81
444.255	1535.81
444.476	1560.81
444.698	1559.81
444.919	1622.81
445.14	1659.81
445.361	1616.81
445.582	1593.81
445.803	1507.81
446.024	1497.81
446.245	1487.81
446.466	1469.81
446.687	1440.81
446.908	1442.81
447.129	1440.81
447.35	1417.81
447.571	1402.81
447.792	1373.81
448.013	1382.81
448.234	1374.81
448.455	1384.81
448.675	1395.81
448.896	1367.81
449.117	1348.81
449.338	1350.81
449.559	1356.81
449.779	1369.81
450	1336.81
450.221	1374.81
450.442	1359.81
450.662	1357.81
450.883	1374.81
451.104	1358.81
451.324	1361.81
451.545	1345.81
451.766	1335.81
451.986	1360.81
452.207	1322.81
452.428	1342.81
452.648	1356.81
452.869	1357.81
453.089	1330.81
453.31	1389.81
453.53	1335.81
453.751	1325.81
453.971	1301.81
454.192	1353.81
454.412	1376.81
454.633	1305.81
454.853	1333.81
455.073	1289.81
455.294	1317.81
455.514	1331.81
455.734	1375.81
455.955	1371.81
456.175	1392.81
456.395	1347.81
456.616	1302.81
456.836	1270.81
457.056	1312.81
457.276	1314.81
457.497	1365.81
457.717	1338.81
457.937	1350.81
458.157	1376.81
458.377	1392.81
458.598	1373.81
458.818	1409.81
459.038	1408.81
459.258	1389.81
459.478	1500.81
459.698	1608.81
459.918	1586.81
460.138	1574.81
460.358	1539.81
460.578	1568.81
460.798	1595.81
461.018	1566.81
461.238	1557.81
461.458	1514.81
461.678	1535.81
461.898	1544.81
462.118	1544.81
462.338	1601.81
462.558	1612.81
462.777	1635.81
462.997	1685.81
463.217	1674.81
463.437	1720.81
463.657	1702.81
463.876	1665.81
464.096	1657.81
464.316	1622.81
464.536	1579.81
464.755	1581.81
464.975	1562.81
465.195	1541.81
465.414	1541.81
465.634	1531.81
465.854	1513.81
466.073	1441.81
466.293	1422.81
466.512	1403.81
466.732	1404.81
466.951	1463.81
467.171	1463.81
467.391	1454.81
467.61	1441.81
467.829	1446.81
468.049	1414.81
468.268	1401.81
468.488	1394.81
468.707	1429.81
468.927	1405.81
469.146	1414.81
469.365	1443.81
469.585	1425.81
469.804	1398.81
470.023	1444.81
470.243	1397.81
470.462	1449.81
470.681	1425.81
470.901	1392.81
471.12	1426.81
471.339	1440.81
471.558	1427.81
471.777	1483.81
471.997	1428.81
472.216	1399.81
472.435	1414.81
472.654	1355.81
472.873	1354.81
473.092	1424.81
473.311	1450.81
473.53	1422.81
473.749	1445.81
473.968	1437.81
474.187	1417.81
474.406	1429.81
474.625	1404.81
474.844	1435.81
475.063	1469.81
475.282	1490.81
475.501	1482.81
475.72	1491.81
475.939	1495.81
476.158	1497.81
476.377	1489.81
476.596	1495.81
476.814	1494.81
477.033	1521.81
477.252	1546.81
477.471	1559.81
477.69	1570.81
477.908	1577.81
478.127	1574.81
478.346	1613.81
478.564	1593.81
478.783	1652.81
479.002	1690.81
479.22	1739.81
479.439	1692.81
479.658	1657.81
479.876	1675.81
480.095	1676.81
480.313	1712.81
480.532	1679.81
480.751	1711.81
480.969	1655.81
481.188	1638.81
481.406	1665.81
481.624	1673.81
481.843	1661.81
482.061	1663.81
482.28	1697.81
482.498	1653.81
482.717	1680.81
482.935	1652.81
483.153	1717.81
483.372	1799.81
483.59	1806.81
483.808	1749.81
484.027	1731.81
484.245	1747.81
484.463	1719.81
484.681	1713.81
484.9	1713.81
485.118	1769.81
485.336	1725.81
485.554	1707.81
485.772	1734.81
485.99	1771.81
486.209	1766.81
486.427	1751.81
486.645	1711.81
486.863	1760.81
487.081	1735.81
487.299	1760.81
487.517	1785.81
487.735	1807.81
487.953	1802.81
488.171	1763.81
488.389	1787.81
488.607	1739.81
488.825	1764.81
489.043	1759.81
489.261	1774.81
489.479	1723.81
489.696	1773.81
489.914	1770.81
490.132	1759.81
490.35	1774.81
490.568	1744.81
490.786	1764.81
491.003	1793.81
491.221	1805.81
491.439	1773.81
491.657	1793.81
491.874	1795.81
492.092	1819.81
492.31	1765.81
492.527	1841.81
492.745	1827.81
492.963	1818.81
493.18	1762.81
493.398	1772.81
493.615	1842.81
493.833	1833.81
494.05	1822.81
494.268	1839.81
494.485	1867.81
494.703	1852.81
494.92	1845.81
495.138	1868.81
495.355	1828.81
495.573	1867.81
495.79	1862.81
496.008	1842.81
496.225	1917.81
496.442	1909.81
496.66	1923.81
496.877	1918.81
497.094	1961.81
497.312	1936.81
497.529	1973.81
497.746	1973.81
497.963	2012.81
498.181	2086.81
498.398	2091.81
498.615	2117.81
498.832	2153.81
499.049	2144.81
499.267	2289.81
499.484	2303.81
499.701	2391.81
499.918	2378.81
500.135	2473.81
500.352	2479.81
500.569	2498.81
500.786	2507.81
501.003	2502.81
501.22	2450.81
501.437	2447.81
501.654	2361.81
501.871	2326.81
502.088	2254.81
502.305	2269.81
502.522	2224.81
502.739	2100.81
502.956	2073.81
503.172	2027.81
503.389	2054.81
503.606	1949.81
503.823	1933.81
504.04	1926.81
504.256	1959.81
504.473	1894.81
504.69	1862.81
504.907	1874.81
505.123	1826.81
505.34	1840.81
505.557	1774.81
505.773	1786.81
505.99	1733.81
506.207	1741.81
506.423	1679.81
506.64	1729.81
506.856	1687.81
507.073	1677.81
507.289	1674.81
507.506	1626.81
507.722	1628.81
507.939	1649.81
508.155	1629.81
508.372	1644.81
508.588	1608.81
508.805	1628.81
509.021	1595.81
509.238	1566.81
509.454	1573.81
509.67	1551.81
509.887	1546.81
510.103	1575.81
510.319	1529.81
510.536	1535.81
510.752	1532.81
510.968	1513.81
511.184	1487.81
511.401	1473.81
511.617	1500.81
511.833	1518.81
512.049	1491.81
512.265	1501.81
512.481	1492.81
512.698	1450.81
512.914	1495.81
513.13	1509.81
513.346	1506.81
513.562	1473.81
513.778	1479.81
513.994	1484.81
514.21	1493.81
514.426	1503.81
514.642	1524.81
514.858	1513.81
515.074	1537.81
515.29	1541.81
515.506	1492.81
515.721	1541.81
515.937	1514.81
516.153	1518.81
516.369	1523.81
516.585	1529.81
516.801	1547.81
517.016	1548.81
517.232	1561.81
517.448	1600.81
517.664	1577.81
517.879	1534.81
518.095	1574.81
518.311	1554.81
518.527	1538.81
518.742	1518.81
518.958	1561.81
519.173	1526.81
519.389	1506.81
519.605	1491.81
519.82	1478.81
520.036	1470.81
520.251	1433.81
520.467	1470.81
520.682	1432.81
520.898	1419.81
521.113	1416.81
521.329	1418.81
521.544	1402.81
521.76	1438.81
521.975	1422.81
522.19	1435.81
522.406	1403.81
522.621	1387.81
522.836	1361.81
523.052	1361.81
523.267	1366.81
523.482	1370.81
523.698	1336.81
523.913	1330.81
524.128	1354.81
524.343	1389.81
524.559	1364.81
524.774	1320.81
524.989	1357.81
525.204	1398.81
525.419	1363.81
525.634	1346.81
525.849	1339.81
526.064	1315.81
526.28	1328.81
526.495	1327.81
526.71	1333.81
526.925	1327.81
527.14	1311.81
527.355	1318.81
527.57	1285.81
527.785	1322.81
527.999	1310.81
528.214	1313.81
528.429	1300.81
528.644	1287.81
528.859	1320.81
529.074	1310.81
529.289	1327.81
529.503	1318.81
529.718	1317.81
529.933	1319.81
530.148	1304.81
530.363	1295.81
530.577	1279.81
530.792	1261.81
531.007	1262.81
531.221	1287.81
531.436	1306.81
531.651	1301.81
531.865	1294.81
532.08	1257.81
532.295	1273.81
532.509	1273.81
532.724	1240.81
532.938	1275.81
533.153	1291.81
533.367	1246.81
533.582	1238.81
533.796	1232.81
534.011	1235.81
534.225	1261.81
534.44	1235.81
534.654	1235.81
534.868	1204.81
535.083	1247.81
535.297	1223.81
535.511	1237.81
535.726	1217.81
535.94	1218.81
536.154	1194.81
536.369	1204.81
536.583	1210.81
536.797	1203.81
537.011	1199.81
537.225	1217.81
537.44	1199.81
537.654	1185.81
537.868	1175.81
538.082	1178.81
538.296	1188.81
538.51	1160.81
538.724	1205.81
538.938	1191.81
539.153	1175.81
539.367	1169.81
539.581	1178.81
539.795	1175.81
540.009	1155.81
540.222	1128.81
540.436	1154.81
540.65	1177.81
540.864	1144.81
541.078	1155.81
541.292	1154.81
541.506	1147.81
541.72	1190.81
541.934	1182.81
542.147	1184.81
542.361	1153.81
542.575	1139.81
542.789	1141.81
543.002	1130.81
543.216	1135.81
543.43	1133.81
543.644	1111.81
543.857	1121.81
544.071	1132.81
544.285	1140.81
544.498	1147.81
544.712	1146.81
544.925	1141.81
545.139	1130.81
545.352	1119.81
545.566	1162.81
545.779	1139.81
545.993	1099.81
546.206	1182.81
546.42	1121.81
546.633	1135.81
546.847	1153.81
547.06	1144.81
547.274	1123.81
547.487	1119.81
547.7	1136.81
547.914	1132.81
548.127	1125.81
548.34	1115.81
548.554	1096.81
548.767	1127.81
548.98	1118.81
549.193	1093.81
549.407	1141.81
549.62	1090.81
549.833	1086.81
550.046	1109.81
550.259	1083.81
550.473	1061.81
550.686	1121.81
550.899	1138.81
551.112	1061.81
551.325	1069.81
551.538	1088.81
551.751	1115.81
551.964	1123.81
552.177	1066.81
552.39	1075.81
552.603	1091.81
552.816	1104.81
553.029	1069.81
553.242	1115.81
553.455	1089.81
553.667	1072.81
553.88	1088.81
554.093	1081.81
554.306	1026.81
554.519	1032.81
554.732	1027.81
554.944	1051.81
555.157	1081.81
555.37	1063.81
555.583	1025.81
555.795	993.81
556.008	1014.81
556.221	990.81
556.433	1005.81
556.646	981.81
556.859	1001.81
557.071	1004.81
557.284	1013.81
557.496	982.81
557.709	989.81
557.921	947.81
558.134	977.81
558.346	975.81
558.559	970.81
558.771	979.81
558.984	991.81
559.196	965.81
559.409	943.81
559.621	942.81
559.833	946.81
560.046	966.81
560.258	939.81
560.47	963.81
560.683	937.81
560.895	929.81
561.107	967.81
561.32	947.81
561.532	953.81
561.744	945.81
561.956	953.81
562.168	931.81
562.381	948.81
562.593	929.81
562.805	930.81
563.017	935.81
563.229	933.81
563.441	945.81
563.653	936.81
563.865	989.81
564.077	939.81
564.289	962.81
564.501	964.81
564.713	960.81
564.925	1002.81
565.137	998.81
565.349	971.81
565.561	971.81
565.773	1001.81
565.985	991.81
566.197	1026.81
566.408	1030.81
566.62	1057.81
566.832	1042.81
567.044	1038.81
567.255	1042.81
567.467	1063.81
567.679	1046.81
567.891	1023.81
568.102	1005.81
568.314	1009.81
568.526	1015.81
568.737	978.81
568.949	973.81
569.161	967.81
569.372	945.81
569.584	909.81
569.795	915.81
570.007	935.81
570.218	903.81
570.43	891.81
570.641	906.81
570.853	866.81
571.064	866.81
571.276	874.81
571.487	849.81
571.698	842.81
571.91	818.81
572.121	830.81
572.333	814.81
572.544	806.81
572.755	800.81
572.966	793.81
573.178	778.81
573.389	776.81
573.6	773.81
573.811	756.81
574.023	771.81
574.234	719.81
574.445	771.81
574.656	738.81
574.867	715.81
575.078	737.81
575.289	724.81
575.501	730.81
575.712	724.81
575.923	730.81
576.134	728.81
576.345	717.81
576.556	714.81
576.767	730.81
576.978	710.81
577.188	709.81
577.399	709.81
577.61	702.81
577.821	685.81
578.032	681.81
578.243	701.81
578.454	689.81
578.665	693.81
578.875	675.81
579.086	679.81
579.297	662.81
579.508	666.81
579.718	664.81
579.929	661.81
580.14	662.81
580.35	653.81
580.561	652.81
580.772	654.81
580.982	649.81
581.193	671.81
581.403	649.81
581.614	630.81
581.825	661.81
582.035	658.81
582.246	652.81
582.456	649.81
582.667	640.81
582.877	631.81
583.087	649.81
583.298	639.81
583.508	643.81
583.719	607.81
583.929	622.81
584.139	631.81
584.35	623.81
584.56	597.81
584.77	629.81
584.981	637.81
585.191	611.81
585.401	605.81
585.611	625.81
585.821	615.81
586.032	602.81
586.242	609.81
586.452	622.81
586.662	599.81
586.872	611.81
587.082	623.81
587.292	634.81
587.502	592.81
587.713	608.81
587.923	595.81
588.133	593.81
588.343	587.81
588.553	591.81
588.762	618.81
588.972	613.81
589.182	657.81
589.392	637.81
589.602	616.81
589.812	637.81
590.022	604.81
590.232	583.81
590.441	592.81
590.651	595.81
590.861	574.81
591.071	584.81
591.281	588.81
591.49	585.81
591.7	581.81
591.91	592.81
592.119	575.81
592.329	569.81
592.539	596.81
592.748	576.81
592.958	587.81
593.167	559.81
593.377	569.81
593.587	589.81
593.796	583.81
594.006	591.81
594.215	600.81
594.424	586.81
594.634	580.81
594.843	565.81
595.053	596.81
595.262	553.81
595.472	563.81
595.681	541.81
595.89	541.81
596.1	536.81
596.309	532.81
596.518	543.81
596.727	537.81
596.937	530.81
597.146	530.81
597.355	535.81
597.564	521.81
597.774	517.81
597.983	513.81
598.192	494.81
598.401	487.81
598.61	509.81
598.819	505.81
599.028	497.81
599.237	494.81
599.446	493.81
599.655	497.81
599.864	505.81
600.073	509.81
600.282	493.81
600.491	483.81
600.7	495.81
600.909	493.81
601.118	482.81
601.327	498.81
601.536	470.81
601.745	465.81
601.953	466.81
602.162	488.81
602.371	460.81
602.58	458.81
602.789	463.81
602.997	463.81
603.206	477.81
603.415	465.81
603.623	467.81
603.832	453.81
604.041	446.81
604.249	460.81
604.458	448.81
604.666	460.81
604.875	444.81
605.084	460.81
605.292	459.81
605.501	462.81
605.709	451.81
605.918	444.81
606.126	443.81
606.334	455.81
606.543	467.81
606.751	452.81
606.96	453.81
607.168	443.81
607.376	442.81
607.585	440.81
607.793	454.81
608.001	464.81
608.21	438.81
608.418	431.81
608.626	432.81
608.834	427.81
609.043	437.81
609.251	431.81
609.459	419.81
609.667	406.81
609.875	407.81
610.083	440.81
610.291	429.81
610.499	426.81
610.707	405.81
610.916	426.81
611.124	420.81
611.332	421.81
611.54	414.81
611.748	408.81
611.955	419.81
612.163	406.81
612.371	422.81
612.579	438.81
612.787	433.81
612.995	421.81
613.203	426.81
613.411	403.81
613.618	403.81
613.826	418.81
614.034	410.81
614.242	418.81
614.449	425.81
614.657	413.81
614.865	426.81
615.072	413.81
615.28	405.81
615.488	406.81
615.695	415.81
615.903	426.81
616.111	422.81
616.318	410.81
616.526	408.81
616.733	399.81
616.941	400.81
617.148	403.81
617.356	401.81
617.563	385.81
617.771	414.81
617.978	378.81
618.185	398.81
618.393	393.81
618.6	407.81
618.807	396.81
619.015	383.81
619.222	384.81
619.429	402.81
619.637	396.81
619.844	369.81
620.051	371.81
620.258	369.81
620.466	370.81
620.673	380.81
620.88	365.81
621.087	360.81
621.294	380.81
621.501	359.81
621.708	373.81
621.915	392.81
622.122	385.81
622.329	367.81
622.536	365.81
622.743	389.81
622.95	402.81
623.157	367.81
623.364	363.81
623.571	358.81
623.778	356.81
623.985	370.81
624.192	354.81
624.399	349.81
624.606	362.81
624.812	351.81
625.019	359.81
625.226	348.81
625.433	355.81
625.639	362.81
625.846	339.81
626.053	345.81
626.259	350.81
626.466	350.81
626.673	351.81
626.879	361.81
627.086	349.81
627.293	344.81
627.499	361.81
627.706	338.81
627.912	342.81
628.119	336.81
628.325	346.81
628.532	338.81
628.738	331.81
628.945	339.81
629.151	358.81
629.357	336.81
629.564	335.81
629.77	318.81
629.976	332.81
630.183	327.81
630.389	337.81
630.595	326.81
630.802	323.81
631.008	315.81
631.214	313.81
631.42	310.81
631.627	328.81
631.833	327.81
632.039	313.81
632.245	298.81
632.451	305.81
632.657	329.81
632.863	307.81
633.069	322.81
633.275	322.81
633.481	318.81
633.688	311.81
633.893	316.81
634.099	311.81
634.305	322.81
634.511	321.81
634.717	314.81
634.923	306.81
635.129	310.81
635.335	309.81
635.541	314.81
635.747	288.81
635.952	292.81
636.158	299.81
636.364	310.81
636.57	290.81
636.775	307.81
636.981	311.81
637.187	275.81
637.392	293.81
637.598	302.81
637.804	281.81
638.009	296.81
638.215	314.81
638.421	283.81
638.626	297.81
638.832	288.81
639.037	272.81
639.243	278.81
639.448	286.81
639.654	284.81
639.859	296.81
640.065	267.81
640.27	304.81
640.475	278.81
640.681	302.81
640.886	277.81
641.091	283.81
641.297	296.81
641.502	290.81
641.707	274.81
641.913	291.81
642.118	288.81
642.323	272.81
642.528	282.81
642.733	291.81
642.939	286.81
643.144	266.81
643.349	290.81
643.554	287.81
643.759	284.81
643.964	282.81
644.169	266.81
644.374	278.81
644.579	282.81
644.784	264.81
644.989	273.81
645.194	266.81
645.399	271.81
645.604	281.81
645.809	261.81
646.014	284.81
646.219	275.81
646.423	299.81
646.628	290.81
646.833	268.81
647.038	285.81
647.243	275.81
647.447	278.81
647.652	289.81
647.857	288.81
648.062	285.81
648.266	266.81
648.471	285.81
648.676	290.81
648.88	305.81
649.085	288.81
649.289	274.81
649.494	280.81
649.698	295.81
649.903	265.81
650.107	270.81
650.312	284.81
650.516	257.81
650.721	266.81
650.925	263.81
651.13	276.81
651.334	269.81
651.539	265.81
651.743	253.81
651.947	266.81
652.152	271.81
652.356	258.81
652.56	262.81
652.764	272.81
652.969	249.81
653.173	242.81
653.377	249.81
653.581	247.81
653.785	229.81
653.99	239.81
654.194	242.81
654.398	217.81
654.602	225.81
654.806	254.81
655.01	231.81
655.214	237.81
655.418	231.81
655.622	227.81
655.826	247.81
656.03	243.81
656.234	260.81
656.438	224.81
656.642	232.81
656.846	216.81
657.049	231.81
657.253	224.81
657.457	207.81
657.661	186.81
657.865	164.81
658.068	180.81
658.272	167.81
658.476	182.81
658.68	158.81
658.883	163.81
659.087	144.81
659.291	152.81
659.494	150.81
659.698	126.81
659.901	132.81
660.105	140.81
660.309	119.81
660.512	112.81
660.716	111.81
660.919	112.81
661.123	109.81
661.326	107.81
661.53	99.81
661.733	102.81
661.936	91.81
662.14	100.81
662.343	94.81
662.546	84.81
662.75	89.81
662.953	89.81
663.156	74.81
663.36	88.81
663.563	77.81
663.766	65.81
663.969	72.81
664.173	72.81
664.376	69.81
664.579	91.81
664.782	66.81
664.985	77.81
665.188	80.81
665.391	87.81
665.594	84.81
665.797	66.81
666	85.81
666.203	86.81
666.406	75.81
666.609	84.81
666.812	70.81
667.015	90.81
667.218	88.81
667.421	75.81
667.624	92.81
667.827	87.81
668.03	66.81
668.232	85.81
668.435	76.81
668.638	70.81
668.841	69.81
669.043	83.81
669.246	79.81
669.449	79.81
669.651	83.81
669.854	72.81
670.057	81.81
670.259	68.81
670.462	76.81
670.665	74.81
670.867	70.81
671.07	86.81
671.272	91.81
671.475	79.81
671.677	89.81
671.88	80.81
672.082	84.81
672.284	78.81
672.487	86.81
672.689	75.81
672.892	59.81
