Data from Ni(NO3)2@0.0625M.TitratingCurve.Agarose3%dH2O.NegLispCup.LampEnergy10.LIBS07252019_HRD10591_18-14-02-569.txt Node
Date: Thu Jul 25 18:14:02 EDT 2019
User: cochatt
Spectrometer: HR+D1059
Trigger mode: 1
Integration Time (sec): 1.000000E-1
Scans to average: 1
Electric dark correction enabled: true
Nonlinearity correction enabled: false
Boxcar width: 0
XAxis mode: Wavelengths
Number of Pixels in Spectrum: 2048
>>>>>Begin Spectral Data<<<<<
223.165	-10.06
223.4	-10.06
223.635	-10.06
223.869	-22.06
224.104	-7.06
224.338	-21.06
224.573	-22.06
224.808	-11.06
225.042	7.94
225.277	-17.06
225.511	-5.06
225.746	4.94
225.98	-6.06
226.215	22.94
226.449	27.94
226.683	6.94
226.918	13.94
227.152	36.94
227.387	23.94
227.621	35.94
227.856	38.94
228.09	47.94
228.324	51.94
228.559	60.94
228.793	76.94
229.027	95.94
229.262	118.94
229.496	107.94
229.73	115.94
229.964	121.94
230.199	129.94
230.433	134.94
230.667	129.94
230.901	121.94
231.136	133.94
231.37	143.94
231.604	140.94
231.838	127.94
232.072	137.94
232.306	142.94
232.541	155.94
232.775	148.94
233.009	149.94
233.243	147.94
233.477	159.94
233.711	162.94
233.945	151.94
234.179	147.94
234.413	131.94
234.647	139.94
234.881	139.94
235.115	143.94
235.349	149.94
235.583	157.94
235.817	154.94
236.051	161.94
236.285	158.94
236.519	134.94
236.753	161.94
236.987	146.94
237.221	162.94
237.455	157.94
237.689	156.94
237.922	151.94
238.156	149.94
238.39	162.94
238.624	172.94
238.858	169.94
239.091	169.94
239.325	186.94
239.559	175.94
239.793	184.94
240.027	163.94
240.26	172.94
240.494	156.94
240.728	168.94
240.961	165.94
241.195	170.94
241.429	178.94
241.662	163.94
241.896	179.94
242.13	184.94
242.363	182.94
242.597	181.94
242.83	184.94
243.064	191.94
243.298	181.94
243.531	185.94
243.765	201.94
243.998	200.94
244.232	195.94
244.465	204.94
244.699	190.94
244.932	199.94
245.166	200.94
245.399	203.94
245.633	212.94
245.866	213.94
246.099	210.94
246.333	197.94
246.566	223.94
246.8	194.94
247.033	230.94
247.266	212.94
247.5	226.94
247.733	226.94
247.966	218.94
248.2	231.94
248.433	221.94
248.666	233.94
248.899	234.94
249.133	210.94
249.366	246.94
249.599	250.94
249.832	242.94
250.066	222.94
250.299	234.94
250.532	249.94
250.765	234.94
250.998	249.94
251.231	255.94
251.465	268.94
251.698	257.94
251.931	261.94
252.164	237.94
252.397	265.94
252.63	268.94
252.863	265.94
253.096	273.94
253.329	262.94
253.562	247.94
253.795	257.94
254.028	275.94
254.261	247.94
254.494	262.94
254.727	271.94
254.96	266.94
255.193	246.94
255.426	268.94
255.659	271.94
255.892	276.94
256.124	280.94
256.357	253.94
256.59	271.94
256.823	278.94
257.056	278.94
257.289	291.94
257.521	289.94
257.754	276.94
257.987	293.94
258.22	287.94
258.452	289.94
258.685	291.94
258.918	276.94
259.151	275.94
259.383	280.94
259.616	302.94
259.849	281.94
260.081	298.94
260.314	293.94
260.547	304.94
260.779	298.94
261.012	303.94
261.244	303.94
261.477	315.94
261.71	306.94
261.942	319.94
262.175	293.94
262.407	307.94
262.64	321.94
262.872	303.94
263.105	300.94
263.337	306.94
263.57	328.94
263.802	338.94
264.035	318.94
264.267	320.94
264.499	337.94
264.732	334.94
264.964	342.94
265.197	331.94
265.429	317.94
265.661	329.94
265.894	330.94
266.126	311.94
266.358	346.94
266.591	346.94
266.823	328.94
267.055	359.94
267.287	328.94
267.52	348.94
267.752	335.94
267.984	349.94
268.216	347.94
268.448	344.94
268.681	358.94
268.913	352.94
269.145	335.94
269.377	340.94
269.609	327.94
269.841	340.94
270.073	350.94
270.306	351.94
270.538	347.94
270.77	375.94
271.002	362.94
271.234	360.94
271.466	350.94
271.698	362.94
271.93	374.94
272.162	387.94
272.394	388.94
272.626	370.94
272.858	374.94
273.09	383.94
273.322	370.94
273.553	383.94
273.785	377.94
274.017	381.94
274.249	388.94
274.481	392.94
274.713	384.94
274.945	373.94
275.176	374.94
275.408	386.94
275.64	398.94
275.872	422.94
276.104	395.94
276.335	398.94
276.567	410.94
276.799	422.94
277.031	391.94
277.262	398.94
277.494	414.94
277.726	412.94
277.957	402.94
278.189	408.94
278.421	381.94
278.652	414.94
278.884	416.94
279.115	411.94
279.347	420.94
279.579	415.94
279.81	423.94
280.042	412.94
280.273	424.94
280.505	430.94
280.736	432.94
280.968	417.94
281.199	443.94
281.431	425.94
281.662	430.94
281.894	442.94
282.125	431.94
282.356	433.94
282.588	433.94
282.819	454.94
283.051	449.94
283.282	460.94
283.513	472.94
283.745	475.94
283.976	459.94
284.207	437.94
284.439	438.94
284.67	465.94
284.901	476.94
285.132	467.94
285.364	468.94
285.595	470.94
285.826	476.94
286.057	467.94
286.288	481.94
286.52	489.94
286.751	491.94
286.982	478.94
287.213	489.94
287.444	493.94
287.675	466.94
287.906	463.94
288.138	480.94
288.369	478.94
288.6	474.94
288.831	488.94
289.062	464.94
289.293	482.94
289.524	494.94
289.755	499.94
289.986	503.94
290.217	508.94
290.448	507.94
290.679	482.94
290.91	499.94
291.141	496.94
291.371	479.94
291.602	514.94
291.833	500.94
292.064	472.94
292.295	514.94
292.526	510.94
292.757	482.94
292.987	488.94
293.218	498.94
293.449	504.94
293.68	531.94
293.91	492.94
294.141	499.94
294.372	521.94
294.603	509.94
294.833	526.94
295.064	502.94
295.295	514.94
295.525	494.94
295.756	505.94
295.987	524.94
296.217	523.94
296.448	523.94
296.679	516.94
296.909	540.94
297.14	546.94
297.37	533.94
297.601	526.94
297.831	545.94
298.062	538.94
298.292	547.94
298.523	575.94
298.753	559.94
298.984	553.94
299.214	546.94
299.445	546.94
299.675	557.94
299.905	571.94
300.136	547.94
300.366	549.94
300.597	557.94
300.827	579.94
301.057	601.94
301.288	587.94
301.518	578.94
301.748	584.94
301.979	576.94
302.209	572.94
302.439	575.94
302.669	568.94
302.9	605.94
303.13	589.94
303.36	579.94
303.59	570.94
303.82	573.94
304.051	585.94
304.281	571.94
304.511	546.94
304.741	566.94
304.971	592.94
305.201	554.94
305.431	572.94
305.661	578.94
305.891	555.94
306.121	545.94
306.352	547.94
306.582	553.94
306.812	578.94
307.042	577.94
307.272	581.94
307.502	552.94
307.731	579.94
307.961	574.94
308.191	547.94
308.421	558.94
308.651	544.94
308.881	551.94
309.111	583.94
309.341	557.94
309.571	579.94
309.8	559.94
310.03	553.94
310.26	573.94
310.49	587.94
310.72	587.94
310.949	568.94
311.179	579.94
311.409	570.94
311.639	571.94
311.868	596.94
312.098	583.94
312.328	565.94
312.557	597.94
312.787	595.94
313.017	611.94
313.246	591.94
313.476	601.94
313.706	605.94
313.935	606.94
314.165	639.94
314.394	601.94
314.624	584.94
314.853	605.94
315.083	595.94
315.312	623.94
315.542	612.94
315.771	583.94
316.001	613.94
316.23	604.94
316.46	581.94
316.689	603.94
316.919	599.94
317.148	582.94
317.377	618.94
317.607	594.94
317.836	599.94
318.065	623.94
318.295	588.94
318.524	611.94
318.753	603.94
318.983	616.94
319.212	617.94
319.441	584.94
319.67	586.94
319.9	585.94
320.129	586.94
320.358	602.94
320.587	609.94
320.816	600.94
321.046	605.94
321.275	599.94
321.504	599.94
321.733	626.94
321.962	581.94
322.191	635.94
322.42	626.94
322.649	606.94
322.878	606.94
323.108	605.94
323.337	604.94
323.566	607.94
323.795	632.94
324.024	610.94
324.253	629.94
324.482	636.94
324.71	634.94
324.939	628.94
325.168	641.94
325.397	640.94
325.626	650.94
325.855	645.94
326.084	668.94
326.313	646.94
326.542	672.94
326.77	675.94
326.999	649.94
327.228	649.94
327.457	673.94
327.686	674.94
327.914	662.94
328.143	685.94
328.372	666.94
328.6	689.94
328.829	660.94
329.058	672.94
329.287	681.94
329.515	683.94
329.744	680.94
329.972	685.94
330.201	690.94
330.43	656.94
330.658	690.94
330.887	685.94
331.115	686.94
331.344	696.94
331.572	707.94
331.801	730.94
332.03	731.94
332.258	766.94
332.486	786.94
332.715	788.94
332.943	831.94
333.172	883.94
333.4	897.94
333.629	933.94
333.857	904.94
334.085	899.94
334.314	897.94
334.542	872.94
334.771	881.94
334.999	846.94
335.227	850.94
335.455	823.94
335.684	855.94
335.912	844.94
336.14	824.94
336.369	811.94
336.597	777.94
336.825	811.94
337.053	796.94
337.281	777.94
337.51	776.94
337.738	735.94
337.966	747.94
338.194	748.94
338.422	757.94
338.65	715.94
338.878	733.94
339.106	716.94
339.334	733.94
339.562	715.94
339.79	708.94
340.018	712.94
340.246	697.94
340.474	715.94
340.702	683.94
340.93	710.94
341.158	715.94
341.386	701.94
341.614	722.94
341.842	707.94
342.07	693.94
342.298	697.94
342.526	670.94
342.754	685.94
342.981	700.94
343.209	693.94
343.437	737.94
343.665	787.94
343.893	843.94
344.12	897.94
344.348	821.94
344.576	789.94
344.804	749.94
345.031	741.94
345.259	717.94
345.487	701.94
345.714	686.94
345.942	692.94
346.17	662.94
346.397	671.94
346.625	644.94
346.853	690.94
347.08	669.94
347.308	669.94
347.535	686.94
347.763	686.94
347.99	675.94
348.218	691.94
348.445	687.94
348.673	665.94
348.9	684.94
349.128	675.94
349.355	678.94
349.583	666.94
349.81	659.94
350.037	664.94
350.265	641.94
350.492	670.94
350.72	647.94
350.947	643.94
351.174	670.94
351.402	630.94
351.629	682.94
351.856	674.94
352.083	642.94
352.311	653.94
352.538	651.94
352.765	645.94
352.992	634.94
353.22	638.94
353.447	648.94
353.674	645.94
353.901	652.94
354.128	665.94
354.355	653.94
354.583	642.94
354.81	653.94
355.037	657.94
355.264	650.94
355.491	627.94
355.718	651.94
355.945	677.94
356.172	634.94
356.399	669.94
356.626	672.94
356.853	662.94
357.08	666.94
357.307	659.94
357.534	633.94
357.761	649.94
357.988	667.94
358.215	675.94
358.441	649.94
358.668	653.94
358.895	663.94
359.122	660.94
359.349	658.94
359.576	651.94
359.802	643.94
360.029	649.94
360.256	654.94
360.483	651.94
360.709	659.94
360.936	645.94
361.163	677.94
361.39	651.94
361.616	653.94
361.843	650.94
362.07	641.94
362.296	655.94
362.523	636.94
362.749	654.94
362.976	663.94
363.203	659.94
363.429	638.94
363.656	666.94
363.882	646.94
364.109	675.94
364.335	645.94
364.562	643.94
364.788	655.94
365.015	666.94
365.241	638.94
365.468	643.94
365.694	670.94
365.92	660.94
366.147	607.94
366.373	648.94
366.599	635.94
366.826	651.94
367.052	658.94
367.278	645.94
367.505	663.94
367.731	665.94
367.957	651.94
368.184	669.94
368.41	669.94
368.636	651.94
368.862	677.94
369.089	663.94
369.315	681.94
369.541	695.94
369.767	706.94
369.993	693.94
370.219	686.94
370.445	683.94
370.672	686.94
370.898	705.94
371.124	714.94
371.35	710.94
371.576	682.94
371.802	722.94
372.028	717.94
372.254	697.94
372.48	729.94
372.706	733.94
372.932	739.94
373.158	769.94
373.384	713.94
373.61	699.94
373.835	733.94
374.061	708.94
374.287	724.94
374.513	734.94
374.739	751.94
374.965	798.94
375.191	786.94
375.416	822.94
375.642	762.94
375.868	761.94
376.094	725.94
376.319	731.94
376.545	761.94
376.771	725.94
376.997	719.94
377.222	730.94
377.448	723.94
377.674	694.94
377.899	675.94
378.125	726.94
378.35	723.94
378.576	706.94
378.802	706.94
379.027	699.94
379.253	725.94
379.478	678.94
379.704	703.94
379.929	710.94
380.155	706.94
380.38	720.94
380.606	712.94
380.831	702.94
381.057	729.94
381.282	697.94
381.507	716.94
381.733	721.94
381.958	754.94
382.184	728.94
382.409	756.94
382.634	773.94
382.86	753.94
383.085	772.94
383.31	778.94
383.535	796.94
383.761	812.94
383.986	830.94
384.211	841.94
384.436	834.94
384.662	856.94
384.887	853.94
385.112	856.94
385.337	869.94
385.562	870.94
385.787	877.94
386.013	903.94
386.238	904.94
386.463	862.94
386.688	874.94
386.913	835.94
387.138	835.94
387.363	852.94
387.588	858.94
387.813	841.94
388.038	859.94
388.263	856.94
388.488	866.94
388.713	860.94
388.938	833.94
389.163	831.94
389.387	861.94
389.612	854.94
389.837	830.94
390.062	829.94
390.287	845.94
390.512	829.94
390.736	868.94
390.961	874.94
391.186	878.94
391.411	921.94
391.636	942.94
391.86	956.94
392.085	993.94
392.31	984.94
392.534	936.94
392.759	919.94
392.984	937.94
393.208	925.94
393.433	897.94
393.658	902.94
393.882	896.94
394.107	912.94
394.331	912.94
394.556	948.94
394.78	943.94
395.005	920.94
395.229	938.94
395.454	966.94
395.678	982.94
395.903	981.94
396.127	953.94
396.352	901.94
396.576	923.94
396.801	913.94
397.025	934.94
397.249	910.94
397.474	950.94
397.698	954.94
397.922	983.94
398.147	977.94
398.371	995.94
398.595	1026.94
398.82	1065.94
399.044	1130.94
399.268	1301.94
399.492	1541.94
399.717	1721.94
399.941	1640.94
400.165	1445.94
400.389	1294.94
400.613	1219.94
400.837	1114.94
401.062	1087.94
401.286	1094.94
401.51	1087.94
401.734	1080.94
401.958	1098.94
402.182	1093.94
402.406	1093.94
402.63	1119.94
402.854	1179.94
403.078	1182.94
403.302	1188.94
403.526	1228.94
403.75	1253.94
403.974	1284.94
404.198	1299.94
404.422	1274.94
404.645	1265.94
404.869	1237.94
405.093	1233.94
405.317	1192.94
405.541	1199.94
405.765	1180.94
405.988	1197.94
406.212	1169.94
406.436	1203.94
406.66	1218.94
406.883	1204.94
407.107	1311.94
407.331	1335.94
407.555	1420.94
407.778	1356.94
408.002	1402.94
408.226	1333.94
408.449	1270.94
408.673	1215.94
408.896	1209.94
409.12	1185.94
409.344	1208.94
409.567	1228.94
409.791	1239.94
410.014	1224.94
410.238	1236.94
410.461	1207.94
410.685	1204.94
410.908	1171.94
411.132	1160.94
411.355	1115.94
411.578	1122.94
411.802	1113.94
412.025	1148.94
412.249	1181.94
412.472	1132.94
412.695	1109.94
412.919	1053.94
413.142	1063.94
413.365	1051.94
413.589	1089.94
413.812	1068.94
414.035	1083.94
414.258	1082.94
414.482	1081.94
414.705	1122.94
414.928	1110.94
415.151	1051.94
415.374	1082.94
415.597	1089.94
415.821	1085.94
416.044	1065.94
416.267	1052.94
416.49	1055.94
416.713	1032.94
416.936	1062.94
417.159	1045.94
417.382	1042.94
417.605	1071.94
417.828	1042.94
418.051	1084.94
418.274	1070.94
418.497	1107.94
418.72	1109.94
418.943	1079.94
419.166	1159.94
419.389	1226.94
419.611	1207.94
419.834	1145.94
420.057	1127.94
420.28	1109.94
420.503	1047.94
420.726	1031.94
420.948	1049.94
421.171	1043.94
421.394	1061.94
421.617	1052.94
421.839	1085.94
422.062	1053.94
422.285	1053.94
422.507	1121.94
422.73	1099.94
422.953	1113.94
423.175	1130.94
423.398	1147.94
423.621	1142.94
423.843	1119.94
424.066	1145.94
424.288	1130.94
424.511	1106.94
424.733	1104.94
424.956	1071.94
425.178	1085.94
425.401	1065.94
425.623	1039.94
425.846	1017.94
426.068	1026.94
426.291	1031.94
426.513	1039.94
426.735	985.94
426.958	987.94
427.18	963.94
427.402	975.94
427.625	971.94
427.847	974.94
428.069	947.94
428.292	941.94
428.514	934.94
428.736	943.94
428.958	933.94
429.181	922.94
429.403	949.94
429.625	917.94
429.847	926.94
430.069	910.94
430.292	911.94
430.514	900.94
430.736	906.94
430.958	904.94
431.18	917.94
431.402	926.94
431.624	891.94
431.846	953.94
432.068	972.94
432.29	954.94
432.512	950.94
432.734	912.94
432.956	919.94
433.178	970.94
433.4	953.94
433.622	964.94
433.844	945.94
434.066	985.94
434.287	946.94
434.509	1025.94
434.731	1017.94
434.953	1064.94
435.175	1060.94
435.397	1051.94
435.618	997.94
435.84	975.94
436.062	958.94
436.284	948.94
436.505	928.94
436.727	930.94
436.949	905.94
437.17	940.94
437.392	918.94
437.614	907.94
437.835	893.94
438.057	884.94
438.278	892.94
438.5	900.94
438.721	920.94
438.943	880.94
439.165	913.94
439.386	927.94
439.608	946.94
439.829	921.94
440.05	939.94
440.272	933.94
440.493	950.94
440.715	946.94
440.936	972.94
441.158	1023.94
441.379	999.94
441.6	1056.94
441.822	1087.94
442.043	1072.94
442.264	1049.94
442.486	1009.94
442.707	1049.94
442.928	1050.94
443.149	1060.94
443.371	1051.94
443.592	1031.94
443.813	1053.94
444.034	1085.94
444.255	1142.94
444.476	1145.94
444.698	1231.94
444.919	1273.94
445.14	1314.94
445.361	1187.94
445.582	1113.94
445.803	1033.94
446.024	993.94
446.245	985.94
446.466	956.94
446.687	943.94
446.908	942.94
447.129	918.94
447.35	929.94
447.571	903.94
447.792	852.94
448.013	911.94
448.234	851.94
448.455	881.94
448.675	841.94
448.896	854.94
449.117	873.94
449.338	843.94
449.559	832.94
449.779	850.94
450	829.94
450.221	859.94
450.442	853.94
450.662	863.94
450.883	867.94
451.104	893.94
451.324	865.94
451.545	904.94
451.766	882.94
451.986	883.94
452.207	857.94
452.428	879.94
452.648	869.94
452.869	841.94
453.089	839.94
453.31	852.94
453.53	829.94
453.751	825.94
453.971	826.94
454.192	813.94
454.412	803.94
454.633	801.94
454.853	824.94
455.073	848.94
455.294	839.94
455.514	806.94
455.734	803.94
455.955	788.94
456.175	804.94
456.395	815.94
456.616	786.94
456.836	791.94
457.056	803.94
457.276	796.94
457.497	822.94
457.717	793.94
457.937	812.94
458.157	813.94
458.377	818.94
458.598	831.94
458.818	835.94
459.038	889.94
459.258	903.94
459.478	946.94
459.698	955.94
459.918	1003.94
460.138	1030.94
460.358	1099.94
460.578	1104.94
460.798	1121.94
461.018	1122.94
461.238	1100.94
461.458	1109.94
461.678	1113.94
461.898	1089.94
462.118	1096.94
462.338	1195.94
462.558	1188.94
462.777	1283.94
462.997	1359.94
463.217	1491.94
463.437	1509.94
463.657	1346.94
463.876	1324.94
464.096	1319.94
464.316	1311.94
464.536	1333.94
464.755	1253.94
464.975	1182.94
465.195	1145.94
465.414	1077.94
465.634	1015.94
465.854	990.94
466.073	957.94
466.293	954.94
466.512	914.94
466.732	901.94
466.951	915.94
467.171	912.94
467.391	910.94
467.61	904.94
467.829	909.94
468.049	886.94
468.268	847.94
468.488	861.94
468.707	852.94
468.927	855.94
469.146	859.94
469.365	904.94
469.585	893.94
469.804	895.94
470.023	914.94
470.243	937.94
470.462	927.94
470.681	950.94
470.901	959.94
471.12	911.94
471.339	883.94
471.558	877.94
471.777	870.94
471.997	852.94
472.216	823.94
472.435	849.94
472.654	845.94
472.873	836.94
473.092	838.94
473.311	837.94
473.53	818.94
473.749	833.94
473.968	835.94
474.187	833.94
474.406	823.94
474.625	821.94
474.844	840.94
475.063	831.94
475.282	847.94
475.501	861.94
475.72	867.94
475.939	846.94
476.158	854.94
476.377	867.94
476.596	873.94
476.814	885.94
477.033	894.94
477.252	892.94
477.471	889.94
477.69	919.94
477.908	949.94
478.127	973.94
478.346	979.94
478.564	1015.94
478.783	1030.94
479.002	1071.94
479.22	1073.94
479.439	1058.94
479.658	1023.94
479.876	1067.94
480.095	1018.94
480.313	1109.94
480.532	1166.94
480.751	1147.94
480.969	1075.94
481.188	1048.94
481.406	1015.94
481.624	1033.94
481.843	974.94
482.061	943.94
482.28	930.94
482.498	970.94
482.717	957.94
482.935	982.94
483.153	987.94
483.372	945.94
483.59	925.94
483.808	959.94
484.027	975.94
484.245	981.94
484.463	966.94
484.681	996.94
484.9	972.94
485.118	995.94
485.336	982.94
485.554	1018.94
485.772	996.94
485.99	995.94
486.209	1029.94
486.427	1011.94
486.645	987.94
486.863	1005.94
487.081	1004.94
487.299	969.94
487.517	1020.94
487.735	991.94
487.953	995.94
488.171	987.94
488.389	992.94
488.607	968.94
488.825	986.94
489.043	982.94
489.261	1004.94
489.479	984.94
489.696	998.94
489.914	994.94
490.132	1010.94
490.35	1004.94
490.568	1036.94
490.786	1003.94
491.003	987.94
491.221	999.94
491.439	1007.94
491.657	1001.94
491.874	995.94
492.092	1020.94
492.31	1002.94
492.527	1013.94
492.745	1019.94
492.963	1002.94
493.18	1014.94
493.398	1038.94
493.615	1044.94
493.833	1083.94
494.05	1059.94
494.268	1023.94
494.485	1056.94
494.703	1049.94
494.92	1055.94
495.138	1058.94
495.355	1057.94
495.573	1051.94
495.79	1072.94
496.008	1067.94
496.225	1071.94
496.442	1068.94
496.66	1085.94
496.877	1127.94
497.094	1144.94
497.312	1128.94
497.529	1193.94
497.746	1195.94
497.963	1226.94
498.181	1297.94
498.398	1361.94
498.615	1444.94
498.832	1544.94
499.049	1650.94
499.267	1787.94
499.484	2013.94
499.701	2196.94
499.918	2410.94
500.135	2760.94
500.352	3203.94
500.569	3359.94
500.786	3291.94
501.003	3042.94
501.22	2656.94
501.437	2317.94
501.654	2035.94
501.871	1845.94
502.088	1746.94
502.305	1616.94
502.522	1524.94
502.739	1475.94
502.956	1380.94
503.172	1325.94
503.389	1301.94
503.606	1240.94
503.823	1183.94
504.04	1222.94
504.256	1224.94
504.473	1262.94
504.69	1302.94
504.907	1273.94
505.123	1127.94
505.34	1081.94
505.557	1052.94
505.773	1003.94
505.99	1013.94
506.207	972.94
506.423	970.94
506.64	972.94
506.856	950.94
507.073	931.94
507.289	935.94
507.506	943.94
507.722	943.94
507.939	930.94
508.155	878.94
508.372	935.94
508.588	897.94
508.805	908.94
509.021	886.94
509.238	906.94
509.454	865.94
509.67	848.94
509.887	880.94
510.103	862.94
510.319	858.94
510.536	837.94
510.752	857.94
510.968	841.94
511.184	854.94
511.401	845.94
511.617	865.94
511.833	862.94
512.049	840.94
512.265	852.94
512.481	846.94
512.698	850.94
512.914	873.94
513.13	867.94
513.346	839.94
513.562	853.94
513.778	848.94
513.994	854.94
514.21	839.94
514.426	866.94
514.642	856.94
514.858	857.94
515.074	874.94
515.29	877.94
515.506	878.94
515.721	921.94
515.937	913.94
516.153	946.94
516.369	970.94
516.585	987.94
516.801	993.94
517.016	1051.94
517.232	1110.94
517.448	1182.94
517.664	1206.94
517.879	1214.94
518.095	1210.94
518.311	1160.94
518.527	1125.94
518.742	1091.94
518.958	1050.94
519.173	998.94
519.389	969.94
519.605	946.94
519.82	942.94
520.036	899.94
520.251	857.94
520.467	854.94
520.682	850.94
520.898	833.94
521.113	857.94
521.329	819.94
521.544	837.94
521.76	826.94
521.975	812.94
522.19	811.94
522.406	815.94
522.621	820.94
522.836	792.94
523.052	790.94
523.267	809.94
523.482	802.94
523.698	807.94
523.913	797.94
524.128	772.94
524.343	772.94
524.559	789.94
524.774	789.94
524.989	761.94
525.204	773.94
525.419	767.94
525.634	781.94
525.849	801.94
526.064	765.94
526.28	773.94
526.495	757.94
526.71	751.94
526.925	763.94
527.14	738.94
527.355	750.94
527.57	780.94
527.785	748.94
527.999	758.94
528.214	796.94
528.429	763.94
528.644	779.94
528.859	776.94
529.074	757.94
529.289	735.94
529.503	765.94
529.718	773.94
529.933	755.94
530.148	742.94
530.363	757.94
530.577	760.94
530.792	790.94
531.007	748.94
531.221	790.94
531.436	761.94
531.651	771.94
531.865	784.94
532.08	755.94
532.295	748.94
532.509	778.94
532.724	758.94
532.938	767.94
533.153	783.94
533.367	778.94
533.582	781.94
533.796	785.94
534.011	749.94
534.225	765.94
534.44	753.94
534.654	767.94
534.868	767.94
535.083	739.94
535.297	741.94
535.511	730.94
535.726	719.94
535.94	719.94
536.154	727.94
536.369	715.94
536.583	724.94
536.797	730.94
537.011	720.94
537.225	701.94
537.44	714.94
537.654	732.94
537.868	701.94
538.082	673.94
538.296	708.94
538.51	711.94
538.724	707.94
538.938	706.94
539.153	697.94
539.367	708.94
539.581	708.94
539.795	689.94
540.009	677.94
540.222	665.94
540.436	689.94
540.65	687.94
540.864	681.94
541.078	694.94
541.292	693.94
541.506	669.94
541.72	695.94
541.934	702.94
542.147	692.94
542.361	678.94
542.575	667.94
542.789	641.94
543.002	681.94
543.216	667.94
543.43	679.94
543.644	691.94
543.857	659.94
544.071	674.94
544.285	682.94
544.498	646.94
544.712	708.94
544.925	690.94
545.139	687.94
545.352	721.94
545.566	683.94
545.779	724.94
545.993	689.94
546.206	706.94
546.42	683.94
546.633	712.94
546.847	693.94
547.06	708.94
547.274	659.94
547.487	689.94
547.7	708.94
547.914	710.94
548.127	718.94
548.34	721.94
548.554	699.94
548.767	727.94
548.98	713.94
549.193	701.94
549.407	734.94
549.62	726.94
549.833	720.94
550.046	717.94
550.259	733.94
550.473	695.94
550.686	698.94
550.899	692.94
551.112	691.94
551.325	661.94
551.538	690.94
551.751	674.94
551.964	668.94
552.177	688.94
552.39	695.94
552.603	716.94
552.816	739.94
553.029	759.94
553.242	773.94
553.455	786.94
553.667	792.94
553.88	782.94
554.093	749.94
554.306	722.94
554.519	701.94
554.732	689.94
554.944	684.94
555.157	661.94
555.37	683.94
555.583	643.94
555.795	654.94
556.008	627.94
556.221	627.94
556.433	622.94
556.646	613.94
556.859	590.94
557.071	612.94
557.284	589.94
557.496	605.94
557.709	588.94
557.921	603.94
558.134	614.94
558.346	591.94
558.559	574.94
558.771	590.94
558.984	604.94
559.196	578.94
559.409	582.94
559.621	571.94
559.833	586.94
560.046	561.94
560.258	569.94
560.47	595.94
560.683	566.94
560.895	573.94
561.107	571.94
561.32	582.94
561.532	560.94
561.744	585.94
561.956	576.94
562.168	605.94
562.381	591.94
562.593	578.94
562.805	584.94
563.017	590.94
563.229	590.94
563.441	588.94
563.653	602.94
563.865	585.94
564.077	581.94
564.289	596.94
564.501	616.94
564.713	618.94
564.925	631.94
565.137	642.94
565.349	646.94
565.561	658.94
565.773	690.94
565.985	702.94
566.197	773.94
566.408	797.94
566.62	905.94
566.832	942.94
567.044	1010.94
567.255	966.94
567.467	998.94
567.679	1072.94
567.891	1173.94
568.102	1207.94
568.314	1117.94
568.526	971.94
568.737	909.94
568.949	841.94
569.161	754.94
569.372	705.94
569.584	657.94
569.795	638.94
570.007	625.94
570.218	618.94
570.43	608.94
570.641	590.94
570.853	601.94
571.064	605.94
571.276	610.94
571.487	587.94
571.698	573.94
571.91	553.94
572.121	546.94
572.333	536.94
572.544	511.94
572.755	509.94
572.966	499.94
573.178	497.94
573.389	498.94
573.6	481.94
573.811	477.94
574.023	496.94
574.234	492.94
574.445	482.94
574.656	491.94
574.867	495.94
575.078	468.94
575.289	485.94
575.501	450.94
575.712	454.94
575.923	456.94
576.134	466.94
576.345	449.94
576.556	437.94
576.767	440.94
576.978	446.94
577.188	449.94
577.399	452.94
577.61	457.94
577.821	436.94
578.032	421.94
578.243	442.94
578.454	421.94
578.665	441.94
578.875	424.94
579.086	435.94
579.297	405.94
579.508	408.94
579.718	418.94
579.929	419.94
580.14	423.94
580.35	415.94
580.561	423.94
580.772	413.94
580.982	409.94
581.193	409.94
581.403	409.94
581.614	399.94
581.825	399.94
582.035	397.94
582.246	407.94
582.456	396.94
582.667	405.94
582.877	404.94
583.087	405.94
583.298	404.94
583.508	394.94
583.719	395.94
583.929	398.94
584.139	392.94
584.35	404.94
584.56	407.94
584.77	391.94
584.981	388.94
585.191	389.94
585.401	405.94
585.611	391.94
585.821	377.94
586.032	391.94
586.242	382.94
586.452	387.94
586.662	386.94
586.872	402.94
587.082	395.94
587.292	389.94
587.502	381.94
587.713	374.94
587.923	381.94
588.133	388.94
588.343	379.94
588.553	375.94
588.762	380.94
588.972	388.94
589.182	401.94
589.392	368.94
589.602	373.94
589.812	377.94
590.022	391.94
590.232	394.94
590.441	400.94
590.651	383.94
590.861	389.94
591.071	401.94
591.281	395.94
591.49	398.94
591.7	400.94
591.91	413.94
592.119	414.94
592.329	423.94
592.539	441.94
592.748	454.94
592.958	460.94
593.167	474.94
593.377	484.94
593.587	518.94
593.796	519.94
594.006	537.94
594.215	521.94
594.424	530.94
594.634	484.94
594.843	483.94
595.053	446.94
595.262	411.94
595.472	427.94
595.681	405.94
595.89	417.94
596.1	384.94
596.309	379.94
596.518	371.94
596.727	360.94
596.937	371.94
597.146	361.94
597.355	363.94
597.564	364.94
597.774	348.94
597.983	334.94
598.192	340.94
598.401	331.94
598.61	349.94
598.819	342.94
599.028	350.94
599.237	330.94
599.446	318.94
599.655	328.94
599.864	349.94
600.073	339.94
600.282	329.94
600.491	319.94
600.7	347.94
600.909	329.94
601.118	327.94
601.327	321.94
601.536	330.94
601.745	313.94
601.953	323.94
602.162	332.94
602.371	333.94
602.58	334.94
602.789	329.94
602.997	311.94
603.206	313.94
603.415	310.94
603.623	306.94
603.832	313.94
604.041	318.94
604.249	321.94
604.458	305.94
604.666	330.94
604.875	326.94
605.084	293.94
605.292	312.94
605.501	327.94
605.709	306.94
605.918	299.94
606.126	314.94
606.334	314.94
606.543	295.94
606.751	289.94
606.96	283.94
607.168	282.94
607.376	292.94
607.585	298.94
607.793	307.94
608.001	295.94
608.21	291.94
608.418	294.94
608.626	294.94
608.834	292.94
609.043	278.94
609.251	282.94
609.459	289.94
609.667	285.94
609.875	297.94
610.083	289.94
610.291	282.94
610.499	305.94
610.707	293.94
610.916	280.94
611.124	286.94
611.332	288.94
611.54	294.94
611.748	282.94
611.955	277.94
612.163	271.94
612.371	281.94
612.579	291.94
612.787	265.94
612.995	297.94
613.203	278.94
613.411	276.94
613.618	266.94
613.826	282.94
614.034	281.94
614.242	288.94
614.449	274.94
614.657	279.94
614.865	266.94
615.072	283.94
615.28	290.94
615.488	280.94
615.695	276.94
615.903	287.94
616.111	284.94
616.318	289.94
616.526	290.94
616.733	293.94
616.941	288.94
617.148	288.94
617.356	289.94
617.563	285.94
617.771	283.94
617.978	297.94
618.185	288.94
618.393	289.94
618.6	274.94
618.807	286.94
619.015	290.94
619.222	273.94
619.429	282.94
619.637	283.94
619.844	253.94
620.051	261.94
620.258	271.94
620.466	261.94
620.673	241.94
620.88	257.94
621.087	263.94
621.294	272.94
621.501	259.94
621.708	259.94
621.915	257.94
622.122	257.94
622.329	254.94
622.536	284.94
622.743	262.94
622.95	267.94
623.157	255.94
623.364	256.94
623.571	245.94
623.778	257.94
623.985	261.94
624.192	249.94
624.399	245.94
624.606	248.94
624.812	241.94
625.019	242.94
625.226	258.94
625.433	259.94
625.639	245.94
625.846	233.94
626.053	242.94
626.259	253.94
626.466	239.94
626.673	247.94
626.879	234.94
627.086	245.94
627.293	245.94
627.499	249.94
627.706	234.94
627.912	236.94
628.119	238.94
628.325	243.94
628.532	238.94
628.738	229.94
628.945	234.94
629.151	226.94
629.357	229.94
629.564	236.94
629.77	221.94
629.976	217.94
630.183	216.94
630.389	229.94
630.595	227.94
630.802	225.94
631.008	215.94
631.214	201.94
631.42	218.94
631.627	212.94
631.833	207.94
632.039	218.94
632.245	208.94
632.451	217.94
632.657	205.94
632.863	219.94
633.069	218.94
633.275	228.94
633.481	222.94
633.688	208.94
633.893	226.94
634.099	218.94
634.305	202.94
634.511	218.94
634.717	210.94
634.923	213.94
635.129	215.94
635.335	203.94
635.541	212.94
635.747	218.94
635.952	220.94
636.158	220.94
636.364	203.94
636.57	218.94
636.775	202.94
636.981	210.94
637.187	189.94
637.392	213.94
637.598	217.94
637.804	223.94
638.009	202.94
638.215	202.94
638.421	198.94
638.626	207.94
638.832	187.94
639.037	200.94
639.243	206.94
639.448	214.94
639.654	204.94
639.859	203.94
640.065	210.94
640.27	202.94
640.475	209.94
640.681	198.94
640.886	186.94
641.091	200.94
641.297	200.94
641.502	193.94
641.707	186.94
641.913	199.94
642.118	181.94
642.323	195.94
642.528	197.94
642.733	173.94
642.939	185.94
643.144	194.94
643.349	198.94
643.554	197.94
643.759	198.94
643.964	172.94
644.169	181.94
644.374	174.94
644.579	185.94
644.784	197.94
644.989	194.94
645.194	173.94
645.399	177.94
645.604	185.94
645.809	181.94
646.014	202.94
646.219	194.94
646.423	191.94
646.628	190.94
646.833	195.94
647.038	183.94
647.243	187.94
647.447	191.94
647.652	207.94
647.857	190.94
648.062	204.94
648.266	189.94
648.471	216.94
648.676	208.94
648.88	198.94
649.085	187.94
649.289	196.94
649.494	180.94
649.698	171.94
649.903	191.94
650.107	187.94
650.312	201.94
650.516	198.94
650.721	183.94
650.925	173.94
651.13	177.94
651.334	187.94
651.539	184.94
651.743	161.94
651.947	172.94
652.152	162.94
652.356	184.94
652.56	169.94
652.764	173.94
652.969	165.94
653.173	158.94
653.377	156.94
653.581	145.94
653.785	149.94
653.99	145.94
654.194	155.94
654.398	138.94
654.602	144.94
654.806	129.94
655.01	144.94
655.214	157.94
655.418	132.94
655.622	149.94
655.826	142.94
656.03	153.94
656.234	153.94
656.438	150.94
656.642	140.94
656.846	162.94
657.049	139.94
657.253	147.94
657.457	137.94
657.661	132.94
657.865	134.94
658.068	116.94
658.272	114.94
658.476	108.94
658.68	125.94
658.883	108.94
659.087	109.94
659.291	107.94
659.494	122.94
659.698	95.94
659.901	108.94
660.105	115.94
660.309	95.94
660.512	89.94
660.716	101.94
660.919	95.94
661.123	102.94
661.326	100.94
661.53	90.94
661.733	92.94
661.936	98.94
662.14	95.94
662.343	92.94
662.546	93.94
662.75	97.94
662.953	91.94
663.156	78.94
663.36	92.94
663.563	69.94
663.766	91.94
663.969	88.94
664.173	95.94
664.376	84.94
664.579	77.94
664.782	81.94
664.985	97.94
665.188	98.94
665.391	90.94
665.594	71.94
665.797	80.94
666	79.94
666.203	83.94
666.406	96.94
666.609	93.94
666.812	93.94
667.015	81.94
667.218	82.94
667.421	69.94
667.624	78.94
667.827	89.94
668.03	73.94
668.232	73.94
668.435	83.94
668.638	83.94
668.841	85.94
669.043	85.94
669.246	84.94
669.449	75.94
669.651	77.94
669.854	85.94
670.057	92.94
670.259	74.94
670.462	87.94
670.665	80.94
670.867	91.94
671.07	90.94
671.272	84.94
671.475	84.94
671.677	77.94
671.88	74.94
672.082	73.94
672.284	89.94
672.487	79.94
672.689	77.94
672.892	79.94
