Data from Ni(NO3)2@0.125M.TitratingCurve.Agarose3%dH2O.NegLispCup.LampEnergy10.LIBS07252019_HRD10591_18-10-51-569.txt Node
Date: Thu Jul 25 18:10:51 EDT 2019
User: cochatt
Spectrometer: HR+D1059
Trigger mode: 1
Integration Time (sec): 1.000000E-1
Scans to average: 1
Electric dark correction enabled: true
Nonlinearity correction enabled: false
Boxcar width: 0
XAxis mode: Wavelengths
Number of Pixels in Spectrum: 2048
>>>>>Begin Spectral Data<<<<<
223.165	-11.25
223.4	-11.25
223.635	-11.25
223.869	-11.25
224.104	-14.25
224.338	-15.25
224.573	-10.25
224.808	-24.25
225.042	-16.25
225.277	-5.25
225.511	-4.25
225.746	4.75
225.98	10.75
226.215	10.75
226.449	11.75
226.683	18.75
226.918	27.75
227.152	27.75
227.387	24.75
227.621	33.75
227.856	34.75
228.09	51.75
228.324	52.75
228.559	57.75
228.793	66.75
229.027	101.75
229.262	118.75
229.496	123.75
229.73	128.75
229.964	137.75
230.199	151.75
230.433	150.75
230.667	140.75
230.901	147.75
231.136	139.75
231.37	132.75
231.604	147.75
231.838	158.75
232.072	160.75
232.306	158.75
232.541	171.75
232.775	148.75
233.009	155.75
233.243	156.75
233.477	165.75
233.711	143.75
233.945	154.75
234.179	156.75
234.413	165.75
234.647	154.75
234.881	169.75
235.115	171.75
235.349	168.75
235.583	162.75
235.817	144.75
236.051	161.75
236.285	173.75
236.519	153.75
236.753	168.75
236.987	174.75
237.221	163.75
237.455	165.75
237.689	181.75
237.922	169.75
238.156	197.75
238.39	186.75
238.624	195.75
238.858	172.75
239.091	189.75
239.325	191.75
239.559	183.75
239.793	200.75
240.027	205.75
240.26	193.75
240.494	207.75
240.728	193.75
240.961	220.75
241.195	198.75
241.429	203.75
241.662	214.75
241.896	199.75
242.13	197.75
242.363	209.75
242.597	204.75
242.83	223.75
243.064	212.75
243.298	201.75
243.531	208.75
243.765	216.75
243.998	226.75
244.232	227.75
244.465	224.75
244.699	245.75
244.932	236.75
245.166	228.75
245.399	226.75
245.633	210.75
245.866	234.75
246.099	226.75
246.333	235.75
246.566	253.75
246.8	250.75
247.033	258.75
247.266	247.75
247.5	261.75
247.733	252.75
247.966	269.75
248.2	269.75
248.433	269.75
248.666	267.75
248.899	264.75
249.133	274.75
249.366	263.75
249.599	278.75
249.832	261.75
250.066	265.75
250.299	279.75
250.532	273.75
250.765	288.75
250.998	278.75
251.231	283.75
251.465	269.75
251.698	292.75
251.931	292.75
252.164	300.75
252.397	280.75
252.63	300.75
252.863	304.75
253.096	303.75
253.329	312.75
253.562	306.75
253.795	308.75
254.028	308.75
254.261	299.75
254.494	321.75
254.727	315.75
254.96	303.75
255.193	328.75
255.426	307.75
255.659	311.75
255.892	315.75
256.124	300.75
256.357	301.75
256.59	328.75
256.823	344.75
257.056	346.75
257.289	319.75
257.521	311.75
257.754	333.75
257.987	324.75
258.22	340.75
258.452	344.75
258.685	347.75
258.918	364.75
259.151	337.75
259.383	345.75
259.616	338.75
259.849	356.75
260.081	355.75
260.314	344.75
260.547	357.75
260.779	372.75
261.012	360.75
261.244	356.75
261.477	364.75
261.71	367.75
261.942	355.75
262.175	363.75
262.407	372.75
262.64	367.75
262.872	360.75
263.105	372.75
263.337	383.75
263.57	379.75
263.802	374.75
264.035	392.75
264.267	371.75
264.499	385.75
264.732	379.75
264.964	402.75
265.197	389.75
265.429	379.75
265.661	392.75
265.894	393.75
266.126	398.75
266.358	410.75
266.591	397.75
266.823	392.75
267.055	399.75
267.287	404.75
267.52	411.75
267.752	396.75
267.984	425.75
268.216	423.75
268.448	402.75
268.681	413.75
268.913	426.75
269.145	436.75
269.377	405.75
269.609	408.75
269.841	425.75
270.073	439.75
270.306	444.75
270.538	439.75
270.77	433.75
271.002	438.75
271.234	418.75
271.466	436.75
271.698	419.75
271.93	441.75
272.162	441.75
272.394	430.75
272.626	461.75
272.858	450.75
273.09	447.75
273.322	460.75
273.553	447.75
273.785	464.75
274.017	458.75
274.249	455.75
274.481	465.75
274.713	456.75
274.945	462.75
275.176	460.75
275.408	441.75
275.64	469.75
275.872	471.75
276.104	468.75
276.335	469.75
276.567	486.75
276.799	441.75
277.031	489.75
277.262	482.75
277.494	464.75
277.726	491.75
277.957	460.75
278.189	491.75
278.421	475.75
278.652	514.75
278.884	490.75
279.115	497.75
279.347	488.75
279.579	499.75
279.81	517.75
280.042	504.75
280.273	513.75
280.505	532.75
280.736	529.75
280.968	512.75
281.199	511.75
281.431	518.75
281.662	526.75
281.894	511.75
282.125	525.75
282.356	537.75
282.588	546.75
282.819	524.75
283.051	541.75
283.282	523.75
283.513	540.75
283.745	529.75
283.976	556.75
284.207	536.75
284.439	547.75
284.67	571.75
284.901	556.75
285.132	557.75
285.364	564.75
285.595	557.75
285.826	549.75
286.057	554.75
286.288	550.75
286.52	539.75
286.751	578.75
286.982	575.75
287.213	562.75
287.444	569.75
287.675	583.75
287.906	550.75
288.138	588.75
288.369	584.75
288.6	583.75
288.831	587.75
289.062	584.75
289.293	577.75
289.524	604.75
289.755	596.75
289.986	597.75
290.217	586.75
290.448	600.75
290.679	625.75
290.91	598.75
291.141	599.75
291.371	589.75
291.602	599.75
291.833	619.75
292.064	612.75
292.295	620.75
292.526	599.75
292.757	604.75
292.987	595.75
293.218	589.75
293.449	585.75
293.68	596.75
293.91	593.75
294.141	604.75
294.372	581.75
294.603	601.75
294.833	599.75
295.064	601.75
295.295	628.75
295.525	615.75
295.756	611.75
295.987	615.75
296.217	602.75
296.448	620.75
296.679	615.75
296.909	603.75
297.14	623.75
297.37	649.75
297.601	630.75
297.831	626.75
298.062	635.75
298.292	669.75
298.523	641.75
298.753	674.75
298.984	650.75
299.214	651.75
299.445	657.75
299.675	653.75
299.905	644.75
300.136	656.75
300.366	661.75
300.597	656.75
300.827	681.75
301.057	687.75
301.288	682.75
301.518	691.75
301.748	697.75
301.979	688.75
302.209	699.75
302.439	685.75
302.669	682.75
302.9	691.75
303.13	659.75
303.36	679.75
303.59	680.75
303.82	693.75
304.051	673.75
304.281	682.75
304.511	676.75
304.741	676.75
304.971	676.75
305.201	648.75
305.431	668.75
305.661	707.75
305.891	680.75
306.121	652.75
306.352	681.75
306.582	680.75
306.812	659.75
307.042	671.75
307.272	666.75
307.502	673.75
307.731	677.75
307.961	672.75
308.191	668.75
308.421	684.75
308.651	671.75
308.881	653.75
309.111	689.75
309.341	641.75
309.571	667.75
309.8	677.75
310.03	673.75
310.26	699.75
310.49	669.75
310.72	662.75
310.949	676.75
311.179	692.75
311.409	665.75
311.639	691.75
311.868	697.75
312.098	696.75
312.328	710.75
312.557	708.75
312.787	704.75
313.017	717.75
313.246	699.75
313.476	730.75
313.706	709.75
313.935	730.75
314.165	738.75
314.394	725.75
314.624	745.75
314.853	730.75
315.083	712.75
315.312	728.75
315.542	714.75
315.771	712.75
316.001	727.75
316.23	712.75
316.46	705.75
316.689	709.75
316.919	735.75
317.148	722.75
317.377	704.75
317.607	708.75
317.836	699.75
318.065	703.75
318.295	709.75
318.524	694.75
318.753	716.75
318.983	719.75
319.212	699.75
319.441	715.75
319.67	719.75
319.9	708.75
320.129	704.75
320.358	721.75
320.587	732.75
320.816	720.75
321.046	734.75
321.275	729.75
321.504	716.75
321.733	724.75
321.962	727.75
322.191	755.75
322.42	732.75
322.649	759.75
322.878	751.75
323.108	726.75
323.337	715.75
323.566	736.75
323.795	725.75
324.024	737.75
324.253	730.75
324.482	736.75
324.71	756.75
324.939	748.75
325.168	765.75
325.397	764.75
325.626	756.75
325.855	801.75
326.084	794.75
326.313	807.75
326.542	788.75
326.77	803.75
326.999	793.75
327.228	774.75
327.457	792.75
327.686	769.75
327.914	804.75
328.143	815.75
328.372	780.75
328.6	801.75
328.829	807.75
329.058	811.75
329.287	784.75
329.515	804.75
329.744	796.75
329.972	807.75
330.201	803.75
330.43	821.75
330.658	826.75
330.887	806.75
331.115	843.75
331.344	837.75
331.572	851.75
331.801	873.75
332.03	891.75
332.258	901.75
332.486	933.75
332.715	952.75
332.943	1012.75
333.172	1057.75
333.4	1083.75
333.629	1110.75
333.857	1143.75
334.085	1119.75
334.314	1064.75
334.542	1061.75
334.771	1027.75
334.999	1045.75
335.227	1010.75
335.455	1009.75
335.684	990.75
335.912	991.75
336.14	940.75
336.369	967.75
336.597	979.75
336.825	983.75
337.053	954.75
337.281	945.75
337.51	935.75
337.738	905.75
337.966	895.75
338.194	899.75
338.422	853.75
338.65	861.75
338.878	864.75
339.106	859.75
339.334	909.75
339.562	891.75
339.79	856.75
340.018	852.75
340.246	843.75
340.474	807.75
340.702	820.75
340.93	870.75
341.158	848.75
341.386	861.75
341.614	847.75
341.842	858.75
342.07	831.75
342.298	835.75
342.526	803.75
342.754	824.75
342.981	853.75
343.209	866.75
343.437	903.75
343.665	979.75
343.893	1081.75
344.12	1063.75
344.348	998.75
344.576	966.75
344.804	901.75
345.031	862.75
345.259	871.75
345.487	847.75
345.714	832.75
345.942	838.75
346.17	837.75
346.397	808.75
346.625	825.75
346.853	804.75
347.08	811.75
347.308	803.75
347.535	838.75
347.763	838.75
347.99	829.75
348.218	841.75
348.445	840.75
348.673	810.75
348.9	805.75
349.128	804.75
349.355	804.75
349.583	800.75
349.81	839.75
350.037	799.75
350.265	756.75
350.492	793.75
350.72	803.75
350.947	769.75
351.174	809.75
351.402	795.75
351.629	769.75
351.856	796.75
352.083	767.75
352.311	772.75
352.538	756.75
352.765	776.75
352.992	753.75
353.22	779.75
353.447	757.75
353.674	773.75
353.901	810.75
354.128	785.75
354.355	785.75
354.583	784.75
354.81	795.75
355.037	779.75
355.264	787.75
355.491	772.75
355.718	780.75
355.945	774.75
356.172	808.75
356.399	788.75
356.626	782.75
356.853	792.75
357.08	783.75
357.307	787.75
357.534	770.75
357.761	811.75
357.988	773.75
358.215	805.75
358.441	776.75
358.668	767.75
358.895	799.75
359.122	786.75
359.349	793.75
359.576	797.75
359.802	794.75
360.029	777.75
360.256	793.75
360.483	824.75
360.709	795.75
360.936	810.75
361.163	744.75
361.39	795.75
361.616	780.75
361.843	781.75
362.07	780.75
362.296	805.75
362.523	786.75
362.749	781.75
362.976	774.75
363.203	799.75
363.429	762.75
363.656	779.75
363.882	797.75
364.109	796.75
364.335	766.75
364.562	754.75
364.788	753.75
365.015	798.75
365.241	775.75
365.468	767.75
365.694	779.75
365.92	766.75
366.147	773.75
366.373	767.75
366.599	784.75
366.826	770.75
367.052	765.75
367.278	789.75
367.505	779.75
367.731	786.75
367.957	756.75
368.184	788.75
368.41	782.75
368.636	803.75
368.862	781.75
369.089	805.75
369.315	813.75
369.541	808.75
369.767	824.75
369.993	813.75
370.219	804.75
370.445	829.75
370.672	823.75
370.898	843.75
371.124	852.75
371.35	857.75
371.576	799.75
371.802	841.75
372.028	848.75
372.254	856.75
372.48	847.75
372.706	869.75
372.932	900.75
373.158	891.75
373.384	868.75
373.61	858.75
373.835	852.75
374.061	845.75
374.287	854.75
374.513	885.75
374.739	899.75
374.965	954.75
375.191	949.75
375.416	915.75
375.642	894.75
375.868	903.75
376.094	883.75
376.319	866.75
376.545	877.75
376.771	867.75
376.997	867.75
377.222	875.75
377.448	844.75
377.674	832.75
377.899	849.75
378.125	851.75
378.35	853.75
378.576	837.75
378.802	834.75
379.027	801.75
379.253	834.75
379.478	838.75
379.704	856.75
379.929	849.75
380.155	834.75
380.38	808.75
380.606	861.75
380.831	832.75
381.057	844.75
381.282	844.75
381.507	823.75
381.733	853.75
381.958	875.75
382.184	867.75
382.409	884.75
382.634	895.75
382.86	871.75
383.085	908.75
383.31	926.75
383.535	967.75
383.761	927.75
383.986	980.75
384.211	1000.75
384.436	1018.75
384.662	1019.75
384.887	1035.75
385.112	1042.75
385.337	1067.75
385.562	1013.75
385.787	1020.75
386.013	1053.75
386.238	1065.75
386.463	1049.75
386.688	1036.75
386.913	1001.75
387.138	1011.75
387.363	1013.75
387.588	999.75
387.813	1005.75
388.038	1009.75
388.263	1038.75
388.488	1015.75
388.713	1038.75
388.938	1022.75
389.163	984.75
389.387	1001.75
389.612	972.75
389.837	1024.75
390.062	982.75
390.287	1000.75
390.512	994.75
390.736	1061.75
390.961	1024.75
391.186	1062.75
391.411	1079.75
391.636	1121.75
391.86	1138.75
392.085	1185.75
392.31	1165.75
392.534	1116.75
392.759	1091.75
392.984	1060.75
393.208	1048.75
393.433	1090.75
393.658	1083.75
393.882	1104.75
394.107	1092.75
394.331	1100.75
394.556	1108.75
394.78	1082.75
395.005	1123.75
395.229	1115.75
395.454	1141.75
395.678	1153.75
395.903	1134.75
396.127	1137.75
396.352	1120.75
396.576	1084.75
396.801	1078.75
397.025	1091.75
397.249	1099.75
397.474	1130.75
397.698	1151.75
397.922	1140.75
398.147	1162.75
398.371	1164.75
398.595	1214.75
398.82	1247.75
399.044	1375.75
399.268	1549.75
399.492	1793.75
399.717	2046.75
399.941	2016.75
400.165	1721.75
400.389	1542.75
400.613	1423.75
400.837	1351.75
401.062	1289.75
401.286	1265.75
401.51	1255.75
401.734	1314.75
401.958	1293.75
402.182	1325.75
402.406	1344.75
402.63	1361.75
402.854	1385.75
403.078	1394.75
403.302	1455.75
403.526	1469.75
403.75	1514.75
403.974	1533.75
404.198	1535.75
404.422	1527.75
404.645	1471.75
404.869	1515.75
405.093	1489.75
405.317	1416.75
405.541	1417.75
405.765	1412.75
405.988	1439.75
406.212	1412.75
406.436	1404.75
406.66	1482.75
406.883	1469.75
407.107	1553.75
407.331	1630.75
407.555	1677.75
407.778	1711.75
408.002	1609.75
408.226	1601.75
408.449	1558.75
408.673	1505.75
408.896	1458.75
409.12	1439.75
409.344	1466.75
409.567	1461.75
409.791	1493.75
410.014	1474.75
410.238	1442.75
410.461	1442.75
410.685	1437.75
410.908	1407.75
411.132	1373.75
411.355	1339.75
411.578	1340.75
411.802	1314.75
412.025	1364.75
412.249	1344.75
412.472	1323.75
412.695	1308.75
412.919	1289.75
413.142	1291.75
413.365	1274.75
413.589	1307.75
413.812	1286.75
414.035	1276.75
414.258	1263.75
414.482	1301.75
414.705	1315.75
414.928	1291.75
415.151	1293.75
415.374	1300.75
415.597	1307.75
415.821	1232.75
416.044	1261.75
416.267	1253.75
416.49	1248.75
416.713	1240.75
416.936	1236.75
417.159	1251.75
417.382	1250.75
417.605	1263.75
417.828	1265.75
418.051	1287.75
418.274	1266.75
418.497	1282.75
418.72	1302.75
418.943	1308.75
419.166	1412.75
419.389	1471.75
419.611	1441.75
419.834	1384.75
420.057	1365.75
420.28	1296.75
420.503	1238.75
420.726	1251.75
420.948	1257.75
421.171	1221.75
421.394	1228.75
421.617	1264.75
421.839	1305.75
422.062	1281.75
422.285	1276.75
422.507	1296.75
422.73	1315.75
422.953	1322.75
423.175	1349.75
423.398	1335.75
423.621	1381.75
423.843	1402.75
424.066	1339.75
424.288	1373.75
424.511	1348.75
424.733	1347.75
424.956	1336.75
425.178	1301.75
425.401	1303.75
425.623	1272.75
425.846	1197.75
426.068	1203.75
426.291	1201.75
426.513	1227.75
426.735	1195.75
426.958	1182.75
427.18	1171.75
427.402	1148.75
427.625	1156.75
427.847	1152.75
428.069	1149.75
428.292	1140.75
428.514	1103.75
428.736	1112.75
428.958	1118.75
429.181	1116.75
429.403	1079.75
429.625	1135.75
429.847	1062.75
430.069	1079.75
430.292	1061.75
430.514	1094.75
430.736	1092.75
430.958	1075.75
431.18	1101.75
431.402	1071.75
431.624	1080.75
431.846	1113.75
432.068	1163.75
432.29	1131.75
432.512	1093.75
432.734	1117.75
432.956	1119.75
433.178	1132.75
433.4	1128.75
433.622	1128.75
433.844	1145.75
434.066	1135.75
434.287	1141.75
434.509	1194.75
434.731	1239.75
434.953	1263.75
435.175	1311.75
435.397	1223.75
435.618	1208.75
435.84	1181.75
436.062	1157.75
436.284	1122.75
436.505	1097.75
436.727	1133.75
436.949	1174.75
437.17	1146.75
437.392	1101.75
437.614	1100.75
437.835	1054.75
438.057	1094.75
438.278	1042.75
438.5	1057.75
438.721	1055.75
438.943	1087.75
439.165	1088.75
439.386	1117.75
439.608	1111.75
439.829	1125.75
440.05	1108.75
440.272	1111.75
440.493	1153.75
440.715	1140.75
440.936	1179.75
441.158	1202.75
441.379	1235.75
441.6	1244.75
441.822	1276.75
442.043	1282.75
442.264	1257.75
442.486	1244.75
442.707	1247.75
442.928	1224.75
443.149	1244.75
443.371	1249.75
443.592	1271.75
443.813	1251.75
444.034	1281.75
444.255	1335.75
444.476	1423.75
444.698	1504.75
444.919	1558.75
445.14	1628.75
445.361	1420.75
445.582	1316.75
445.803	1240.75
446.024	1157.75
446.245	1179.75
446.466	1178.75
446.687	1138.75
446.908	1177.75
447.129	1081.75
447.35	1098.75
447.571	1071.75
447.792	1055.75
448.013	1068.75
448.234	1043.75
448.455	1014.75
448.675	1043.75
448.896	1032.75
449.117	1024.75
449.338	1037.75
449.559	1017.75
449.779	1017.75
450	1016.75
450.221	1002.75
450.442	1030.75
450.662	1015.75
450.883	1063.75
451.104	1084.75
451.324	1069.75
451.545	1022.75
451.766	1019.75
451.986	1019.75
452.207	1029.75
452.428	1014.75
452.648	1034.75
452.869	999.75
453.089	1005.75
453.31	1023.75
453.53	996.75
453.751	995.75
453.971	987.75
454.192	1004.75
454.412	977.75
454.633	974.75
454.853	988.75
455.073	949.75
455.294	972.75
455.514	963.75
455.734	953.75
455.955	925.75
456.175	926.75
456.395	972.75
456.616	959.75
456.836	947.75
457.056	947.75
457.276	906.75
457.497	972.75
457.717	960.75
457.937	956.75
458.157	989.75
458.377	983.75
458.598	1012.75
458.818	1071.75
459.038	1073.75
459.258	1091.75
459.478	1111.75
459.698	1155.75
459.918	1209.75
460.138	1264.75
460.358	1336.75
460.578	1363.75
460.798	1341.75
461.018	1370.75
461.238	1314.75
461.458	1369.75
461.678	1320.75
461.898	1322.75
462.118	1360.75
462.338	1419.75
462.558	1499.75
462.777	1507.75
462.997	1664.75
463.217	1871.75
463.437	1820.75
463.657	1633.75
463.876	1557.75
464.096	1559.75
464.316	1592.75
464.536	1599.75
464.755	1521.75
464.975	1445.75
465.195	1378.75
465.414	1305.75
465.634	1205.75
465.854	1190.75
466.073	1177.75
466.293	1142.75
466.512	1100.75
466.732	1112.75
466.951	1097.75
467.171	1080.75
467.391	1063.75
467.61	1080.75
467.829	1100.75
468.049	1043.75
468.268	1014.75
468.488	1013.75
468.707	1020.75
468.927	1038.75
469.146	1010.75
469.365	1027.75
469.585	1034.75
469.804	1093.75
470.023	1111.75
470.243	1098.75
470.462	1099.75
470.681	1130.75
470.901	1132.75
471.12	1100.75
471.339	1079.75
471.558	1063.75
471.777	1064.75
471.997	1053.75
472.216	997.75
472.435	1009.75
472.654	999.75
472.873	993.75
473.092	953.75
473.311	1004.75
473.53	1001.75
473.749	977.75
473.968	977.75
474.187	1007.75
474.406	978.75
474.625	981.75
474.844	978.75
475.063	1012.75
475.282	1003.75
475.501	1019.75
475.72	999.75
475.939	982.75
476.158	1004.75
476.377	1044.75
476.596	1028.75
476.814	1050.75
477.033	1056.75
477.252	1086.75
477.471	1108.75
477.69	1108.75
477.908	1124.75
478.127	1179.75
478.346	1185.75
478.564	1207.75
478.783	1233.75
479.002	1259.75
479.22	1252.75
479.439	1263.75
479.658	1225.75
479.876	1254.75
480.095	1268.75
480.313	1351.75
480.532	1412.75
480.751	1365.75
480.969	1245.75
481.188	1234.75
481.406	1185.75
481.624	1185.75
481.843	1148.75
482.061	1138.75
482.28	1122.75
482.498	1124.75
482.717	1144.75
482.935	1092.75
483.153	1142.75
483.372	1143.75
483.59	1133.75
483.808	1143.75
484.027	1123.75
484.245	1163.75
484.463	1132.75
484.681	1177.75
484.9	1178.75
485.118	1172.75
485.336	1215.75
485.554	1199.75
485.772	1205.75
485.99	1200.75
486.209	1185.75
486.427	1201.75
486.645	1205.75
486.863	1216.75
487.081	1177.75
487.299	1196.75
487.517	1208.75
487.735	1187.75
487.953	1204.75
488.171	1197.75
488.389	1205.75
488.607	1193.75
488.825	1196.75
489.043	1172.75
489.261	1178.75
489.479	1213.75
489.696	1182.75
489.914	1191.75
490.132	1216.75
490.35	1201.75
490.568	1161.75
490.786	1199.75
491.003	1179.75
491.221	1207.75
491.439	1219.75
491.657	1179.75
491.874	1222.75
492.092	1211.75
492.31	1180.75
492.527	1218.75
492.745	1235.75
492.963	1230.75
493.18	1195.75
493.398	1215.75
493.615	1232.75
493.833	1275.75
494.05	1244.75
494.268	1215.75
494.485	1236.75
494.703	1264.75
494.92	1251.75
495.138	1241.75
495.355	1252.75
495.573	1287.75
495.79	1261.75
496.008	1303.75
496.225	1260.75
496.442	1267.75
496.66	1311.75
496.877	1328.75
497.094	1371.75
497.312	1364.75
497.529	1383.75
497.746	1435.75
497.963	1456.75
498.181	1597.75
498.398	1579.75
498.615	1708.75
498.832	1859.75
499.049	2022.75
499.267	2116.75
499.484	2330.75
499.701	2661.75
499.918	2947.75
500.135	3362.75
500.352	3912.75
500.569	4145.75
500.786	4063.75
501.003	3680.75
501.22	3242.75
501.437	2871.75
501.654	2489.75
501.871	2229.75
502.088	2087.75
502.305	1955.75
502.522	1859.75
502.739	1800.75
502.956	1677.75
503.172	1573.75
503.389	1536.75
503.606	1485.75
503.823	1448.75
504.04	1449.75
504.256	1451.75
504.473	1514.75
504.69	1599.75
504.907	1517.75
505.123	1439.75
505.34	1349.75
505.557	1239.75
505.773	1237.75
505.99	1202.75
506.207	1174.75
506.423	1183.75
506.64	1160.75
506.856	1141.75
507.073	1118.75
507.289	1156.75
507.506	1110.75
507.722	1103.75
507.939	1079.75
508.155	1075.75
508.372	1075.75
508.588	1041.75
508.805	1063.75
509.021	1060.75
509.238	1034.75
509.454	1051.75
509.67	1023.75
509.887	1029.75
510.103	1028.75
510.319	1016.75
510.536	1003.75
510.752	999.75
510.968	1021.75
511.184	989.75
511.401	1027.75
511.617	989.75
511.833	1010.75
512.049	1005.75
512.265	1001.75
512.481	982.75
512.698	997.75
512.914	996.75
513.13	976.75
513.346	984.75
513.562	1009.75
513.778	994.75
513.994	1041.75
514.21	1009.75
514.426	1051.75
514.642	1034.75
514.858	1044.75
515.074	1043.75
515.29	1058.75
515.506	1044.75
515.721	1097.75
515.937	1089.75
516.153	1118.75
516.369	1151.75
516.585	1192.75
516.801	1241.75
517.016	1275.75
517.232	1321.75
517.448	1425.75
517.664	1473.75
517.879	1459.75
518.095	1462.75
518.311	1392.75
518.527	1381.75
518.742	1291.75
518.958	1244.75
519.173	1180.75
519.389	1173.75
519.605	1110.75
519.82	1143.75
520.036	1102.75
520.251	1058.75
520.467	1060.75
520.682	1071.75
520.898	1033.75
521.113	1014.75
521.329	977.75
521.544	976.75
521.76	985.75
521.975	963.75
522.19	985.75
522.406	962.75
522.621	945.75
522.836	950.75
523.052	961.75
523.267	962.75
523.482	939.75
523.698	930.75
523.913	924.75
524.128	935.75
524.343	954.75
524.559	943.75
524.774	913.75
524.989	908.75
525.204	901.75
525.419	928.75
525.634	906.75
525.849	913.75
526.064	901.75
526.28	915.75
526.495	895.75
526.71	895.75
526.925	900.75
527.14	900.75
527.355	910.75
527.57	904.75
527.785	945.75
527.999	939.75
528.214	918.75
528.429	912.75
528.644	946.75
528.859	903.75
529.074	869.75
529.289	904.75
529.503	915.75
529.718	915.75
529.933	923.75
530.148	913.75
530.363	907.75
530.577	907.75
530.792	909.75
531.007	873.75
531.221	899.75
531.436	893.75
531.651	938.75
531.865	905.75
532.08	930.75
532.295	901.75
532.509	915.75
532.724	896.75
532.938	921.75
533.153	932.75
533.367	900.75
533.582	903.75
533.796	907.75
534.011	931.75
534.225	890.75
534.44	885.75
534.654	898.75
534.868	910.75
535.083	907.75
535.297	885.75
535.511	891.75
535.726	891.75
535.94	885.75
536.154	874.75
536.369	839.75
536.583	849.75
536.797	872.75
537.011	868.75
537.225	848.75
537.44	864.75
537.654	821.75
537.868	859.75
538.082	836.75
538.296	831.75
538.51	837.75
538.724	833.75
538.938	831.75
539.153	808.75
539.367	838.75
539.581	802.75
539.795	812.75
540.009	816.75
540.222	782.75
540.436	812.75
540.65	807.75
540.864	816.75
541.078	813.75
541.292	824.75
541.506	821.75
541.72	818.75
541.934	837.75
542.147	801.75
542.361	804.75
542.575	816.75
542.789	812.75
543.002	800.75
543.216	792.75
543.43	808.75
543.644	764.75
543.857	808.75
544.071	835.75
544.285	837.75
544.498	813.75
544.712	827.75
544.925	801.75
545.139	817.75
545.352	813.75
545.566	860.75
545.779	843.75
545.993	833.75
546.206	845.75
546.42	835.75
546.633	844.75
546.847	829.75
547.06	820.75
547.274	824.75
547.487	821.75
547.7	835.75
547.914	829.75
548.127	816.75
548.34	829.75
548.554	848.75
548.767	829.75
548.98	844.75
549.193	840.75
549.407	840.75
549.62	886.75
549.833	859.75
550.046	840.75
550.259	847.75
550.473	823.75
550.686	815.75
550.899	817.75
551.112	815.75
551.325	785.75
551.538	822.75
551.751	795.75
551.964	819.75
552.177	832.75
552.39	829.75
552.603	886.75
552.816	891.75
553.029	889.75
553.242	913.75
553.455	954.75
553.667	935.75
553.88	924.75
554.093	897.75
554.306	876.75
554.519	874.75
554.732	839.75
554.944	839.75
555.157	791.75
555.37	813.75
555.583	775.75
555.795	779.75
556.008	791.75
556.221	727.75
556.433	732.75
556.646	744.75
556.859	709.75
557.071	716.75
557.284	734.75
557.496	701.75
557.709	736.75
557.921	695.75
558.134	679.75
558.346	689.75
558.559	736.75
558.771	671.75
558.984	678.75
559.196	675.75
559.409	710.75
559.621	679.75
559.833	664.75
560.046	688.75
560.258	673.75
560.47	701.75
560.683	707.75
560.895	666.75
561.107	674.75
561.32	699.75
561.532	652.75
561.744	688.75
561.956	689.75
562.168	683.75
562.381	687.75
562.593	680.75
562.805	687.75
563.017	695.75
563.229	699.75
563.441	687.75
563.653	683.75
563.865	696.75
564.077	679.75
564.289	685.75
564.501	714.75
564.713	738.75
564.925	748.75
565.137	772.75
565.349	749.75
565.561	808.75
565.773	828.75
565.985	860.75
566.197	908.75
566.408	945.75
566.62	1048.75
566.832	1161.75
567.044	1209.75
567.255	1136.75
567.467	1200.75
567.679	1264.75
567.891	1405.75
568.102	1425.75
568.314	1341.75
568.526	1181.75
568.737	1080.75
568.949	991.75
569.161	888.75
569.372	827.75
569.584	779.75
569.795	716.75
570.007	736.75
570.218	730.75
570.43	697.75
570.641	708.75
570.853	692.75
571.064	713.75
571.276	740.75
571.487	716.75
571.698	656.75
571.91	636.75
572.121	623.75
572.333	623.75
572.544	611.75
572.755	593.75
572.966	572.75
573.178	604.75
573.389	583.75
573.6	571.75
573.811	588.75
574.023	581.75
574.234	581.75
574.445	564.75
574.656	585.75
574.867	558.75
575.078	553.75
575.289	569.75
575.501	548.75
575.712	549.75
575.923	546.75
576.134	549.75
576.345	511.75
576.556	537.75
576.767	502.75
576.978	516.75
577.188	520.75
577.399	554.75
577.61	506.75
577.821	520.75
578.032	479.75
578.243	487.75
578.454	503.75
578.665	481.75
578.875	513.75
579.086	513.75
579.297	499.75
579.508	517.75
579.718	501.75
579.929	492.75
580.14	477.75
580.35	472.75
580.561	485.75
580.772	471.75
580.982	477.75
581.193	471.75
581.403	476.75
581.614	481.75
581.825	476.75
582.035	456.75
582.246	449.75
582.456	467.75
582.667	459.75
582.877	467.75
583.087	468.75
583.298	458.75
583.508	453.75
583.719	453.75
583.929	473.75
584.139	454.75
584.35	459.75
584.56	462.75
584.77	452.75
584.981	477.75
585.191	449.75
585.401	452.75
585.611	456.75
585.821	449.75
586.032	430.75
586.242	451.75
586.452	437.75
586.662	431.75
586.872	437.75
587.082	438.75
587.292	451.75
587.502	443.75
587.713	468.75
587.923	437.75
588.133	459.75
588.343	441.75
588.553	456.75
588.762	429.75
588.972	475.75
589.182	452.75
589.392	437.75
589.602	433.75
589.812	434.75
590.022	455.75
590.232	449.75
590.441	451.75
590.651	458.75
590.861	440.75
591.071	462.75
591.281	439.75
591.49	469.75
591.7	462.75
591.91	480.75
592.119	481.75
592.329	489.75
592.539	508.75
592.748	541.75
592.958	549.75
593.167	566.75
593.377	572.75
593.587	589.75
593.796	589.75
594.006	585.75
594.215	591.75
594.424	589.75
594.634	590.75
594.843	540.75
595.053	548.75
595.262	520.75
595.472	511.75
595.681	469.75
595.89	449.75
596.1	445.75
596.309	446.75
596.518	440.75
596.727	423.75
596.937	420.75
597.146	415.75
597.355	417.75
597.564	421.75
597.774	394.75
597.983	387.75
598.192	386.75
598.401	386.75
598.61	405.75
598.819	383.75
599.028	375.75
599.237	388.75
599.446	388.75
599.655	393.75
599.864	382.75
600.073	376.75
600.282	396.75
600.491	374.75
600.7	372.75
600.909	348.75
601.118	353.75
601.327	362.75
601.536	373.75
601.745	381.75
601.953	377.75
602.162	361.75
602.371	378.75
602.58	352.75
602.789	373.75
602.997	369.75
603.206	359.75
603.415	356.75
603.623	343.75
603.832	333.75
604.041	352.75
604.249	354.75
604.458	341.75
604.666	348.75
604.875	347.75
605.084	337.75
605.292	339.75
605.501	349.75
605.709	346.75
605.918	331.75
606.126	355.75
606.334	346.75
606.543	336.75
606.751	328.75
606.96	351.75
607.168	320.75
607.376	337.75
607.585	339.75
607.793	341.75
608.001	319.75
608.21	340.75
608.418	333.75
608.626	326.75
608.834	347.75
609.043	329.75
609.251	339.75
609.459	338.75
609.667	344.75
609.875	317.75
610.083	340.75
610.291	336.75
610.499	332.75
610.707	336.75
610.916	312.75
611.124	340.75
611.332	341.75
611.54	324.75
611.748	315.75
611.955	324.75
612.163	318.75
612.371	338.75
612.579	322.75
612.787	321.75
612.995	314.75
613.203	324.75
613.411	324.75
613.618	309.75
613.826	332.75
614.034	317.75
614.242	341.75
614.449	328.75
614.657	303.75
614.865	312.75
615.072	331.75
615.28	319.75
615.488	319.75
615.695	339.75
615.903	309.75
616.111	312.75
616.318	328.75
616.526	333.75
616.733	340.75
616.941	319.75
617.148	316.75
617.356	329.75
617.563	327.75
617.771	330.75
617.978	322.75
618.185	347.75
618.393	331.75
618.6	346.75
618.807	321.75
619.015	332.75
619.222	326.75
619.429	308.75
619.637	323.75
619.844	317.75
620.051	324.75
620.258	325.75
620.466	299.75
620.673	307.75
620.88	292.75
621.087	269.75
621.294	314.75
621.501	290.75
621.708	297.75
621.915	296.75
622.122	290.75
622.329	273.75
622.536	289.75
622.743	277.75
622.95	303.75
623.157	280.75
623.364	300.75
623.571	290.75
623.778	291.75
623.985	317.75
624.192	286.75
624.399	271.75
624.606	273.75
624.812	263.75
625.019	267.75
625.226	299.75
625.433	266.75
625.639	269.75
625.846	274.75
626.053	264.75
626.259	255.75
626.466	274.75
626.673	269.75
626.879	250.75
627.086	279.75
627.293	270.75
627.499	260.75
627.706	264.75
627.912	235.75
628.119	259.75
628.325	255.75
628.532	248.75
628.738	249.75
628.945	246.75
629.151	255.75
629.357	266.75
629.564	236.75
629.77	249.75
629.976	261.75
630.183	279.75
630.389	257.75
630.595	263.75
630.802	257.75
631.008	238.75
631.214	259.75
631.42	244.75
631.627	237.75
631.833	244.75
632.039	237.75
632.245	233.75
632.451	250.75
632.657	240.75
632.863	235.75
633.069	233.75
633.275	251.75
633.481	215.75
633.688	244.75
633.893	232.75
634.099	230.75
634.305	230.75
634.511	242.75
634.717	220.75
634.923	255.75
635.129	232.75
635.335	234.75
635.541	228.75
635.747	244.75
635.952	227.75
636.158	214.75
636.364	224.75
636.57	214.75
636.775	228.75
636.981	227.75
637.187	210.75
637.392	215.75
637.598	231.75
637.804	225.75
638.009	228.75
638.215	225.75
638.421	232.75
638.626	212.75
638.832	204.75
639.037	232.75
639.243	222.75
639.448	226.75
639.654	239.75
639.859	225.75
640.065	219.75
640.27	206.75
640.475	224.75
640.681	231.75
640.886	208.75
641.091	212.75
641.297	218.75
641.502	215.75
641.707	220.75
641.913	219.75
642.118	220.75
642.323	205.75
642.528	194.75
642.733	188.75
642.939	225.75
643.144	212.75
643.349	191.75
643.554	207.75
643.759	191.75
643.964	192.75
644.169	204.75
644.374	213.75
644.579	212.75
644.784	213.75
644.989	206.75
645.194	218.75
645.399	214.75
645.604	203.75
645.809	204.75
646.014	197.75
646.219	220.75
646.423	226.75
646.628	197.75
646.833	205.75
647.038	203.75
647.243	201.75
647.447	226.75
647.652	214.75
647.857	218.75
648.062	224.75
648.266	231.75
648.471	236.75
648.676	228.75
648.88	222.75
649.085	209.75
649.289	219.75
649.494	204.75
649.698	217.75
649.903	204.75
650.107	194.75
650.312	201.75
650.516	186.75
650.721	183.75
650.925	194.75
651.13	190.75
651.334	191.75
651.539	182.75
651.743	183.75
651.947	193.75
652.152	175.75
652.356	199.75
652.56	187.75
652.764	176.75
652.969	188.75
653.173	167.75
653.377	155.75
653.581	176.75
653.785	163.75
653.99	154.75
654.194	155.75
654.398	162.75
654.602	156.75
654.806	139.75
655.01	157.75
655.214	148.75
655.418	167.75
655.622	156.75
655.826	141.75
656.03	146.75
656.234	149.75
656.438	158.75
656.642	167.75
656.846	146.75
657.049	133.75
657.253	146.75
657.457	135.75
657.661	127.75
657.865	127.75
658.068	122.75
658.272	117.75
658.476	128.75
658.68	121.75
658.883	126.75
659.087	122.75
659.291	101.75
659.494	94.75
659.698	96.75
659.901	105.75
660.105	107.75
660.309	90.75
660.512	103.75
660.716	90.75
660.919	97.75
661.123	101.75
661.326	87.75
661.53	85.75
661.733	87.75
661.936	98.75
662.14	88.75
662.343	89.75
662.546	93.75
662.75	78.75
662.953	102.75
663.156	97.75
663.36	84.75
663.563	80.75
663.766	77.75
663.969	91.75
664.173	93.75
664.376	90.75
664.579	78.75
664.782	81.75
664.985	76.75
665.188	83.75
665.391	82.75
665.594	85.75
665.797	82.75
666	86.75
666.203	75.75
666.406	80.75
666.609	79.75
666.812	92.75
667.015	84.75
667.218	99.75
667.421	87.75
667.624	82.75
667.827	80.75
668.03	75.75
668.232	76.75
668.435	82.75
668.638	85.75
668.841	86.75
669.043	88.75
669.246	79.75
669.449	93.75
669.651	81.75
669.854	87.75
670.057	68.75
670.259	66.75
670.462	78.75
670.665	70.75
670.867	91.75
671.07	73.75
671.272	85.75
671.475	82.75
671.677	72.75
671.88	85.75
672.082	80.75
672.284	78.75
672.487	80.75
672.689	86.75
672.892	96.75
