Data from Ni(NO3)2@0.0625M.TitratingCurve.Agarose3%dH2O.NegLispCup.LampEnergy10.LIBS07252019_HRD10591_18-14-20-569.txt Node
Date: Thu Jul 25 18:14:20 EDT 2019
User: cochatt
Spectrometer: HR+D1059
Trigger mode: 1
Integration Time (sec): 1.000000E-1
Scans to average: 1
Electric dark correction enabled: true
Nonlinearity correction enabled: false
Boxcar width: 0
XAxis mode: Wavelengths
Number of Pixels in Spectrum: 2048
>>>>>Begin Spectral Data<<<<<
223.165	-6.44
223.4	-6.44
223.635	-6.44
223.869	-21.44
224.104	-22.44
224.338	-10.44
224.573	-10.44
224.808	-14.44
225.042	-12.44
225.277	1.56
225.511	-6.44
225.746	-7.44
225.98	20.56
226.215	15.56
226.449	9.56
226.683	17.56
226.918	18.56
227.152	28.56
227.387	35.56
227.621	33.56
227.856	56.56
228.09	49.56
228.324	47.56
228.559	30.56
228.793	59.56
229.027	106.56
229.262	114.56
229.496	103.56
229.73	120.56
229.964	127.56
230.199	127.56
230.433	124.56
230.667	119.56
230.901	126.56
231.136	121.56
231.37	133.56
231.604	139.56
231.838	141.56
232.072	139.56
232.306	149.56
232.541	133.56
232.775	138.56
233.009	148.56
233.243	151.56
233.477	140.56
233.711	137.56
233.945	151.56
234.179	143.56
234.413	153.56
234.647	154.56
234.881	149.56
235.115	144.56
235.349	141.56
235.583	152.56
235.817	163.56
236.051	143.56
236.285	159.56
236.519	142.56
236.753	153.56
236.987	169.56
237.221	160.56
237.455	167.56
237.689	166.56
237.922	166.56
238.156	167.56
238.39	168.56
238.624	159.56
238.858	161.56
239.091	159.56
239.325	145.56
239.559	167.56
239.793	156.56
240.027	176.56
240.26	162.56
240.494	169.56
240.728	183.56
240.961	171.56
241.195	187.56
241.429	193.56
241.662	162.56
241.896	168.56
242.13	172.56
242.363	187.56
242.597	189.56
242.83	188.56
243.064	183.56
243.298	183.56
243.531	196.56
243.765	203.56
243.998	191.56
244.232	199.56
244.465	201.56
244.699	206.56
244.932	203.56
245.166	209.56
245.399	219.56
245.633	199.56
245.866	190.56
246.099	194.56
246.333	204.56
246.566	211.56
246.8	226.56
247.033	208.56
247.266	221.56
247.5	214.56
247.733	227.56
247.966	237.56
248.2	222.56
248.433	233.56
248.666	234.56
248.899	227.56
249.133	221.56
249.366	242.56
249.599	234.56
249.832	247.56
250.066	234.56
250.299	260.56
250.532	227.56
250.765	251.56
250.998	229.56
251.231	254.56
251.465	230.56
251.698	254.56
251.931	237.56
252.164	265.56
252.397	269.56
252.63	268.56
252.863	259.56
253.096	285.56
253.329	276.56
253.562	271.56
253.795	248.56
254.028	275.56
254.261	263.56
254.494	263.56
254.727	266.56
254.96	265.56
255.193	266.56
255.426	271.56
255.659	267.56
255.892	286.56
256.124	274.56
256.357	290.56
256.59	283.56
256.823	275.56
257.056	284.56
257.289	279.56
257.521	264.56
257.754	279.56
257.987	291.56
258.22	295.56
258.452	284.56
258.685	289.56
258.918	320.56
259.151	293.56
259.383	283.56
259.616	286.56
259.849	299.56
260.081	280.56
260.314	312.56
260.547	310.56
260.779	310.56
261.012	311.56
261.244	311.56
261.477	299.56
261.71	314.56
261.942	323.56
262.175	333.56
262.407	319.56
262.64	313.56
262.872	317.56
263.105	326.56
263.337	315.56
263.57	317.56
263.802	327.56
264.035	303.56
264.267	330.56
264.499	330.56
264.732	324.56
264.964	334.56
265.197	343.56
265.429	322.56
265.661	341.56
265.894	346.56
266.126	356.56
266.358	337.56
266.591	340.56
266.823	347.56
267.055	325.56
267.287	350.56
267.52	348.56
267.752	333.56
267.984	349.56
268.216	369.56
268.448	351.56
268.681	376.56
268.913	369.56
269.145	346.56
269.377	353.56
269.609	374.56
269.841	349.56
270.073	352.56
270.306	346.56
270.538	369.56
270.77	357.56
271.002	351.56
271.234	364.56
271.466	369.56
271.698	359.56
271.93	365.56
272.162	385.56
272.394	365.56
272.626	373.56
272.858	366.56
273.09	389.56
273.322	385.56
273.553	371.56
273.785	374.56
274.017	395.56
274.249	380.56
274.481	393.56
274.713	388.56
274.945	380.56
275.176	401.56
275.408	414.56
275.64	382.56
275.872	406.56
276.104	402.56
276.335	400.56
276.567	401.56
276.799	379.56
277.031	399.56
277.262	404.56
277.494	417.56
277.726	393.56
277.957	406.56
278.189	435.56
278.421	424.56
278.652	407.56
278.884	414.56
279.115	390.56
279.347	406.56
279.579	422.56
279.81	416.56
280.042	406.56
280.273	398.56
280.505	415.56
280.736	443.56
280.968	437.56
281.199	445.56
281.431	445.56
281.662	431.56
281.894	421.56
282.125	429.56
282.356	435.56
282.588	431.56
282.819	449.56
283.051	444.56
283.282	432.56
283.513	459.56
283.745	455.56
283.976	465.56
284.207	462.56
284.439	471.56
284.67	455.56
284.901	468.56
285.132	468.56
285.364	462.56
285.595	461.56
285.826	471.56
286.057	483.56
286.288	461.56
286.52	478.56
286.751	458.56
286.982	494.56
287.213	472.56
287.444	474.56
287.675	482.56
287.906	481.56
288.138	486.56
288.369	490.56
288.6	483.56
288.831	509.56
289.062	481.56
289.293	491.56
289.524	473.56
289.755	495.56
289.986	507.56
290.217	505.56
290.448	474.56
290.679	485.56
290.91	497.56
291.141	476.56
291.371	503.56
291.602	485.56
291.833	493.56
292.064	490.56
292.295	510.56
292.526	505.56
292.757	484.56
292.987	495.56
293.218	507.56
293.449	525.56
293.68	518.56
293.91	494.56
294.141	507.56
294.372	508.56
294.603	518.56
294.833	537.56
295.064	515.56
295.295	526.56
295.525	511.56
295.756	515.56
295.987	520.56
296.217	532.56
296.448	490.56
296.679	519.56
296.909	493.56
297.14	540.56
297.37	543.56
297.601	539.56
297.831	549.56
298.062	554.56
298.292	561.56
298.523	591.56
298.753	593.56
298.984	534.56
299.214	563.56
299.445	543.56
299.675	531.56
299.905	540.56
300.136	539.56
300.366	542.56
300.597	562.56
300.827	588.56
301.057	575.56
301.288	581.56
301.518	590.56
301.748	581.56
301.979	556.56
302.209	551.56
302.439	579.56
302.669	572.56
302.9	568.56
303.13	552.56
303.36	573.56
303.59	541.56
303.82	545.56
304.051	559.56
304.281	578.56
304.511	557.56
304.741	546.56
304.971	575.56
305.201	572.56
305.431	567.56
305.661	545.56
305.891	574.56
306.121	567.56
306.352	551.56
306.582	558.56
306.812	540.56
307.042	537.56
307.272	526.56
307.502	531.56
307.731	528.56
307.961	547.56
308.191	557.56
308.421	547.56
308.651	533.56
308.881	551.56
309.111	543.56
309.341	526.56
309.571	558.56
309.8	545.56
310.03	527.56
310.26	581.56
310.49	532.56
310.72	541.56
310.949	536.56
311.179	561.56
311.409	570.56
311.639	572.56
311.868	581.56
312.098	587.56
312.328	581.56
312.557	552.56
312.787	561.56
313.017	559.56
313.246	595.56
313.476	597.56
313.706	592.56
313.935	590.56
314.165	618.56
314.394	592.56
314.624	591.56
314.853	587.56
315.083	592.56
315.312	591.56
315.542	585.56
315.771	573.56
316.001	575.56
316.23	580.56
316.46	566.56
316.689	568.56
316.919	548.56
317.148	568.56
317.377	585.56
317.607	585.56
317.836	565.56
318.065	587.56
318.295	568.56
318.524	570.56
318.753	562.56
318.983	552.56
319.212	580.56
319.441	557.56
319.67	563.56
319.9	584.56
320.129	595.56
320.358	558.56
320.587	558.56
320.816	574.56
321.046	557.56
321.275	565.56
321.504	547.56
321.733	572.56
321.962	565.56
322.191	580.56
322.42	560.56
322.649	591.56
322.878	572.56
323.108	582.56
323.337	576.56
323.566	565.56
323.795	581.56
324.024	595.56
324.253	586.56
324.482	613.56
324.71	611.56
324.939	606.56
325.168	582.56
325.397	604.56
325.626	615.56
325.855	601.56
326.084	646.56
326.313	615.56
326.542	627.56
326.77	646.56
326.999	638.56
327.228	623.56
327.457	620.56
327.686	624.56
327.914	655.56
328.143	634.56
328.372	639.56
328.6	625.56
328.829	618.56
329.058	636.56
329.287	612.56
329.515	630.56
329.744	632.56
329.972	637.56
330.201	635.56
330.43	635.56
330.658	631.56
330.887	645.56
331.115	630.56
331.344	664.56
331.572	667.56
331.801	697.56
332.03	697.56
332.258	705.56
332.486	759.56
332.715	774.56
332.943	776.56
333.172	822.56
333.4	859.56
333.629	895.56
333.857	882.56
334.085	845.56
334.314	839.56
334.542	822.56
334.771	820.56
334.999	792.56
335.227	789.56
335.455	787.56
335.684	787.56
335.912	782.56
336.14	765.56
336.369	759.56
336.597	783.56
336.825	767.56
337.053	756.56
337.281	746.56
337.51	737.56
337.738	728.56
337.966	703.56
338.194	710.56
338.422	669.56
338.65	691.56
338.878	680.56
339.106	694.56
339.334	693.56
339.562	670.56
339.79	649.56
340.018	675.56
340.246	664.56
340.474	653.56
340.702	663.56
340.93	642.56
341.158	663.56
341.386	664.56
341.614	675.56
341.842	654.56
342.07	667.56
342.298	630.56
342.526	678.56
342.754	674.56
342.981	660.56
343.209	668.56
343.437	687.56
343.665	735.56
343.893	799.56
344.12	854.56
344.348	820.56
344.576	736.56
344.804	715.56
345.031	692.56
345.259	685.56
345.487	643.56
345.714	653.56
345.942	663.56
346.17	638.56
346.397	668.56
346.625	650.56
346.853	651.56
347.08	642.56
347.308	637.56
347.535	681.56
347.763	675.56
347.99	638.56
348.218	647.56
348.445	662.56
348.673	617.56
348.9	647.56
349.128	657.56
349.355	636.56
349.583	646.56
349.81	614.56
350.037	601.56
350.265	607.56
350.492	631.56
350.72	632.56
350.947	635.56
351.174	617.56
351.402	606.56
351.629	616.56
351.856	610.56
352.083	604.56
352.311	583.56
352.538	588.56
352.765	609.56
352.992	616.56
353.22	604.56
353.447	614.56
353.674	632.56
353.901	634.56
354.128	627.56
354.355	608.56
354.583	617.56
354.81	615.56
355.037	615.56
355.264	613.56
355.491	622.56
355.718	611.56
355.945	599.56
356.172	605.56
356.399	608.56
356.626	626.56
356.853	635.56
357.08	613.56
357.307	631.56
357.534	605.56
357.761	604.56
357.988	633.56
358.215	628.56
358.441	600.56
358.668	613.56
358.895	614.56
359.122	628.56
359.349	587.56
359.576	604.56
359.802	618.56
360.029	620.56
360.256	602.56
360.483	605.56
360.709	619.56
360.936	631.56
361.163	622.56
361.39	621.56
361.616	617.56
361.843	635.56
362.07	637.56
362.296	626.56
362.523	590.56
362.749	622.56
362.976	603.56
363.203	606.56
363.429	616.56
363.656	608.56
363.882	599.56
364.109	610.56
364.335	620.56
364.562	601.56
364.788	610.56
365.015	590.56
365.241	611.56
365.468	611.56
365.694	611.56
365.92	616.56
366.147	587.56
366.373	611.56
366.599	612.56
366.826	623.56
367.052	578.56
367.278	618.56
367.505	627.56
367.731	620.56
367.957	611.56
368.184	613.56
368.41	646.56
368.636	621.56
368.862	638.56
369.089	633.56
369.315	637.56
369.541	627.56
369.767	632.56
369.993	614.56
370.219	639.56
370.445	653.56
370.672	652.56
370.898	653.56
371.124	636.56
371.35	670.56
371.576	690.56
371.802	657.56
372.028	683.56
372.254	656.56
372.48	686.56
372.706	671.56
372.932	702.56
373.158	697.56
373.384	679.56
373.61	697.56
373.835	694.56
374.061	685.56
374.287	704.56
374.513	691.56
374.739	719.56
374.965	718.56
375.191	755.56
375.416	762.56
375.642	708.56
375.868	699.56
376.094	697.56
376.319	669.56
376.545	684.56
376.771	690.56
376.997	713.56
377.222	681.56
377.448	677.56
377.674	681.56
377.899	659.56
378.125	689.56
378.35	674.56
378.576	650.56
378.802	694.56
379.027	659.56
379.253	651.56
379.478	665.56
379.704	663.56
379.929	655.56
380.155	651.56
380.38	688.56
380.606	674.56
380.831	670.56
381.057	635.56
381.282	660.56
381.507	659.56
381.733	678.56
381.958	656.56
382.184	690.56
382.409	702.56
382.634	679.56
382.86	707.56
383.085	719.56
383.31	724.56
383.535	717.56
383.761	737.56
383.986	789.56
384.211	801.56
384.436	814.56
384.662	825.56
384.887	835.56
385.112	807.56
385.337	809.56
385.562	795.56
385.787	813.56
386.013	820.56
386.238	805.56
386.463	823.56
386.688	798.56
386.913	778.56
387.138	772.56
387.363	807.56
387.588	811.56
387.813	791.56
388.038	804.56
388.263	806.56
388.488	813.56
388.713	807.56
388.938	777.56
389.163	794.56
389.387	788.56
389.612	775.56
389.837	773.56
390.062	769.56
390.287	788.56
390.512	787.56
390.736	787.56
390.961	806.56
391.186	821.56
391.411	834.56
391.636	856.56
391.86	896.56
392.085	903.56
392.31	901.56
392.534	882.56
392.759	870.56
392.984	865.56
393.208	845.56
393.433	874.56
393.658	829.56
393.882	845.56
394.107	860.56
394.331	850.56
394.556	842.56
394.78	865.56
395.005	874.56
395.229	879.56
395.454	892.56
395.678	925.56
395.903	927.56
396.127	887.56
396.352	835.56
396.576	823.56
396.801	822.56
397.025	842.56
397.249	874.56
397.474	871.56
397.698	892.56
397.922	893.56
398.147	866.56
398.371	901.56
398.595	930.56
398.82	939.56
399.044	1055.56
399.268	1156.56
399.492	1368.56
399.717	1555.56
399.941	1592.56
400.165	1353.56
400.389	1242.56
400.613	1138.56
400.837	1030.56
401.062	1030.56
401.286	1002.56
401.51	981.56
401.734	1005.56
401.958	1001.56
402.182	1059.56
402.406	1043.56
402.63	1017.56
402.854	1083.56
403.078	1113.56
403.302	1147.56
403.526	1144.56
403.75	1182.56
403.974	1192.56
404.198	1226.56
404.422	1207.56
404.645	1167.56
404.869	1175.56
405.093	1165.56
405.317	1132.56
405.541	1126.56
405.765	1110.56
405.988	1097.56
406.212	1083.56
406.436	1115.56
406.66	1145.56
406.883	1160.56
407.107	1215.56
407.331	1291.56
407.555	1306.56
407.778	1339.56
408.002	1244.56
408.226	1230.56
408.449	1202.56
408.673	1171.56
408.896	1124.56
409.12	1138.56
409.344	1167.56
409.567	1153.56
409.791	1172.56
410.014	1191.56
410.238	1147.56
410.461	1158.56
410.685	1142.56
410.908	1111.56
411.132	1095.56
411.355	1067.56
411.578	1061.56
411.802	1048.56
412.025	1101.56
412.249	1056.56
412.472	1053.56
412.695	1041.56
412.919	1002.56
413.142	1003.56
413.365	1031.56
413.589	1006.56
413.812	990.56
414.035	1002.56
414.258	1015.56
414.482	997.56
414.705	1052.56
414.928	1051.56
415.151	1017.56
415.374	1015.56
415.597	1009.56
415.821	982.56
416.044	989.56
416.267	1011.56
416.49	956.56
416.713	983.56
416.936	1019.56
417.159	983.56
417.382	985.56
417.605	996.56
417.828	1035.56
418.051	1025.56
418.274	1008.56
418.497	1029.56
418.72	1058.56
418.943	1027.56
419.166	1114.56
419.389	1207.56
419.611	1113.56
419.834	1084.56
420.057	1060.56
420.28	1025.56
420.503	962.56
420.726	965.56
420.948	959.56
421.171	977.56
421.394	990.56
421.617	985.56
421.839	1001.56
422.062	994.56
422.285	983.56
422.507	1059.56
422.73	1010.56
422.953	1031.56
423.175	1025.56
423.398	1084.56
423.621	1077.56
423.843	1067.56
424.066	1089.56
424.288	1101.56
424.511	1083.56
424.733	1080.56
424.956	1028.56
425.178	1032.56
425.401	1012.56
425.623	989.56
425.846	972.56
426.068	955.56
426.291	941.56
426.513	965.56
426.735	919.56
426.958	918.56
427.18	917.56
427.402	934.56
427.625	918.56
427.847	891.56
428.069	897.56
428.292	906.56
428.514	886.56
428.736	854.56
428.958	925.56
429.181	860.56
429.403	851.56
429.625	869.56
429.847	870.56
430.069	862.56
430.292	861.56
430.514	854.56
430.736	897.56
430.958	878.56
431.18	856.56
431.402	864.56
431.624	881.56
431.846	899.56
432.068	914.56
432.29	975.56
432.512	893.56
432.734	910.56
432.956	894.56
433.178	897.56
433.4	911.56
433.622	929.56
433.844	902.56
434.066	933.56
434.287	920.56
434.509	929.56
434.731	971.56
434.953	1017.56
435.175	1046.56
435.397	1031.56
435.618	953.56
435.84	927.56
436.062	908.56
436.284	929.56
436.505	926.56
436.727	899.56
436.949	921.56
437.17	907.56
437.392	884.56
437.614	895.56
437.835	860.56
438.057	855.56
438.278	852.56
438.5	843.56
438.721	844.56
438.943	884.56
439.165	847.56
439.386	871.56
439.608	912.56
439.829	909.56
440.05	915.56
440.272	919.56
440.493	888.56
440.715	911.56
440.936	945.56
441.158	929.56
441.379	942.56
441.6	1027.56
441.822	1037.56
442.043	1034.56
442.264	993.56
442.486	978.56
442.707	1001.56
442.928	1012.56
443.149	987.56
443.371	990.56
443.592	997.56
443.813	1019.56
444.034	1031.56
444.255	1056.56
444.476	1083.56
444.698	1169.56
444.919	1244.56
445.14	1317.56
445.361	1124.56
445.582	1045.56
445.803	988.56
446.024	971.56
446.245	934.56
446.466	910.56
446.687	893.56
446.908	906.56
447.129	890.56
447.35	878.56
447.571	871.56
447.792	846.56
448.013	854.56
448.234	842.56
448.455	831.56
448.675	814.56
448.896	831.56
449.117	793.56
449.338	803.56
449.559	808.56
449.779	795.56
450	828.56
450.221	836.56
450.442	841.56
450.662	826.56
450.883	869.56
451.104	850.56
451.324	862.56
451.545	872.56
451.766	879.56
451.986	825.56
452.207	858.56
452.428	833.56
452.648	839.56
452.869	817.56
453.089	845.56
453.31	830.56
453.53	823.56
453.751	825.56
453.971	795.56
454.192	818.56
454.412	798.56
454.633	789.56
454.853	775.56
455.073	793.56
455.294	806.56
455.514	795.56
455.734	785.56
455.955	782.56
456.175	788.56
456.395	782.56
456.616	769.56
456.836	779.56
457.056	769.56
457.276	744.56
457.497	759.56
457.717	763.56
457.937	792.56
458.157	796.56
458.377	805.56
458.598	817.56
458.818	861.56
459.038	847.56
459.258	871.56
459.478	938.56
459.698	936.56
459.918	961.56
460.138	1015.56
460.358	1081.56
460.578	1088.56
460.798	1102.56
461.018	1096.56
461.238	1080.56
461.458	1075.56
461.678	1053.56
461.898	1068.56
462.118	1092.56
462.338	1137.56
462.558	1169.56
462.777	1225.56
462.997	1303.56
463.217	1517.56
463.437	1518.56
463.657	1355.56
463.876	1268.56
464.096	1279.56
464.316	1286.56
464.536	1321.56
464.755	1226.56
464.975	1193.56
465.195	1117.56
465.414	1068.56
465.634	988.56
465.854	950.56
466.073	917.56
466.293	919.56
466.512	886.56
466.732	873.56
466.951	882.56
467.171	865.56
467.391	901.56
467.61	874.56
467.829	882.56
468.049	863.56
468.268	845.56
468.488	847.56
468.707	827.56
468.927	806.56
469.146	838.56
469.365	839.56
469.585	829.56
469.804	878.56
470.023	883.56
470.243	919.56
470.462	896.56
470.681	902.56
470.901	900.56
471.12	888.56
471.339	845.56
471.558	864.56
471.777	866.56
471.997	852.56
472.216	821.56
472.435	831.56
472.654	815.56
472.873	810.56
473.092	816.56
473.311	810.56
473.53	818.56
473.749	807.56
473.968	795.56
474.187	793.56
474.406	824.56
474.625	808.56
474.844	794.56
475.063	782.56
475.282	819.56
475.501	808.56
475.72	833.56
475.939	795.56
476.158	842.56
476.377	857.56
476.596	844.56
476.814	833.56
477.033	847.56
477.252	876.56
477.471	905.56
477.69	900.56
477.908	901.56
478.127	953.56
478.346	965.56
478.564	955.56
478.783	987.56
479.002	1015.56
479.22	1008.56
479.439	1021.56
479.658	995.56
479.876	1014.56
480.095	1039.56
480.313	1076.56
480.532	1094.56
480.751	1091.56
480.969	1046.56
481.188	1003.56
481.406	989.56
481.624	962.56
481.843	951.56
482.061	938.56
482.28	908.56
482.498	917.56
482.717	917.56
482.935	908.56
483.153	889.56
483.372	921.56
483.59	925.56
483.808	905.56
484.027	919.56
484.245	917.56
484.463	937.56
484.681	943.56
484.9	930.56
485.118	957.56
485.336	965.56
485.554	949.56
485.772	1004.56
485.99	994.56
486.209	979.56
486.427	989.56
486.645	1001.56
486.863	1009.56
487.081	1004.56
487.299	959.56
487.517	986.56
487.735	980.56
487.953	973.56
488.171	953.56
488.389	966.56
488.607	976.56
488.825	934.56
489.043	941.56
489.261	948.56
489.479	947.56
489.696	980.56
489.914	975.56
490.132	948.56
490.35	921.56
490.568	964.56
490.786	979.56
491.003	963.56
491.221	956.56
491.439	973.56
491.657	965.56
491.874	966.56
492.092	956.56
492.31	970.56
492.527	974.56
492.745	1021.56
492.963	1026.56
493.18	1010.56
493.398	993.56
493.615	1017.56
493.833	991.56
494.05	1015.56
494.268	1062.56
494.485	1018.56
494.703	1025.56
494.92	1025.56
495.138	999.56
495.355	1018.56
495.573	1013.56
495.79	1014.56
496.008	1044.56
496.225	1028.56
496.442	1016.56
496.66	1068.56
496.877	1061.56
497.094	1086.56
497.312	1118.56
497.529	1115.56
497.746	1161.56
497.963	1197.56
498.181	1221.56
498.398	1234.56
498.615	1349.56
498.832	1408.56
499.049	1539.56
499.267	1670.56
499.484	1836.56
499.701	2075.56
499.918	2281.56
500.135	2662.56
500.352	3098.56
500.569	3323.56
500.786	3284.56
501.003	3037.56
501.22	2694.56
501.437	2334.56
501.654	1961.56
501.871	1829.56
502.088	1648.56
502.305	1543.56
502.522	1474.56
502.739	1395.56
502.956	1336.56
503.172	1300.56
503.389	1257.56
503.606	1181.56
503.823	1173.56
504.04	1149.56
504.256	1160.56
504.473	1206.56
504.69	1272.56
504.907	1226.56
505.123	1115.56
505.34	1098.56
505.557	1043.56
505.773	1025.56
505.99	965.56
506.207	958.56
506.423	964.56
506.64	946.56
506.856	945.56
507.073	938.56
507.289	913.56
507.506	892.56
507.722	912.56
507.939	914.56
508.155	859.56
508.372	869.56
508.588	854.56
508.805	884.56
509.021	871.56
509.238	860.56
509.454	842.56
509.67	847.56
509.887	860.56
510.103	858.56
510.319	852.56
510.536	843.56
510.752	823.56
510.968	825.56
511.184	826.56
511.401	833.56
511.617	855.56
511.833	843.56
512.049	831.56
512.265	852.56
512.481	828.56
512.698	837.56
512.914	831.56
513.13	835.56
513.346	833.56
513.562	835.56
513.778	852.56
513.994	835.56
514.21	860.56
514.426	848.56
514.642	852.56
514.858	862.56
515.074	854.56
515.29	859.56
515.506	891.56
515.721	854.56
515.937	893.56
516.153	905.56
516.369	931.56
516.585	964.56
516.801	994.56
517.016	1034.56
517.232	1081.56
517.448	1149.56
517.664	1212.56
517.879	1203.56
518.095	1225.56
518.311	1194.56
518.527	1118.56
518.742	1087.56
518.958	1009.56
519.173	983.56
519.389	924.56
519.605	923.56
519.82	919.56
520.036	884.56
520.251	869.56
520.467	877.56
520.682	849.56
520.898	828.56
521.113	848.56
521.329	827.56
521.544	840.56
521.76	793.56
521.975	830.56
522.19	785.56
522.406	819.56
522.621	790.56
522.836	799.56
523.052	778.56
523.267	769.56
523.482	775.56
523.698	784.56
523.913	795.56
524.128	791.56
524.343	759.56
524.559	749.56
524.774	798.56
524.989	756.56
525.204	766.56
525.419	765.56
525.634	778.56
525.849	748.56
526.064	781.56
526.28	758.56
526.495	762.56
526.71	766.56
526.925	746.56
527.14	751.56
527.355	756.56
527.57	761.56
527.785	782.56
527.999	755.56
528.214	755.56
528.429	765.56
528.644	782.56
528.859	775.56
529.074	756.56
529.289	759.56
529.503	761.56
529.718	747.56
529.933	732.56
530.148	751.56
530.363	766.56
530.577	762.56
530.792	761.56
531.007	738.56
531.221	750.56
531.436	747.56
531.651	757.56
531.865	761.56
532.08	759.56
532.295	785.56
532.509	751.56
532.724	762.56
532.938	760.56
533.153	757.56
533.367	746.56
533.582	769.56
533.796	756.56
534.011	755.56
534.225	767.56
534.44	742.56
534.654	731.56
534.868	757.56
535.083	731.56
535.297	730.56
535.511	754.56
535.726	758.56
535.94	734.56
536.154	723.56
536.369	735.56
536.583	710.56
536.797	739.56
537.011	697.56
537.225	692.56
537.44	697.56
537.654	711.56
537.868	686.56
538.082	685.56
538.296	670.56
538.51	684.56
538.724	694.56
538.938	691.56
539.153	697.56
539.367	698.56
539.581	723.56
539.795	685.56
540.009	689.56
540.222	679.56
540.436	689.56
540.65	693.56
540.864	683.56
541.078	689.56
541.292	661.56
541.506	691.56
541.72	670.56
541.934	671.56
542.147	686.56
542.361	663.56
542.575	686.56
542.789	692.56
543.002	670.56
543.216	675.56
543.43	673.56
543.644	676.56
543.857	655.56
544.071	644.56
544.285	694.56
544.498	670.56
544.712	681.56
544.925	666.56
545.139	690.56
545.352	685.56
545.566	691.56
545.779	709.56
545.993	699.56
546.206	694.56
546.42	696.56
546.633	704.56
546.847	693.56
547.06	675.56
547.274	693.56
547.487	708.56
547.7	677.56
547.914	682.56
548.127	704.56
548.34	731.56
548.554	693.56
548.767	718.56
548.98	678.56
549.193	722.56
549.407	715.56
549.62	733.56
549.833	724.56
550.046	697.56
550.259	701.56
550.473	678.56
550.686	705.56
550.899	679.56
551.112	697.56
551.325	667.56
551.538	675.56
551.751	672.56
551.964	676.56
552.177	692.56
552.39	701.56
552.603	698.56
552.816	725.56
553.029	748.56
553.242	745.56
553.455	760.56
553.667	783.56
553.88	754.56
554.093	726.56
554.306	717.56
554.519	706.56
554.732	701.56
554.944	665.56
555.157	681.56
555.37	654.56
555.583	660.56
555.795	647.56
556.008	633.56
556.221	627.56
556.433	619.56
556.646	616.56
556.859	613.56
557.071	593.56
557.284	618.56
557.496	608.56
557.709	609.56
557.921	604.56
558.134	597.56
558.346	593.56
558.559	579.56
558.771	590.56
558.984	591.56
559.196	566.56
559.409	588.56
559.621	571.56
559.833	573.56
560.046	568.56
560.258	573.56
560.47	573.56
560.683	570.56
560.895	578.56
561.107	567.56
561.32	565.56
561.532	570.56
561.744	580.56
561.956	606.56
562.168	587.56
562.381	582.56
562.593	561.56
562.805	595.56
563.017	573.56
563.229	574.56
563.441	589.56
563.653	580.56
563.865	594.56
564.077	580.56
564.289	609.56
564.501	612.56
564.713	613.56
564.925	625.56
565.137	615.56
565.349	641.56
565.561	656.56
565.773	671.56
565.985	715.56
566.197	744.56
566.408	794.56
566.62	878.56
566.832	939.56
567.044	966.56
567.255	956.56
567.467	959.56
567.679	1043.56
567.891	1149.56
568.102	1191.56
568.314	1137.56
568.526	1001.56
568.737	898.56
568.949	793.56
569.161	724.56
569.372	695.56
569.584	662.56
569.795	639.56
570.007	614.56
570.218	601.56
570.43	588.56
570.641	591.56
570.853	585.56
571.064	633.56
571.276	610.56
571.487	592.56
571.698	584.56
571.91	535.56
572.121	535.56
572.333	505.56
572.544	513.56
572.755	502.56
572.966	514.56
573.178	487.56
573.389	497.56
573.6	479.56
573.811	499.56
574.023	476.56
574.234	490.56
574.445	470.56
574.656	460.56
574.867	497.56
575.078	493.56
575.289	501.56
575.501	463.56
575.712	439.56
575.923	428.56
576.134	443.56
576.345	461.56
576.556	456.56
576.767	453.56
576.978	455.56
577.188	462.56
577.399	470.56
577.61	451.56
577.821	445.56
578.032	441.56
578.243	444.56
578.454	422.56
578.665	431.56
578.875	425.56
579.086	428.56
579.297	426.56
579.508	427.56
579.718	437.56
579.929	420.56
580.14	427.56
580.35	420.56
580.561	442.56
580.772	418.56
580.982	415.56
581.193	411.56
581.403	420.56
581.614	419.56
581.825	395.56
582.035	412.56
582.246	412.56
582.456	410.56
582.667	407.56
582.877	399.56
583.087	405.56
583.298	388.56
583.508	397.56
583.719	405.56
583.929	405.56
584.139	391.56
584.35	395.56
584.56	391.56
584.77	409.56
584.981	395.56
585.191	404.56
585.401	396.56
585.611	413.56
585.821	387.56
586.032	385.56
586.242	387.56
586.452	412.56
586.662	411.56
586.872	403.56
587.082	385.56
587.292	388.56
587.502	391.56
587.713	393.56
587.923	415.56
588.133	394.56
588.343	379.56
588.553	403.56
588.762	374.56
588.972	388.56
589.182	391.56
589.392	384.56
589.602	383.56
589.812	388.56
590.022	390.56
590.232	399.56
590.441	395.56
590.651	392.56
590.861	407.56
591.071	405.56
591.281	397.56
591.49	389.56
591.7	408.56
591.91	408.56
592.119	418.56
592.329	419.56
592.539	426.56
592.748	455.56
592.958	472.56
593.167	483.56
593.377	522.56
593.587	489.56
593.796	505.56
594.006	521.56
594.215	517.56
594.424	524.56
594.634	501.56
594.843	479.56
595.053	458.56
595.262	441.56
595.472	421.56
595.681	435.56
595.89	399.56
596.1	396.56
596.309	379.56
596.518	379.56
596.727	358.56
596.937	358.56
597.146	365.56
597.355	360.56
597.564	346.56
597.774	371.56
597.983	344.56
598.192	335.56
598.401	353.56
598.61	342.56
598.819	334.56
599.028	334.56
599.237	331.56
599.446	353.56
599.655	339.56
599.864	323.56
600.073	325.56
600.282	337.56
600.491	338.56
600.7	327.56
600.909	322.56
601.118	326.56
601.327	342.56
601.536	314.56
601.745	297.56
601.953	321.56
602.162	346.56
602.371	326.56
602.58	303.56
602.789	319.56
602.997	331.56
603.206	315.56
603.415	326.56
603.623	307.56
603.832	300.56
604.041	327.56
604.249	318.56
604.458	311.56
604.666	301.56
604.875	305.56
605.084	308.56
605.292	299.56
605.501	308.56
605.709	299.56
605.918	302.56
606.126	309.56
606.334	317.56
606.543	313.56
606.751	303.56
606.96	325.56
607.168	300.56
607.376	300.56
607.585	289.56
607.793	294.56
608.001	289.56
608.21	305.56
608.418	294.56
608.626	301.56
608.834	297.56
609.043	311.56
609.251	309.56
609.459	302.56
609.667	300.56
609.875	279.56
610.083	297.56
610.291	299.56
610.499	291.56
610.707	274.56
610.916	301.56
611.124	292.56
611.332	285.56
611.54	293.56
611.748	291.56
611.955	284.56
612.163	296.56
612.371	299.56
612.579	290.56
612.787	277.56
612.995	261.56
613.203	289.56
613.411	279.56
613.618	281.56
613.826	280.56
614.034	292.56
614.242	275.56
614.449	267.56
614.657	286.56
614.865	267.56
615.072	298.56
615.28	293.56
615.488	301.56
615.695	294.56
615.903	287.56
616.111	282.56
616.318	293.56
616.526	283.56
616.733	310.56
616.941	285.56
617.148	290.56
617.356	298.56
617.563	290.56
617.771	298.56
617.978	288.56
618.185	286.56
618.393	279.56
618.6	282.56
618.807	290.56
619.015	280.56
619.222	283.56
619.429	277.56
619.637	257.56
619.844	285.56
620.051	277.56
620.258	269.56
620.466	277.56
620.673	259.56
620.88	241.56
621.087	263.56
621.294	272.56
621.501	260.56
621.708	266.56
621.915	269.56
622.122	266.56
622.329	267.56
622.536	249.56
622.743	270.56
622.95	257.56
623.157	242.56
623.364	252.56
623.571	266.56
623.778	236.56
623.985	258.56
624.192	237.56
624.399	244.56
624.606	257.56
624.812	266.56
625.019	260.56
625.226	247.56
625.433	262.56
625.639	236.56
625.846	247.56
626.053	237.56
626.259	245.56
626.466	265.56
626.673	239.56
626.879	251.56
627.086	237.56
627.293	231.56
627.499	231.56
627.706	224.56
627.912	234.56
628.119	238.56
628.325	244.56
628.532	227.56
628.738	233.56
628.945	232.56
629.151	248.56
629.357	244.56
629.564	227.56
629.77	225.56
629.976	228.56
630.183	241.56
630.389	219.56
630.595	217.56
630.802	238.56
631.008	218.56
631.214	205.56
631.42	215.56
631.627	217.56
631.833	221.56
632.039	221.56
632.245	220.56
632.451	216.56
632.657	227.56
632.863	222.56
633.069	235.56
633.275	207.56
633.481	218.56
633.688	214.56
633.893	220.56
634.099	237.56
634.305	207.56
634.511	223.56
634.717	194.56
634.923	209.56
635.129	204.56
635.335	205.56
635.541	195.56
635.747	226.56
635.952	209.56
636.158	209.56
636.364	196.56
636.57	196.56
636.775	213.56
636.981	215.56
637.187	205.56
637.392	194.56
637.598	221.56
637.804	210.56
638.009	201.56
638.215	204.56
638.421	198.56
638.626	195.56
638.832	206.56
639.037	205.56
639.243	203.56
639.448	185.56
639.654	202.56
639.859	200.56
640.065	194.56
640.27	212.56
640.475	193.56
640.681	191.56
640.886	183.56
641.091	195.56
641.297	195.56
641.502	190.56
641.707	203.56
641.913	201.56
642.118	179.56
642.323	176.56
642.528	188.56
642.733	189.56
642.939	194.56
643.144	197.56
643.349	196.56
643.554	177.56
643.759	193.56
643.964	191.56
644.169	185.56
644.374	182.56
644.579	175.56
644.784	189.56
644.989	182.56
645.194	188.56
645.399	194.56
645.604	202.56
645.809	192.56
646.014	197.56
646.219	192.56
646.423	195.56
646.628	203.56
646.833	204.56
647.038	191.56
647.243	202.56
647.447	194.56
647.652	183.56
647.857	199.56
648.062	184.56
648.266	203.56
648.471	212.56
648.676	200.56
648.88	192.56
649.085	206.56
649.289	183.56
649.494	190.56
649.698	198.56
649.903	191.56
650.107	181.56
650.312	178.56
650.516	176.56
650.721	167.56
650.925	173.56
651.13	167.56
651.334	162.56
651.539	174.56
651.743	167.56
651.947	179.56
652.152	170.56
652.356	150.56
652.56	154.56
652.764	153.56
652.969	139.56
653.173	144.56
653.377	160.56
653.581	151.56
653.785	153.56
653.99	145.56
654.194	141.56
654.398	144.56
654.602	137.56
654.806	141.56
655.01	155.56
655.214	141.56
655.418	154.56
655.622	149.56
655.826	124.56
656.03	134.56
656.234	130.56
656.438	130.56
656.642	139.56
656.846	129.56
657.049	125.56
657.253	122.56
657.457	122.56
657.661	123.56
657.865	115.56
658.068	135.56
658.272	120.56
658.476	99.56
658.68	104.56
658.883	114.56
659.087	92.56
659.291	113.56
659.494	97.56
659.698	94.56
659.901	107.56
660.105	99.56
660.309	101.56
660.512	95.56
660.716	100.56
660.919	89.56
661.123	91.56
661.326	100.56
661.53	96.56
661.733	97.56
661.936	95.56
662.14	83.56
662.343	87.56
662.546	83.56
662.75	88.56
662.953	97.56
663.156	85.56
663.36	94.56
663.563	75.56
663.766	69.56
663.969	81.56
664.173	93.56
664.376	86.56
664.579	92.56
664.782	85.56
664.985	83.56
665.188	67.56
665.391	86.56
665.594	80.56
665.797	92.56
666	70.56
666.203	80.56
666.406	86.56
666.609	85.56
666.812	69.56
667.015	94.56
667.218	80.56
667.421	75.56
667.624	80.56
667.827	81.56
668.03	81.56
668.232	82.56
668.435	78.56
668.638	92.56
668.841	86.56
669.043	84.56
669.246	90.56
669.449	91.56
669.651	76.56
669.854	86.56
670.057	78.56
670.259	75.56
670.462	92.56
670.665	89.56
670.867	83.56
671.07	98.56
671.272	85.56
671.475	84.56
671.677	76.56
671.88	90.56
672.082	90.56
672.284	88.56
672.487	96.56
672.689	85.56
672.892	75.56
