Data from Ni(NO3)2Standard.Agarose3%.GreenCap.LampEnergy5.5.E.O_HRD10591_14-40-13-188.txt Node
Date: Mon Jul 22 14:40:13 EDT 2019
User: cochatt
Spectrometer: HR+D1059
Trigger mode: 1
Integration Time (sec): 1.000000E-1
Scans to average: 1
Electric dark correction enabled: true
Nonlinearity correction enabled: false
Boxcar width: 0
XAxis mode: Wavelengths
Number of Pixels in Spectrum: 2048
>>>>>Begin Spectral Data<<<<<
223.165	-12.25
223.4	-12.25
223.635	-12.25
223.869	-24.25
224.104	-20.25
224.338	-26.25
224.573	-13.25
224.808	-12.25
225.042	3.75
225.277	-6.25
225.511	5.75
225.746	-2.25
225.98	-0.25
226.215	16.75
226.449	13.75
226.683	17.75
226.918	19.75
227.152	39.75
227.387	37.75
227.621	34.75
227.856	50.75
228.09	44.75
228.324	52.75
228.559	57.75
228.793	70.75
229.027	72.75
229.262	58.75
229.496	68.75
229.73	65.75
229.964	61.75
230.199	75.75
230.433	85.75
230.667	82.75
230.901	88.75
231.136	71.75
231.37	72.75
231.604	81.75
231.838	77.75
232.072	82.75
232.306	80.75
232.541	90.75
232.775	85.75
233.009	67.75
233.243	82.75
233.477	75.75
233.711	74.75
233.945	69.75
234.179	85.75
234.413	91.75
234.647	86.75
234.881	83.75
235.115	84.75
235.349	82.75
235.583	70.75
235.817	84.75
236.051	69.75
236.285	81.75
236.519	58.75
236.753	80.75
236.987	87.75
237.221	72.75
237.455	74.75
237.689	79.75
237.922	76.75
238.156	71.75
238.39	73.75
238.624	80.75
238.858	74.75
239.091	87.75
239.325	76.75
239.559	71.75
239.793	89.75
240.027	79.75
240.26	79.75
240.494	83.75
240.728	73.75
240.961	84.75
241.195	65.75
241.429	66.75
241.662	69.75
241.896	80.75
242.13	86.75
242.363	81.75
242.597	88.75
242.83	84.75
243.064	86.75
243.298	87.75
243.531	72.75
243.765	72.75
243.998	77.75
244.232	76.75
244.465	89.75
244.699	71.75
244.932	75.75
245.166	81.75
245.399	76.75
245.633	76.75
245.866	77.75
246.099	67.75
246.333	80.75
246.566	73.75
246.8	91.75
247.033	81.75
247.266	61.75
247.5	91.75
247.733	84.75
247.966	68.75
248.2	74.75
248.433	83.75
248.666	74.75
248.899	66.75
249.133	81.75
249.366	83.75
249.599	84.75
249.832	83.75
250.066	58.75
250.299	74.75
250.532	85.75
250.765	83.75
250.998	83.75
251.231	78.75
251.465	89.75
251.698	72.75
251.931	73.75
252.164	74.75
252.397	96.75
252.63	75.75
252.863	73.75
253.096	84.75
253.329	77.75
253.562	70.75
253.795	77.75
254.028	86.75
254.261	79.75
254.494	76.75
254.727	83.75
254.96	83.75
255.193	74.75
255.426	76.75
255.659	74.75
255.892	80.75
256.124	74.75
256.357	70.75
256.59	85.75
256.823	75.75
257.056	86.75
257.289	78.75
257.521	77.75
257.754	84.75
257.987	85.75
258.22	86.75
258.452	80.75
258.685	81.75
258.918	73.75
259.151	85.75
259.383	78.75
259.616	67.75
259.849	80.75
260.081	69.75
260.314	85.75
260.547	83.75
260.779	81.75
261.012	72.75
261.244	74.75
261.477	84.75
261.71	78.75
261.942	89.75
262.175	83.75
262.407	86.75
262.64	67.75
262.872	85.75
263.105	82.75
263.337	85.75
263.57	75.75
263.802	76.75
264.035	76.75
264.267	74.75
264.499	82.75
264.732	75.75
264.964	83.75
265.197	89.75
265.429	70.75
265.661	83.75
265.894	73.75
266.126	88.75
266.358	70.75
266.591	74.75
266.823	86.75
267.055	70.75
267.287	73.75
267.52	64.75
267.752	85.75
267.984	89.75
268.216	84.75
268.448	90.75
268.681	87.75
268.913	80.75
269.145	76.75
269.377	65.75
269.609	65.75
269.841	60.75
270.073	78.75
270.306	69.75
270.538	75.75
270.77	76.75
271.002	80.75
271.234	77.75
271.466	76.75
271.698	71.75
271.93	96.75
272.162	81.75
272.394	81.75
272.626	77.75
272.858	86.75
273.09	77.75
273.322	86.75
273.553	91.75
273.785	81.75
274.017	92.75
274.249	79.75
274.481	75.75
274.713	76.75
274.945	80.75
275.176	76.75
275.408	72.75
275.64	88.75
275.872	97.75
276.104	90.75
276.335	85.75
276.567	89.75
276.799	80.75
277.031	88.75
277.262	89.75
277.494	83.75
277.726	77.75
277.957	91.75
278.189	82.75
278.421	76.75
278.652	89.75
278.884	71.75
279.115	75.75
279.347	80.75
279.579	71.75
279.81	83.75
280.042	90.75
280.273	67.75
280.505	75.75
280.736	80.75
280.968	68.75
281.199	87.75
281.431	91.75
281.662	69.75
281.894	87.75
282.125	99.75
282.356	96.75
282.588	75.75
282.819	81.75
283.051	71.75
283.282	89.75
283.513	87.75
283.745	107.75
283.976	76.75
284.207	75.75
284.439	77.75
284.67	81.75
284.901	97.75
285.132	87.75
285.364	76.75
285.595	92.75
285.826	82.75
286.057	90.75
286.288	80.75
286.52	83.75
286.751	80.75
286.982	83.75
287.213	81.75
287.444	81.75
287.675	86.75
287.906	84.75
288.138	89.75
288.369	89.75
288.6	76.75
288.831	77.75
289.062	85.75
289.293	68.75
289.524	81.75
289.755	79.75
289.986	83.75
290.217	80.75
290.448	65.75
290.679	73.75
290.91	84.75
291.141	70.75
291.371	75.75
291.602	88.75
291.833	79.75
292.064	78.75
292.295	93.75
292.526	83.75
292.757	87.75
292.987	75.75
293.218	88.75
293.449	91.75
293.68	93.75
293.91	81.75
294.141	88.75
294.372	67.75
294.603	93.75
294.833	89.75
295.064	84.75
295.295	79.75
295.525	94.75
295.756	88.75
295.987	73.75
296.217	78.75
296.448	83.75
296.679	79.75
296.909	78.75
297.14	81.75
297.37	89.75
297.601	67.75
297.831	92.75
298.062	91.75
298.292	89.75
298.523	81.75
298.753	76.75
298.984	92.75
299.214	84.75
299.445	91.75
299.675	97.75
299.905	74.75
300.136	73.75
300.366	78.75
300.597	77.75
300.827	82.75
301.057	85.75
301.288	73.75
301.518	96.75
301.748	74.75
301.979	81.75
302.209	76.75
302.439	97.75
302.669	77.75
302.9	66.75
303.13	85.75
303.36	80.75
303.59	83.75
303.82	82.75
304.051	91.75
304.281	77.75
304.511	91.75
304.741	81.75
304.971	92.75
305.201	89.75
305.431	101.75
305.661	89.75
305.891	72.75
306.121	84.75
306.352	77.75
306.582	87.75
306.812	91.75
307.042	77.75
307.272	93.75
307.502	76.75
307.731	99.75
307.961	84.75
308.191	71.75
308.421	87.75
308.651	74.75
308.881	77.75
309.111	86.75
309.341	67.75
309.571	88.75
309.8	82.75
310.03	89.75
310.26	97.75
310.49	81.75
310.72	74.75
310.949	81.75
311.179	86.75
311.409	89.75
311.639	84.75
311.868	93.75
312.098	87.75
312.328	86.75
312.557	79.75
312.787	92.75
313.017	67.75
313.246	97.75
313.476	80.75
313.706	66.75
313.935	77.75
314.165	84.75
314.394	89.75
314.624	93.75
314.853	88.75
315.083	89.75
315.312	88.75
315.542	88.75
315.771	72.75
316.001	90.75
316.23	96.75
316.46	89.75
316.689	83.75
316.919	82.75
317.148	85.75
317.377	92.75
317.607	72.75
317.836	80.75
318.065	85.75
318.295	72.75
318.524	72.75
318.753	88.75
318.983	83.75
319.212	105.75
319.441	84.75
319.67	84.75
319.9	85.75
320.129	75.75
320.358	89.75
320.587	77.75
320.816	85.75
321.046	72.75
321.275	77.75
321.504	86.75
321.733	83.75
321.962	95.75
322.191	75.75
322.42	80.75
322.649	80.75
322.878	102.75
323.108	84.75
323.337	88.75
323.566	92.75
323.795	95.75
324.024	92.75
324.253	80.75
324.482	90.75
324.71	86.75
324.939	72.75
325.168	79.75
325.397	79.75
325.626	80.75
325.855	85.75
326.084	81.75
326.313	92.75
326.542	99.75
326.77	87.75
326.999	87.75
327.228	72.75
327.457	99.75
327.686	78.75
327.914	71.75
328.143	92.75
328.372	89.75
328.6	96.75
328.829	75.75
329.058	82.75
329.287	101.75
329.515	89.75
329.744	90.75
329.972	80.75
330.201	85.75
330.43	90.75
330.658	93.75
330.887	100.75
331.115	82.75
331.344	81.75
331.572	81.75
331.801	71.75
332.03	89.75
332.258	75.75
332.486	81.75
332.715	87.75
332.943	86.75
333.172	69.75
333.4	85.75
333.629	70.75
333.857	78.75
334.085	86.75
334.314	81.75
334.542	90.75
334.771	92.75
334.999	84.75
335.227	72.75
335.455	86.75
335.684	91.75
335.912	90.75
336.14	93.75
336.369	84.75
336.597	81.75
336.825	77.75
337.053	86.75
337.281	88.75
337.51	90.75
337.738	81.75
337.966	98.75
338.194	89.75
338.422	83.75
338.65	88.75
338.878	88.75
339.106	93.75
339.334	86.75
339.562	85.75
339.79	96.75
340.018	82.75
340.246	86.75
340.474	87.75
340.702	86.75
340.93	80.75
341.158	92.75
341.386	94.75
341.614	84.75
341.842	73.75
342.07	90.75
342.298	90.75
342.526	90.75
342.754	84.75
342.981	83.75
343.209	76.75
343.437	79.75
343.665	82.75
343.893	80.75
344.12	84.75
344.348	92.75
344.576	82.75
344.804	85.75
345.031	80.75
345.259	81.75
345.487	74.75
345.714	94.75
345.942	95.75
346.17	85.75
346.397	93.75
346.625	85.75
346.853	92.75
347.08	87.75
347.308	83.75
347.535	91.75
347.763	98.75
347.99	96.75
348.218	85.75
348.445	96.75
348.673	72.75
348.9	99.75
349.128	85.75
349.355	81.75
349.583	86.75
349.81	78.75
350.037	80.75
350.265	87.75
350.492	90.75
350.72	68.75
350.947	88.75
351.174	93.75
351.402	72.75
351.629	73.75
351.856	92.75
352.083	89.75
352.311	90.75
352.538	87.75
352.765	76.75
352.992	83.75
353.22	84.75
353.447	96.75
353.674	90.75
353.901	76.75
354.128	82.75
354.355	82.75
354.583	88.75
354.81	76.75
355.037	77.75
355.264	86.75
355.491	87.75
355.718	87.75
355.945	77.75
356.172	92.75
356.399	90.75
356.626	97.75
356.853	89.75
357.08	84.75
357.307	92.75
357.534	91.75
357.761	84.75
357.988	75.75
358.215	87.75
358.441	81.75
358.668	88.75
358.895	80.75
359.122	81.75
359.349	83.75
359.576	96.75
359.802	89.75
360.029	78.75
360.256	84.75
360.483	84.75
360.709	102.75
360.936	96.75
361.163	74.75
361.39	83.75
361.616	90.75
361.843	84.75
362.07	86.75
362.296	85.75
362.523	81.75
362.749	83.75
362.976	81.75
363.203	100.75
363.429	100.75
363.656	88.75
363.882	86.75
364.109	92.75
364.335	85.75
364.562	75.75
364.788	90.75
365.015	84.75
365.241	78.75
365.468	81.75
365.694	83.75
365.92	79.75
366.147	88.75
366.373	74.75
366.599	77.75
366.826	80.75
367.052	91.75
367.278	83.75
367.505	85.75
367.731	93.75
367.957	90.75
368.184	86.75
368.41	83.75
368.636	86.75
368.862	73.75
369.089	87.75
369.315	86.75
369.541	83.75
369.767	88.75
369.993	84.75
370.219	70.75
370.445	87.75
370.672	68.75
370.898	85.75
371.124	89.75
371.35	74.75
371.576	87.75
371.802	93.75
372.028	80.75
372.254	91.75
372.48	66.75
372.706	76.75
372.932	79.75
373.158	86.75
373.384	87.75
373.61	88.75
373.835	88.75
374.061	83.75
374.287	75.75
374.513	76.75
374.739	70.75
374.965	82.75
375.191	84.75
375.416	84.75
375.642	84.75
375.868	97.75
376.094	76.75
376.319	74.75
376.545	80.75
376.771	79.75
376.997	89.75
377.222	67.75
377.448	82.75
377.674	83.75
377.899	89.75
378.125	91.75
378.35	73.75
378.576	76.75
378.802	89.75
379.027	81.75
379.253	70.75
379.478	84.75
379.704	100.75
379.929	70.75
380.155	83.75
380.38	81.75
380.606	80.75
380.831	73.75
381.057	92.75
381.282	89.75
381.507	77.75
381.733	93.75
381.958	88.75
382.184	90.75
382.409	77.75
382.634	77.75
382.86	75.75
383.085	81.75
383.31	98.75
383.535	87.75
383.761	87.75
383.986	96.75
384.211	86.75
384.436	82.75
384.662	74.75
384.887	79.75
385.112	76.75
385.337	79.75
385.562	76.75
385.787	79.75
386.013	98.75
386.238	67.75
386.463	68.75
386.688	95.75
386.913	70.75
387.138	78.75
387.363	90.75
387.588	85.75
387.813	87.75
388.038	85.75
388.263	94.75
388.488	93.75
388.713	94.75
388.938	75.75
389.163	100.75
389.387	99.75
389.612	88.75
389.837	76.75
390.062	74.75
390.287	87.75
390.512	91.75
390.736	81.75
390.961	84.75
391.186	81.75
391.411	86.75
391.636	76.75
391.86	90.75
392.085	83.75
392.31	81.75
392.534	76.75
392.759	90.75
392.984	81.75
393.208	96.75
393.433	89.75
393.658	82.75
393.882	80.75
394.107	83.75
394.331	100.75
394.556	97.75
394.78	64.75
395.005	79.75
395.229	91.75
395.454	88.75
395.678	84.75
395.903	77.75
396.127	93.75
396.352	79.75
396.576	82.75
396.801	77.75
397.025	87.75
397.249	85.75
397.474	89.75
397.698	101.75
397.922	93.75
398.147	94.75
398.371	85.75
398.595	93.75
398.82	89.75
399.044	82.75
399.268	96.75
399.492	109.75
399.717	91.75
399.941	101.75
400.165	77.75
400.389	76.75
400.613	84.75
400.837	83.75
401.062	80.75
401.286	84.75
401.51	84.75
401.734	90.75
401.958	88.75
402.182	79.75
402.406	95.75
402.63	80.75
402.854	86.75
403.078	81.75
403.302	86.75
403.526	75.75
403.75	93.75
403.974	90.75
404.198	80.75
404.422	77.75
404.645	82.75
404.869	91.75
405.093	88.75
405.317	83.75
405.541	84.75
405.765	78.75
405.988	78.75
406.212	94.75
406.436	78.75
406.66	82.75
406.883	100.75
407.107	77.75
407.331	86.75
407.555	85.75
407.778	94.75
408.002	85.75
408.226	68.75
408.449	81.75
408.673	68.75
408.896	86.75
409.12	81.75
409.344	91.75
409.567	88.75
409.791	83.75
410.014	80.75
410.238	92.75
410.461	80.75
410.685	84.75
410.908	87.75
411.132	82.75
411.355	77.75
411.578	86.75
411.802	82.75
412.025	75.75
412.249	71.75
412.472	86.75
412.695	68.75
412.919	83.75
413.142	85.75
413.365	97.75
413.589	75.75
413.812	95.75
414.035	89.75
414.258	84.75
414.482	85.75
414.705	82.75
414.928	82.75
415.151	83.75
415.374	88.75
415.597	77.75
415.821	80.75
416.044	90.75
416.267	89.75
416.49	71.75
416.713	96.75
416.936	87.75
417.159	86.75
417.382	87.75
417.605	72.75
417.828	105.75
418.051	75.75
418.274	86.75
418.497	87.75
418.72	68.75
418.943	104.75
419.166	95.75
419.389	90.75
419.611	84.75
419.834	85.75
420.057	97.75
420.28	84.75
420.503	87.75
420.726	92.75
420.948	90.75
421.171	86.75
421.394	96.75
421.617	85.75
421.839	86.75
422.062	66.75
422.285	71.75
422.507	69.75
422.73	91.75
422.953	76.75
423.175	92.75
423.398	77.75
423.621	80.75
423.843	99.75
424.066	80.75
424.288	70.75
424.511	92.75
424.733	90.75
424.956	85.75
425.178	95.75
425.401	79.75
425.623	84.75
425.846	83.75
426.068	89.75
426.291	67.75
426.513	83.75
426.735	86.75
426.958	81.75
427.18	83.75
427.402	83.75
427.625	75.75
427.847	83.75
428.069	78.75
428.292	96.75
428.514	80.75
428.736	86.75
428.958	98.75
429.181	89.75
429.403	68.75
429.625	83.75
429.847	80.75
430.069	85.75
430.292	73.75
430.514	70.75
430.736	90.75
430.958	71.75
431.18	88.75
431.402	95.75
431.624	85.75
431.846	88.75
432.068	77.75
432.29	87.75
432.512	83.75
432.734	67.75
432.956	83.75
433.178	80.75
433.4	86.75
433.622	76.75
433.844	81.75
434.066	85.75
434.287	87.75
434.509	88.75
434.731	83.75
434.953	85.75
435.175	93.75
435.397	67.75
435.618	85.75
435.84	86.75
436.062	76.75
436.284	95.75
436.505	83.75
436.727	90.75
436.949	89.75
437.17	97.75
437.392	83.75
437.614	90.75
437.835	84.75
438.057	80.75
438.278	78.75
438.5	93.75
438.721	89.75
438.943	80.75
439.165	77.75
439.386	87.75
439.608	84.75
439.829	72.75
440.05	71.75
440.272	84.75
440.493	85.75
440.715	96.75
440.936	94.75
441.158	87.75
441.379	100.75
441.6	79.75
441.822	73.75
442.043	95.75
442.264	95.75
442.486	80.75
442.707	80.75
442.928	78.75
443.149	89.75
443.371	96.75
443.592	84.75
443.813	93.75
444.034	86.75
444.255	87.75
444.476	96.75
444.698	81.75
444.919	86.75
445.14	205.75
445.361	128.75
445.582	90.75
445.803	82.75
446.024	101.75
446.245	103.75
446.466	87.75
446.687	78.75
446.908	88.75
447.129	84.75
447.35	88.75
447.571	89.75
447.792	100.75
448.013	75.75
448.234	83.75
448.455	84.75
448.675	83.75
448.896	70.75
449.117	89.75
449.338	91.75
449.559	77.75
449.779	85.75
450	85.75
450.221	88.75
450.442	84.75
450.662	84.75
450.883	84.75
451.104	85.75
451.324	83.75
451.545	87.75
451.766	79.75
451.986	84.75
452.207	97.75
452.428	74.75
452.648	89.75
452.869	84.75
453.089	81.75
453.31	103.75
453.53	84.75
453.751	89.75
453.971	82.75
454.192	88.75
454.412	75.75
454.633	68.75
454.853	78.75
455.073	83.75
455.294	81.75
455.514	81.75
455.734	70.75
455.955	83.75
456.175	77.75
456.395	78.75
456.616	96.75
456.836	99.75
457.056	84.75
457.276	81.75
457.497	87.75
457.717	77.75
457.937	89.75
458.157	88.75
458.377	65.75
458.598	76.75
458.818	86.75
459.038	84.75
459.258	103.75
459.478	89.75
459.698	81.75
459.918	91.75
460.138	96.75
460.358	83.75
460.578	79.75
460.798	97.75
461.018	89.75
461.238	91.75
461.458	78.75
461.678	81.75
461.898	94.75
462.118	80.75
462.338	86.75
462.558	99.75
462.777	98.75
462.997	76.75
463.217	93.75
463.437	95.75
463.657	83.75
463.876	83.75
464.096	77.75
464.316	91.75
464.536	88.75
464.755	95.75
464.975	87.75
465.195	79.75
465.414	75.75
465.634	86.75
465.854	78.75
466.073	87.75
466.293	85.75
466.512	77.75
466.732	82.75
466.951	81.75
467.171	91.75
467.391	81.75
467.61	77.75
467.829	81.75
468.049	82.75
468.268	79.75
468.488	87.75
468.707	100.75
468.927	77.75
469.146	90.75
469.365	85.75
469.585	74.75
469.804	99.75
470.023	90.75
470.243	82.75
470.462	88.75
470.681	80.75
470.901	86.75
471.12	78.75
471.339	91.75
471.558	88.75
471.777	86.75
471.997	71.75
472.216	90.75
472.435	89.75
472.654	80.75
472.873	85.75
473.092	92.75
473.311	98.75
473.53	90.75
473.749	92.75
473.968	99.75
474.187	86.75
474.406	94.75
474.625	79.75
474.844	92.75
475.063	76.75
475.282	84.75
475.501	89.75
475.72	96.75
475.939	89.75
476.158	99.75
476.377	74.75
476.596	83.75
476.814	77.75
477.033	87.75
477.252	97.75
477.471	83.75
477.69	89.75
477.908	84.75
478.127	89.75
478.346	79.75
478.564	96.75
478.783	102.75
479.002	74.75
479.22	92.75
479.439	85.75
479.658	83.75
479.876	91.75
480.095	81.75
480.313	77.75
480.532	93.75
480.751	96.75
480.969	87.75
481.188	83.75
481.406	102.75
481.624	96.75
481.843	70.75
482.061	75.75
482.28	80.75
482.498	92.75
482.717	100.75
482.935	85.75
483.153	79.75
483.372	104.75
483.59	92.75
483.808	98.75
484.027	91.75
484.245	91.75
484.463	86.75
484.681	108.75
484.9	88.75
485.118	90.75
485.336	86.75
485.554	87.75
485.772	81.75
485.99	93.75
486.209	89.75
486.427	91.75
486.645	92.75
486.863	77.75
487.081	94.75
487.299	91.75
487.517	71.75
487.735	95.75
487.953	92.75
488.171	102.75
488.389	99.75
488.607	99.75
488.825	77.75
489.043	81.75
489.261	95.75
489.479	90.75
489.696	98.75
489.914	101.75
490.132	86.75
490.35	100.75
490.568	89.75
490.786	89.75
491.003	79.75
491.221	90.75
491.439	97.75
491.657	97.75
491.874	87.75
492.092	105.75
492.31	117.75
492.527	83.75
492.745	90.75
492.963	90.75
493.18	100.75
493.398	93.75
493.615	89.75
493.833	98.75
494.05	92.75
494.268	93.75
494.485	99.75
494.703	84.75
494.92	84.75
495.138	107.75
495.355	85.75
495.573	91.75
495.79	97.75
496.008	105.75
496.225	92.75
496.442	100.75
496.66	84.75
496.877	87.75
497.094	86.75
497.312	96.75
497.529	82.75
497.746	98.75
497.963	77.75
498.181	90.75
498.398	96.75
498.615	92.75
498.832	80.75
499.049	91.75
499.267	105.75
499.484	89.75
499.701	99.75
499.918	111.75
500.135	110.75
500.352	116.75
500.569	100.75
500.786	106.75
501.003	101.75
501.22	102.75
501.437	92.75
501.654	105.75
501.871	99.75
502.088	102.75
502.305	101.75
502.522	98.75
502.739	101.75
502.956	95.75
503.172	106.75
503.389	94.75
503.606	100.75
503.823	85.75
504.04	83.75
504.256	99.75
504.473	85.75
504.69	96.75
504.907	97.75
505.123	87.75
505.34	87.75
505.557	97.75
505.773	90.75
505.99	81.75
506.207	98.75
506.423	93.75
506.64	89.75
506.856	101.75
507.073	92.75
507.289	88.75
507.506	95.75
507.722	90.75
507.939	86.75
508.155	93.75
508.372	91.75
508.588	98.75
508.805	95.75
509.021	85.75
509.238	98.75
509.454	97.75
509.67	91.75
509.887	96.75
510.103	86.75
510.319	86.75
510.536	79.75
510.752	91.75
510.968	102.75
511.184	85.75
511.401	89.75
511.617	92.75
511.833	98.75
512.049	91.75
512.265	91.75
512.481	95.75
512.698	93.75
512.914	84.75
513.13	89.75
513.346	90.75
513.562	89.75
513.778	87.75
513.994	109.75
514.21	84.75
514.426	98.75
514.642	106.75
514.858	84.75
515.074	83.75
515.29	92.75
515.506	99.75
515.721	104.75
515.937	90.75
516.153	87.75
516.369	89.75
516.585	92.75
516.801	85.75
517.016	98.75
517.232	90.75
517.448	89.75
517.664	93.75
517.879	95.75
518.095	81.75
518.311	89.75
518.527	89.75
518.742	95.75
518.958	96.75
519.173	86.75
519.389	95.75
519.605	89.75
519.82	89.75
520.036	99.75
520.251	84.75
520.467	93.75
520.682	93.75
520.898	98.75
521.113	71.75
521.329	88.75
521.544	74.75
521.76	101.75
521.975	88.75
522.19	88.75
522.406	89.75
522.621	82.75
522.836	78.75
523.052	92.75
523.267	84.75
523.482	82.75
523.698	98.75
523.913	90.75
524.128	87.75
524.343	105.75
524.559	93.75
524.774	83.75
524.989	91.75
525.204	76.75
525.419	83.75
525.634	93.75
525.849	91.75
526.064	85.75
526.28	95.75
526.495	97.75
526.71	74.75
526.925	85.75
527.14	78.75
527.355	81.75
527.57	98.75
527.785	96.75
527.999	75.75
528.214	89.75
528.429	89.75
528.644	90.75
528.859	99.75
529.074	82.75
529.289	78.75
529.503	87.75
529.718	76.75
529.933	93.75
530.148	96.75
530.363	83.75
530.577	78.75
530.792	103.75
531.007	100.75
531.221	92.75
531.436	83.75
531.651	93.75
531.865	91.75
532.08	85.75
532.295	90.75
532.509	85.75
532.724	93.75
532.938	87.75
533.153	81.75
533.367	93.75
533.582	96.75
533.796	87.75
534.011	95.75
534.225	88.75
534.44	81.75
534.654	92.75
534.868	86.75
535.083	85.75
535.297	89.75
535.511	90.75
535.726	96.75
535.94	83.75
536.154	85.75
536.369	91.75
536.583	84.75
536.797	92.75
537.011	92.75
537.225	81.75
537.44	101.75
537.654	88.75
537.868	80.75
538.082	89.75
538.296	93.75
538.51	86.75
538.724	100.75
538.938	86.75
539.153	94.75
539.367	86.75
539.581	73.75
539.795	85.75
540.009	97.75
540.222	93.75
540.436	82.75
540.65	96.75
540.864	80.75
541.078	99.75
541.292	91.75
541.506	91.75
541.72	100.75
541.934	87.75
542.147	83.75
542.361	91.75
542.575	77.75
542.789	100.75
543.002	94.75
543.216	77.75
543.43	89.75
543.644	93.75
543.857	93.75
544.071	91.75
544.285	91.75
544.498	96.75
544.712	82.75
544.925	86.75
545.139	77.75
545.352	84.75
545.566	91.75
545.779	97.75
545.993	94.75
546.206	98.75
546.42	88.75
546.633	100.75
546.847	86.75
547.06	98.75
547.274	88.75
547.487	104.75
547.7	87.75
547.914	95.75
548.127	98.75
548.34	100.75
548.554	96.75
548.767	103.75
548.98	93.75
549.193	108.75
549.407	92.75
549.62	105.75
549.833	92.75
550.046	77.75
550.259	85.75
550.473	95.75
550.686	92.75
550.899	80.75
551.112	100.75
551.325	87.75
551.538	89.75
551.751	75.75
551.964	97.75
552.177	98.75
552.39	88.75
552.603	88.75
552.816	77.75
553.029	81.75
553.242	95.75
553.455	93.75
553.667	96.75
553.88	88.75
554.093	82.75
554.306	94.75
554.519	97.75
554.732	99.75
554.944	88.75
555.157	88.75
555.37	93.75
555.583	77.75
555.795	83.75
556.008	82.75
556.221	83.75
556.433	93.75
556.646	96.75
556.859	87.75
557.071	83.75
557.284	89.75
557.496	97.75
557.709	76.75
557.921	94.75
558.134	101.75
558.346	88.75
558.559	83.75
558.771	98.75
558.984	95.75
559.196	92.75
559.409	101.75
559.621	86.75
559.833	88.75
560.046	77.75
560.258	87.75
560.47	115.75
560.683	77.75
560.895	88.75
561.107	84.75
561.32	90.75
561.532	83.75
561.744	75.75
561.956	84.75
562.168	97.75
562.381	86.75
562.593	97.75
562.805	95.75
563.017	81.75
563.229	78.75
563.441	81.75
563.653	99.75
563.865	91.75
564.077	82.75
564.289	101.75
564.501	90.75
564.713	89.75
564.925	95.75
565.137	81.75
565.349	92.75
565.561	101.75
565.773	71.75
565.985	88.75
566.197	89.75
566.408	100.75
566.62	93.75
566.832	96.75
567.044	90.75
567.255	78.75
567.467	75.75
567.679	83.75
567.891	91.75
568.102	100.75
568.314	103.75
568.526	91.75
568.737	72.75
568.949	88.75
569.161	91.75
569.372	87.75
569.584	84.75
569.795	91.75
570.007	94.75
570.218	83.75
570.43	92.75
570.641	97.75
570.853	77.75
571.064	92.75
571.276	81.75
571.487	79.75
571.698	88.75
571.91	82.75
572.121	81.75
572.333	83.75
572.544	90.75
572.755	89.75
572.966	82.75
573.178	100.75
573.389	96.75
573.6	96.75
573.811	97.75
574.023	96.75
574.234	88.75
574.445	105.75
574.656	96.75
574.867	81.75
575.078	87.75
575.289	98.75
575.501	89.75
575.712	86.75
575.923	70.75
576.134	83.75
576.345	92.75
576.556	75.75
576.767	88.75
576.978	69.75
577.188	73.75
577.399	91.75
577.61	93.75
577.821	86.75
578.032	76.75
578.243	84.75
578.454	85.75
578.665	69.75
578.875	86.75
579.086	87.75
579.297	82.75
579.508	81.75
579.718	87.75
579.929	72.75
580.14	76.75
580.35	84.75
580.561	77.75
580.772	73.75
580.982	70.75
581.193	80.75
581.403	80.75
581.614	81.75
581.825	83.75
582.035	90.75
582.246	76.75
582.456	84.75
582.667	85.75
582.877	83.75
583.087	71.75
583.298	79.75
583.508	75.75
583.719	90.75
583.929	77.75
584.139	85.75
584.35	88.75
584.56	87.75
584.77	85.75
584.981	85.75
585.191	87.75
585.401	93.75
585.611	88.75
585.821	83.75
586.032	86.75
586.242	91.75
586.452	79.75
586.662	81.75
586.872	71.75
587.082	80.75
587.292	84.75
587.502	94.75
587.713	74.75
587.923	83.75
588.133	87.75
588.343	78.75
588.553	79.75
588.762	87.75
588.972	89.75
589.182	84.75
589.392	83.75
589.602	81.75
589.812	85.75
590.022	83.75
590.232	72.75
590.441	87.75
590.651	85.75
590.861	80.75
591.071	87.75
591.281	90.75
591.49	85.75
591.7	81.75
591.91	87.75
592.119	72.75
592.329	91.75
592.539	72.75
592.748	90.75
592.958	77.75
593.167	90.75
593.377	87.75
593.587	89.75
593.796	88.75
594.006	85.75
594.215	81.75
594.424	75.75
594.634	70.75
594.843	81.75
595.053	79.75
595.262	70.75
595.472	80.75
595.681	80.75
595.89	92.75
596.1	86.75
596.309	98.75
596.518	86.75
596.727	75.75
596.937	72.75
597.146	72.75
597.355	93.75
597.564	84.75
597.774	79.75
597.983	77.75
598.192	96.75
598.401	83.75
598.61	80.75
598.819	91.75
599.028	88.75
599.237	90.75
599.446	95.75
599.655	101.75
599.864	90.75
600.073	88.75
600.282	89.75
600.491	92.75
600.7	80.75
600.909	96.75
601.118	80.75
601.327	75.75
601.536	72.75
601.745	79.75
601.953	81.75
602.162	84.75
602.371	76.75
602.58	82.75
602.789	94.75
602.997	93.75
603.206	83.75
603.415	95.75
603.623	83.75
603.832	85.75
604.041	88.75
604.249	85.75
604.458	89.75
604.666	79.75
604.875	82.75
605.084	83.75
605.292	86.75
605.501	91.75
605.709	97.75
605.918	86.75
606.126	85.75
606.334	87.75
606.543	81.75
606.751	84.75
606.96	95.75
607.168	77.75
607.376	87.75
607.585	89.75
607.793	91.75
608.001	79.75
608.21	87.75
608.418	79.75
608.626	79.75
608.834	89.75
609.043	77.75
609.251	92.75
609.459	75.75
609.667	73.75
609.875	72.75
610.083	87.75
610.291	73.75
610.499	91.75
610.707	75.75
610.916	76.75
611.124	88.75
611.332	92.75
611.54	77.75
611.748	76.75
611.955	85.75
612.163	87.75
612.371	83.75
612.579	98.75
612.787	73.75
612.995	91.75
613.203	88.75
613.411	76.75
613.618	55.75
613.826	76.75
614.034	90.75
614.242	83.75
614.449	80.75
614.657	81.75
614.865	75.75
615.072	67.75
615.28	86.75
615.488	78.75
615.695	81.75
615.903	80.75
616.111	81.75
616.318	87.75
616.526	84.75
616.733	90.75
616.941	81.75
617.148	70.75
617.356	93.75
617.563	73.75
617.771	83.75
617.978	73.75
618.185	92.75
618.393	84.75
618.6	75.75
618.807	74.75
619.015	81.75
619.222	94.75
619.429	84.75
619.637	82.75
619.844	82.75
620.051	83.75
620.258	83.75
620.466	92.75
620.673	76.75
620.88	108.75
621.087	78.75
621.294	86.75
621.501	75.75
621.708	86.75
621.915	87.75
622.122	90.75
622.329	87.75
622.536	91.75
622.743	88.75
622.95	71.75
623.157	76.75
623.364	97.75
623.571	78.75
623.778	84.75
623.985	89.75
624.192	89.75
624.399	87.75
624.606	85.75
624.812	85.75
625.019	87.75
625.226	100.75
625.433	74.75
625.639	79.75
625.846	82.75
626.053	78.75
626.259	67.75
626.466	96.75
626.673	76.75
626.879	72.75
627.086	78.75
627.293	94.75
627.499	87.75
627.706	91.75
627.912	83.75
628.119	87.75
628.325	75.75
628.532	83.75
628.738	79.75
628.945	83.75
629.151	88.75
629.357	86.75
629.564	80.75
629.77	64.75
629.976	85.75
630.183	86.75
630.389	76.75
630.595	82.75
630.802	82.75
631.008	77.75
631.214	90.75
631.42	95.75
631.627	70.75
631.833	93.75
632.039	71.75
632.245	79.75
632.451	89.75
632.657	87.75
632.863	78.75
633.069	75.75
633.275	82.75
633.481	80.75
633.688	75.75
633.893	72.75
634.099	72.75
634.305	84.75
634.511	79.75
634.717	82.75
634.923	64.75
635.129	75.75
635.335	85.75
635.541	89.75
635.747	85.75
635.952	85.75
636.158	73.75
636.364	81.75
636.57	89.75
636.775	91.75
636.981	92.75
637.187	86.75
637.392	79.75
637.598	78.75
637.804	74.75
638.009	99.75
638.215	82.75
638.421	83.75
638.626	69.75
638.832	81.75
639.037	83.75
639.243	94.75
639.448	87.75
639.654	76.75
639.859	81.75
640.065	90.75
640.27	81.75
640.475	93.75
640.681	87.75
640.886	77.75
641.091	79.75
641.297	89.75
641.502	83.75
641.707	74.75
641.913	83.75
642.118	83.75
642.323	91.75
642.528	89.75
642.733	78.75
642.939	91.75
643.144	95.75
643.349	92.75
643.554	79.75
643.759	81.75
643.964	74.75
644.169	87.75
644.374	81.75
644.579	92.75
644.784	81.75
644.989	84.75
645.194	85.75
645.399	88.75
645.604	81.75
645.809	87.75
646.014	77.75
646.219	87.75
646.423	84.75
646.628	74.75
646.833	91.75
647.038	91.75
647.243	82.75
647.447	68.75
647.652	80.75
647.857	72.75
648.062	97.75
648.266	86.75
648.471	82.75
648.676	83.75
648.88	75.75
649.085	75.75
649.289	92.75
649.494	90.75
649.698	86.75
649.903	92.75
650.107	88.75
650.312	83.75
650.516	81.75
650.721	76.75
650.925	84.75
651.13	87.75
651.334	79.75
651.539	85.75
651.743	88.75
651.947	83.75
652.152	84.75
652.356	81.75
652.56	81.75
652.764	77.75
652.969	85.75
653.173	73.75
653.377	73.75
653.581	80.75
653.785	89.75
653.99	79.75
654.194	84.75
654.398	92.75
654.602	87.75
654.806	91.75
655.01	84.75
655.214	82.75
655.418	87.75
655.622	73.75
655.826	74.75
656.03	89.75
656.234	81.75
656.438	79.75
656.642	72.75
656.846	65.75
657.049	80.75
657.253	80.75
657.457	77.75
657.661	81.75
657.865	72.75
658.068	78.75
658.272	77.75
658.476	81.75
658.68	79.75
658.883	91.75
659.087	83.75
659.291	81.75
659.494	70.75
659.698	85.75
659.901	71.75
660.105	79.75
660.309	85.75
660.512	79.75
660.716	76.75
660.919	91.75
661.123	89.75
661.326	62.75
661.53	81.75
661.733	74.75
661.936	88.75
662.14	71.75
662.343	75.75
662.546	89.75
662.75	90.75
662.953	83.75
663.156	69.75
663.36	89.75
663.563	76.75
663.766	86.75
663.969	95.75
664.173	76.75
664.376	65.75
664.579	85.75
664.782	73.75
664.985	65.75
665.188	88.75
665.391	83.75
665.594	84.75
665.797	74.75
666	84.75
666.203	82.75
666.406	77.75
666.609	84.75
666.812	85.75
667.015	80.75
667.218	86.75
667.421	91.75
667.624	79.75
667.827	84.75
668.03	73.75
668.232	73.75
668.435	85.75
668.638	73.75
668.841	86.75
669.043	72.75
669.246	84.75
669.449	75.75
669.651	80.75
669.854	79.75
670.057	82.75
670.259	87.75
670.462	70.75
670.665	68.75
670.867	75.75
671.07	75.75
671.272	88.75
671.475	94.75
671.677	91.75
671.88	73.75
672.082	73.75
672.284	76.75
672.487	74.75
672.689	88.75
672.892	73.75
