Data from Ni(NO3)2@0.5M.TitratingCurve.Agarose3%dH2O.NegLispCup.LampEnergy10.LIBS07252019_HRD10591_17-59-45-564.txt Node
Date: Thu Jul 25 17:59:45 EDT 2019
User: cochatt
Spectrometer: HR+D1059
Trigger mode: 1
Integration Time (sec): 1.000000E-1
Scans to average: 1
Electric dark correction enabled: true
Nonlinearity correction enabled: false
Boxcar width: 0
XAxis mode: Wavelengths
Number of Pixels in Spectrum: 2048
>>>>>Begin Spectral Data<<<<<
223.165	-12.62
223.4	-12.62
223.635	-12.62
223.869	-21.62
224.104	-18.62
224.338	-21.62
224.573	-4.62
224.808	-15.62
225.042	-13.62
225.277	-2.62
225.511	-5.62
225.746	4.38
225.98	10.38
226.215	12.38
226.449	20.38
226.683	15.38
226.918	25.38
227.152	28.38
227.387	32.38
227.621	40.38
227.856	39.38
228.09	50.38
228.324	46.38
228.559	50.38
228.793	67.38
229.027	93.38
229.262	101.38
229.496	108.38
229.73	105.38
229.964	122.38
230.199	138.38
230.433	126.38
230.667	130.38
230.901	118.38
231.136	108.38
231.37	109.38
231.604	118.38
231.838	152.38
232.072	150.38
232.306	126.38
232.541	103.38
232.775	134.38
233.009	120.38
233.243	125.38
233.477	123.38
233.711	102.38
233.945	119.38
234.179	120.38
234.413	120.38
234.647	127.38
234.881	133.38
235.115	118.38
235.349	125.38
235.583	105.38
235.817	125.38
236.051	116.38
236.285	121.38
236.519	116.38
236.753	102.38
236.987	118.38
237.221	115.38
237.455	120.38
237.689	134.38
237.922	128.38
238.156	116.38
238.39	113.38
238.624	127.38
238.858	132.38
239.091	135.38
239.325	133.38
239.559	137.38
239.793	132.38
240.027	140.38
240.26	130.38
240.494	142.38
240.728	123.38
240.961	132.38
241.195	135.38
241.429	131.38
241.662	142.38
241.896	146.38
242.13	139.38
242.363	150.38
242.597	139.38
242.83	130.38
243.064	139.38
243.298	135.38
243.531	145.38
243.765	132.38
243.998	162.38
244.232	136.38
244.465	148.38
244.699	136.38
244.932	149.38
245.166	134.38
245.399	144.38
245.633	145.38
245.866	146.38
246.099	132.38
246.333	142.38
246.566	147.38
246.8	139.38
247.033	155.38
247.266	139.38
247.5	148.38
247.733	151.38
247.966	169.38
248.2	155.38
248.433	158.38
248.666	148.38
248.899	179.38
249.133	166.38
249.366	180.38
249.599	160.38
249.832	166.38
250.066	147.38
250.299	152.38
250.532	171.38
250.765	166.38
250.998	180.38
251.231	165.38
251.465	181.38
251.698	178.38
251.931	182.38
252.164	180.38
252.397	177.38
252.63	174.38
252.863	182.38
253.096	179.38
253.329	191.38
253.562	168.38
253.795	173.38
254.028	169.38
254.261	182.38
254.494	182.38
254.727	168.38
254.96	188.38
255.193	186.38
255.426	181.38
255.659	178.38
255.892	186.38
256.124	190.38
256.357	213.38
256.59	205.38
256.823	193.38
257.056	190.38
257.289	191.38
257.521	202.38
257.754	185.38
257.987	200.38
258.22	193.38
258.452	178.38
258.685	190.38
258.918	189.38
259.151	183.38
259.383	195.38
259.616	195.38
259.849	207.38
260.081	231.38
260.314	211.38
260.547	196.38
260.779	196.38
261.012	201.38
261.244	220.38
261.477	218.38
261.71	204.38
261.942	205.38
262.175	216.38
262.407	214.38
262.64	211.38
262.872	226.38
263.105	208.38
263.337	211.38
263.57	217.38
263.802	203.38
264.035	224.38
264.267	214.38
264.499	208.38
264.732	213.38
264.964	228.38
265.197	219.38
265.429	229.38
265.661	214.38
265.894	222.38
266.126	236.38
266.358	212.38
266.591	210.38
266.823	221.38
267.055	225.38
267.287	224.38
267.52	228.38
267.752	239.38
267.984	242.38
268.216	229.38
268.448	236.38
268.681	250.38
268.913	243.38
269.145	238.38
269.377	222.38
269.609	257.38
269.841	230.38
270.073	236.38
270.306	251.38
270.538	237.38
270.77	233.38
271.002	243.38
271.234	233.38
271.466	241.38
271.698	246.38
271.93	232.38
272.162	254.38
272.394	274.38
272.626	217.38
272.858	238.38
273.09	245.38
273.322	264.38
273.553	266.38
273.785	267.38
274.017	254.38
274.249	250.38
274.481	244.38
274.713	252.38
274.945	247.38
275.176	251.38
275.408	265.38
275.64	246.38
275.872	250.38
276.104	261.38
276.335	254.38
276.567	260.38
276.799	259.38
277.031	269.38
277.262	271.38
277.494	265.38
277.726	264.38
277.957	264.38
278.189	274.38
278.421	276.38
278.652	258.38
278.884	280.38
279.115	264.38
279.347	279.38
279.579	278.38
279.81	274.38
280.042	295.38
280.273	282.38
280.505	266.38
280.736	279.38
280.968	290.38
281.199	265.38
281.431	292.38
281.662	284.38
281.894	276.38
282.125	296.38
282.356	282.38
282.588	274.38
282.819	290.38
283.051	279.38
283.282	282.38
283.513	295.38
283.745	306.38
283.976	292.38
284.207	277.38
284.439	294.38
284.67	290.38
284.901	317.38
285.132	285.38
285.364	285.38
285.595	305.38
285.826	286.38
286.057	298.38
286.288	306.38
286.52	314.38
286.751	304.38
286.982	316.38
287.213	299.38
287.444	306.38
287.675	301.38
287.906	312.38
288.138	317.38
288.369	305.38
288.6	320.38
288.831	305.38
289.062	317.38
289.293	311.38
289.524	315.38
289.755	318.38
289.986	301.38
290.217	324.38
290.448	311.38
290.679	298.38
290.91	314.38
291.141	298.38
291.371	304.38
291.602	309.38
291.833	306.38
292.064	329.38
292.295	312.38
292.526	305.38
292.757	297.38
292.987	306.38
293.218	294.38
293.449	316.38
293.68	328.38
293.91	321.38
294.141	315.38
294.372	330.38
294.603	311.38
294.833	339.38
295.064	315.38
295.295	311.38
295.525	326.38
295.756	314.38
295.987	300.38
296.217	312.38
296.448	325.38
296.679	334.38
296.909	324.38
297.14	323.38
297.37	337.38
297.601	339.38
297.831	330.38
298.062	338.38
298.292	339.38
298.523	345.38
298.753	338.38
298.984	344.38
299.214	331.38
299.445	345.38
299.675	336.38
299.905	359.38
300.136	350.38
300.366	370.38
300.597	377.38
300.827	342.38
301.057	358.38
301.288	355.38
301.518	344.38
301.748	350.38
301.979	354.38
302.209	364.38
302.439	341.38
302.669	357.38
302.9	358.38
303.13	363.38
303.36	368.38
303.59	344.38
303.82	349.38
304.051	378.38
304.281	370.38
304.511	342.38
304.741	363.38
304.971	364.38
305.201	387.38
305.431	382.38
305.661	370.38
305.891	355.38
306.121	370.38
306.352	358.38
306.582	361.38
306.812	340.38
307.042	371.38
307.272	373.38
307.502	354.38
307.731	384.38
307.961	354.38
308.191	379.38
308.421	376.38
308.651	369.38
308.881	354.38
309.111	376.38
309.341	351.38
309.571	365.38
309.8	361.38
310.03	381.38
310.26	386.38
310.49	396.38
310.72	392.38
310.949	358.38
311.179	352.38
311.409	361.38
311.639	374.38
311.868	388.38
312.098	379.38
312.328	392.38
312.557	379.38
312.787	373.38
313.017	382.38
313.246	394.38
313.476	377.38
313.706	411.38
313.935	382.38
314.165	406.38
314.394	387.38
314.624	375.38
314.853	401.38
315.083	389.38
315.312	404.38
315.542	382.38
315.771	380.38
316.001	390.38
316.23	389.38
316.46	382.38
316.689	393.38
316.919	398.38
317.148	386.38
317.377	403.38
317.607	375.38
317.836	386.38
318.065	399.38
318.295	395.38
318.524	411.38
318.753	402.38
318.983	396.38
319.212	384.38
319.441	382.38
319.67	403.38
319.9	407.38
320.129	399.38
320.358	417.38
320.587	394.38
320.816	401.38
321.046	402.38
321.275	395.38
321.504	419.38
321.733	395.38
321.962	393.38
322.191	410.38
322.42	400.38
322.649	416.38
322.878	401.38
323.108	408.38
323.337	416.38
323.566	421.38
323.795	443.38
324.024	420.38
324.253	398.38
324.482	436.38
324.71	437.38
324.939	427.38
325.168	429.38
325.397	423.38
325.626	425.38
325.855	430.38
326.084	422.38
326.313	433.38
326.542	410.38
326.77	430.38
326.999	438.38
327.228	447.38
327.457	406.38
327.686	416.38
327.914	441.38
328.143	426.38
328.372	436.38
328.6	437.38
328.829	429.38
329.058	422.38
329.287	436.38
329.515	456.38
329.744	429.38
329.972	456.38
330.201	432.38
330.43	456.38
330.658	439.38
330.887	439.38
331.115	477.38
331.344	467.38
331.572	449.38
331.801	487.38
332.03	450.38
332.258	467.38
332.486	473.38
332.715	453.38
332.943	481.38
333.172	491.38
333.4	497.38
333.629	495.38
333.857	510.38
334.085	524.38
334.314	515.38
334.542	486.38
334.771	511.38
334.999	493.38
335.227	515.38
335.455	495.38
335.684	514.38
335.912	489.38
336.14	491.38
336.369	521.38
336.597	503.38
336.825	516.38
337.053	537.38
337.281	517.38
337.51	490.38
337.738	507.38
337.966	497.38
338.194	512.38
338.422	497.38
338.65	510.38
338.878	492.38
339.106	502.38
339.334	518.38
339.562	499.38
339.79	479.38
340.018	474.38
340.246	464.38
340.474	478.38
340.702	481.38
340.93	474.38
341.158	479.38
341.386	486.38
341.614	510.38
341.842	492.38
342.07	479.38
342.298	498.38
342.526	480.38
342.754	470.38
342.981	473.38
343.209	500.38
343.437	497.38
343.665	524.38
343.893	505.38
344.12	526.38
344.348	514.38
344.576	497.38
344.804	504.38
345.031	505.38
345.259	480.38
345.487	483.38
345.714	496.38
345.942	511.38
346.17	506.38
346.397	479.38
346.625	466.38
346.853	452.38
347.08	462.38
347.308	470.38
347.535	472.38
347.763	453.38
347.99	476.38
348.218	466.38
348.445	446.38
348.673	470.38
348.9	475.38
349.128	456.38
349.355	478.38
349.583	465.38
349.81	467.38
350.037	451.38
350.265	445.38
350.492	452.38
350.72	467.38
350.947	455.38
351.174	479.38
351.402	485.38
351.629	469.38
351.856	459.38
352.083	468.38
352.311	470.38
352.538	493.38
352.765	487.38
352.992	452.38
353.22	446.38
353.447	428.38
353.674	475.38
353.901	436.38
354.128	448.38
354.355	449.38
354.583	453.38
354.81	440.38
355.037	446.38
355.264	444.38
355.491	445.38
355.718	442.38
355.945	456.38
356.172	436.38
356.399	439.38
356.626	466.38
356.853	462.38
357.08	474.38
357.307	463.38
357.534	446.38
357.761	428.38
357.988	449.38
358.215	449.38
358.441	464.38
358.668	451.38
358.895	464.38
359.122	456.38
359.349	448.38
359.576	441.38
359.802	442.38
360.029	450.38
360.256	468.38
360.483	440.38
360.709	468.38
360.936	454.38
361.163	462.38
361.39	447.38
361.616	471.38
361.843	480.38
362.07	498.38
362.296	497.38
362.523	460.38
362.749	455.38
362.976	463.38
363.203	462.38
363.429	452.38
363.656	430.38
363.882	454.38
364.109	458.38
364.335	436.38
364.562	464.38
364.788	429.38
365.015	472.38
365.241	442.38
365.468	453.38
365.694	437.38
365.92	456.38
366.147	460.38
366.373	463.38
366.599	460.38
366.826	469.38
367.052	440.38
367.278	458.38
367.505	429.38
367.731	439.38
367.957	472.38
368.184	454.38
368.41	448.38
368.636	460.38
368.862	455.38
369.089	466.38
369.315	448.38
369.541	472.38
369.767	464.38
369.993	455.38
370.219	442.38
370.445	501.38
370.672	461.38
370.898	462.38
371.124	477.38
371.35	465.38
371.576	459.38
371.802	485.38
372.028	478.38
372.254	493.38
372.48	485.38
372.706	504.38
372.932	487.38
373.158	500.38
373.384	486.38
373.61	497.38
373.835	493.38
374.061	477.38
374.287	497.38
374.513	480.38
374.739	504.38
374.965	497.38
375.191	491.38
375.416	508.38
375.642	512.38
375.868	507.38
376.094	490.38
376.319	500.38
376.545	492.38
376.771	491.38
376.997	467.38
377.222	466.38
377.448	461.38
377.674	468.38
377.899	474.38
378.125	481.38
378.35	481.38
378.576	486.38
378.802	471.38
379.027	501.38
379.253	490.38
379.478	482.38
379.704	461.38
379.929	463.38
380.155	472.38
380.38	459.38
380.606	477.38
380.831	496.38
381.057	488.38
381.282	470.38
381.507	479.38
381.733	484.38
381.958	489.38
382.184	473.38
382.409	494.38
382.634	507.38
382.86	488.38
383.085	474.38
383.31	498.38
383.535	515.38
383.761	499.38
383.986	501.38
384.211	498.38
384.436	510.38
384.662	514.38
384.887	530.38
385.112	505.38
385.337	546.38
385.562	542.38
385.787	549.38
386.013	558.38
386.238	537.38
386.463	536.38
386.688	551.38
386.913	569.38
387.138	536.38
387.363	545.38
387.588	535.38
387.813	566.38
388.038	548.38
388.263	525.38
388.488	547.38
388.713	547.38
388.938	544.38
389.163	532.38
389.387	547.38
389.612	525.38
389.837	551.38
390.062	546.38
390.287	560.38
390.512	546.38
390.736	551.38
390.961	555.38
391.186	554.38
391.411	550.38
391.636	562.38
391.86	564.38
392.085	548.38
392.31	590.38
392.534	587.38
392.759	593.38
392.984	568.38
393.208	558.38
393.433	579.38
393.658	578.38
393.882	568.38
394.107	568.38
394.331	564.38
394.556	562.38
394.78	560.38
395.005	583.38
395.229	555.38
395.454	585.38
395.678	604.38
395.903	584.38
396.127	581.38
396.352	594.38
396.576	561.38
396.801	592.38
397.025	582.38
397.249	590.38
397.474	617.38
397.698	585.38
397.922	602.38
398.147	594.38
398.371	634.38
398.595	624.38
398.82	647.38
399.044	684.38
399.268	679.38
399.492	723.38
399.717	745.38
399.941	760.38
400.165	763.38
400.389	703.38
400.613	674.38
400.837	660.38
401.062	667.38
401.286	644.38
401.51	652.38
401.734	652.38
401.958	640.38
402.182	622.38
402.406	658.38
402.63	638.38
402.854	642.38
403.078	620.38
403.302	658.38
403.526	652.38
403.75	641.38
403.974	655.38
404.198	649.38
404.422	690.38
404.645	650.38
404.869	674.38
405.093	685.38
405.317	656.38
405.541	660.38
405.765	659.38
405.988	673.38
406.212	688.38
406.436	680.38
406.66	716.38
406.883	700.38
407.107	717.38
407.331	727.38
407.555	753.38
407.778	739.38
408.002	741.38
408.226	726.38
408.449	770.38
408.673	719.38
408.896	702.38
409.12	704.38
409.344	694.38
409.567	690.38
409.791	670.38
410.014	673.38
410.238	694.38
410.461	707.38
410.685	666.38
410.908	668.38
411.132	691.38
411.355	674.38
411.578	642.38
411.802	672.38
412.025	672.38
412.249	682.38
412.472	666.38
412.695	675.38
412.919	650.38
413.142	672.38
413.365	670.38
413.589	672.38
413.812	653.38
414.035	632.38
414.258	634.38
414.482	637.38
414.705	654.38
414.928	645.38
415.151	645.38
415.374	641.38
415.597	650.38
415.821	644.38
416.044	636.38
416.267	617.38
416.49	652.38
416.713	610.38
416.936	619.38
417.159	606.38
417.382	640.38
417.605	605.38
417.828	630.38
418.051	637.38
418.274	620.38
418.497	616.38
418.72	635.38
418.943	614.38
419.166	632.38
419.389	678.38
419.611	655.38
419.834	642.38
420.057	641.38
420.28	631.38
420.503	594.38
420.726	631.38
420.948	613.38
421.171	628.38
421.394	616.38
421.617	617.38
421.839	612.38
422.062	635.38
422.285	617.38
422.507	612.38
422.73	613.38
422.953	637.38
423.175	620.38
423.398	627.38
423.621	604.38
423.843	622.38
424.066	634.38
424.288	627.38
424.511	630.38
424.733	629.38
424.956	644.38
425.178	599.38
425.401	630.38
425.623	629.38
425.846	615.38
426.068	609.38
426.291	609.38
426.513	609.38
426.735	597.38
426.958	570.38
427.18	600.38
427.402	596.38
427.625	616.38
427.847	602.38
428.069	590.38
428.292	609.38
428.514	594.38
428.736	599.38
428.958	609.38
429.181	608.38
429.403	574.38
429.625	585.38
429.847	544.38
430.069	558.38
430.292	607.38
430.514	580.38
430.736	581.38
430.958	602.38
431.18	610.38
431.402	600.38
431.624	600.38
431.846	579.38
432.068	606.38
432.29	635.38
432.512	590.38
432.734	609.38
432.956	587.38
433.178	631.38
433.4	657.38
433.622	621.38
433.844	633.38
434.066	617.38
434.287	619.38
434.509	639.38
434.731	642.38
434.953	644.38
435.175	666.38
435.397	678.38
435.618	644.38
435.84	616.38
436.062	593.38
436.284	610.38
436.505	595.38
436.727	636.38
436.949	609.38
437.17	626.38
437.392	607.38
437.614	596.38
437.835	572.38
438.057	618.38
438.278	583.38
438.5	582.38
438.721	595.38
438.943	576.38
439.165	554.38
439.386	579.38
439.608	592.38
439.829	615.38
440.05	583.38
440.272	584.38
440.493	608.38
440.715	608.38
440.936	617.38
441.158	608.38
441.379	614.38
441.6	634.38
441.822	642.38
442.043	662.38
442.264	675.38
442.486	626.38
442.707	644.38
442.928	656.38
443.149	640.38
443.371	649.38
443.592	710.38
443.813	664.38
444.034	636.38
444.255	635.38
444.476	654.38
444.698	661.38
444.919	688.38
445.14	798.38
445.361	724.38
445.582	680.38
445.803	641.38
446.024	616.38
446.245	609.38
446.466	601.38
446.687	616.38
446.908	597.38
447.129	575.38
447.35	560.38
447.571	574.38
447.792	562.38
448.013	547.38
448.234	567.38
448.455	558.38
448.675	536.38
448.896	565.38
449.117	548.38
449.338	542.38
449.559	556.38
449.779	549.38
450	516.38
450.221	532.38
450.442	533.38
450.662	545.38
450.883	580.38
451.104	586.38
451.324	573.38
451.545	565.38
451.766	558.38
451.986	547.38
452.207	544.38
452.428	522.38
452.648	526.38
452.869	536.38
453.089	554.38
453.31	566.38
453.53	535.38
453.751	518.38
453.971	535.38
454.192	565.38
454.412	536.38
454.633	544.38
454.853	522.38
455.073	538.38
455.294	530.38
455.514	537.38
455.734	546.38
455.955	525.38
456.175	561.38
456.395	532.38
456.616	516.38
456.836	518.38
457.056	501.38
457.276	526.38
457.497	540.38
457.717	540.38
457.937	519.38
458.157	530.38
458.377	503.38
458.598	566.38
458.818	548.38
459.038	550.38
459.258	579.38
459.478	616.38
459.698	657.38
459.918	654.38
460.138	654.38
460.358	655.38
460.578	637.38
460.798	682.38
461.018	667.38
461.238	642.38
461.458	667.38
461.678	630.38
461.898	626.38
462.118	652.38
462.338	676.38
462.558	709.38
462.777	711.38
462.997	762.38
463.217	739.38
463.437	799.38
463.657	769.38
463.876	719.38
464.096	711.38
464.316	681.38
464.536	676.38
464.755	703.38
464.975	653.38
465.195	669.38
465.414	619.38
465.634	621.38
465.854	634.38
466.073	602.38
466.293	594.38
466.512	584.38
466.732	573.38
466.951	584.38
467.171	612.38
467.391	594.38
467.61	585.38
467.829	583.38
468.049	552.38
468.268	557.38
468.488	571.38
468.707	561.38
468.927	596.38
469.146	581.38
469.365	580.38
469.585	556.38
469.804	574.38
470.023	605.38
470.243	602.38
470.462	566.38
470.681	594.38
470.901	581.38
471.12	569.38
471.339	582.38
471.558	560.38
471.777	589.38
471.997	578.38
472.216	566.38
472.435	556.38
472.654	553.38
472.873	560.38
473.092	568.38
473.311	569.38
473.53	559.38
473.749	557.38
473.968	565.38
474.187	554.38
474.406	563.38
474.625	582.38
474.844	565.38
475.063	573.38
475.282	569.38
475.501	594.38
475.72	588.38
475.939	584.38
476.158	581.38
476.377	612.38
476.596	582.38
476.814	601.38
477.033	612.38
477.252	613.38
477.471	610.38
477.69	630.38
477.908	633.38
478.127	630.38
478.346	652.38
478.564	666.38
478.783	649.38
479.002	704.38
479.22	711.38
479.439	717.38
479.658	697.38
479.876	680.38
480.095	692.38
480.313	688.38
480.532	701.38
480.751	717.38
480.969	679.38
481.188	682.38
481.406	692.38
481.624	680.38
481.843	666.38
482.061	649.38
482.28	667.38
482.498	676.38
482.717	649.38
482.935	698.38
483.153	690.38
483.372	725.38
483.59	731.38
483.808	707.38
484.027	681.38
484.245	693.38
484.463	678.38
484.681	706.38
484.9	717.38
485.118	706.38
485.336	712.38
485.554	698.38
485.772	704.38
485.99	698.38
486.209	724.38
486.427	703.38
486.645	697.38
486.863	687.38
487.081	712.38
487.299	692.38
487.517	709.38
487.735	755.38
487.953	742.38
488.171	745.38
488.389	717.38
488.607	740.38
488.825	720.38
489.043	697.38
489.261	690.38
489.479	700.38
489.696	714.38
489.914	705.38
490.132	656.38
490.35	690.38
490.568	686.38
490.786	683.38
491.003	718.38
491.221	749.38
491.439	698.38
491.657	728.38
491.874	718.38
492.092	719.38
492.31	741.38
492.527	739.38
492.745	704.38
492.963	709.38
493.18	703.38
493.398	683.38
493.615	693.38
493.833	714.38
494.05	725.38
494.268	700.38
494.485	735.38
494.703	726.38
494.92	730.38
495.138	718.38
495.355	745.38
495.573	753.38
495.79	739.38
496.008	746.38
496.225	736.38
496.442	745.38
496.66	743.38
496.877	775.38
497.094	776.38
497.312	770.38
497.529	792.38
497.746	794.38
497.963	799.38
498.181	837.38
498.398	855.38
498.615	860.38
498.832	900.38
499.049	920.38
499.267	932.38
499.484	1005.38
499.701	1076.38
499.918	1120.38
500.135	1215.38
500.352	1289.38
500.569	1292.38
500.786	1254.38
501.003	1219.38
501.22	1167.38
501.437	1137.38
501.654	1036.38
501.871	1008.38
502.088	969.38
502.305	920.38
502.522	905.38
502.739	892.38
502.956	824.38
503.172	777.38
503.389	772.38
503.606	779.38
503.823	792.38
504.04	760.38
504.256	737.38
504.473	734.38
504.69	752.38
504.907	774.38
505.123	714.38
505.34	696.38
505.557	686.38
505.773	691.38
505.99	650.38
506.207	632.38
506.423	654.38
506.64	640.38
506.856	650.38
507.073	635.38
507.289	604.38
507.506	614.38
507.722	594.38
507.939	617.38
508.155	622.38
508.372	626.38
508.588	609.38
508.805	605.38
509.021	594.38
509.238	582.38
509.454	582.38
509.67	588.38
509.887	572.38
510.103	592.38
510.319	569.38
510.536	570.38
510.752	542.38
510.968	565.38
511.184	538.38
511.401	564.38
511.617	562.38
511.833	570.38
512.049	549.38
512.265	576.38
512.481	564.38
512.698	547.38
512.914	563.38
513.13	570.38
513.346	546.38
513.562	576.38
513.778	564.38
513.994	557.38
514.21	594.38
514.426	566.38
514.642	571.38
514.858	580.38
515.074	580.38
515.29	566.38
515.506	576.38
515.721	575.38
515.937	581.38
516.153	599.38
516.369	610.38
516.585	603.38
516.801	596.38
517.016	624.38
517.232	618.38
517.448	636.38
517.664	651.38
517.879	652.38
518.095	641.38
518.311	667.38
518.527	622.38
518.742	620.38
518.958	587.38
519.173	618.38
519.389	607.38
519.605	586.38
519.82	601.38
520.036	582.38
520.251	562.38
520.467	561.38
520.682	561.38
520.898	549.38
521.113	536.38
521.329	551.38
521.544	568.38
521.76	541.38
521.975	544.38
522.19	530.38
522.406	533.38
522.621	509.38
522.836	523.38
523.052	523.38
523.267	533.38
523.482	530.38
523.698	524.38
523.913	520.38
524.128	512.38
524.343	524.38
524.559	515.38
524.774	523.38
524.989	529.38
525.204	484.38
525.419	514.38
525.634	519.38
525.849	490.38
526.064	501.38
526.28	504.38
526.495	512.38
526.71	505.38
526.925	493.38
527.14	498.38
527.355	493.38
527.57	504.38
527.785	489.38
527.999	483.38
528.214	517.38
528.429	484.38
528.644	507.38
528.859	526.38
529.074	496.38
529.289	513.38
529.503	532.38
529.718	493.38
529.933	487.38
530.148	494.38
530.363	501.38
530.577	473.38
530.792	498.38
531.007	474.38
531.221	480.38
531.436	467.38
531.651	512.38
531.865	492.38
532.08	466.38
532.295	493.38
532.509	492.38
532.724	483.38
532.938	457.38
533.153	481.38
533.367	500.38
533.582	486.38
533.796	467.38
534.011	459.38
534.225	457.38
534.44	467.38
534.654	477.38
534.868	488.38
535.083	481.38
535.297	471.38
535.511	485.38
535.726	473.38
535.94	460.38
536.154	466.38
536.369	460.38
536.583	465.38
536.797	449.38
537.011	463.38
537.225	460.38
537.44	459.38
537.654	463.38
537.868	476.38
538.082	462.38
538.296	443.38
538.51	469.38
538.724	443.38
538.938	460.38
539.153	448.38
539.367	441.38
539.581	461.38
539.795	448.38
540.009	452.38
540.222	426.38
540.436	443.38
540.65	465.38
540.864	445.38
541.078	459.38
541.292	462.38
541.506	458.38
541.72	460.38
541.934	469.38
542.147	485.38
542.361	457.38
542.575	446.38
542.789	459.38
543.002	437.38
543.216	452.38
543.43	437.38
543.644	459.38
543.857	441.38
544.071	447.38
544.285	459.38
544.498	483.38
544.712	449.38
544.925	467.38
545.139	438.38
545.352	450.38
545.566	462.38
545.779	458.38
545.993	458.38
546.206	466.38
546.42	455.38
546.633	484.38
546.847	468.38
547.06	461.38
547.274	452.38
547.487	450.38
547.7	481.38
547.914	468.38
548.127	462.38
548.34	451.38
548.554	444.38
548.767	475.38
548.98	454.38
549.193	462.38
549.407	455.38
549.62	449.38
549.833	439.38
550.046	455.38
550.259	467.38
550.473	433.38
550.686	454.38
550.899	441.38
551.112	451.38
551.325	439.38
551.538	424.38
551.751	455.38
551.964	451.38
552.177	447.38
552.39	443.38
552.603	448.38
552.816	458.38
553.029	454.38
553.242	466.38
553.455	458.38
553.667	466.38
553.88	456.38
554.093	454.38
554.306	425.38
554.519	428.38
554.732	419.38
554.944	443.38
555.157	425.38
555.37	414.38
555.583	415.38
555.795	414.38
556.008	399.38
556.221	402.38
556.433	417.38
556.646	379.38
556.859	384.38
557.071	420.38
557.284	405.38
557.496	416.38
557.709	376.38
557.921	409.38
558.134	384.38
558.346	402.38
558.559	394.38
558.771	398.38
558.984	389.38
559.196	397.38
559.409	393.38
559.621	403.38
559.833	396.38
560.046	370.38
560.258	364.38
560.47	378.38
560.683	378.38
560.895	403.38
561.107	377.38
561.32	376.38
561.532	400.38
561.744	379.38
561.956	380.38
562.168	381.38
562.381	386.38
562.593	378.38
562.805	388.38
563.017	392.38
563.229	389.38
563.441	410.38
563.653	391.38
563.865	373.38
564.077	388.38
564.289	379.38
564.501	395.38
564.713	404.38
564.925	403.38
565.137	394.38
565.349	418.38
565.561	440.38
565.773	425.38
565.985	436.38
566.197	447.38
566.408	456.38
566.62	465.38
566.832	474.38
567.044	477.38
567.255	491.38
567.467	497.38
567.679	482.38
567.891	502.38
568.102	509.38
568.314	487.38
568.526	474.38
568.737	461.38
568.949	429.38
569.161	423.38
569.372	407.38
569.584	408.38
569.795	401.38
570.007	384.38
570.218	392.38
570.43	377.38
570.641	353.38
570.853	378.38
571.064	369.38
571.276	368.38
571.487	344.38
571.698	329.38
571.91	361.38
572.121	346.38
572.333	349.38
572.544	362.38
572.755	338.38
572.966	325.38
573.178	324.38
573.389	333.38
573.6	325.38
573.811	317.38
574.023	316.38
574.234	319.38
574.445	328.38
574.656	297.38
574.867	313.38
575.078	318.38
575.289	302.38
575.501	310.38
575.712	308.38
575.923	304.38
576.134	325.38
576.345	288.38
576.556	296.38
576.767	298.38
576.978	303.38
577.188	284.38
577.399	278.38
577.61	300.38
577.821	289.38
578.032	304.38
578.243	292.38
578.454	276.38
578.665	290.38
578.875	276.38
579.086	289.38
579.297	295.38
579.508	311.38
579.718	316.38
579.929	293.38
580.14	282.38
580.35	293.38
580.561	277.38
580.772	292.38
580.982	292.38
581.193	300.38
581.403	286.38
581.614	273.38
581.825	260.38
582.035	265.38
582.246	289.38
582.456	278.38
582.667	288.38
582.877	271.38
583.087	270.38
583.298	280.38
583.508	285.38
583.719	282.38
583.929	276.38
584.139	260.38
584.35	277.38
584.56	256.38
584.77	270.38
584.981	284.38
585.191	283.38
585.401	258.38
585.611	258.38
585.821	264.38
586.032	277.38
586.242	255.38
586.452	277.38
586.662	261.38
586.872	267.38
587.082	277.38
587.292	265.38
587.502	251.38
587.713	262.38
587.923	261.38
588.133	263.38
588.343	276.38
588.553	267.38
588.762	265.38
588.972	258.38
589.182	285.38
589.392	259.38
589.602	270.38
589.812	277.38
590.022	275.38
590.232	276.38
590.441	279.38
590.651	275.38
590.861	275.38
591.071	246.38
591.281	267.38
591.49	268.38
591.7	282.38
591.91	262.38
592.119	277.38
592.329	284.38
592.539	273.38
592.748	277.38
592.958	278.38
593.167	272.38
593.377	283.38
593.587	299.38
593.796	277.38
594.006	281.38
594.215	283.38
594.424	270.38
594.634	282.38
594.843	277.38
595.053	279.38
595.262	281.38
595.472	267.38
595.681	244.38
595.89	259.38
596.1	268.38
596.309	255.38
596.518	249.38
596.727	230.38
596.937	235.38
597.146	249.38
597.355	252.38
597.564	230.38
597.774	246.38
597.983	233.38
598.192	228.38
598.401	242.38
598.61	225.38
598.819	240.38
599.028	228.38
599.237	223.38
599.446	229.38
599.655	220.38
599.864	222.38
600.073	235.38
600.282	221.38
600.491	241.38
600.7	245.38
600.909	228.38
601.118	229.38
601.327	240.38
601.536	232.38
601.745	219.38
601.953	232.38
602.162	235.38
602.371	233.38
602.58	224.38
602.789	243.38
602.997	219.38
603.206	232.38
603.415	202.38
603.623	221.38
603.832	225.38
604.041	233.38
604.249	218.38
604.458	232.38
604.666	214.38
604.875	219.38
605.084	200.38
605.292	222.38
605.501	217.38
605.709	209.38
605.918	210.38
606.126	214.38
606.334	216.38
606.543	204.38
606.751	219.38
606.96	212.38
607.168	200.38
607.376	220.38
607.585	201.38
607.793	205.38
608.001	216.38
608.21	208.38
608.418	206.38
608.626	208.38
608.834	200.38
609.043	199.38
609.251	212.38
609.459	215.38
609.667	213.38
609.875	218.38
610.083	200.38
610.291	187.38
610.499	209.38
610.707	199.38
610.916	213.38
611.124	200.38
611.332	218.38
611.54	204.38
611.748	200.38
611.955	203.38
612.163	197.38
612.371	214.38
612.579	206.38
612.787	216.38
612.995	214.38
613.203	204.38
613.411	207.38
613.618	196.38
613.826	203.38
614.034	206.38
614.242	199.38
614.449	207.38
614.657	188.38
614.865	208.38
615.072	217.38
615.28	197.38
615.488	199.38
615.695	194.38
615.903	197.38
616.111	214.38
616.318	200.38
616.526	198.38
616.733	199.38
616.941	197.38
617.148	189.38
617.356	188.38
617.563	191.38
617.771	192.38
617.978	208.38
618.185	206.38
618.393	203.38
618.6	209.38
618.807	193.38
619.015	185.38
619.222	174.38
619.429	193.38
619.637	196.38
619.844	187.38
620.051	207.38
620.258	179.38
620.466	196.38
620.673	191.38
620.88	180.38
621.087	188.38
621.294	194.38
621.501	187.38
621.708	194.38
621.915	198.38
622.122	208.38
622.329	193.38
622.536	195.38
622.743	181.38
622.95	189.38
623.157	193.38
623.364	194.38
623.571	185.38
623.778	180.38
623.985	196.38
624.192	186.38
624.399	182.38
624.606	193.38
624.812	188.38
625.019	173.38
625.226	190.38
625.433	190.38
625.639	180.38
625.846	187.38
626.053	188.38
626.259	171.38
626.466	180.38
626.673	187.38
626.879	180.38
627.086	188.38
627.293	194.38
627.499	174.38
627.706	192.38
627.912	175.38
628.119	177.38
628.325	188.38
628.532	174.38
628.738	182.38
628.945	158.38
629.151	167.38
629.357	180.38
629.564	167.38
629.77	177.38
629.976	175.38
630.183	169.38
630.389	171.38
630.595	159.38
630.802	176.38
631.008	167.38
631.214	189.38
631.42	190.38
631.627	198.38
631.833	170.38
632.039	153.38
632.245	163.38
632.451	182.38
632.657	167.38
632.863	163.38
633.069	158.38
633.275	177.38
633.481	158.38
633.688	160.38
633.893	176.38
634.099	158.38
634.305	157.38
634.511	171.38
634.717	164.38
634.923	169.38
635.129	168.38
635.335	149.38
635.541	158.38
635.747	160.38
635.952	159.38
636.158	167.38
636.364	153.38
636.57	150.38
636.775	173.38
636.981	165.38
637.187	182.38
637.392	146.38
637.598	174.38
637.804	171.38
638.009	170.38
638.215	152.38
638.421	158.38
638.626	153.38
638.832	171.38
639.037	161.38
639.243	176.38
639.448	154.38
639.654	159.38
639.859	180.38
640.065	144.38
640.27	157.38
640.475	166.38
640.681	158.38
640.886	156.38
641.091	150.38
641.297	148.38
641.502	144.38
641.707	184.38
641.913	169.38
642.118	151.38
642.323	157.38
642.528	163.38
642.733	180.38
642.939	156.38
643.144	168.38
643.349	173.38
643.554	166.38
643.759	166.38
643.964	164.38
644.169	149.38
644.374	169.38
644.579	150.38
644.784	170.38
644.989	146.38
645.194	161.38
645.399	181.38
645.604	155.38
645.809	157.38
646.014	172.38
646.219	155.38
646.423	154.38
646.628	172.38
646.833	149.38
647.038	156.38
647.243	163.38
647.447	162.38
647.652	162.38
647.857	155.38
648.062	164.38
648.266	163.38
648.471	164.38
648.676	154.38
648.88	179.38
649.085	165.38
649.289	165.38
649.494	177.38
649.698	172.38
649.903	173.38
650.107	165.38
650.312	173.38
650.516	168.38
650.721	169.38
650.925	171.38
651.13	171.38
651.334	147.38
651.539	165.38
651.743	184.38
651.947	173.38
652.152	171.38
652.356	171.38
652.56	150.38
652.764	140.38
652.969	163.38
653.173	180.38
653.377	167.38
653.581	177.38
653.785	160.38
653.99	162.38
654.194	180.38
654.398	160.38
654.602	179.38
654.806	179.38
655.01	164.38
655.214	179.38
655.418	185.38
655.622	180.38
655.826	180.38
656.03	181.38
656.234	182.38
656.438	211.38
656.642	194.38
656.846	186.38
657.049	186.38
657.253	193.38
657.457	169.38
657.661	154.38
657.865	153.38
658.068	141.38
658.272	140.38
658.476	128.38
658.68	129.38
658.883	139.38
659.087	128.38
659.291	130.38
659.494	105.38
659.698	120.38
659.901	120.38
660.105	104.38
660.309	106.38
660.512	109.38
660.716	106.38
660.919	106.38
661.123	121.38
661.326	98.38
661.53	104.38
661.733	84.38
661.936	86.38
662.14	101.38
662.343	97.38
662.546	93.38
662.75	92.38
662.953	76.38
663.156	84.38
663.36	80.38
663.563	83.38
663.766	97.38
663.969	97.38
664.173	82.38
664.376	81.38
664.579	81.38
664.782	91.38
664.985	66.38
665.188	90.38
665.391	68.38
665.594	74.38
665.797	90.38
666	74.38
666.203	90.38
666.406	76.38
666.609	82.38
666.812	83.38
667.015	81.38
667.218	90.38
667.421	78.38
667.624	75.38
667.827	82.38
668.03	81.38
668.232	82.38
668.435	72.38
668.638	78.38
668.841	92.38
669.043	82.38
669.246	102.38
669.449	100.38
669.651	82.38
669.854	82.38
670.057	75.38
670.259	75.38
670.462	65.38
670.665	73.38
670.867	80.38
671.07	71.38
671.272	83.38
671.475	87.38
671.677	84.38
671.88	82.38
672.082	92.38
672.284	77.38
672.487	84.38
672.689	89.38
672.892	75.38
