Data from Ni(NO3)2@0.0625M.TitratingCurve.Agarose3%dH2O.NegLispCup.LampEnergy10.LIBS07252019_HRD10591_18-14-44-570.txt Node
Date: Thu Jul 25 18:14:44 EDT 2019
User: cochatt
Spectrometer: HR+D1059
Trigger mode: 1
Integration Time (sec): 1.000000E-1
Scans to average: 1
Electric dark correction enabled: true
Nonlinearity correction enabled: false
Boxcar width: 0
XAxis mode: Wavelengths
Number of Pixels in Spectrum: 2048
>>>>>Begin Spectral Data<<<<<
223.165	-28.31
223.4	-28.31
223.635	-28.31
223.869	-19.31
224.104	-14.31
224.338	-0.31
224.573	-15.31
224.808	-10.31
225.042	-16.31
225.277	0.69
225.511	-8.31
225.746	5.69
225.98	1.69
226.215	10.69
226.449	21.69
226.683	17.69
226.918	22.69
227.152	31.69
227.387	35.69
227.621	19.69
227.856	38.69
228.09	36.69
228.324	41.69
228.559	50.69
228.793	57.69
229.027	97.69
229.262	101.69
229.496	103.69
229.73	103.69
229.964	120.69
230.199	112.69
230.433	121.69
230.667	120.69
230.901	136.69
231.136	139.69
231.37	136.69
231.604	139.69
231.838	120.69
232.072	141.69
232.306	144.69
232.541	129.69
232.775	136.69
233.009	148.69
233.243	138.69
233.477	129.69
233.711	149.69
233.945	154.69
234.179	148.69
234.413	137.69
234.647	140.69
234.881	133.69
235.115	145.69
235.349	156.69
235.583	157.69
235.817	137.69
236.051	151.69
236.285	149.69
236.519	159.69
236.753	152.69
236.987	136.69
237.221	169.69
237.455	149.69
237.689	149.69
237.922	161.69
238.156	148.69
238.39	159.69
238.624	165.69
238.858	169.69
239.091	163.69
239.325	177.69
239.559	177.69
239.793	170.69
240.027	156.69
240.26	175.69
240.494	172.69
240.728	165.69
240.961	159.69
241.195	175.69
241.429	177.69
241.662	190.69
241.896	181.69
242.13	189.69
242.363	172.69
242.597	175.69
242.83	186.69
243.064	191.69
243.298	170.69
243.531	181.69
243.765	196.69
243.998	192.69
244.232	189.69
244.465	197.69
244.699	205.69
244.932	203.69
245.166	203.69
245.399	204.69
245.633	205.69
245.866	217.69
246.099	200.69
246.333	196.69
246.566	215.69
246.8	209.69
247.033	214.69
247.266	232.69
247.5	227.69
247.733	226.69
247.966	216.69
248.2	240.69
248.433	235.69
248.666	239.69
248.899	205.69
249.133	228.69
249.366	243.69
249.599	241.69
249.832	243.69
250.066	242.69
250.299	219.69
250.532	253.69
250.765	239.69
250.998	232.69
251.231	243.69
251.465	245.69
251.698	244.69
251.931	253.69
252.164	244.69
252.397	271.69
252.63	273.69
252.863	249.69
253.096	269.69
253.329	269.69
253.562	266.69
253.795	256.69
254.028	261.69
254.261	280.69
254.494	264.69
254.727	254.69
254.96	257.69
255.193	278.69
255.426	257.69
255.659	264.69
255.892	279.69
256.124	284.69
256.357	281.69
256.59	268.69
256.823	271.69
257.056	270.69
257.289	281.69
257.521	281.69
257.754	277.69
257.987	301.69
258.22	294.69
258.452	294.69
258.685	284.69
258.918	280.69
259.151	291.69
259.383	298.69
259.616	301.69
259.849	312.69
260.081	299.69
260.314	314.69
260.547	311.69
260.779	299.69
261.012	312.69
261.244	313.69
261.477	327.69
261.71	303.69
261.942	302.69
262.175	307.69
262.407	298.69
262.64	309.69
262.872	305.69
263.105	318.69
263.337	323.69
263.57	322.69
263.802	352.69
264.035	320.69
264.267	315.69
264.499	339.69
264.732	320.69
264.964	325.69
265.197	315.69
265.429	325.69
265.661	308.69
265.894	330.69
266.126	333.69
266.358	331.69
266.591	337.69
266.823	343.69
267.055	336.69
267.287	327.69
267.52	340.69
267.752	348.69
267.984	341.69
268.216	359.69
268.448	353.69
268.681	337.69
268.913	346.69
269.145	373.69
269.377	367.69
269.609	364.69
269.841	339.69
270.073	331.69
270.306	343.69
270.538	352.69
270.77	369.69
271.002	354.69
271.234	367.69
271.466	359.69
271.698	352.69
271.93	378.69
272.162	374.69
272.394	356.69
272.626	373.69
272.858	369.69
273.09	373.69
273.322	364.69
273.553	389.69
273.785	369.69
274.017	375.69
274.249	397.69
274.481	372.69
274.713	381.69
274.945	398.69
275.176	378.69
275.408	396.69
275.64	397.69
275.872	396.69
276.104	410.69
276.335	404.69
276.567	400.69
276.799	403.69
277.031	401.69
277.262	392.69
277.494	392.69
277.726	391.69
277.957	404.69
278.189	419.69
278.421	417.69
278.652	408.69
278.884	416.69
279.115	400.69
279.347	421.69
279.579	408.69
279.81	407.69
280.042	414.69
280.273	404.69
280.505	441.69
280.736	411.69
280.968	416.69
281.199	437.69
281.431	435.69
281.662	431.69
281.894	442.69
282.125	428.69
282.356	431.69
282.588	447.69
282.819	415.69
283.051	444.69
283.282	449.69
283.513	450.69
283.745	449.69
283.976	458.69
284.207	436.69
284.439	456.69
284.67	445.69
284.901	458.69
285.132	456.69
285.364	458.69
285.595	465.69
285.826	484.69
286.057	466.69
286.288	466.69
286.52	486.69
286.751	487.69
286.982	475.69
287.213	450.69
287.444	483.69
287.675	462.69
287.906	475.69
288.138	461.69
288.369	470.69
288.6	469.69
288.831	471.69
289.062	496.69
289.293	490.69
289.524	483.69
289.755	490.69
289.986	503.69
290.217	479.69
290.448	500.69
290.679	504.69
290.91	491.69
291.141	497.69
291.371	486.69
291.602	492.69
291.833	495.69
292.064	530.69
292.295	487.69
292.526	519.69
292.757	515.69
292.987	482.69
293.218	496.69
293.449	485.69
293.68	495.69
293.91	492.69
294.141	507.69
294.372	511.69
294.603	529.69
294.833	518.69
295.064	535.69
295.295	515.69
295.525	505.69
295.756	493.69
295.987	495.69
296.217	524.69
296.448	523.69
296.679	537.69
296.909	541.69
297.14	530.69
297.37	541.69
297.601	532.69
297.831	535.69
298.062	527.69
298.292	564.69
298.523	567.69
298.753	582.69
298.984	560.69
299.214	567.69
299.445	528.69
299.675	520.69
299.905	543.69
300.136	543.69
300.366	546.69
300.597	528.69
300.827	564.69
301.057	600.69
301.288	575.69
301.518	579.69
301.748	550.69
301.979	601.69
302.209	567.69
302.439	534.69
302.669	570.69
302.9	577.69
303.13	583.69
303.36	580.69
303.59	543.69
303.82	548.69
304.051	555.69
304.281	548.69
304.511	557.69
304.741	550.69
304.971	554.69
305.201	546.69
305.431	555.69
305.661	544.69
305.891	547.69
306.121	551.69
306.352	539.69
306.582	532.69
306.812	567.69
307.042	559.69
307.272	565.69
307.502	523.69
307.731	539.69
307.961	540.69
308.191	538.69
308.421	522.69
308.651	563.69
308.881	551.69
309.111	547.69
309.341	539.69
309.571	555.69
309.8	533.69
310.03	561.69
310.26	566.69
310.49	546.69
310.72	552.69
310.949	542.69
311.179	544.69
311.409	551.69
311.639	553.69
311.868	544.69
312.098	571.69
312.328	577.69
312.557	577.69
312.787	553.69
313.017	584.69
313.246	562.69
313.476	585.69
313.706	583.69
313.935	603.69
314.165	607.69
314.394	566.69
314.624	593.69
314.853	581.69
315.083	577.69
315.312	572.69
315.542	573.69
315.771	554.69
316.001	582.69
316.23	576.69
316.46	589.69
316.689	584.69
316.919	562.69
317.148	592.69
317.377	572.69
317.607	561.69
317.836	547.69
318.065	559.69
318.295	593.69
318.524	547.69
318.753	564.69
318.983	573.69
319.212	563.69
319.441	570.69
319.67	573.69
319.9	560.69
320.129	564.69
320.358	567.69
320.587	561.69
320.816	575.69
321.046	572.69
321.275	574.69
321.504	567.69
321.733	571.69
321.962	573.69
322.191	559.69
322.42	611.69
322.649	568.69
322.878	574.69
323.108	588.69
323.337	569.69
323.566	573.69
323.795	608.69
324.024	582.69
324.253	597.69
324.482	579.69
324.71	586.69
324.939	600.69
325.168	611.69
325.397	620.69
325.626	604.69
325.855	597.69
326.084	626.69
326.313	645.69
326.542	648.69
326.77	630.69
326.999	627.69
327.228	616.69
327.457	631.69
327.686	616.69
327.914	633.69
328.143	633.69
328.372	607.69
328.6	633.69
328.829	633.69
329.058	631.69
329.287	608.69
329.515	652.69
329.744	617.69
329.972	653.69
330.201	657.69
330.43	620.69
330.658	639.69
330.887	645.69
331.115	654.69
331.344	665.69
331.572	666.69
331.801	680.69
332.03	684.69
332.258	697.69
332.486	718.69
332.715	782.69
332.943	778.69
333.172	797.69
333.4	836.69
333.629	847.69
333.857	871.69
334.085	843.69
334.314	825.69
334.542	817.69
334.771	812.69
334.999	808.69
335.227	788.69
335.455	768.69
335.684	765.69
335.912	755.69
336.14	749.69
336.369	746.69
336.597	753.69
336.825	781.69
337.053	747.69
337.281	749.69
337.51	713.69
337.738	720.69
337.966	703.69
338.194	700.69
338.422	689.69
338.65	683.69
338.878	645.69
339.106	673.69
339.334	654.69
339.562	664.69
339.79	653.69
340.018	679.69
340.246	669.69
340.474	664.69
340.702	652.69
340.93	671.69
341.158	647.69
341.386	675.69
341.614	648.69
341.842	635.69
342.07	654.69
342.298	631.69
342.526	649.69
342.754	666.69
342.981	658.69
343.209	655.69
343.437	695.69
343.665	743.69
343.893	812.69
344.12	843.69
344.348	794.69
344.576	732.69
344.804	710.69
345.031	711.69
345.259	689.69
345.487	672.69
345.714	672.69
345.942	680.69
346.17	649.69
346.397	643.69
346.625	635.69
346.853	671.69
347.08	649.69
347.308	650.69
347.535	640.69
347.763	659.69
347.99	651.69
348.218	669.69
348.445	648.69
348.673	653.69
348.9	664.69
349.128	648.69
349.355	615.69
349.583	633.69
349.81	628.69
350.037	621.69
350.265	639.69
350.492	613.69
350.72	637.69
350.947	623.69
351.174	635.69
351.402	620.69
351.629	599.69
351.856	592.69
352.083	616.69
352.311	611.69
352.538	598.69
352.765	609.69
352.992	588.69
353.22	625.69
353.447	608.69
353.674	612.69
353.901	600.69
354.128	597.69
354.355	643.69
354.583	620.69
354.81	619.69
355.037	635.69
355.264	640.69
355.491	632.69
355.718	608.69
355.945	626.69
356.172	633.69
356.399	609.69
356.626	632.69
356.853	608.69
357.08	635.69
357.307	637.69
357.534	616.69
357.761	611.69
357.988	602.69
358.215	596.69
358.441	622.69
358.668	594.69
358.895	634.69
359.122	611.69
359.349	593.69
359.576	632.69
359.802	611.69
360.029	593.69
360.256	627.69
360.483	633.69
360.709	619.69
360.936	617.69
361.163	629.69
361.39	612.69
361.616	610.69
361.843	618.69
362.07	621.69
362.296	611.69
362.523	581.69
362.749	616.69
362.976	612.69
363.203	613.69
363.429	589.69
363.656	591.69
363.882	596.69
364.109	598.69
364.335	608.69
364.562	599.69
364.788	625.69
365.015	611.69
365.241	610.69
365.468	582.69
365.694	614.69
365.92	617.69
366.147	608.69
366.373	633.69
366.599	606.69
366.826	612.69
367.052	632.69
367.278	617.69
367.505	602.69
367.731	603.69
367.957	616.69
368.184	641.69
368.41	638.69
368.636	641.69
368.862	644.69
369.089	660.69
369.315	619.69
369.541	617.69
369.767	637.69
369.993	653.69
370.219	659.69
370.445	672.69
370.672	649.69
370.898	641.69
371.124	668.69
371.35	657.69
371.576	698.69
371.802	668.69
372.028	682.69
372.254	680.69
372.48	677.69
372.706	688.69
372.932	690.69
373.158	701.69
373.384	680.69
373.61	665.69
373.835	664.69
374.061	670.69
374.287	673.69
374.513	675.69
374.739	718.69
374.965	723.69
375.191	762.69
375.416	791.69
375.642	722.69
375.868	717.69
376.094	702.69
376.319	676.69
376.545	672.69
376.771	670.69
376.997	677.69
377.222	680.69
377.448	686.69
377.674	677.69
377.899	681.69
378.125	665.69
378.35	656.69
378.576	658.69
378.802	654.69
379.027	661.69
379.253	686.69
379.478	647.69
379.704	655.69
379.929	676.69
380.155	667.69
380.38	671.69
380.606	678.69
380.831	669.69
381.057	665.69
381.282	661.69
381.507	661.69
381.733	667.69
381.958	664.69
382.184	671.69
382.409	671.69
382.634	700.69
382.86	713.69
383.085	694.69
383.31	734.69
383.535	731.69
383.761	759.69
383.986	751.69
384.211	741.69
384.436	776.69
384.662	802.69
384.887	830.69
385.112	819.69
385.337	816.69
385.562	794.69
385.787	821.69
386.013	821.69
386.238	796.69
386.463	875.69
386.688	822.69
386.913	823.69
387.138	812.69
387.363	796.69
387.588	797.69
387.813	794.69
388.038	789.69
388.263	795.69
388.488	787.69
388.713	792.69
388.938	809.69
389.163	771.69
389.387	780.69
389.612	781.69
389.837	778.69
390.062	751.69
390.287	789.69
390.512	785.69
390.736	790.69
390.961	805.69
391.186	825.69
391.411	836.69
391.636	850.69
391.86	907.69
392.085	910.69
392.31	910.69
392.534	884.69
392.759	820.69
392.984	847.69
393.208	873.69
393.433	880.69
393.658	854.69
393.882	851.69
394.107	864.69
394.331	876.69
394.556	853.69
394.78	875.69
395.005	878.69
395.229	868.69
395.454	907.69
395.678	915.69
395.903	900.69
396.127	887.69
396.352	869.69
396.576	870.69
396.801	870.69
397.025	871.69
397.249	879.69
397.474	876.69
397.698	915.69
397.922	897.69
398.147	852.69
398.371	921.69
398.595	937.69
398.82	979.69
399.044	1051.69
399.268	1141.69
399.492	1377.69
399.717	1602.69
399.941	1597.69
400.165	1409.69
400.389	1211.69
400.613	1130.69
400.837	1053.69
401.062	1010.69
401.286	1004.69
401.51	1002.69
401.734	1013.69
401.958	1014.69
402.182	1019.69
402.406	1035.69
402.63	1049.69
402.854	1091.69
403.078	1099.69
403.302	1150.69
403.526	1148.69
403.75	1180.69
403.974	1192.69
404.198	1213.69
404.422	1213.69
404.645	1192.69
404.869	1163.69
405.093	1177.69
405.317	1151.69
405.541	1143.69
405.765	1118.69
405.988	1091.69
406.212	1120.69
406.436	1115.69
406.66	1147.69
406.883	1145.69
407.107	1228.69
407.331	1289.69
407.555	1357.69
407.778	1348.69
408.002	1287.69
408.226	1295.69
408.449	1208.69
408.673	1182.69
408.896	1140.69
409.12	1125.69
409.344	1158.69
409.567	1153.69
409.791	1191.69
410.014	1203.69
410.238	1155.69
410.461	1143.69
410.685	1126.69
410.908	1112.69
411.132	1087.69
411.355	1077.69
411.578	1058.69
411.802	1041.69
412.025	1052.69
412.249	1084.69
412.472	1071.69
412.695	1060.69
412.919	1010.69
413.142	992.69
413.365	1000.69
413.589	1027.69
413.812	999.69
414.035	1018.69
414.258	1014.69
414.482	998.69
414.705	1022.69
414.928	1023.69
415.151	1014.69
415.374	1014.69
415.597	1010.69
415.821	998.69
416.044	1011.69
416.267	986.69
416.49	979.69
416.713	1010.69
416.936	1007.69
417.159	1013.69
417.382	1000.69
417.605	980.69
417.828	1004.69
418.051	1023.69
418.274	1013.69
418.497	986.69
418.72	1018.69
418.943	1032.69
419.166	1126.69
419.389	1173.69
419.611	1151.69
419.834	1113.69
420.057	1073.69
420.28	1028.69
420.503	984.69
420.726	1003.69
420.948	978.69
421.171	1021.69
421.394	967.69
421.617	992.69
421.839	995.69
422.062	1003.69
422.285	957.69
422.507	1018.69
422.73	1035.69
422.953	1061.69
423.175	1037.69
423.398	1086.69
423.621	1081.69
423.843	1097.69
424.066	1084.69
424.288	1079.69
424.511	1059.69
424.733	1065.69
424.956	1072.69
425.178	1037.69
425.401	1021.69
425.623	999.69
425.846	977.69
426.068	986.69
426.291	959.69
426.513	936.69
426.735	917.69
426.958	939.69
427.18	911.69
427.402	899.69
427.625	923.69
427.847	885.69
428.069	895.69
428.292	891.69
428.514	883.69
428.736	865.69
428.958	903.69
429.181	863.69
429.403	882.69
429.625	867.69
429.847	871.69
430.069	872.69
430.292	899.69
430.514	855.69
430.736	877.69
430.958	845.69
431.18	849.69
431.402	861.69
431.624	883.69
431.846	876.69
432.068	915.69
432.29	921.69
432.512	915.69
432.734	915.69
432.956	882.69
433.178	891.69
433.4	919.69
433.622	891.69
433.844	914.69
434.066	930.69
434.287	935.69
434.509	956.69
434.731	977.69
434.953	1023.69
435.175	1021.69
435.397	1008.69
435.618	969.69
435.84	917.69
436.062	920.69
436.284	898.69
436.505	886.69
436.727	907.69
436.949	877.69
437.17	889.69
437.392	891.69
437.614	871.69
437.835	845.69
438.057	864.69
438.278	865.69
438.5	827.69
438.721	873.69
438.943	868.69
439.165	866.69
439.386	882.69
439.608	899.69
439.829	893.69
440.05	898.69
440.272	899.69
440.493	895.69
440.715	947.69
440.936	950.69
441.158	954.69
441.379	978.69
441.6	991.69
441.822	1025.69
442.043	1055.69
442.264	1011.69
442.486	966.69
442.707	995.69
442.928	976.69
443.149	999.69
443.371	1028.69
443.592	985.69
443.813	1028.69
444.034	1027.69
444.255	1079.69
444.476	1135.69
444.698	1177.69
444.919	1266.69
445.14	1320.69
445.361	1177.69
445.582	1062.69
445.803	1013.69
446.024	943.69
446.245	928.69
446.466	929.69
446.687	915.69
446.908	912.69
447.129	892.69
447.35	851.69
447.571	861.69
447.792	834.69
448.013	860.69
448.234	857.69
448.455	842.69
448.675	836.69
448.896	839.69
449.117	821.69
449.338	835.69
449.559	838.69
449.779	833.69
450	833.69
450.221	861.69
450.442	857.69
450.662	825.69
450.883	838.69
451.104	879.69
451.324	869.69
451.545	841.69
451.766	853.69
451.986	836.69
452.207	835.69
452.428	850.69
452.648	857.69
452.869	800.69
453.089	822.69
453.31	815.69
453.53	803.69
453.751	819.69
453.971	815.69
454.192	814.69
454.412	778.69
454.633	803.69
454.853	812.69
455.073	800.69
455.294	803.69
455.514	791.69
455.734	795.69
455.955	749.69
456.175	782.69
456.395	783.69
456.616	754.69
456.836	764.69
457.056	775.69
457.276	755.69
457.497	787.69
457.717	777.69
457.937	755.69
458.157	796.69
458.377	793.69
458.598	821.69
458.818	833.69
459.038	857.69
459.258	922.69
459.478	915.69
459.698	928.69
459.918	949.69
460.138	1009.69
460.358	1096.69
460.578	1072.69
460.798	1115.69
461.018	1100.69
461.238	1093.69
461.458	1078.69
461.678	1063.69
461.898	1092.69
462.118	1095.69
462.338	1141.69
462.558	1171.69
462.777	1187.69
462.997	1330.69
463.217	1467.69
463.437	1533.69
463.657	1384.69
463.876	1297.69
464.096	1264.69
464.316	1258.69
464.536	1311.69
464.755	1258.69
464.975	1185.69
465.195	1169.69
465.414	1073.69
465.634	1003.69
465.854	954.69
466.073	926.69
466.293	944.69
466.512	896.69
466.732	896.69
466.951	879.69
467.171	872.69
467.391	872.69
467.61	870.69
467.829	900.69
468.049	878.69
468.268	828.69
468.488	821.69
468.707	832.69
468.927	829.69
469.146	803.69
469.365	828.69
469.585	865.69
469.804	874.69
470.023	905.69
470.243	924.69
470.462	889.69
470.681	903.69
470.901	906.69
471.12	898.69
471.339	875.69
471.558	850.69
471.777	864.69
471.997	835.69
472.216	835.69
472.435	827.69
472.654	811.69
472.873	850.69
473.092	809.69
473.311	810.69
473.53	824.69
473.749	809.69
473.968	817.69
474.187	806.69
474.406	797.69
474.625	812.69
474.844	797.69
475.063	822.69
475.282	814.69
475.501	836.69
475.72	849.69
475.939	799.69
476.158	841.69
476.377	844.69
476.596	853.69
476.814	872.69
477.033	863.69
477.252	853.69
477.471	900.69
477.69	891.69
477.908	901.69
478.127	1001.69
478.346	943.69
478.564	982.69
478.783	979.69
479.002	1017.69
479.22	1061.69
479.439	1011.69
479.658	996.69
479.876	994.69
480.095	1015.69
480.313	1076.69
480.532	1133.69
480.751	1107.69
480.969	1037.69
481.188	1000.69
481.406	988.69
481.624	972.69
481.843	964.69
482.061	926.69
482.28	907.69
482.498	898.69
482.717	941.69
482.935	893.69
483.153	922.69
483.372	911.69
483.59	922.69
483.808	922.69
484.027	894.69
484.245	923.69
484.463	915.69
484.681	936.69
484.9	965.69
485.118	941.69
485.336	951.69
485.554	963.69
485.772	991.69
485.99	985.69
486.209	960.69
486.427	991.69
486.645	975.69
486.863	972.69
487.081	988.69
487.299	983.69
487.517	972.69
487.735	972.69
487.953	998.69
488.171	1003.69
488.389	972.69
488.607	940.69
488.825	944.69
489.043	958.69
489.261	955.69
489.479	968.69
489.696	962.69
489.914	991.69
490.132	967.69
490.35	960.69
490.568	967.69
490.786	960.69
491.003	1000.69
491.221	979.69
491.439	959.69
491.657	987.69
491.874	983.69
492.092	962.69
492.31	968.69
492.527	984.69
492.745	994.69
492.963	987.69
493.18	1015.69
493.398	1018.69
493.615	1026.69
493.833	1058.69
494.05	1006.69
494.268	1025.69
494.485	1023.69
494.703	1023.69
494.92	1018.69
495.138	1001.69
495.355	998.69
495.573	1011.69
495.79	1055.69
496.008	1052.69
496.225	1048.69
496.442	1052.69
496.66	1079.69
496.877	1078.69
497.094	1100.69
497.312	1114.69
497.529	1111.69
497.746	1159.69
497.963	1182.69
498.181	1235.69
498.398	1269.69
498.615	1362.69
498.832	1451.69
499.049	1573.69
499.267	1671.69
499.484	1855.69
499.701	2075.69
499.918	2301.69
500.135	2694.69
500.352	3190.69
500.569	3359.69
500.786	3321.69
501.003	3053.69
501.22	2683.69
501.437	2335.69
501.654	2033.69
501.871	1822.69
502.088	1697.69
502.305	1551.69
502.522	1459.69
502.739	1414.69
502.956	1343.69
503.172	1296.69
503.389	1215.69
503.606	1183.69
503.823	1162.69
504.04	1187.69
504.256	1188.69
504.473	1205.69
504.69	1231.69
504.907	1233.69
505.123	1160.69
505.34	1059.69
505.557	1033.69
505.773	1014.69
505.99	967.69
506.207	964.69
506.423	947.69
506.64	893.69
506.856	935.69
507.073	927.69
507.289	910.69
507.506	922.69
507.722	903.69
507.939	897.69
508.155	865.69
508.372	872.69
508.588	874.69
508.805	863.69
509.021	882.69
509.238	843.69
509.454	843.69
509.67	861.69
509.887	842.69
510.103	826.69
510.319	852.69
510.536	868.69
510.752	846.69
510.968	836.69
511.184	831.69
511.401	837.69
511.617	825.69
511.833	809.69
512.049	842.69
512.265	824.69
512.481	828.69
512.698	810.69
512.914	832.69
513.13	841.69
513.346	836.69
513.562	832.69
513.778	842.69
513.994	832.69
514.21	840.69
514.426	840.69
514.642	827.69
514.858	857.69
515.074	856.69
515.29	871.69
515.506	864.69
515.721	904.69
515.937	908.69
516.153	924.69
516.369	936.69
516.585	949.69
516.801	998.69
517.016	1038.69
517.232	1116.69
517.448	1171.69
517.664	1189.69
517.879	1220.69
518.095	1220.69
518.311	1169.69
518.527	1134.69
518.742	1062.69
518.958	997.69
519.173	987.69
519.389	940.69
519.605	909.69
519.82	894.69
520.036	895.69
520.251	867.69
520.467	849.69
520.682	858.69
520.898	831.69
521.113	833.69
521.329	828.69
521.544	817.69
521.76	808.69
521.975	809.69
522.19	799.69
522.406	811.69
522.621	792.69
522.836	795.69
523.052	812.69
523.267	807.69
523.482	800.69
523.698	765.69
523.913	738.69
524.128	784.69
524.343	777.69
524.559	811.69
524.774	757.69
524.989	778.69
525.204	783.69
525.419	755.69
525.634	766.69
525.849	775.69
526.064	752.69
526.28	759.69
526.495	746.69
526.71	762.69
526.925	742.69
527.14	785.69
527.355	743.69
527.57	744.69
527.785	725.69
527.999	764.69
528.214	767.69
528.429	771.69
528.644	776.69
528.859	777.69
529.074	779.69
529.289	740.69
529.503	770.69
529.718	734.69
529.933	763.69
530.148	737.69
530.363	774.69
530.577	753.69
530.792	746.69
531.007	758.69
531.221	775.69
531.436	773.69
531.651	770.69
531.865	770.69
532.08	776.69
532.295	778.69
532.509	746.69
532.724	771.69
532.938	787.69
533.153	786.69
533.367	753.69
533.582	758.69
533.796	742.69
534.011	769.69
534.225	771.69
534.44	743.69
534.654	751.69
534.868	741.69
535.083	736.69
535.297	756.69
535.511	716.69
535.726	727.69
535.94	725.69
536.154	720.69
536.369	714.69
536.583	736.69
536.797	721.69
537.011	711.69
537.225	714.69
537.44	705.69
537.654	723.69
537.868	682.69
538.082	670.69
538.296	689.69
538.51	677.69
538.724	699.69
538.938	693.69
539.153	675.69
539.367	678.69
539.581	671.69
539.795	664.69
540.009	669.69
540.222	696.69
540.436	668.69
540.65	685.69
540.864	677.69
541.078	666.69
541.292	679.69
541.506	693.69
541.72	646.69
541.934	676.69
542.147	677.69
542.361	659.69
542.575	659.69
542.789	659.69
543.002	679.69
543.216	647.69
543.43	677.69
543.644	650.69
543.857	671.69
544.071	679.69
544.285	675.69
544.498	659.69
544.712	673.69
544.925	680.69
545.139	691.69
545.352	691.69
545.566	713.69
545.779	693.69
545.993	697.69
546.206	694.69
546.42	679.69
546.633	699.69
546.847	683.69
547.06	693.69
547.274	691.69
547.487	684.69
547.7	665.69
547.914	703.69
548.127	696.69
548.34	711.69
548.554	683.69
548.767	701.69
548.98	684.69
549.193	691.69
549.407	708.69
549.62	705.69
549.833	716.69
550.046	715.69
550.259	708.69
550.473	676.69
550.686	691.69
550.899	636.69
551.112	675.69
551.325	647.69
551.538	664.69
551.751	676.69
551.964	688.69
552.177	690.69
552.39	716.69
552.603	726.69
552.816	722.69
553.029	751.69
553.242	765.69
553.455	756.69
553.667	785.69
553.88	785.69
554.093	756.69
554.306	735.69
554.519	713.69
554.732	700.69
554.944	696.69
555.157	657.69
555.37	684.69
555.583	653.69
555.795	635.69
556.008	635.69
556.221	652.69
556.433	613.69
556.646	604.69
556.859	611.69
557.071	608.69
557.284	625.69
557.496	603.69
557.709	610.69
557.921	577.69
558.134	592.69
558.346	572.69
558.559	584.69
558.771	600.69
558.984	601.69
559.196	588.69
559.409	584.69
559.621	590.69
559.833	571.69
560.046	593.69
560.258	573.69
560.47	581.69
560.683	581.69
560.895	598.69
561.107	584.69
561.32	597.69
561.532	552.69
561.744	571.69
561.956	558.69
562.168	576.69
562.381	587.69
562.593	559.69
562.805	576.69
563.017	571.69
563.229	583.69
563.441	557.69
563.653	591.69
563.865	583.69
564.077	585.69
564.289	612.69
564.501	617.69
564.713	601.69
564.925	639.69
565.137	635.69
565.349	644.69
565.561	642.69
565.773	678.69
565.985	711.69
566.197	748.69
566.408	797.69
566.62	872.69
566.832	965.69
567.044	973.69
567.255	955.69
567.467	991.69
567.679	1038.69
567.891	1124.69
568.102	1223.69
568.314	1152.69
568.526	981.69
568.737	907.69
568.949	804.69
569.161	744.69
569.372	704.69
569.584	660.69
569.795	645.69
570.007	615.69
570.218	617.69
570.43	600.69
570.641	579.69
570.853	595.69
571.064	598.69
571.276	610.69
571.487	591.69
571.698	583.69
571.91	549.69
572.121	549.69
572.333	519.69
572.544	513.69
572.755	488.69
572.966	506.69
573.178	505.69
573.389	511.69
573.6	481.69
573.811	499.69
574.023	484.69
574.234	474.69
574.445	496.69
574.656	467.69
574.867	498.69
575.078	476.69
575.289	501.69
575.501	476.69
575.712	465.69
575.923	451.69
576.134	455.69
576.345	462.69
576.556	451.69
576.767	466.69
576.978	443.69
577.188	447.69
577.399	459.69
577.61	428.69
577.821	450.69
578.032	439.69
578.243	441.69
578.454	439.69
578.665	436.69
578.875	423.69
579.086	431.69
579.297	424.69
579.508	429.69
579.718	427.69
579.929	396.69
580.14	416.69
580.35	431.69
580.561	437.69
580.772	418.69
580.982	425.69
581.193	407.69
581.403	388.69
581.614	411.69
581.825	417.69
582.035	412.69
582.246	409.69
582.456	408.69
582.667	417.69
582.877	388.69
583.087	418.69
583.298	393.69
583.508	383.69
583.719	401.69
583.929	396.69
584.139	403.69
584.35	397.69
584.56	396.69
584.77	390.69
584.981	386.69
585.191	381.69
585.401	385.69
585.611	389.69
585.821	387.69
586.032	380.69
586.242	371.69
586.452	383.69
586.662	377.69
586.872	390.69
587.082	407.69
587.292	397.69
587.502	389.69
587.713	389.69
587.923	374.69
588.133	392.69
588.343	375.69
588.553	376.69
588.762	383.69
588.972	381.69
589.182	372.69
589.392	370.69
589.602	386.69
589.812	375.69
590.022	389.69
590.232	395.69
590.441	385.69
590.651	391.69
590.861	407.69
591.071	391.69
591.281	398.69
591.49	398.69
591.7	413.69
591.91	425.69
592.119	408.69
592.329	421.69
592.539	443.69
592.748	465.69
592.958	484.69
593.167	488.69
593.377	499.69
593.587	496.69
593.796	496.69
594.006	516.69
594.215	515.69
594.424	527.69
594.634	508.69
594.843	470.69
595.053	461.69
595.262	455.69
595.472	432.69
595.681	422.69
595.89	396.69
596.1	384.69
596.309	385.69
596.518	359.69
596.727	377.69
596.937	375.69
597.146	361.69
597.355	346.69
597.564	359.69
597.774	355.69
597.983	333.69
598.192	363.69
598.401	358.69
598.61	364.69
598.819	342.69
599.028	323.69
599.237	327.69
599.446	334.69
599.655	315.69
599.864	343.69
600.073	345.69
600.282	360.69
600.491	332.69
600.7	342.69
600.909	338.69
601.118	338.69
601.327	305.69
601.536	331.69
601.745	327.69
601.953	323.69
602.162	329.69
602.371	317.69
602.58	321.69
602.789	324.69
602.997	331.69
603.206	323.69
603.415	321.69
603.623	295.69
603.832	303.69
604.041	313.69
604.249	319.69
604.458	305.69
604.666	305.69
604.875	299.69
605.084	320.69
605.292	301.69
605.501	308.69
605.709	331.69
605.918	324.69
606.126	292.69
606.334	319.69
606.543	289.69
606.751	315.69
606.96	301.69
607.168	288.69
607.376	297.69
607.585	303.69
607.793	295.69
608.001	289.69
608.21	279.69
608.418	295.69
608.626	303.69
608.834	303.69
609.043	303.69
609.251	299.69
609.459	279.69
609.667	284.69
609.875	281.69
610.083	300.69
610.291	282.69
610.499	279.69
610.707	290.69
610.916	287.69
611.124	292.69
611.332	289.69
611.54	288.69
611.748	283.69
611.955	289.69
612.163	295.69
612.371	298.69
612.579	278.69
612.787	275.69
612.995	293.69
613.203	297.69
613.411	281.69
613.618	279.69
613.826	265.69
614.034	276.69
614.242	278.69
614.449	277.69
614.657	275.69
614.865	280.69
615.072	275.69
615.28	287.69
615.488	288.69
615.695	292.69
615.903	278.69
616.111	309.69
616.318	291.69
616.526	277.69
616.733	310.69
616.941	282.69
617.148	295.69
617.356	275.69
617.563	291.69
617.771	299.69
617.978	288.69
618.185	277.69
618.393	277.69
618.6	281.69
618.807	304.69
619.015	288.69
619.222	276.69
619.429	295.69
619.637	285.69
619.844	279.69
620.051	261.69
620.258	272.69
620.466	257.69
620.673	255.69
620.88	269.69
621.087	245.69
621.294	269.69
621.501	269.69
621.708	259.69
621.915	266.69
622.122	282.69
622.329	252.69
622.536	269.69
622.743	247.69
622.95	275.69
623.157	257.69
623.364	263.69
623.571	225.69
623.778	259.69
623.985	263.69
624.192	267.69
624.399	254.69
624.606	265.69
624.812	256.69
625.019	263.69
625.226	245.69
625.433	259.69
625.639	232.69
625.846	235.69
626.053	246.69
626.259	255.69
626.466	226.69
626.673	226.69
626.879	226.69
627.086	231.69
627.293	237.69
627.499	235.69
627.706	230.69
627.912	244.69
628.119	226.69
628.325	200.69
628.532	230.69
628.738	228.69
628.945	237.69
629.151	236.69
629.357	234.69
629.564	228.69
629.77	244.69
629.976	234.69
630.183	226.69
630.389	223.69
630.595	219.69
630.802	212.69
631.008	226.69
631.214	213.69
631.42	239.69
631.627	231.69
631.833	239.69
632.039	217.69
632.245	214.69
632.451	209.69
632.657	214.69
632.863	217.69
633.069	209.69
633.275	206.69
633.481	223.69
633.688	205.69
633.893	219.69
634.099	220.69
634.305	213.69
634.511	196.69
634.717	201.69
634.923	208.69
635.129	207.69
635.335	197.69
635.541	207.69
635.747	219.69
635.952	221.69
636.158	189.69
636.364	201.69
636.57	222.69
636.775	195.69
636.981	210.69
637.187	196.69
637.392	203.69
637.598	212.69
637.804	202.69
638.009	214.69
638.215	211.69
638.421	212.69
638.626	201.69
638.832	194.69
639.037	181.69
639.243	199.69
639.448	189.69
639.654	204.69
639.859	191.69
640.065	175.69
640.27	204.69
640.475	202.69
640.681	198.69
640.886	181.69
641.091	196.69
641.297	200.69
641.502	192.69
641.707	194.69
641.913	201.69
642.118	181.69
642.323	183.69
642.528	192.69
642.733	181.69
642.939	173.69
643.144	183.69
643.349	181.69
643.554	171.69
643.759	182.69
643.964	190.69
644.169	197.69
644.374	195.69
644.579	186.69
644.784	181.69
644.989	177.69
645.194	197.69
645.399	177.69
645.604	180.69
645.809	177.69
646.014	171.69
646.219	183.69
646.423	179.69
646.628	191.69
646.833	184.69
647.038	191.69
647.243	198.69
647.447	188.69
647.652	181.69
647.857	189.69
648.062	199.69
648.266	188.69
648.471	195.69
648.676	219.69
648.88	196.69
649.085	189.69
649.289	196.69
649.494	183.69
649.698	197.69
649.903	187.69
650.107	172.69
650.312	195.69
650.516	182.69
650.721	165.69
650.925	172.69
651.13	164.69
651.334	154.69
651.539	170.69
651.743	172.69
651.947	162.69
652.152	164.69
652.356	168.69
652.56	148.69
652.764	141.69
652.969	159.69
653.173	153.69
653.377	139.69
653.581	147.69
653.785	130.69
653.99	145.69
654.194	151.69
654.398	151.69
654.602	148.69
654.806	132.69
655.01	140.69
655.214	131.69
655.418	130.69
655.622	140.69
655.826	141.69
656.03	127.69
656.234	129.69
656.438	134.69
656.642	147.69
656.846	120.69
657.049	130.69
657.253	122.69
657.457	116.69
657.661	104.69
657.865	95.69
658.068	105.69
658.272	114.69
658.476	95.69
658.68	99.69
658.883	99.69
659.087	109.69
659.291	105.69
659.494	87.69
659.698	105.69
659.901	96.69
660.105	92.69
660.309	89.69
660.512	100.69
660.716	89.69
660.919	91.69
661.123	113.69
661.326	87.69
661.53	101.69
661.733	99.69
661.936	83.69
662.14	82.69
662.343	85.69
662.546	79.69
662.75	82.69
662.953	83.69
663.156	85.69
663.36	83.69
663.563	100.69
663.766	95.69
663.969	83.69
664.173	88.69
664.376	91.69
664.579	95.69
664.782	78.69
664.985	88.69
665.188	89.69
665.391	80.69
665.594	76.69
665.797	82.69
666	95.69
666.203	80.69
666.406	93.69
666.609	89.69
666.812	80.69
667.015	87.69
667.218	73.69
667.421	75.69
667.624	70.69
667.827	76.69
668.03	77.69
668.232	72.69
668.435	81.69
668.638	83.69
668.841	76.69
669.043	73.69
669.246	87.69
669.449	78.69
669.651	71.69
669.854	77.69
670.057	65.69
670.259	78.69
670.462	68.69
670.665	65.69
670.867	78.69
671.07	71.69
671.272	79.69
671.475	93.69
671.677	89.69
671.88	78.69
672.082	87.69
672.284	82.69
672.487	91.69
672.689	80.69
672.892	75.69
