Data from Ni(NO3)2Standard.Agarose3%.GreenCap.LampEnergy5.5.E.O_HRD10591_14-39-04-188.txt Node
Date: Mon Jul 22 14:39:04 EDT 2019
User: cochatt
Spectrometer: HR+D1059
Trigger mode: 1
Integration Time (sec): 1.000000E-1
Scans to average: 1
Electric dark correction enabled: true
Nonlinearity correction enabled: false
Boxcar width: 0
XAxis mode: Wavelengths
Number of Pixels in Spectrum: 2048
>>>>>Begin Spectral Data<<<<<
223.165	-19.44
223.4	-19.44
223.635	-19.44
223.869	-15.44
224.104	-20.44
224.338	-17.44
224.573	-9.44
224.808	-8.44
225.042	-4.44
225.277	-0.44
225.511	13.56
225.746	9.56
225.98	6.56
226.215	3.56
226.449	5.56
226.683	6.56
226.918	31.56
227.152	18.56
227.387	29.56
227.621	27.56
227.856	42.56
228.09	49.56
228.324	52.56
228.559	39.56
228.793	40.56
229.027	65.56
229.262	45.56
229.496	59.56
229.73	61.56
229.964	84.56
230.199	77.56
230.433	76.56
230.667	79.56
230.901	77.56
231.136	71.56
231.37	70.56
231.604	87.56
231.838	84.56
232.072	88.56
232.306	79.56
232.541	89.56
232.775	83.56
233.009	84.56
233.243	85.56
233.477	84.56
233.711	74.56
233.945	76.56
234.179	78.56
234.413	72.56
234.647	85.56
234.881	83.56
235.115	78.56
235.349	71.56
235.583	72.56
235.817	80.56
236.051	61.56
236.285	73.56
236.519	81.56
236.753	71.56
236.987	84.56
237.221	85.56
237.455	82.56
237.689	78.56
237.922	82.56
238.156	73.56
238.39	67.56
238.624	80.56
238.858	73.56
239.091	71.56
239.325	86.56
239.559	86.56
239.793	74.56
240.027	85.56
240.26	81.56
240.494	84.56
240.728	79.56
240.961	66.56
241.195	79.56
241.429	86.56
241.662	85.56
241.896	81.56
242.13	75.56
242.363	77.56
242.597	77.56
242.83	96.56
243.064	72.56
243.298	78.56
243.531	78.56
243.765	81.56
243.998	78.56
244.232	83.56
244.465	84.56
244.699	74.56
244.932	76.56
245.166	59.56
245.399	87.56
245.633	61.56
245.866	81.56
246.099	85.56
246.333	70.56
246.566	85.56
246.8	77.56
247.033	71.56
247.266	86.56
247.5	74.56
247.733	96.56
247.966	90.56
248.2	77.56
248.433	87.56
248.666	62.56
248.899	79.56
249.133	76.56
249.366	80.56
249.599	74.56
249.832	101.56
250.066	88.56
250.299	83.56
250.532	77.56
250.765	84.56
250.998	68.56
251.231	77.56
251.465	85.56
251.698	92.56
251.931	85.56
252.164	65.56
252.397	73.56
252.63	71.56
252.863	82.56
253.096	85.56
253.329	78.56
253.562	71.56
253.795	84.56
254.028	73.56
254.261	85.56
254.494	79.56
254.727	69.56
254.96	76.56
255.193	77.56
255.426	81.56
255.659	81.56
255.892	91.56
256.124	77.56
256.357	88.56
256.59	80.56
256.823	70.56
257.056	73.56
257.289	89.56
257.521	79.56
257.754	89.56
257.987	79.56
258.22	83.56
258.452	73.56
258.685	73.56
258.918	77.56
259.151	78.56
259.383	78.56
259.616	86.56
259.849	80.56
260.081	77.56
260.314	76.56
260.547	78.56
260.779	88.56
261.012	79.56
261.244	81.56
261.477	87.56
261.71	74.56
261.942	82.56
262.175	74.56
262.407	83.56
262.64	88.56
262.872	90.56
263.105	82.56
263.337	85.56
263.57	80.56
263.802	72.56
264.035	77.56
264.267	65.56
264.499	82.56
264.732	77.56
264.964	62.56
265.197	65.56
265.429	80.56
265.661	89.56
265.894	74.56
266.126	77.56
266.358	78.56
266.591	85.56
266.823	78.56
267.055	99.56
267.287	90.56
267.52	76.56
267.752	89.56
267.984	87.56
268.216	77.56
268.448	88.56
268.681	84.56
268.913	81.56
269.145	94.56
269.377	77.56
269.609	77.56
269.841	88.56
270.073	76.56
270.306	67.56
270.538	77.56
270.77	85.56
271.002	75.56
271.234	93.56
271.466	92.56
271.698	95.56
271.93	97.56
272.162	87.56
272.394	81.56
272.626	84.56
272.858	89.56
273.09	85.56
273.322	84.56
273.553	73.56
273.785	83.56
274.017	82.56
274.249	84.56
274.481	81.56
274.713	83.56
274.945	87.56
275.176	84.56
275.408	82.56
275.64	98.56
275.872	72.56
276.104	83.56
276.335	82.56
276.567	74.56
276.799	92.56
277.031	76.56
277.262	72.56
277.494	80.56
277.726	105.56
277.957	88.56
278.189	84.56
278.421	88.56
278.652	79.56
278.884	85.56
279.115	82.56
279.347	79.56
279.579	77.56
279.81	90.56
280.042	83.56
280.273	88.56
280.505	83.56
280.736	83.56
280.968	79.56
281.199	85.56
281.431	76.56
281.662	92.56
281.894	89.56
282.125	85.56
282.356	87.56
282.588	90.56
282.819	89.56
283.051	84.56
283.282	75.56
283.513	89.56
283.745	95.56
283.976	76.56
284.207	87.56
284.439	82.56
284.67	83.56
284.901	92.56
285.132	93.56
285.364	85.56
285.595	88.56
285.826	96.56
286.057	96.56
286.288	74.56
286.52	82.56
286.751	104.56
286.982	68.56
287.213	74.56
287.444	102.56
287.675	98.56
287.906	96.56
288.138	85.56
288.369	88.56
288.6	80.56
288.831	99.56
289.062	81.56
289.293	92.56
289.524	81.56
289.755	91.56
289.986	84.56
290.217	86.56
290.448	83.56
290.679	88.56
290.91	83.56
291.141	84.56
291.371	82.56
291.602	70.56
291.833	73.56
292.064	84.56
292.295	90.56
292.526	84.56
292.757	94.56
292.987	92.56
293.218	81.56
293.449	85.56
293.68	89.56
293.91	90.56
294.141	94.56
294.372	93.56
294.603	94.56
294.833	85.56
295.064	84.56
295.295	83.56
295.525	86.56
295.756	88.56
295.987	90.56
296.217	86.56
296.448	88.56
296.679	86.56
296.909	92.56
297.14	105.56
297.37	92.56
297.601	71.56
297.831	90.56
298.062	85.56
298.292	77.56
298.523	96.56
298.753	79.56
298.984	86.56
299.214	94.56
299.445	83.56
299.675	79.56
299.905	90.56
300.136	98.56
300.366	89.56
300.597	98.56
300.827	87.56
301.057	94.56
301.288	83.56
301.518	76.56
301.748	93.56
301.979	101.56
302.209	82.56
302.439	82.56
302.669	82.56
302.9	77.56
303.13	81.56
303.36	90.56
303.59	85.56
303.82	85.56
304.051	101.56
304.281	92.56
304.511	103.56
304.741	89.56
304.971	84.56
305.201	86.56
305.431	93.56
305.661	103.56
305.891	80.56
306.121	77.56
306.352	76.56
306.582	74.56
306.812	83.56
307.042	89.56
307.272	86.56
307.502	86.56
307.731	85.56
307.961	90.56
308.191	84.56
308.421	96.56
308.651	76.56
308.881	101.56
309.111	84.56
309.341	93.56
309.571	92.56
309.8	71.56
310.03	86.56
310.26	83.56
310.49	83.56
310.72	82.56
310.949	96.56
311.179	72.56
311.409	96.56
311.639	101.56
311.868	79.56
312.098	88.56
312.328	90.56
312.557	77.56
312.787	96.56
313.017	84.56
313.246	91.56
313.476	85.56
313.706	91.56
313.935	80.56
314.165	93.56
314.394	91.56
314.624	85.56
314.853	73.56
315.083	84.56
315.312	89.56
315.542	79.56
315.771	77.56
316.001	70.56
316.23	85.56
316.46	86.56
316.689	88.56
316.919	68.56
317.148	96.56
317.377	84.56
317.607	79.56
317.836	83.56
318.065	84.56
318.295	89.56
318.524	85.56
318.753	88.56
318.983	89.56
319.212	101.56
319.441	77.56
319.67	86.56
319.9	86.56
320.129	90.56
320.358	74.56
320.587	95.56
320.816	86.56
321.046	100.56
321.275	82.56
321.504	76.56
321.733	72.56
321.962	88.56
322.191	80.56
322.42	88.56
322.649	87.56
322.878	91.56
323.108	85.56
323.337	101.56
323.566	92.56
323.795	102.56
324.024	88.56
324.253	85.56
324.482	74.56
324.71	73.56
324.939	91.56
325.168	84.56
325.397	69.56
325.626	68.56
325.855	77.56
326.084	99.56
326.313	89.56
326.542	72.56
326.77	86.56
326.999	69.56
327.228	85.56
327.457	89.56
327.686	79.56
327.914	88.56
328.143	94.56
328.372	78.56
328.6	81.56
328.829	92.56
329.058	92.56
329.287	92.56
329.515	75.56
329.744	92.56
329.972	78.56
330.201	87.56
330.43	87.56
330.658	99.56
330.887	90.56
331.115	103.56
331.344	93.56
331.572	84.56
331.801	85.56
332.03	84.56
332.258	91.56
332.486	93.56
332.715	75.56
332.943	90.56
333.172	104.56
333.4	94.56
333.629	77.56
333.857	107.56
334.085	88.56
334.314	83.56
334.542	86.56
334.771	84.56
334.999	74.56
335.227	87.56
335.455	93.56
335.684	89.56
335.912	77.56
336.14	92.56
336.369	81.56
336.597	91.56
336.825	90.56
337.053	85.56
337.281	91.56
337.51	89.56
337.738	76.56
337.966	88.56
338.194	92.56
338.422	80.56
338.65	90.56
338.878	85.56
339.106	92.56
339.334	97.56
339.562	96.56
339.79	97.56
340.018	91.56
340.246	89.56
340.474	83.56
340.702	82.56
340.93	89.56
341.158	84.56
341.386	100.56
341.614	93.56
341.842	75.56
342.07	73.56
342.298	78.56
342.526	73.56
342.754	85.56
342.981	91.56
343.209	88.56
343.437	99.56
343.665	103.56
343.893	84.56
344.12	100.56
344.348	81.56
344.576	78.56
344.804	102.56
345.031	88.56
345.259	84.56
345.487	84.56
345.714	92.56
345.942	89.56
346.17	78.56
346.397	82.56
346.625	84.56
346.853	97.56
347.08	79.56
347.308	80.56
347.535	90.56
347.763	94.56
347.99	94.56
348.218	66.56
348.445	86.56
348.673	98.56
348.9	96.56
349.128	85.56
349.355	97.56
349.583	88.56
349.81	97.56
350.037	86.56
350.265	89.56
350.492	95.56
350.72	77.56
350.947	73.56
351.174	85.56
351.402	73.56
351.629	87.56
351.856	92.56
352.083	67.56
352.311	82.56
352.538	84.56
352.765	86.56
352.992	89.56
353.22	85.56
353.447	80.56
353.674	88.56
353.901	93.56
354.128	99.56
354.355	69.56
354.583	86.56
354.81	74.56
355.037	78.56
355.264	90.56
355.491	92.56
355.718	83.56
355.945	91.56
356.172	62.56
356.399	77.56
356.626	73.56
356.853	85.56
357.08	95.56
357.307	85.56
357.534	77.56
357.761	83.56
357.988	93.56
358.215	82.56
358.441	91.56
358.668	97.56
358.895	76.56
359.122	79.56
359.349	92.56
359.576	95.56
359.802	88.56
360.029	82.56
360.256	81.56
360.483	75.56
360.709	82.56
360.936	98.56
361.163	77.56
361.39	104.56
361.616	82.56
361.843	91.56
362.07	91.56
362.296	88.56
362.523	99.56
362.749	90.56
362.976	91.56
363.203	86.56
363.429	86.56
363.656	87.56
363.882	86.56
364.109	77.56
364.335	81.56
364.562	99.56
364.788	83.56
365.015	89.56
365.241	97.56
365.468	95.56
365.694	69.56
365.92	95.56
366.147	87.56
366.373	90.56
366.599	88.56
366.826	73.56
367.052	91.56
367.278	78.56
367.505	96.56
367.731	82.56
367.957	72.56
368.184	78.56
368.41	82.56
368.636	76.56
368.862	73.56
369.089	75.56
369.315	106.56
369.541	85.56
369.767	84.56
369.993	84.56
370.219	79.56
370.445	96.56
370.672	73.56
370.898	80.56
371.124	84.56
371.35	81.56
371.576	92.56
371.802	88.56
372.028	88.56
372.254	93.56
372.48	88.56
372.706	86.56
372.932	86.56
373.158	92.56
373.384	89.56
373.61	96.56
373.835	88.56
374.061	74.56
374.287	83.56
374.513	75.56
374.739	83.56
374.965	85.56
375.191	85.56
375.416	63.56
375.642	86.56
375.868	88.56
376.094	86.56
376.319	85.56
376.545	78.56
376.771	93.56
376.997	87.56
377.222	82.56
377.448	97.56
377.674	82.56
377.899	86.56
378.125	80.56
378.35	72.56
378.576	69.56
378.802	87.56
379.027	91.56
379.253	93.56
379.478	75.56
379.704	76.56
379.929	80.56
380.155	85.56
380.38	85.56
380.606	79.56
380.831	76.56
381.057	90.56
381.282	88.56
381.507	86.56
381.733	69.56
381.958	84.56
382.184	78.56
382.409	81.56
382.634	75.56
382.86	93.56
383.085	87.56
383.31	91.56
383.535	80.56
383.761	95.56
383.986	68.56
384.211	87.56
384.436	88.56
384.662	82.56
384.887	97.56
385.112	94.56
385.337	95.56
385.562	85.56
385.787	83.56
386.013	91.56
386.238	73.56
386.463	85.56
386.688	86.56
386.913	77.56
387.138	79.56
387.363	93.56
387.588	93.56
387.813	89.56
388.038	85.56
388.263	71.56
388.488	90.56
388.713	87.56
388.938	78.56
389.163	91.56
389.387	81.56
389.612	85.56
389.837	80.56
390.062	82.56
390.287	76.56
390.512	80.56
390.736	87.56
390.961	73.56
391.186	81.56
391.411	85.56
391.636	72.56
391.86	75.56
392.085	89.56
392.31	78.56
392.534	91.56
392.759	88.56
392.984	82.56
393.208	99.56
393.433	83.56
393.658	94.56
393.882	69.56
394.107	82.56
394.331	78.56
394.556	81.56
394.78	69.56
395.005	77.56
395.229	85.56
395.454	92.56
395.678	92.56
395.903	87.56
396.127	87.56
396.352	90.56
396.576	74.56
396.801	76.56
397.025	77.56
397.249	86.56
397.474	96.56
397.698	80.56
397.922	89.56
398.147	81.56
398.371	85.56
398.595	89.56
398.82	93.56
399.044	95.56
399.268	89.56
399.492	96.56
399.717	86.56
399.941	94.56
400.165	94.56
400.389	83.56
400.613	68.56
400.837	89.56
401.062	86.56
401.286	106.56
401.51	88.56
401.734	87.56
401.958	80.56
402.182	86.56
402.406	72.56
402.63	78.56
402.854	84.56
403.078	77.56
403.302	97.56
403.526	92.56
403.75	84.56
403.974	82.56
404.198	102.56
404.422	78.56
404.645	98.56
404.869	91.56
405.093	99.56
405.317	86.56
405.541	68.56
405.765	88.56
405.988	97.56
406.212	81.56
406.436	66.56
406.66	92.56
406.883	90.56
407.107	85.56
407.331	88.56
407.555	92.56
407.778	89.56
408.002	90.56
408.226	98.56
408.449	88.56
408.673	89.56
408.896	89.56
409.12	86.56
409.344	74.56
409.567	80.56
409.791	84.56
410.014	85.56
410.238	99.56
410.461	92.56
410.685	96.56
410.908	71.56
411.132	75.56
411.355	70.56
411.578	78.56
411.802	93.56
412.025	72.56
412.249	75.56
412.472	82.56
412.695	92.56
412.919	81.56
413.142	86.56
413.365	84.56
413.589	82.56
413.812	82.56
414.035	89.56
414.258	78.56
414.482	81.56
414.705	87.56
414.928	78.56
415.151	84.56
415.374	97.56
415.597	93.56
415.821	94.56
416.044	76.56
416.267	77.56
416.49	98.56
416.713	99.56
416.936	85.56
417.159	78.56
417.382	88.56
417.605	92.56
417.828	86.56
418.051	86.56
418.274	69.56
418.497	78.56
418.72	93.56
418.943	85.56
419.166	75.56
419.389	82.56
419.611	82.56
419.834	86.56
420.057	66.56
420.28	76.56
420.503	104.56
420.726	88.56
420.948	85.56
421.171	71.56
421.394	87.56
421.617	89.56
421.839	86.56
422.062	75.56
422.285	80.56
422.507	85.56
422.73	93.56
422.953	78.56
423.175	77.56
423.398	71.56
423.621	90.56
423.843	93.56
424.066	79.56
424.288	91.56
424.511	79.56
424.733	93.56
424.956	84.56
425.178	89.56
425.401	80.56
425.623	84.56
425.846	99.56
426.068	83.56
426.291	82.56
426.513	89.56
426.735	81.56
426.958	84.56
427.18	92.56
427.402	98.56
427.625	87.56
427.847	85.56
428.069	73.56
428.292	83.56
428.514	95.56
428.736	89.56
428.958	94.56
429.181	92.56
429.403	83.56
429.625	81.56
429.847	93.56
430.069	89.56
430.292	99.56
430.514	88.56
430.736	76.56
430.958	81.56
431.18	79.56
431.402	80.56
431.624	93.56
431.846	85.56
432.068	82.56
432.29	89.56
432.512	66.56
432.734	87.56
432.956	111.56
433.178	88.56
433.4	88.56
433.622	90.56
433.844	96.56
434.066	82.56
434.287	85.56
434.509	85.56
434.731	77.56
434.953	98.56
435.175	82.56
435.397	93.56
435.618	80.56
435.84	80.56
436.062	94.56
436.284	94.56
436.505	81.56
436.727	92.56
436.949	87.56
437.17	83.56
437.392	90.56
437.614	91.56
437.835	93.56
438.057	87.56
438.278	95.56
438.5	80.56
438.721	93.56
438.943	90.56
439.165	87.56
439.386	71.56
439.608	86.56
439.829	94.56
440.05	75.56
440.272	74.56
440.493	93.56
440.715	101.56
440.936	73.56
441.158	88.56
441.379	86.56
441.6	80.56
441.822	92.56
442.043	88.56
442.264	74.56
442.486	90.56
442.707	89.56
442.928	92.56
443.149	87.56
443.371	83.56
443.592	78.56
443.813	98.56
444.034	69.56
444.255	86.56
444.476	87.56
444.698	86.56
444.919	90.56
445.14	214.56
445.361	162.56
445.582	99.56
445.803	93.56
446.024	85.56
446.245	88.56
446.466	92.56
446.687	96.56
446.908	82.56
447.129	90.56
447.35	79.56
447.571	85.56
447.792	87.56
448.013	83.56
448.234	78.56
448.455	85.56
448.675	80.56
448.896	90.56
449.117	98.56
449.338	82.56
449.559	65.56
449.779	81.56
450	77.56
450.221	82.56
450.442	84.56
450.662	81.56
450.883	80.56
451.104	84.56
451.324	69.56
451.545	78.56
451.766	82.56
451.986	81.56
452.207	77.56
452.428	100.56
452.648	81.56
452.869	69.56
453.089	82.56
453.31	78.56
453.53	68.56
453.751	87.56
453.971	78.56
454.192	92.56
454.412	94.56
454.633	88.56
454.853	75.56
455.073	95.56
455.294	94.56
455.514	86.56
455.734	83.56
455.955	85.56
456.175	78.56
456.395	100.56
456.616	78.56
456.836	81.56
457.056	88.56
457.276	86.56
457.497	81.56
457.717	88.56
457.937	87.56
458.157	81.56
458.377	93.56
458.598	104.56
458.818	84.56
459.038	76.56
459.258	82.56
459.478	81.56
459.698	85.56
459.918	87.56
460.138	92.56
460.358	95.56
460.578	92.56
460.798	82.56
461.018	77.56
461.238	91.56
461.458	70.56
461.678	82.56
461.898	81.56
462.118	83.56
462.338	92.56
462.558	86.56
462.777	74.56
462.997	90.56
463.217	79.56
463.437	90.56
463.657	70.56
463.876	81.56
464.096	77.56
464.316	73.56
464.536	84.56
464.755	93.56
464.975	75.56
465.195	93.56
465.414	89.56
465.634	75.56
465.854	72.56
466.073	88.56
466.293	98.56
466.512	106.56
466.732	98.56
466.951	101.56
467.171	96.56
467.391	74.56
467.61	67.56
467.829	86.56
468.049	86.56
468.268	70.56
468.488	94.56
468.707	83.56
468.927	90.56
469.146	76.56
469.365	84.56
469.585	81.56
469.804	89.56
470.023	92.56
470.243	84.56
470.462	95.56
470.681	87.56
470.901	82.56
471.12	98.56
471.339	84.56
471.558	79.56
471.777	81.56
471.997	90.56
472.216	86.56
472.435	88.56
472.654	83.56
472.873	101.56
473.092	91.56
473.311	78.56
473.53	84.56
473.749	91.56
473.968	88.56
474.187	87.56
474.406	91.56
474.625	88.56
474.844	86.56
475.063	81.56
475.282	86.56
475.501	92.56
475.72	101.56
475.939	92.56
476.158	98.56
476.377	91.56
476.596	90.56
476.814	82.56
477.033	97.56
477.252	83.56
477.471	90.56
477.69	90.56
477.908	99.56
478.127	104.56
478.346	90.56
478.564	95.56
478.783	88.56
479.002	93.56
479.22	85.56
479.439	89.56
479.658	90.56
479.876	77.56
480.095	83.56
480.313	82.56
480.532	74.56
480.751	92.56
480.969	87.56
481.188	74.56
481.406	84.56
481.624	98.56
481.843	90.56
482.061	78.56
482.28	92.56
482.498	86.56
482.717	77.56
482.935	77.56
483.153	86.56
483.372	93.56
483.59	99.56
483.808	90.56
484.027	82.56
484.245	66.56
484.463	92.56
484.681	100.56
484.9	86.56
485.118	89.56
485.336	94.56
485.554	95.56
485.772	88.56
485.99	92.56
486.209	89.56
486.427	104.56
486.645	89.56
486.863	97.56
487.081	95.56
487.299	100.56
487.517	104.56
487.735	109.56
487.953	108.56
488.171	87.56
488.389	90.56
488.607	81.56
488.825	110.56
489.043	86.56
489.261	75.56
489.479	96.56
489.696	103.56
489.914	78.56
490.132	94.56
490.35	99.56
490.568	91.56
490.786	98.56
491.003	92.56
491.221	105.56
491.439	91.56
491.657	92.56
491.874	100.56
492.092	118.56
492.31	106.56
492.527	101.56
492.745	102.56
492.963	100.56
493.18	110.56
493.398	100.56
493.615	91.56
493.833	103.56
494.05	98.56
494.268	95.56
494.485	102.56
494.703	86.56
494.92	102.56
495.138	97.56
495.355	87.56
495.573	99.56
495.79	102.56
496.008	96.56
496.225	115.56
496.442	99.56
496.66	104.56
496.877	102.56
497.094	104.56
497.312	109.56
497.529	101.56
497.746	95.56
497.963	88.56
498.181	97.56
498.398	77.56
498.615	89.56
498.832	101.56
499.049	88.56
499.267	106.56
499.484	101.56
499.701	88.56
499.918	93.56
500.135	107.56
500.352	94.56
500.569	95.56
500.786	100.56
501.003	102.56
501.22	104.56
501.437	96.56
501.654	93.56
501.871	98.56
502.088	105.56
502.305	96.56
502.522	92.56
502.739	94.56
502.956	95.56
503.172	98.56
503.389	97.56
503.606	88.56
503.823	78.56
504.04	87.56
504.256	97.56
504.473	91.56
504.69	91.56
504.907	103.56
505.123	88.56
505.34	104.56
505.557	104.56
505.773	98.56
505.99	96.56
506.207	104.56
506.423	102.56
506.64	96.56
506.856	99.56
507.073	90.56
507.289	93.56
507.506	104.56
507.722	90.56
507.939	87.56
508.155	85.56
508.372	87.56
508.588	95.56
508.805	93.56
509.021	96.56
509.238	83.56
509.454	86.56
509.67	85.56
509.887	96.56
510.103	78.56
510.319	74.56
510.536	103.56
510.752	90.56
510.968	92.56
511.184	93.56
511.401	83.56
511.617	90.56
511.833	99.56
512.049	80.56
512.265	89.56
512.481	82.56
512.698	89.56
512.914	75.56
513.13	85.56
513.346	77.56
513.562	94.56
513.778	85.56
513.994	88.56
514.21	72.56
514.426	101.56
514.642	94.56
514.858	93.56
515.074	100.56
515.29	91.56
515.506	100.56
515.721	87.56
515.937	82.56
516.153	83.56
516.369	90.56
516.585	85.56
516.801	96.56
517.016	69.56
517.232	89.56
517.448	83.56
517.664	91.56
517.879	91.56
518.095	109.56
518.311	101.56
518.527	89.56
518.742	84.56
518.958	77.56
519.173	91.56
519.389	70.56
519.605	93.56
519.82	87.56
520.036	97.56
520.251	91.56
520.467	80.56
520.682	86.56
520.898	80.56
521.113	88.56
521.329	93.56
521.544	100.56
521.76	93.56
521.975	87.56
522.19	77.56
522.406	76.56
522.621	95.56
522.836	78.56
523.052	107.56
523.267	80.56
523.482	86.56
523.698	77.56
523.913	92.56
524.128	91.56
524.343	83.56
524.559	95.56
524.774	112.56
524.989	92.56
525.204	95.56
525.419	89.56
525.634	91.56
525.849	79.56
526.064	78.56
526.28	73.56
526.495	89.56
526.71	83.56
526.925	96.56
527.14	92.56
527.355	81.56
527.57	83.56
527.785	91.56
527.999	80.56
528.214	84.56
528.429	71.56
528.644	81.56
528.859	94.56
529.074	98.56
529.289	103.56
529.503	100.56
529.718	90.56
529.933	75.56
530.148	84.56
530.363	93.56
530.577	82.56
530.792	82.56
531.007	88.56
531.221	83.56
531.436	90.56
531.651	86.56
531.865	85.56
532.08	81.56
532.295	77.56
532.509	86.56
532.724	90.56
532.938	92.56
533.153	93.56
533.367	85.56
533.582	91.56
533.796	96.56
534.011	83.56
534.225	82.56
534.44	89.56
534.654	83.56
534.868	75.56
535.083	77.56
535.297	79.56
535.511	88.56
535.726	85.56
535.94	85.56
536.154	87.56
536.369	87.56
536.583	89.56
536.797	88.56
537.011	95.56
537.225	93.56
537.44	83.56
537.654	83.56
537.868	102.56
538.082	103.56
538.296	87.56
538.51	90.56
538.724	97.56
538.938	85.56
539.153	80.56
539.367	79.56
539.581	88.56
539.795	87.56
540.009	81.56
540.222	85.56
540.436	81.56
540.65	86.56
540.864	86.56
541.078	85.56
541.292	84.56
541.506	102.56
541.72	90.56
541.934	96.56
542.147	79.56
542.361	88.56
542.575	84.56
542.789	92.56
543.002	94.56
543.216	95.56
543.43	93.56
543.644	89.56
543.857	89.56
544.071	86.56
544.285	92.56
544.498	84.56
544.712	91.56
544.925	109.56
545.139	93.56
545.352	95.56
545.566	86.56
545.779	89.56
545.993	99.56
546.206	97.56
546.42	99.56
546.633	98.56
546.847	97.56
547.06	94.56
547.274	98.56
547.487	92.56
547.7	93.56
547.914	88.56
548.127	95.56
548.34	86.56
548.554	94.56
548.767	93.56
548.98	91.56
549.193	89.56
549.407	88.56
549.62	87.56
549.833	100.56
550.046	93.56
550.259	92.56
550.473	105.56
550.686	84.56
550.899	93.56
551.112	91.56
551.325	89.56
551.538	76.56
551.751	69.56
551.964	79.56
552.177	88.56
552.39	96.56
552.603	85.56
552.816	96.56
553.029	89.56
553.242	89.56
553.455	97.56
553.667	100.56
553.88	101.56
554.093	93.56
554.306	86.56
554.519	89.56
554.732	102.56
554.944	92.56
555.157	82.56
555.37	78.56
555.583	81.56
555.795	85.56
556.008	99.56
556.221	88.56
556.433	83.56
556.646	92.56
556.859	84.56
557.071	99.56
557.284	97.56
557.496	90.56
557.709	98.56
557.921	83.56
558.134	78.56
558.346	84.56
558.559	91.56
558.771	83.56
558.984	107.56
559.196	85.56
559.409	92.56
559.621	94.56
559.833	83.56
560.046	114.56
560.258	82.56
560.47	85.56
560.683	88.56
560.895	92.56
561.107	86.56
561.32	87.56
561.532	85.56
561.744	82.56
561.956	91.56
562.168	88.56
562.381	72.56
562.593	85.56
562.805	79.56
563.017	87.56
563.229	89.56
563.441	78.56
563.653	92.56
563.865	87.56
564.077	86.56
564.289	107.56
564.501	99.56
564.713	91.56
564.925	85.56
565.137	96.56
565.349	102.56
565.561	101.56
565.773	91.56
565.985	95.56
566.197	93.56
566.408	98.56
566.62	89.56
566.832	88.56
567.044	86.56
567.255	86.56
567.467	86.56
567.679	91.56
567.891	92.56
568.102	95.56
568.314	87.56
568.526	85.56
568.737	90.56
568.949	84.56
569.161	94.56
569.372	86.56
569.584	93.56
569.795	85.56
570.007	86.56
570.218	93.56
570.43	90.56
570.641	81.56
570.853	89.56
571.064	77.56
571.276	90.56
571.487	75.56
571.698	85.56
571.91	82.56
572.121	80.56
572.333	87.56
572.544	85.56
572.755	82.56
572.966	88.56
573.178	92.56
573.389	82.56
573.6	86.56
573.811	88.56
574.023	79.56
574.234	89.56
574.445	85.56
574.656	81.56
574.867	73.56
575.078	90.56
575.289	81.56
575.501	87.56
575.712	91.56
575.923	79.56
576.134	90.56
576.345	82.56
576.556	88.56
576.767	92.56
576.978	77.56
577.188	98.56
577.399	73.56
577.61	90.56
577.821	97.56
578.032	82.56
578.243	85.56
578.454	86.56
578.665	77.56
578.875	99.56
579.086	86.56
579.297	78.56
579.508	82.56
579.718	89.56
579.929	89.56
580.14	83.56
580.35	79.56
580.561	105.56
580.772	80.56
580.982	91.56
581.193	73.56
581.403	85.56
581.614	85.56
581.825	83.56
582.035	85.56
582.246	89.56
582.456	83.56
582.667	98.56
582.877	85.56
583.087	81.56
583.298	83.56
583.508	77.56
583.719	84.56
583.929	96.56
584.139	93.56
584.35	75.56
584.56	80.56
584.77	88.56
584.981	87.56
585.191	85.56
585.401	82.56
585.611	87.56
585.821	91.56
586.032	79.56
586.242	86.56
586.452	89.56
586.662	77.56
586.872	85.56
587.082	90.56
587.292	85.56
587.502	80.56
587.713	81.56
587.923	78.56
588.133	88.56
588.343	83.56
588.553	97.56
588.762	87.56
588.972	102.56
589.182	94.56
589.392	77.56
589.602	88.56
589.812	80.56
590.022	86.56
590.232	92.56
590.441	74.56
590.651	85.56
590.861	91.56
591.071	85.56
591.281	96.56
591.49	94.56
591.7	80.56
591.91	86.56
592.119	91.56
592.329	86.56
592.539	73.56
592.748	83.56
592.958	96.56
593.167	84.56
593.377	85.56
593.587	87.56
593.796	79.56
594.006	89.56
594.215	97.56
594.424	87.56
594.634	89.56
594.843	93.56
595.053	87.56
595.262	84.56
595.472	85.56
595.681	74.56
595.89	80.56
596.1	81.56
596.309	74.56
596.518	83.56
596.727	88.56
596.937	91.56
597.146	87.56
597.355	103.56
597.564	88.56
597.774	81.56
597.983	94.56
598.192	87.56
598.401	77.56
598.61	87.56
598.819	82.56
599.028	91.56
599.237	101.56
599.446	91.56
599.655	95.56
599.864	81.56
600.073	91.56
600.282	89.56
600.491	75.56
600.7	85.56
600.909	84.56
601.118	74.56
601.327	90.56
601.536	93.56
601.745	79.56
601.953	84.56
602.162	86.56
602.371	83.56
602.58	92.56
602.789	78.56
602.997	79.56
603.206	89.56
603.415	94.56
603.623	92.56
603.832	83.56
604.041	67.56
604.249	88.56
604.458	80.56
604.666	79.56
604.875	82.56
605.084	76.56
605.292	76.56
605.501	78.56
605.709	83.56
605.918	88.56
606.126	89.56
606.334	85.56
606.543	98.56
606.751	102.56
606.96	80.56
607.168	88.56
607.376	99.56
607.585	90.56
607.793	82.56
608.001	91.56
608.21	84.56
608.418	97.56
608.626	82.56
608.834	89.56
609.043	76.56
609.251	68.56
609.459	93.56
609.667	83.56
609.875	93.56
610.083	75.56
610.291	91.56
610.499	94.56
610.707	98.56
610.916	86.56
611.124	89.56
611.332	88.56
611.54	93.56
611.748	87.56
611.955	80.56
612.163	97.56
612.371	83.56
612.579	83.56
612.787	83.56
612.995	96.56
613.203	89.56
613.411	77.56
613.618	100.56
613.826	87.56
614.034	93.56
614.242	93.56
614.449	84.56
614.657	82.56
614.865	88.56
615.072	82.56
615.28	76.56
615.488	85.56
615.695	86.56
615.903	84.56
616.111	75.56
616.318	82.56
616.526	81.56
616.733	90.56
616.941	88.56
617.148	85.56
617.356	93.56
617.563	88.56
617.771	84.56
617.978	80.56
618.185	81.56
618.393	87.56
618.6	96.56
618.807	76.56
619.015	72.56
619.222	84.56
619.429	92.56
619.637	90.56
619.844	83.56
620.051	102.56
620.258	85.56
620.466	96.56
620.673	76.56
620.88	88.56
621.087	95.56
621.294	86.56
621.501	75.56
621.708	77.56
621.915	74.56
622.122	93.56
622.329	78.56
622.536	82.56
622.743	54.56
622.95	79.56
623.157	72.56
623.364	98.56
623.571	82.56
623.778	79.56
623.985	69.56
624.192	101.56
624.399	91.56
624.606	73.56
624.812	85.56
625.019	84.56
625.226	90.56
625.433	79.56
625.639	84.56
625.846	70.56
626.053	75.56
626.259	73.56
626.466	80.56
626.673	88.56
626.879	85.56
627.086	80.56
627.293	93.56
627.499	89.56
627.706	71.56
627.912	92.56
628.119	75.56
628.325	86.56
628.532	95.56
628.738	85.56
628.945	73.56
629.151	83.56
629.357	86.56
629.564	93.56
629.77	72.56
629.976	74.56
630.183	89.56
630.389	79.56
630.595	87.56
630.802	87.56
631.008	92.56
631.214	86.56
631.42	81.56
631.627	73.56
631.833	78.56
632.039	69.56
632.245	84.56
632.451	78.56
632.657	82.56
632.863	87.56
633.069	100.56
633.275	96.56
633.481	91.56
633.688	75.56
633.893	75.56
634.099	83.56
634.305	88.56
634.511	82.56
634.717	87.56
634.923	93.56
635.129	79.56
635.335	82.56
635.541	76.56
635.747	89.56
635.952	84.56
636.158	85.56
636.364	77.56
636.57	96.56
636.775	93.56
636.981	89.56
637.187	77.56
637.392	101.56
637.598	82.56
637.804	84.56
638.009	81.56
638.215	92.56
638.421	80.56
638.626	97.56
638.832	77.56
639.037	69.56
639.243	78.56
639.448	82.56
639.654	76.56
639.859	77.56
640.065	78.56
640.27	99.56
640.475	96.56
640.681	88.56
640.886	81.56
641.091	90.56
641.297	72.56
641.502	74.56
641.707	77.56
641.913	80.56
642.118	72.56
642.323	75.56
642.528	84.56
642.733	98.56
642.939	82.56
643.144	87.56
643.349	81.56
643.554	95.56
643.759	87.56
643.964	83.56
644.169	78.56
644.374	92.56
644.579	86.56
644.784	105.56
644.989	90.56
645.194	78.56
645.399	98.56
645.604	93.56
645.809	95.56
646.014	97.56
646.219	90.56
646.423	85.56
646.628	80.56
646.833	88.56
647.038	87.56
647.243	89.56
647.447	85.56
647.652	74.56
647.857	86.56
648.062	85.56
648.266	90.56
648.471	79.56
648.676	86.56
648.88	78.56
649.085	74.56
649.289	84.56
649.494	77.56
649.698	88.56
649.903	82.56
650.107	79.56
650.312	92.56
650.516	97.56
650.721	85.56
650.925	76.56
651.13	66.56
651.334	79.56
651.539	87.56
651.743	96.56
651.947	84.56
652.152	98.56
652.356	93.56
652.56	93.56
652.764	66.56
652.969	80.56
653.173	86.56
653.377	101.56
653.581	79.56
653.785	92.56
653.99	86.56
654.194	76.56
654.398	96.56
654.602	86.56
654.806	84.56
655.01	85.56
655.214	86.56
655.418	96.56
655.622	84.56
655.826	86.56
656.03	87.56
656.234	88.56
656.438	96.56
656.642	83.56
656.846	92.56
657.049	87.56
657.253	86.56
657.457	71.56
657.661	82.56
657.865	79.56
658.068	80.56
658.272	77.56
658.476	81.56
658.68	99.56
658.883	72.56
659.087	89.56
659.291	82.56
659.494	88.56
659.698	84.56
659.901	83.56
660.105	68.56
660.309	83.56
660.512	95.56
660.716	86.56
660.919	79.56
661.123	82.56
661.326	74.56
661.53	86.56
661.733	82.56
661.936	91.56
662.14	88.56
662.343	82.56
662.546	88.56
662.75	78.56
662.953	98.56
663.156	88.56
663.36	84.56
663.563	90.56
663.766	101.56
663.969	85.56
664.173	100.56
664.376	91.56
664.579	77.56
664.782	71.56
664.985	84.56
665.188	84.56
665.391	88.56
665.594	79.56
665.797	74.56
666	80.56
666.203	89.56
666.406	85.56
666.609	77.56
666.812	82.56
667.015	90.56
667.218	78.56
667.421	82.56
667.624	82.56
667.827	81.56
668.03	85.56
668.232	88.56
668.435	81.56
668.638	80.56
668.841	81.56
669.043	84.56
669.246	86.56
669.449	91.56
669.651	87.56
669.854	92.56
670.057	92.56
670.259	82.56
670.462	78.56
670.665	78.56
670.867	100.56
671.07	82.56
671.272	85.56
671.475	92.56
671.677	81.56
671.88	83.56
672.082	83.56
672.284	77.56
672.487	84.56
672.689	81.56
672.892	86.56
