Data from Ni(NO3)2Standard.Agarose3%.GreenCap.LampEnergy5.5.E.O_HRD10591_14-40-37-189.txt Node
Date: Mon Jul 22 14:40:37 EDT 2019
User: cochatt
Spectrometer: HR+D1059
Trigger mode: 1
Integration Time (sec): 1.000000E-1
Scans to average: 1
Electric dark correction enabled: true
Nonlinearity correction enabled: false
Boxcar width: 0
XAxis mode: Wavelengths
Number of Pixels in Spectrum: 2048
>>>>>Begin Spectral Data<<<<<
223.165	-14.25
223.4	-14.25
223.635	-14.25
223.869	-28.25
224.104	-15.25
224.338	-10.25
224.573	-14.25
224.808	-15.25
225.042	0.75
225.277	-8.25
225.511	0.75
225.746	7.75
225.98	7.75
226.215	18.75
226.449	18.75
226.683	17.75
226.918	17.75
227.152	15.75
227.387	21.75
227.621	54.75
227.856	35.75
228.09	42.75
228.324	49.75
228.559	64.75
228.793	39.75
229.027	59.75
229.262	66.75
229.496	66.75
229.73	80.75
229.964	76.75
230.199	71.75
230.433	80.75
230.667	77.75
230.901	74.75
231.136	70.75
231.37	100.75
231.604	96.75
231.838	97.75
232.072	77.75
232.306	77.75
232.541	80.75
232.775	84.75
233.009	70.75
233.243	77.75
233.477	78.75
233.711	78.75
233.945	100.75
234.179	86.75
234.413	79.75
234.647	85.75
234.881	76.75
235.115	76.75
235.349	75.75
235.583	83.75
235.817	95.75
236.051	88.75
236.285	73.75
236.519	76.75
236.753	83.75
236.987	87.75
237.221	69.75
237.455	97.75
237.689	63.75
237.922	68.75
238.156	76.75
238.39	92.75
238.624	74.75
238.858	65.75
239.091	69.75
239.325	74.75
239.559	90.75
239.793	79.75
240.027	89.75
240.26	71.75
240.494	74.75
240.728	78.75
240.961	79.75
241.195	80.75
241.429	75.75
241.662	78.75
241.896	61.75
242.13	89.75
242.363	81.75
242.597	71.75
242.83	73.75
243.064	77.75
243.298	76.75
243.531	72.75
243.765	75.75
243.998	84.75
244.232	79.75
244.465	72.75
244.699	75.75
244.932	72.75
245.166	90.75
245.399	87.75
245.633	58.75
245.866	90.75
246.099	90.75
246.333	84.75
246.566	71.75
246.8	86.75
247.033	63.75
247.266	81.75
247.5	86.75
247.733	79.75
247.966	83.75
248.2	82.75
248.433	79.75
248.666	74.75
248.899	83.75
249.133	77.75
249.366	80.75
249.599	73.75
249.832	85.75
250.066	80.75
250.299	80.75
250.532	72.75
250.765	71.75
250.998	74.75
251.231	65.75
251.465	81.75
251.698	73.75
251.931	73.75
252.164	83.75
252.397	62.75
252.63	77.75
252.863	87.75
253.096	70.75
253.329	83.75
253.562	88.75
253.795	71.75
254.028	79.75
254.261	71.75
254.494	83.75
254.727	67.75
254.96	83.75
255.193	75.75
255.426	75.75
255.659	74.75
255.892	76.75
256.124	76.75
256.357	73.75
256.59	72.75
256.823	71.75
257.056	84.75
257.289	79.75
257.521	70.75
257.754	69.75
257.987	80.75
258.22	71.75
258.452	66.75
258.685	80.75
258.918	71.75
259.151	68.75
259.383	84.75
259.616	82.75
259.849	78.75
260.081	81.75
260.314	83.75
260.547	73.75
260.779	99.75
261.012	83.75
261.244	88.75
261.477	97.75
261.71	84.75
261.942	75.75
262.175	84.75
262.407	77.75
262.64	77.75
262.872	80.75
263.105	78.75
263.337	80.75
263.57	82.75
263.802	90.75
264.035	83.75
264.267	63.75
264.499	72.75
264.732	93.75
264.964	80.75
265.197	84.75
265.429	88.75
265.661	80.75
265.894	63.75
266.126	82.75
266.358	77.75
266.591	83.75
266.823	69.75
267.055	90.75
267.287	90.75
267.52	78.75
267.752	77.75
267.984	88.75
268.216	81.75
268.448	92.75
268.681	71.75
268.913	68.75
269.145	82.75
269.377	89.75
269.609	81.75
269.841	91.75
270.073	71.75
270.306	78.75
270.538	83.75
270.77	73.75
271.002	79.75
271.234	84.75
271.466	96.75
271.698	90.75
271.93	82.75
272.162	76.75
272.394	68.75
272.626	81.75
272.858	98.75
273.09	90.75
273.322	98.75
273.553	72.75
273.785	89.75
274.017	86.75
274.249	81.75
274.481	67.75
274.713	74.75
274.945	86.75
275.176	84.75
275.408	85.75
275.64	91.75
275.872	91.75
276.104	77.75
276.335	77.75
276.567	90.75
276.799	101.75
277.031	79.75
277.262	77.75
277.494	79.75
277.726	75.75
277.957	77.75
278.189	70.75
278.421	78.75
278.652	80.75
278.884	73.75
279.115	80.75
279.347	80.75
279.579	97.75
279.81	78.75
280.042	88.75
280.273	86.75
280.505	83.75
280.736	75.75
280.968	90.75
281.199	95.75
281.431	85.75
281.662	79.75
281.894	81.75
282.125	74.75
282.356	75.75
282.588	84.75
282.819	73.75
283.051	92.75
283.282	86.75
283.513	98.75
283.745	91.75
283.976	100.75
284.207	76.75
284.439	67.75
284.67	88.75
284.901	84.75
285.132	70.75
285.364	97.75
285.595	88.75
285.826	86.75
286.057	88.75
286.288	76.75
286.52	83.75
286.751	76.75
286.982	83.75
287.213	94.75
287.444	82.75
287.675	80.75
287.906	93.75
288.138	75.75
288.369	91.75
288.6	83.75
288.831	74.75
289.062	87.75
289.293	80.75
289.524	78.75
289.755	92.75
289.986	73.75
290.217	71.75
290.448	84.75
290.679	99.75
290.91	82.75
291.141	83.75
291.371	83.75
291.602	85.75
291.833	82.75
292.064	83.75
292.295	91.75
292.526	80.75
292.757	81.75
292.987	71.75
293.218	72.75
293.449	89.75
293.68	82.75
293.91	79.75
294.141	93.75
294.372	76.75
294.603	84.75
294.833	98.75
295.064	76.75
295.295	82.75
295.525	89.75
295.756	89.75
295.987	94.75
296.217	92.75
296.448	102.75
296.679	91.75
296.909	90.75
297.14	98.75
297.37	89.75
297.601	90.75
297.831	77.75
298.062	77.75
298.292	72.75
298.523	88.75
298.753	79.75
298.984	77.75
299.214	92.75
299.445	96.75
299.675	87.75
299.905	87.75
300.136	97.75
300.366	80.75
300.597	84.75
300.827	82.75
301.057	92.75
301.288	88.75
301.518	99.75
301.748	70.75
301.979	88.75
302.209	81.75
302.439	88.75
302.669	83.75
302.9	78.75
303.13	96.75
303.36	86.75
303.59	87.75
303.82	81.75
304.051	91.75
304.281	92.75
304.511	86.75
304.741	85.75
304.971	89.75
305.201	91.75
305.431	96.75
305.661	85.75
305.891	83.75
306.121	89.75
306.352	93.75
306.582	88.75
306.812	82.75
307.042	93.75
307.272	92.75
307.502	84.75
307.731	89.75
307.961	86.75
308.191	66.75
308.421	77.75
308.651	83.75
308.881	88.75
309.111	84.75
309.341	93.75
309.571	78.75
309.8	91.75
310.03	73.75
310.26	87.75
310.49	92.75
310.72	87.75
310.949	57.75
311.179	76.75
311.409	83.75
311.639	86.75
311.868	84.75
312.098	80.75
312.328	83.75
312.557	87.75
312.787	103.75
313.017	94.75
313.246	80.75
313.476	70.75
313.706	92.75
313.935	75.75
314.165	77.75
314.394	102.75
314.624	100.75
314.853	93.75
315.083	75.75
315.312	84.75
315.542	80.75
315.771	87.75
316.001	96.75
316.23	74.75
316.46	83.75
316.689	80.75
316.919	93.75
317.148	76.75
317.377	84.75
317.607	85.75
317.836	82.75
318.065	80.75
318.295	83.75
318.524	67.75
318.753	74.75
318.983	93.75
319.212	79.75
319.441	83.75
319.67	83.75
319.9	88.75
320.129	77.75
320.358	84.75
320.587	75.75
320.816	79.75
321.046	95.75
321.275	99.75
321.504	77.75
321.733	71.75
321.962	88.75
322.191	100.75
322.42	84.75
322.649	102.75
322.878	77.75
323.108	91.75
323.337	99.75
323.566	91.75
323.795	94.75
324.024	77.75
324.253	85.75
324.482	81.75
324.71	87.75
324.939	85.75
325.168	94.75
325.397	99.75
325.626	87.75
325.855	76.75
326.084	80.75
326.313	81.75
326.542	84.75
326.77	98.75
326.999	110.75
327.228	92.75
327.457	79.75
327.686	89.75
327.914	89.75
328.143	100.75
328.372	64.75
328.6	81.75
328.829	86.75
329.058	84.75
329.287	82.75
329.515	90.75
329.744	89.75
329.972	97.75
330.201	89.75
330.43	99.75
330.658	77.75
330.887	81.75
331.115	83.75
331.344	90.75
331.572	92.75
331.801	79.75
332.03	77.75
332.258	91.75
332.486	94.75
332.715	81.75
332.943	83.75
333.172	105.75
333.4	92.75
333.629	93.75
333.857	94.75
334.085	68.75
334.314	82.75
334.542	87.75
334.771	73.75
334.999	67.75
335.227	68.75
335.455	86.75
335.684	91.75
335.912	86.75
336.14	84.75
336.369	93.75
336.597	84.75
336.825	73.75
337.053	102.75
337.281	88.75
337.51	83.75
337.738	93.75
337.966	83.75
338.194	91.75
338.422	86.75
338.65	88.75
338.878	86.75
339.106	101.75
339.334	85.75
339.562	84.75
339.79	72.75
340.018	75.75
340.246	75.75
340.474	88.75
340.702	91.75
340.93	90.75
341.158	73.75
341.386	85.75
341.614	85.75
341.842	85.75
342.07	89.75
342.298	88.75
342.526	91.75
342.754	97.75
342.981	95.75
343.209	77.75
343.437	97.75
343.665	91.75
343.893	71.75
344.12	95.75
344.348	92.75
344.576	80.75
344.804	88.75
345.031	72.75
345.259	76.75
345.487	84.75
345.714	81.75
345.942	93.75
346.17	84.75
346.397	83.75
346.625	82.75
346.853	91.75
347.08	80.75
347.308	81.75
347.535	83.75
347.763	77.75
347.99	95.75
348.218	84.75
348.445	91.75
348.673	81.75
348.9	99.75
349.128	91.75
349.355	86.75
349.583	99.75
349.81	81.75
350.037	81.75
350.265	84.75
350.492	92.75
350.72	73.75
350.947	95.75
351.174	85.75
351.402	74.75
351.629	100.75
351.856	98.75
352.083	82.75
352.311	88.75
352.538	84.75
352.765	91.75
352.992	93.75
353.22	80.75
353.447	83.75
353.674	96.75
353.901	85.75
354.128	76.75
354.355	82.75
354.583	63.75
354.81	84.75
355.037	83.75
355.264	82.75
355.491	93.75
355.718	84.75
355.945	97.75
356.172	80.75
356.399	77.75
356.626	88.75
356.853	81.75
357.08	97.75
357.307	90.75
357.534	72.75
357.761	87.75
357.988	88.75
358.215	89.75
358.441	88.75
358.668	99.75
358.895	92.75
359.122	83.75
359.349	90.75
359.576	100.75
359.802	91.75
360.029	84.75
360.256	87.75
360.483	83.75
360.709	86.75
360.936	89.75
361.163	77.75
361.39	64.75
361.616	88.75
361.843	78.75
362.07	91.75
362.296	82.75
362.523	76.75
362.749	80.75
362.976	83.75
363.203	91.75
363.429	96.75
363.656	77.75
363.882	88.75
364.109	96.75
364.335	80.75
364.562	75.75
364.788	83.75
365.015	81.75
365.241	85.75
365.468	100.75
365.694	75.75
365.92	85.75
366.147	91.75
366.373	81.75
366.599	73.75
366.826	67.75
367.052	83.75
367.278	100.75
367.505	88.75
367.731	66.75
367.957	77.75
368.184	75.75
368.41	75.75
368.636	80.75
368.862	83.75
369.089	88.75
369.315	87.75
369.541	87.75
369.767	83.75
369.993	71.75
370.219	93.75
370.445	94.75
370.672	78.75
370.898	89.75
371.124	93.75
371.35	71.75
371.576	90.75
371.802	86.75
372.028	84.75
372.254	65.75
372.48	85.75
372.706	75.75
372.932	77.75
373.158	72.75
373.384	80.75
373.61	96.75
373.835	88.75
374.061	85.75
374.287	92.75
374.513	84.75
374.739	95.75
374.965	83.75
375.191	97.75
375.416	70.75
375.642	96.75
375.868	92.75
376.094	97.75
376.319	73.75
376.545	84.75
376.771	84.75
376.997	90.75
377.222	84.75
377.448	71.75
377.674	81.75
377.899	92.75
378.125	84.75
378.35	83.75
378.576	78.75
378.802	81.75
379.027	74.75
379.253	95.75
379.478	72.75
379.704	90.75
379.929	79.75
380.155	88.75
380.38	86.75
380.606	85.75
380.831	77.75
381.057	92.75
381.282	94.75
381.507	99.75
381.733	79.75
381.958	94.75
382.184	90.75
382.409	95.75
382.634	83.75
382.86	77.75
383.085	88.75
383.31	75.75
383.535	98.75
383.761	93.75
383.986	100.75
384.211	89.75
384.436	99.75
384.662	95.75
384.887	94.75
385.112	76.75
385.337	89.75
385.562	84.75
385.787	86.75
386.013	91.75
386.238	77.75
386.463	83.75
386.688	84.75
386.913	101.75
387.138	98.75
387.363	100.75
387.588	87.75
387.813	88.75
388.038	76.75
388.263	79.75
388.488	79.75
388.713	85.75
388.938	85.75
389.163	93.75
389.387	93.75
389.612	83.75
389.837	77.75
390.062	88.75
390.287	83.75
390.512	74.75
390.736	83.75
390.961	80.75
391.186	85.75
391.411	86.75
391.636	78.75
391.86	83.75
392.085	96.75
392.31	82.75
392.534	83.75
392.759	88.75
392.984	88.75
393.208	83.75
393.433	77.75
393.658	80.75
393.882	79.75
394.107	93.75
394.331	80.75
394.556	79.75
394.78	88.75
395.005	83.75
395.229	87.75
395.454	93.75
395.678	92.75
395.903	90.75
396.127	93.75
396.352	93.75
396.576	91.75
396.801	79.75
397.025	85.75
397.249	101.75
397.474	104.75
397.698	90.75
397.922	76.75
398.147	90.75
398.371	96.75
398.595	78.75
398.82	90.75
399.044	84.75
399.268	83.75
399.492	81.75
399.717	77.75
399.941	96.75
400.165	87.75
400.389	69.75
400.613	85.75
400.837	95.75
401.062	78.75
401.286	87.75
401.51	90.75
401.734	84.75
401.958	78.75
402.182	89.75
402.406	81.75
402.63	86.75
402.854	75.75
403.078	94.75
403.302	93.75
403.526	83.75
403.75	76.75
403.974	87.75
404.198	77.75
404.422	87.75
404.645	91.75
404.869	77.75
405.093	98.75
405.317	85.75
405.541	83.75
405.765	92.75
405.988	79.75
406.212	85.75
406.436	95.75
406.66	93.75
406.883	96.75
407.107	81.75
407.331	99.75
407.555	82.75
407.778	90.75
408.002	85.75
408.226	89.75
408.449	87.75
408.673	81.75
408.896	91.75
409.12	87.75
409.344	82.75
409.567	89.75
409.791	84.75
410.014	81.75
410.238	76.75
410.461	79.75
410.685	83.75
410.908	87.75
411.132	88.75
411.355	87.75
411.578	97.75
411.802	99.75
412.025	83.75
412.249	91.75
412.472	87.75
412.695	90.75
412.919	80.75
413.142	98.75
413.365	87.75
413.589	76.75
413.812	76.75
414.035	101.75
414.258	85.75
414.482	87.75
414.705	82.75
414.928	82.75
415.151	88.75
415.374	88.75
415.597	83.75
415.821	87.75
416.044	84.75
416.267	82.75
416.49	88.75
416.713	88.75
416.936	93.75
417.159	90.75
417.382	80.75
417.605	95.75
417.828	80.75
418.051	81.75
418.274	96.75
418.497	81.75
418.72	81.75
418.943	87.75
419.166	96.75
419.389	87.75
419.611	91.75
419.834	88.75
420.057	77.75
420.28	83.75
420.503	87.75
420.726	93.75
420.948	87.75
421.171	91.75
421.394	85.75
421.617	85.75
421.839	68.75
422.062	89.75
422.285	101.75
422.507	83.75
422.73	87.75
422.953	100.75
423.175	84.75
423.398	85.75
423.621	95.75
423.843	93.75
424.066	77.75
424.288	102.75
424.511	81.75
424.733	92.75
424.956	90.75
425.178	81.75
425.401	90.75
425.623	90.75
425.846	91.75
426.068	76.75
426.291	105.75
426.513	93.75
426.735	70.75
426.958	76.75
427.18	84.75
427.402	86.75
427.625	86.75
427.847	88.75
428.069	86.75
428.292	90.75
428.514	80.75
428.736	76.75
428.958	85.75
429.181	85.75
429.403	83.75
429.625	87.75
429.847	80.75
430.069	81.75
430.292	94.75
430.514	77.75
430.736	76.75
430.958	82.75
431.18	79.75
431.402	93.75
431.624	92.75
431.846	83.75
432.068	88.75
432.29	92.75
432.512	86.75
432.734	84.75
432.956	84.75
433.178	89.75
433.4	94.75
433.622	79.75
433.844	81.75
434.066	75.75
434.287	85.75
434.509	96.75
434.731	80.75
434.953	86.75
435.175	92.75
435.397	87.75
435.618	85.75
435.84	81.75
436.062	83.75
436.284	105.75
436.505	81.75
436.727	82.75
436.949	84.75
437.17	87.75
437.392	81.75
437.614	89.75
437.835	70.75
438.057	92.75
438.278	74.75
438.5	92.75
438.721	87.75
438.943	81.75
439.165	98.75
439.386	83.75
439.608	76.75
439.829	79.75
440.05	89.75
440.272	85.75
440.493	88.75
440.715	86.75
440.936	92.75
441.158	92.75
441.379	84.75
441.6	89.75
441.822	79.75
442.043	64.75
442.264	75.75
442.486	85.75
442.707	91.75
442.928	84.75
443.149	92.75
443.371	82.75
443.592	80.75
443.813	96.75
444.034	82.75
444.255	84.75
444.476	74.75
444.698	80.75
444.919	81.75
445.14	216.75
445.361	140.75
445.582	81.75
445.803	89.75
446.024	85.75
446.245	81.75
446.466	95.75
446.687	91.75
446.908	86.75
447.129	82.75
447.35	88.75
447.571	91.75
447.792	82.75
448.013	81.75
448.234	82.75
448.455	77.75
448.675	97.75
448.896	88.75
449.117	88.75
449.338	80.75
449.559	89.75
449.779	90.75
450	71.75
450.221	95.75
450.442	88.75
450.662	74.75
450.883	69.75
451.104	86.75
451.324	88.75
451.545	85.75
451.766	102.75
451.986	84.75
452.207	82.75
452.428	96.75
452.648	97.75
452.869	95.75
453.089	83.75
453.31	87.75
453.53	79.75
453.751	74.75
453.971	102.75
454.192	80.75
454.412	90.75
454.633	86.75
454.853	91.75
455.073	86.75
455.294	90.75
455.514	74.75
455.734	87.75
455.955	98.75
456.175	88.75
456.395	88.75
456.616	89.75
456.836	85.75
457.056	84.75
457.276	93.75
457.497	80.75
457.717	83.75
457.937	83.75
458.157	73.75
458.377	84.75
458.598	92.75
458.818	84.75
459.038	82.75
459.258	93.75
459.478	99.75
459.698	92.75
459.918	94.75
460.138	89.75
460.358	100.75
460.578	78.75
460.798	74.75
461.018	83.75
461.238	86.75
461.458	91.75
461.678	68.75
461.898	86.75
462.118	90.75
462.338	83.75
462.558	77.75
462.777	84.75
462.997	82.75
463.217	79.75
463.437	107.75
463.657	88.75
463.876	93.75
464.096	87.75
464.316	77.75
464.536	86.75
464.755	83.75
464.975	91.75
465.195	90.75
465.414	78.75
465.634	89.75
465.854	75.75
466.073	89.75
466.293	89.75
466.512	96.75
466.732	91.75
466.951	104.75
467.171	82.75
467.391	106.75
467.61	86.75
467.829	100.75
468.049	80.75
468.268	90.75
468.488	92.75
468.707	96.75
468.927	82.75
469.146	90.75
469.365	75.75
469.585	85.75
469.804	74.75
470.023	92.75
470.243	98.75
470.462	91.75
470.681	90.75
470.901	85.75
471.12	81.75
471.339	92.75
471.558	85.75
471.777	82.75
471.997	90.75
472.216	85.75
472.435	91.75
472.654	96.75
472.873	97.75
473.092	90.75
473.311	99.75
473.53	90.75
473.749	88.75
473.968	93.75
474.187	81.75
474.406	101.75
474.625	82.75
474.844	91.75
475.063	93.75
475.282	95.75
475.501	80.75
475.72	105.75
475.939	95.75
476.158	73.75
476.377	92.75
476.596	105.75
476.814	93.75
477.033	83.75
477.252	90.75
477.471	87.75
477.69	73.75
477.908	97.75
478.127	84.75
478.346	78.75
478.564	88.75
478.783	90.75
479.002	104.75
479.22	76.75
479.439	108.75
479.658	86.75
479.876	91.75
480.095	91.75
480.313	98.75
480.532	91.75
480.751	93.75
480.969	89.75
481.188	91.75
481.406	87.75
481.624	85.75
481.843	66.75
482.061	88.75
482.28	97.75
482.498	90.75
482.717	95.75
482.935	96.75
483.153	69.75
483.372	97.75
483.59	94.75
483.808	89.75
484.027	84.75
484.245	83.75
484.463	103.75
484.681	87.75
484.9	83.75
485.118	88.75
485.336	98.75
485.554	95.75
485.772	90.75
485.99	101.75
486.209	87.75
486.427	75.75
486.645	87.75
486.863	92.75
487.081	90.75
487.299	83.75
487.517	100.75
487.735	97.75
487.953	77.75
488.171	107.75
488.389	93.75
488.607	105.75
488.825	99.75
489.043	87.75
489.261	78.75
489.479	102.75
489.696	108.75
489.914	91.75
490.132	97.75
490.35	100.75
490.568	74.75
490.786	93.75
491.003	90.75
491.221	82.75
491.439	99.75
491.657	80.75
491.874	95.75
492.092	104.75
492.31	95.75
492.527	98.75
492.745	87.75
492.963	90.75
493.18	99.75
493.398	95.75
493.615	108.75
493.833	98.75
494.05	113.75
494.268	88.75
494.485	76.75
494.703	81.75
494.92	89.75
495.138	97.75
495.355	90.75
495.573	94.75
495.79	98.75
496.008	118.75
496.225	87.75
496.442	94.75
496.66	103.75
496.877	98.75
497.094	111.75
497.312	87.75
497.529	93.75
497.746	96.75
497.963	91.75
498.181	99.75
498.398	72.75
498.615	111.75
498.832	103.75
499.049	99.75
499.267	103.75
499.484	101.75
499.701	103.75
499.918	99.75
500.135	90.75
500.352	114.75
500.569	114.75
500.786	117.75
501.003	96.75
501.22	95.75
501.437	115.75
501.654	104.75
501.871	97.75
502.088	101.75
502.305	100.75
502.522	92.75
502.739	84.75
502.956	96.75
503.172	106.75
503.389	104.75
503.606	101.75
503.823	107.75
504.04	109.75
504.256	105.75
504.473	81.75
504.69	89.75
504.907	102.75
505.123	103.75
505.34	101.75
505.557	84.75
505.773	101.75
505.99	95.75
506.207	90.75
506.423	103.75
506.64	91.75
506.856	90.75
507.073	90.75
507.289	99.75
507.506	97.75
507.722	96.75
507.939	87.75
508.155	89.75
508.372	99.75
508.588	99.75
508.805	91.75
509.021	96.75
509.238	88.75
509.454	103.75
509.67	93.75
509.887	103.75
510.103	97.75
510.319	89.75
510.536	89.75
510.752	91.75
510.968	75.75
511.184	71.75
511.401	89.75
511.617	85.75
511.833	76.75
512.049	83.75
512.265	86.75
512.481	95.75
512.698	78.75
512.914	81.75
513.13	98.75
513.346	80.75
513.562	87.75
513.778	95.75
513.994	91.75
514.21	99.75
514.426	89.75
514.642	104.75
514.858	89.75
515.074	90.75
515.29	80.75
515.506	79.75
515.721	88.75
515.937	81.75
516.153	100.75
516.369	89.75
516.585	98.75
516.801	85.75
517.016	106.75
517.232	95.75
517.448	101.75
517.664	107.75
517.879	92.75
518.095	102.75
518.311	99.75
518.527	98.75
518.742	85.75
518.958	99.75
519.173	93.75
519.389	80.75
519.605	88.75
519.82	85.75
520.036	93.75
520.251	84.75
520.467	104.75
520.682	89.75
520.898	101.75
521.113	93.75
521.329	90.75
521.544	87.75
521.76	87.75
521.975	84.75
522.19	89.75
522.406	88.75
522.621	99.75
522.836	100.75
523.052	96.75
523.267	84.75
523.482	91.75
523.698	88.75
523.913	87.75
524.128	101.75
524.343	97.75
524.559	89.75
524.774	94.75
524.989	93.75
525.204	76.75
525.419	82.75
525.634	84.75
525.849	115.75
526.064	91.75
526.28	74.75
526.495	89.75
526.71	88.75
526.925	83.75
527.14	90.75
527.355	83.75
527.57	76.75
527.785	98.75
527.999	77.75
528.214	83.75
528.429	88.75
528.644	97.75
528.859	86.75
529.074	79.75
529.289	100.75
529.503	90.75
529.718	88.75
529.933	102.75
530.148	101.75
530.363	97.75
530.577	93.75
530.792	83.75
531.007	73.75
531.221	89.75
531.436	63.75
531.651	95.75
531.865	113.75
532.08	99.75
532.295	90.75
532.509	89.75
532.724	85.75
532.938	85.75
533.153	89.75
533.367	97.75
533.582	101.75
533.796	93.75
534.011	86.75
534.225	83.75
534.44	91.75
534.654	93.75
534.868	75.75
535.083	89.75
535.297	76.75
535.511	93.75
535.726	93.75
535.94	97.75
536.154	92.75
536.369	96.75
536.583	98.75
536.797	92.75
537.011	90.75
537.225	90.75
537.44	84.75
537.654	86.75
537.868	94.75
538.082	80.75
538.296	77.75
538.51	91.75
538.724	80.75
538.938	84.75
539.153	93.75
539.367	89.75
539.581	88.75
539.795	83.75
540.009	87.75
540.222	82.75
540.436	94.75
540.65	89.75
540.864	84.75
541.078	85.75
541.292	96.75
541.506	96.75
541.72	96.75
541.934	90.75
542.147	86.75
542.361	97.75
542.575	96.75
542.789	101.75
543.002	96.75
543.216	96.75
543.43	92.75
543.644	96.75
543.857	90.75
544.071	90.75
544.285	91.75
544.498	99.75
544.712	99.75
544.925	90.75
545.139	96.75
545.352	97.75
545.566	92.75
545.779	83.75
545.993	82.75
546.206	91.75
546.42	90.75
546.633	88.75
546.847	85.75
547.06	77.75
547.274	97.75
547.487	88.75
547.7	77.75
547.914	86.75
548.127	75.75
548.34	91.75
548.554	97.75
548.767	96.75
548.98	73.75
549.193	93.75
549.407	86.75
549.62	95.75
549.833	79.75
550.046	92.75
550.259	75.75
550.473	90.75
550.686	90.75
550.899	94.75
551.112	100.75
551.325	92.75
551.538	87.75
551.751	96.75
551.964	86.75
552.177	85.75
552.39	92.75
552.603	100.75
552.816	82.75
553.029	85.75
553.242	93.75
553.455	87.75
553.667	93.75
553.88	91.75
554.093	95.75
554.306	93.75
554.519	95.75
554.732	82.75
554.944	89.75
555.157	92.75
555.37	87.75
555.583	79.75
555.795	89.75
556.008	90.75
556.221	90.75
556.433	80.75
556.646	91.75
556.859	79.75
557.071	69.75
557.284	81.75
557.496	77.75
557.709	92.75
557.921	78.75
558.134	79.75
558.346	83.75
558.559	80.75
558.771	92.75
558.984	85.75
559.196	92.75
559.409	78.75
559.621	98.75
559.833	92.75
560.046	87.75
560.258	78.75
560.47	89.75
560.683	86.75
560.895	93.75
561.107	93.75
561.32	69.75
561.532	80.75
561.744	94.75
561.956	96.75
562.168	94.75
562.381	81.75
562.593	73.75
562.805	85.75
563.017	87.75
563.229	83.75
563.441	90.75
563.653	77.75
563.865	87.75
564.077	88.75
564.289	99.75
564.501	83.75
564.713	103.75
564.925	89.75
565.137	89.75
565.349	102.75
565.561	87.75
565.773	93.75
565.985	90.75
566.197	90.75
566.408	100.75
566.62	95.75
566.832	90.75
567.044	80.75
567.255	92.75
567.467	98.75
567.679	87.75
567.891	107.75
568.102	99.75
568.314	91.75
568.526	75.75
568.737	83.75
568.949	88.75
569.161	88.75
569.372	95.75
569.584	89.75
569.795	92.75
570.007	97.75
570.218	100.75
570.43	92.75
570.641	87.75
570.853	82.75
571.064	80.75
571.276	86.75
571.487	96.75
571.698	77.75
571.91	85.75
572.121	81.75
572.333	82.75
572.544	97.75
572.755	90.75
572.966	98.75
573.178	92.75
573.389	86.75
573.6	85.75
573.811	76.75
574.023	97.75
574.234	70.75
574.445	83.75
574.656	86.75
574.867	68.75
575.078	89.75
575.289	97.75
575.501	99.75
575.712	95.75
575.923	77.75
576.134	79.75
576.345	91.75
576.556	93.75
576.767	98.75
576.978	88.75
577.188	90.75
577.399	89.75
577.61	89.75
577.821	97.75
578.032	77.75
578.243	87.75
578.454	87.75
578.665	85.75
578.875	76.75
579.086	75.75
579.297	90.75
579.508	92.75
579.718	80.75
579.929	90.75
580.14	93.75
580.35	88.75
580.561	82.75
580.772	100.75
580.982	81.75
581.193	85.75
581.403	81.75
581.614	80.75
581.825	85.75
582.035	76.75
582.246	90.75
582.456	100.75
582.667	71.75
582.877	75.75
583.087	88.75
583.298	78.75
583.508	83.75
583.719	77.75
583.929	87.75
584.139	83.75
584.35	85.75
584.56	75.75
584.77	93.75
584.981	83.75
585.191	90.75
585.401	81.75
585.611	75.75
585.821	86.75
586.032	105.75
586.242	87.75
586.452	75.75
586.662	80.75
586.872	91.75
587.082	89.75
587.292	95.75
587.502	81.75
587.713	91.75
587.923	90.75
588.133	90.75
588.343	92.75
588.553	70.75
588.762	92.75
588.972	97.75
589.182	98.75
589.392	77.75
589.602	87.75
589.812	73.75
590.022	91.75
590.232	97.75
590.441	84.75
590.651	81.75
590.861	78.75
591.071	80.75
591.281	77.75
591.49	80.75
591.7	93.75
591.91	76.75
592.119	90.75
592.329	91.75
592.539	84.75
592.748	85.75
592.958	97.75
593.167	89.75
593.377	95.75
593.587	84.75
593.796	72.75
594.006	83.75
594.215	91.75
594.424	82.75
594.634	80.75
594.843	95.75
595.053	74.75
595.262	82.75
595.472	85.75
595.681	90.75
595.89	78.75
596.1	79.75
596.309	85.75
596.518	81.75
596.727	86.75
596.937	76.75
597.146	75.75
597.355	88.75
597.564	82.75
597.774	94.75
597.983	101.75
598.192	77.75
598.401	73.75
598.61	72.75
598.819	87.75
599.028	87.75
599.237	82.75
599.446	93.75
599.655	86.75
599.864	89.75
600.073	92.75
600.282	83.75
600.491	83.75
600.7	80.75
600.909	81.75
601.118	78.75
601.327	74.75
601.536	76.75
601.745	87.75
601.953	79.75
602.162	98.75
602.371	84.75
602.58	73.75
602.789	81.75
602.997	81.75
603.206	78.75
603.415	87.75
603.623	88.75
603.832	88.75
604.041	83.75
604.249	86.75
604.458	75.75
604.666	82.75
604.875	80.75
605.084	77.75
605.292	78.75
605.501	105.75
605.709	93.75
605.918	89.75
606.126	92.75
606.334	84.75
606.543	84.75
606.751	94.75
606.96	92.75
607.168	94.75
607.376	74.75
607.585	74.75
607.793	85.75
608.001	83.75
608.21	72.75
608.418	83.75
608.626	87.75
608.834	92.75
609.043	90.75
609.251	87.75
609.459	79.75
609.667	76.75
609.875	87.75
610.083	75.75
610.291	97.75
610.499	81.75
610.707	88.75
610.916	80.75
611.124	86.75
611.332	87.75
611.54	84.75
611.748	81.75
611.955	81.75
612.163	81.75
612.371	84.75
612.579	83.75
612.787	74.75
612.995	78.75
613.203	93.75
613.411	86.75
613.618	93.75
613.826	101.75
614.034	100.75
614.242	95.75
614.449	92.75
614.657	91.75
614.865	89.75
615.072	90.75
615.28	65.75
615.488	79.75
615.695	88.75
615.903	71.75
616.111	84.75
616.318	90.75
616.526	84.75
616.733	101.75
616.941	89.75
617.148	86.75
617.356	76.75
617.563	92.75
617.771	77.75
617.978	91.75
618.185	86.75
618.393	86.75
618.6	99.75
618.807	86.75
619.015	82.75
619.222	75.75
619.429	83.75
619.637	75.75
619.844	85.75
620.051	87.75
620.258	87.75
620.466	81.75
620.673	83.75
620.88	93.75
621.087	73.75
621.294	89.75
621.501	89.75
621.708	79.75
621.915	91.75
622.122	84.75
622.329	80.75
622.536	69.75
622.743	79.75
622.95	72.75
623.157	71.75
623.364	84.75
623.571	79.75
623.778	95.75
623.985	81.75
624.192	85.75
624.399	87.75
624.606	97.75
624.812	81.75
625.019	89.75
625.226	76.75
625.433	92.75
625.639	79.75
625.846	72.75
626.053	92.75
626.259	84.75
626.466	78.75
626.673	96.75
626.879	87.75
627.086	85.75
627.293	87.75
627.499	99.75
627.706	78.75
627.912	81.75
628.119	103.75
628.325	90.75
628.532	86.75
628.738	88.75
628.945	80.75
629.151	94.75
629.357	78.75
629.564	97.75
629.77	83.75
629.976	89.75
630.183	80.75
630.389	77.75
630.595	72.75
630.802	79.75
631.008	91.75
631.214	78.75
631.42	76.75
631.627	97.75
631.833	79.75
632.039	82.75
632.245	74.75
632.451	92.75
632.657	84.75
632.863	83.75
633.069	90.75
633.275	83.75
633.481	85.75
633.688	83.75
633.893	74.75
634.099	89.75
634.305	75.75
634.511	75.75
634.717	97.75
634.923	81.75
635.129	67.75
635.335	84.75
635.541	79.75
635.747	86.75
635.952	92.75
636.158	84.75
636.364	87.75
636.57	97.75
636.775	80.75
636.981	87.75
637.187	82.75
637.392	83.75
637.598	63.75
637.804	96.75
638.009	90.75
638.215	85.75
638.421	68.75
638.626	73.75
638.832	86.75
639.037	74.75
639.243	83.75
639.448	85.75
639.654	83.75
639.859	98.75
640.065	92.75
640.27	95.75
640.475	96.75
640.681	83.75
640.886	99.75
641.091	84.75
641.297	69.75
641.502	80.75
641.707	93.75
641.913	83.75
642.118	71.75
642.323	85.75
642.528	95.75
642.733	84.75
642.939	76.75
643.144	69.75
643.349	89.75
643.554	75.75
643.759	84.75
643.964	77.75
644.169	95.75
644.374	90.75
644.579	84.75
644.784	84.75
644.989	84.75
645.194	90.75
645.399	86.75
645.604	75.75
645.809	69.75
646.014	98.75
646.219	92.75
646.423	85.75
646.628	80.75
646.833	88.75
647.038	73.75
647.243	81.75
647.447	76.75
647.652	70.75
647.857	82.75
648.062	77.75
648.266	74.75
648.471	87.75
648.676	76.75
648.88	68.75
649.085	70.75
649.289	68.75
649.494	80.75
649.698	87.75
649.903	83.75
650.107	72.75
650.312	87.75
650.516	91.75
650.721	95.75
650.925	82.75
651.13	85.75
651.334	82.75
651.539	79.75
651.743	85.75
651.947	86.75
652.152	93.75
652.356	95.75
652.56	90.75
652.764	88.75
652.969	80.75
653.173	69.75
653.377	81.75
653.581	77.75
653.785	67.75
653.99	80.75
654.194	76.75
654.398	81.75
654.602	88.75
654.806	90.75
655.01	79.75
655.214	76.75
655.418	81.75
655.622	87.75
655.826	85.75
656.03	87.75
656.234	86.75
656.438	84.75
656.642	73.75
656.846	87.75
657.049	100.75
657.253	69.75
657.457	81.75
657.661	73.75
657.865	82.75
658.068	83.75
658.272	72.75
658.476	73.75
658.68	94.75
658.883	92.75
659.087	84.75
659.291	92.75
659.494	76.75
659.698	84.75
659.901	85.75
660.105	83.75
660.309	73.75
660.512	76.75
660.716	75.75
660.919	76.75
661.123	84.75
661.326	83.75
661.53	75.75
661.733	72.75
661.936	83.75
662.14	87.75
662.343	85.75
662.546	96.75
662.75	83.75
662.953	75.75
663.156	79.75
663.36	71.75
663.563	90.75
663.766	80.75
663.969	83.75
664.173	80.75
664.376	84.75
664.579	87.75
664.782	66.75
664.985	83.75
665.188	74.75
665.391	87.75
665.594	90.75
665.797	87.75
666	92.75
666.203	77.75
666.406	88.75
666.609	67.75
666.812	82.75
667.015	82.75
667.218	67.75
667.421	80.75
667.624	76.75
667.827	71.75
668.03	80.75
668.232	76.75
668.435	86.75
668.638	77.75
668.841	84.75
669.043	87.75
669.246	74.75
669.449	79.75
669.651	81.75
669.854	71.75
670.057	86.75
670.259	77.75
670.462	90.75
670.665	99.75
670.867	87.75
671.07	87.75
671.272	94.75
671.475	82.75
671.677	87.75
671.88	90.75
672.082	90.75
672.284	93.75
672.487	87.75
672.689	82.75
672.892	84.75
