Data from Ni(NO3)2@0.5M.TitratingCurve.Agarose3%dH2O.NegLispCup.LampEnergy10.LIBS07252019_HRD10591_18-00-07-566.txt Node
Date: Thu Jul 25 18:00:07 EDT 2019
User: cochatt
Spectrometer: HR+D1059
Trigger mode: 1
Integration Time (sec): 1.000000E-1
Scans to average: 1
Electric dark correction enabled: true
Nonlinearity correction enabled: false
Boxcar width: 0
XAxis mode: Wavelengths
Number of Pixels in Spectrum: 2048
>>>>>Begin Spectral Data<<<<<
223.165	-10.62
223.4	-10.62
223.635	-10.62
223.869	-18.62
224.104	-12.62
224.338	-23.62
224.573	-24.62
224.808	-8.62
225.042	-12.62
225.277	-7.62
225.511	-1.62
225.746	-5.62
225.98	10.38
226.215	10.38
226.449	16.38
226.683	19.38
226.918	34.38
227.152	35.38
227.387	27.38
227.621	42.38
227.856	54.38
228.09	38.38
228.324	45.38
228.559	63.38
228.793	73.38
229.027	96.38
229.262	109.38
229.496	117.38
229.73	118.38
229.964	134.38
230.199	144.38
230.433	155.38
230.667	150.38
230.901	143.38
231.136	114.38
231.37	141.38
231.604	141.38
231.838	144.38
232.072	150.38
232.306	136.38
232.541	142.38
232.775	132.38
233.009	136.38
233.243	143.38
233.477	145.38
233.711	141.38
233.945	148.38
234.179	156.38
234.413	144.38
234.647	133.38
234.881	144.38
235.115	159.38
235.349	147.38
235.583	154.38
235.817	130.38
236.051	151.38
236.285	146.38
236.519	144.38
236.753	142.38
236.987	151.38
237.221	142.38
237.455	153.38
237.689	149.38
237.922	142.38
238.156	157.38
238.39	142.38
238.624	156.38
238.858	170.38
239.091	156.38
239.325	139.38
239.559	156.38
239.793	162.38
240.027	180.38
240.26	150.38
240.494	161.38
240.728	156.38
240.961	175.38
241.195	169.38
241.429	165.38
241.662	182.38
241.896	186.38
242.13	200.38
242.363	186.38
242.597	173.38
242.83	167.38
243.064	174.38
243.298	165.38
243.531	176.38
243.765	174.38
243.998	170.38
244.232	188.38
244.465	179.38
244.699	202.38
244.932	182.38
245.166	165.38
245.399	200.38
245.633	190.38
245.866	188.38
246.099	190.38
246.333	185.38
246.566	183.38
246.8	195.38
247.033	199.38
247.266	219.38
247.5	204.38
247.733	202.38
247.966	202.38
248.2	209.38
248.433	219.38
248.666	196.38
248.899	209.38
249.133	222.38
249.366	201.38
249.599	230.38
249.832	227.38
250.066	227.38
250.299	226.38
250.532	223.38
250.765	218.38
250.998	215.38
251.231	227.38
251.465	236.38
251.698	232.38
251.931	224.38
252.164	229.38
252.397	239.38
252.63	248.38
252.863	238.38
253.096	245.38
253.329	240.38
253.562	247.38
253.795	237.38
254.028	234.38
254.261	257.38
254.494	256.38
254.727	240.38
254.96	250.38
255.193	248.38
255.426	244.38
255.659	262.38
255.892	250.38
256.124	260.38
256.357	262.38
256.59	283.38
256.823	269.38
257.056	271.38
257.289	277.38
257.521	283.38
257.754	261.38
257.987	268.38
258.22	265.38
258.452	260.38
258.685	259.38
258.918	277.38
259.151	264.38
259.383	278.38
259.616	290.38
259.849	273.38
260.081	271.38
260.314	290.38
260.547	292.38
260.779	279.38
261.012	284.38
261.244	294.38
261.477	280.38
261.71	293.38
261.942	285.38
262.175	281.38
262.407	279.38
262.64	277.38
262.872	279.38
263.105	322.38
263.337	307.38
263.57	299.38
263.802	311.38
264.035	320.38
264.267	290.38
264.499	281.38
264.732	302.38
264.964	296.38
265.197	323.38
265.429	316.38
265.661	326.38
265.894	310.38
266.126	307.38
266.358	299.38
266.591	315.38
266.823	327.38
267.055	306.38
267.287	327.38
267.52	317.38
267.752	332.38
267.984	344.38
268.216	325.38
268.448	351.38
268.681	310.38
268.913	334.38
269.145	331.38
269.377	336.38
269.609	336.38
269.841	330.38
270.073	335.38
270.306	326.38
270.538	336.38
270.77	342.38
271.002	355.38
271.234	367.38
271.466	343.38
271.698	354.38
271.93	336.38
272.162	353.38
272.394	352.38
272.626	334.38
272.858	356.38
273.09	387.38
273.322	355.38
273.553	373.38
273.785	354.38
274.017	363.38
274.249	371.38
274.481	359.38
274.713	349.38
274.945	355.38
275.176	363.38
275.408	377.38
275.64	378.38
275.872	376.38
276.104	370.38
276.335	397.38
276.567	367.38
276.799	376.38
277.031	390.38
277.262	395.38
277.494	375.38
277.726	373.38
277.957	383.38
278.189	367.38
278.421	380.38
278.652	392.38
278.884	404.38
279.115	386.38
279.347	398.38
279.579	387.38
279.81	392.38
280.042	398.38
280.273	420.38
280.505	396.38
280.736	374.38
280.968	402.38
281.199	397.38
281.431	414.38
281.662	414.38
281.894	396.38
282.125	388.38
282.356	407.38
282.588	418.38
282.819	422.38
283.051	415.38
283.282	426.38
283.513	424.38
283.745	443.38
283.976	416.38
284.207	418.38
284.439	420.38
284.67	422.38
284.901	426.38
285.132	440.38
285.364	425.38
285.595	429.38
285.826	426.38
286.057	445.38
286.288	428.38
286.52	410.38
286.751	436.38
286.982	427.38
287.213	426.38
287.444	441.38
287.675	435.38
287.906	441.38
288.138	437.38
288.369	436.38
288.6	441.38
288.831	455.38
289.062	454.38
289.293	466.38
289.524	452.38
289.755	453.38
289.986	445.38
290.217	452.38
290.448	439.38
290.679	452.38
290.91	450.38
291.141	450.38
291.371	476.38
291.602	457.38
291.833	449.38
292.064	475.38
292.295	444.38
292.526	472.38
292.757	468.38
292.987	464.38
293.218	457.38
293.449	450.38
293.68	461.38
293.91	472.38
294.141	449.38
294.372	457.38
294.603	466.38
294.833	463.38
295.064	492.38
295.295	452.38
295.525	460.38
295.756	479.38
295.987	464.38
296.217	495.38
296.448	481.38
296.679	460.38
296.909	476.38
297.14	484.38
297.37	482.38
297.601	486.38
297.831	471.38
298.062	486.38
298.292	481.38
298.523	490.38
298.753	515.38
298.984	496.38
299.214	504.38
299.445	506.38
299.675	488.38
299.905	492.38
300.136	515.38
300.366	502.38
300.597	516.38
300.827	535.38
301.057	529.38
301.288	510.38
301.518	478.38
301.748	495.38
301.979	533.38
302.209	522.38
302.439	542.38
302.669	521.38
302.9	517.38
303.13	523.38
303.36	538.38
303.59	527.38
303.82	539.38
304.051	526.38
304.281	519.38
304.511	534.38
304.741	525.38
304.971	523.38
305.201	541.38
305.431	544.38
305.661	555.38
305.891	536.38
306.121	530.38
306.352	550.38
306.582	522.38
306.812	538.38
307.042	530.38
307.272	532.38
307.502	515.38
307.731	536.38
307.961	532.38
308.191	526.38
308.421	520.38
308.651	519.38
308.881	536.38
309.111	541.38
309.341	531.38
309.571	538.38
309.8	542.38
310.03	535.38
310.26	548.38
310.49	562.38
310.72	546.38
310.949	525.38
311.179	556.38
311.409	530.38
311.639	530.38
311.868	528.38
312.098	546.38
312.328	546.38
312.557	547.38
312.787	559.38
313.017	559.38
313.246	567.38
313.476	566.38
313.706	571.38
313.935	577.38
314.165	560.38
314.394	573.38
314.624	564.38
314.853	566.38
315.083	562.38
315.312	583.38
315.542	590.38
315.771	572.38
316.001	570.38
316.23	535.38
316.46	563.38
316.689	561.38
316.919	584.38
317.148	570.38
317.377	569.38
317.607	569.38
317.836	558.38
318.065	568.38
318.295	570.38
318.524	561.38
318.753	566.38
318.983	589.38
319.212	574.38
319.441	574.38
319.67	598.38
319.9	569.38
320.129	572.38
320.358	584.38
320.587	558.38
320.816	580.38
321.046	600.38
321.275	588.38
321.504	595.38
321.733	574.38
321.962	596.38
322.191	584.38
322.42	593.38
322.649	622.38
322.878	598.38
323.108	595.38
323.337	618.38
323.566	602.38
323.795	597.38
324.024	600.38
324.253	600.38
324.482	610.38
324.71	608.38
324.939	598.38
325.168	626.38
325.397	599.38
325.626	619.38
325.855	608.38
326.084	602.38
326.313	613.38
326.542	632.38
326.77	645.38
326.999	635.38
327.228	648.38
327.457	626.38
327.686	627.38
327.914	626.38
328.143	653.38
328.372	626.38
328.6	640.38
328.829	643.38
329.058	631.38
329.287	651.38
329.515	656.38
329.744	638.38
329.972	649.38
330.201	667.38
330.43	668.38
330.658	664.38
330.887	667.38
331.115	684.38
331.344	686.38
331.572	682.38
331.801	671.38
332.03	695.38
332.258	694.38
332.486	710.38
332.715	709.38
332.943	716.38
333.172	756.38
333.4	752.38
333.629	772.38
333.857	760.38
334.085	771.38
334.314	756.38
334.542	764.38
334.771	783.38
334.999	796.38
335.227	783.38
335.455	783.38
335.684	794.38
335.912	795.38
336.14	781.38
336.369	755.38
336.597	786.38
336.825	772.38
337.053	781.38
337.281	755.38
337.51	772.38
337.738	737.38
337.966	764.38
338.194	736.38
338.422	725.38
338.65	708.38
338.878	731.38
339.106	731.38
339.334	726.38
339.562	729.38
339.79	696.38
340.018	690.38
340.246	667.38
340.474	674.38
340.702	700.38
340.93	707.38
341.158	711.38
341.386	720.38
341.614	729.38
341.842	719.38
342.07	690.38
342.298	687.38
342.526	713.38
342.754	690.38
342.981	680.38
343.209	721.38
343.437	730.38
343.665	756.38
343.893	770.38
344.12	786.38
344.348	741.38
344.576	745.38
344.804	778.38
345.031	729.38
345.259	718.38
345.487	719.38
345.714	703.38
345.942	710.38
346.17	726.38
346.397	720.38
346.625	690.38
346.853	668.38
347.08	676.38
347.308	686.38
347.535	657.38
347.763	664.38
347.99	702.38
348.218	667.38
348.445	678.38
348.673	669.38
348.9	662.38
349.128	643.38
349.355	684.38
349.583	673.38
349.81	667.38
350.037	636.38
350.265	640.38
350.492	644.38
350.72	664.38
350.947	668.38
351.174	676.38
351.402	687.38
351.629	702.38
351.856	685.38
352.083	684.38
352.311	681.38
352.538	686.38
352.765	691.38
352.992	640.38
353.22	639.38
353.447	620.38
353.674	660.38
353.901	640.38
354.128	630.38
354.355	644.38
354.583	651.38
354.81	657.38
355.037	644.38
355.264	647.38
355.491	627.38
355.718	630.38
355.945	644.38
356.172	639.38
356.399	647.38
356.626	655.38
356.853	699.38
357.08	654.38
357.307	657.38
357.534	671.38
357.761	657.38
357.988	668.38
358.215	659.38
358.441	655.38
358.668	628.38
358.895	650.38
359.122	658.38
359.349	630.38
359.576	660.38
359.802	666.38
360.029	634.38
360.256	668.38
360.483	640.38
360.709	637.38
360.936	661.38
361.163	683.38
361.39	662.38
361.616	656.38
361.843	670.38
362.07	695.38
362.296	681.38
362.523	642.38
362.749	655.38
362.976	665.38
363.203	638.38
363.429	643.38
363.656	656.38
363.882	666.38
364.109	652.38
364.335	654.38
364.562	662.38
364.788	667.38
365.015	655.38
365.241	654.38
365.468	662.38
365.694	666.38
365.92	660.38
366.147	647.38
366.373	657.38
366.599	660.38
366.826	637.38
367.052	655.38
367.278	663.38
367.505	681.38
367.731	670.38
367.957	674.38
368.184	646.38
368.41	677.38
368.636	673.38
368.862	681.38
369.089	671.38
369.315	676.38
369.541	689.38
369.767	685.38
369.993	678.38
370.219	682.38
370.445	685.38
370.672	724.38
370.898	681.38
371.124	700.38
371.35	712.38
371.576	708.38
371.802	732.38
372.028	703.38
372.254	711.38
372.48	715.38
372.706	739.38
372.932	708.38
373.158	720.38
373.384	730.38
373.61	683.38
373.835	715.38
374.061	679.38
374.287	698.38
374.513	704.38
374.739	732.38
374.965	750.38
375.191	736.38
375.416	770.38
375.642	721.38
375.868	731.38
376.094	734.38
376.319	711.38
376.545	702.38
376.771	708.38
376.997	697.38
377.222	694.38
377.448	730.38
377.674	717.38
377.899	687.38
378.125	692.38
378.35	698.38
378.576	695.38
378.802	703.38
379.027	679.38
379.253	684.38
379.478	697.38
379.704	691.38
379.929	684.38
380.155	703.38
380.38	681.38
380.606	678.38
380.831	682.38
381.057	676.38
381.282	684.38
381.507	666.38
381.733	726.38
381.958	698.38
382.184	711.38
382.409	722.38
382.634	701.38
382.86	727.38
383.085	722.38
383.31	711.38
383.535	748.38
383.761	717.38
383.986	747.38
384.211	773.38
384.436	788.38
384.662	764.38
384.887	765.38
385.112	768.38
385.337	819.38
385.562	794.38
385.787	823.38
386.013	811.38
386.238	816.38
386.463	814.38
386.688	806.38
386.913	804.38
387.138	813.38
387.363	815.38
387.588	806.38
387.813	819.38
388.038	822.38
388.263	795.38
388.488	830.38
388.713	822.38
388.938	809.38
389.163	820.38
389.387	818.38
389.612	809.38
389.837	800.38
390.062	839.38
390.287	845.38
390.512	804.38
390.736	836.38
390.961	839.38
391.186	861.38
391.411	863.38
391.636	869.38
391.86	871.38
392.085	899.38
392.31	884.38
392.534	859.38
392.759	863.38
392.984	862.38
393.208	890.38
393.433	848.38
393.658	872.38
393.882	836.38
394.107	836.38
394.331	845.38
394.556	858.38
394.78	850.38
395.005	862.38
395.229	878.38
395.454	888.38
395.678	884.38
395.903	891.38
396.127	887.38
396.352	881.38
396.576	883.38
396.801	887.38
397.025	914.38
397.249	916.38
397.474	923.38
397.698	931.38
397.922	939.38
398.147	956.38
398.371	972.38
398.595	976.38
398.82	980.38
399.044	1020.38
399.268	1090.38
399.492	1178.38
399.717	1208.38
399.941	1237.38
400.165	1178.38
400.389	1141.38
400.613	1096.38
400.837	1049.38
401.062	1058.38
401.286	1026.38
401.51	1010.38
401.734	1006.38
401.958	1008.38
402.182	1011.38
402.406	1012.38
402.63	995.38
402.854	1000.38
403.078	1020.38
403.302	1028.38
403.526	1067.38
403.75	1029.38
403.974	1053.38
404.198	1005.38
404.422	1024.38
404.645	1057.38
404.869	1040.38
405.093	1055.38
405.317	1044.38
405.541	1053.38
405.765	1059.38
405.988	1053.38
406.212	1055.38
406.436	1069.38
406.66	1112.38
406.883	1098.38
407.107	1126.38
407.331	1140.38
407.555	1177.38
407.778	1157.38
408.002	1168.38
408.226	1165.38
408.449	1158.38
408.673	1125.38
408.896	1105.38
409.12	1074.38
409.344	1090.38
409.567	1070.38
409.791	1092.38
410.014	1096.38
410.238	1072.38
410.461	1063.38
410.685	1036.38
410.908	1058.38
411.132	1034.38
411.355	1018.38
411.578	1041.38
411.802	1019.38
412.025	1018.38
412.249	1052.38
412.472	1031.38
412.695	1024.38
412.919	1011.38
413.142	1020.38
413.365	1016.38
413.589	1010.38
413.812	984.38
414.035	993.38
414.258	975.38
414.482	1022.38
414.705	990.38
414.928	1003.38
415.151	1011.38
415.374	1005.38
415.597	982.38
415.821	970.38
416.044	950.38
416.267	988.38
416.49	951.38
416.713	972.38
416.936	983.38
417.159	960.38
417.382	969.38
417.605	954.38
417.828	954.38
418.051	951.38
418.274	968.38
418.497	960.38
418.72	1003.38
418.943	985.38
419.166	1050.38
419.389	1116.38
419.611	1049.38
419.834	1047.38
420.057	1026.38
420.28	990.38
420.503	946.38
420.726	946.38
420.948	968.38
421.171	985.38
421.394	948.38
421.617	946.38
421.839	957.38
422.062	972.38
422.285	943.38
422.507	974.38
422.73	982.38
422.953	944.38
423.175	976.38
423.398	965.38
423.621	967.38
423.843	960.38
424.066	980.38
424.288	971.38
424.511	931.38
424.733	946.38
424.956	965.38
425.178	967.38
425.401	968.38
425.623	961.38
425.846	958.38
426.068	964.38
426.291	926.38
426.513	949.38
426.735	937.38
426.958	923.38
427.18	915.38
427.402	918.38
427.625	930.38
427.847	938.38
428.069	913.38
428.292	886.38
428.514	894.38
428.736	863.38
428.958	913.38
429.181	885.38
429.403	877.38
429.625	887.38
429.847	882.38
430.069	896.38
430.292	909.38
430.514	902.38
430.736	917.38
430.958	895.38
431.18	890.38
431.402	900.38
431.624	902.38
431.846	903.38
432.068	889.38
432.29	918.38
432.512	876.38
432.734	885.38
432.956	932.38
433.178	931.38
433.4	933.38
433.622	926.38
433.844	952.38
434.066	947.38
434.287	943.38
434.509	930.38
434.731	941.38
434.953	964.38
435.175	959.38
435.397	970.38
435.618	933.38
435.84	917.38
436.062	914.38
436.284	900.38
436.505	918.38
436.727	909.38
436.949	912.38
437.17	906.38
437.392	922.38
437.614	909.38
437.835	858.38
438.057	884.38
438.278	870.38
438.5	885.38
438.721	884.38
438.943	890.38
439.165	890.38
439.386	894.38
439.608	919.38
439.829	887.38
440.05	878.38
440.272	918.38
440.493	914.38
440.715	910.38
440.936	922.38
441.158	902.38
441.379	956.38
441.6	967.38
441.822	963.38
442.043	953.38
442.264	951.38
442.486	923.38
442.707	978.38
442.928	941.38
443.149	983.38
443.371	958.38
443.592	996.38
443.813	1002.38
444.034	960.38
444.255	993.38
444.476	1010.38
444.698	1058.38
444.919	1046.38
445.14	1113.38
445.361	1047.38
445.582	1020.38
445.803	990.38
446.024	941.38
446.245	928.38
446.466	936.38
446.687	912.38
446.908	916.38
447.129	901.38
447.35	863.38
447.571	880.38
447.792	886.38
448.013	877.38
448.234	859.38
448.455	831.38
448.675	824.38
448.896	836.38
449.117	854.38
449.338	842.38
449.559	843.38
449.779	823.38
450	828.38
450.221	812.38
450.442	856.38
450.662	837.38
450.883	824.38
451.104	840.38
451.324	812.38
451.545	822.38
451.766	822.38
451.986	824.38
452.207	802.38
452.428	812.38
452.648	815.38
452.869	830.38
453.089	831.38
453.31	818.38
453.53	791.38
453.751	796.38
453.971	803.38
454.192	813.38
454.412	786.38
454.633	800.38
454.853	779.38
455.073	772.38
455.294	791.38
455.514	768.38
455.734	789.38
455.955	794.38
456.175	815.38
456.395	807.38
456.616	805.38
456.836	805.38
457.056	803.38
457.276	788.38
457.497	821.38
457.717	802.38
457.937	822.38
458.157	806.38
458.377	802.38
458.598	821.38
458.818	829.38
459.038	839.38
459.258	895.38
459.478	943.38
459.698	939.38
459.918	979.38
460.138	975.38
460.358	998.38
460.578	974.38
460.798	1006.38
461.018	1036.38
461.238	1016.38
461.458	988.38
461.678	962.38
461.898	1041.38
462.118	1034.38
462.338	1085.38
462.558	1081.38
462.777	1112.38
462.997	1147.38
463.217	1168.38
463.437	1176.38
463.657	1189.38
463.876	1120.38
464.096	1145.38
464.316	1127.38
464.536	1104.38
464.755	1076.38
464.975	1058.38
465.195	1019.38
465.414	1002.38
465.634	973.38
465.854	955.38
466.073	941.38
466.293	888.38
466.512	889.38
466.732	891.38
466.951	867.38
467.171	850.38
467.391	869.38
467.61	835.38
467.829	851.38
468.049	836.38
468.268	861.38
468.488	862.38
468.707	851.38
468.927	855.38
469.146	880.38
469.365	869.38
469.585	850.38
469.804	835.38
470.023	892.38
470.243	862.38
470.462	857.38
470.681	871.38
470.901	887.38
471.12	905.38
471.339	845.38
471.558	844.38
471.777	884.38
471.997	869.38
472.216	838.38
472.435	847.38
472.654	858.38
472.873	831.38
473.092	832.38
473.311	835.38
473.53	815.38
473.749	844.38
473.968	854.38
474.187	828.38
474.406	837.38
474.625	830.38
474.844	837.38
475.063	843.38
475.282	835.38
475.501	851.38
475.72	867.38
475.939	861.38
476.158	857.38
476.377	863.38
476.596	897.38
476.814	882.38
477.033	878.38
477.252	939.38
477.471	920.38
477.69	933.38
477.908	951.38
478.127	962.38
478.346	1006.38
478.564	1001.38
478.783	965.38
479.002	990.38
479.22	1040.38
479.439	1026.38
479.658	991.38
479.876	1003.38
480.095	985.38
480.313	1035.38
480.532	1031.38
480.751	1069.38
480.969	1030.38
481.188	1001.38
481.406	968.38
481.624	1001.38
481.843	983.38
482.061	985.38
482.28	1007.38
482.498	952.38
482.717	981.38
482.935	967.38
483.153	1004.38
483.372	1016.38
483.59	1042.38
483.808	1005.38
484.027	984.38
484.245	960.38
484.463	1000.38
484.681	1005.38
484.9	1008.38
485.118	977.38
485.336	990.38
485.554	988.38
485.772	1009.38
485.99	1017.38
486.209	1012.38
486.427	1027.38
486.645	1029.38
486.863	1015.38
487.081	1030.38
487.299	1014.38
487.517	997.38
487.735	1017.38
487.953	1018.38
488.171	1020.38
488.389	1045.38
488.607	1013.38
488.825	1004.38
489.043	1026.38
489.261	1008.38
489.479	990.38
489.696	1021.38
489.914	1042.38
490.132	1016.38
490.35	1046.38
490.568	996.38
490.786	1015.38
491.003	1034.38
491.221	1013.38
491.439	1040.38
491.657	1062.38
491.874	1050.38
492.092	1050.38
492.31	1047.38
492.527	1057.38
492.745	1051.38
492.963	1049.38
493.18	1058.38
493.398	1060.38
493.615	1064.38
493.833	1063.38
494.05	1053.38
494.268	1062.38
494.485	1063.38
494.703	1051.38
494.92	1053.38
495.138	1054.38
495.355	1069.38
495.573	1091.38
495.79	1117.38
496.008	1093.38
496.225	1141.38
496.442	1104.38
496.66	1133.38
496.877	1164.38
497.094	1154.38
497.312	1187.38
497.529	1210.38
497.746	1183.38
497.963	1258.38
498.181	1316.38
498.398	1354.38
498.615	1362.38
498.832	1454.38
499.049	1494.38
499.267	1577.38
499.484	1689.38
499.701	1755.38
499.918	1861.38
500.135	1989.38
500.352	2067.38
500.569	2166.38
500.786	2092.38
501.003	2030.38
501.22	1974.38
501.437	1885.38
501.654	1781.38
501.871	1664.38
502.088	1546.38
502.305	1518.38
502.522	1458.38
502.739	1427.38
502.956	1320.38
503.172	1315.38
503.389	1261.38
503.606	1223.38
503.823	1171.38
504.04	1221.38
504.256	1156.38
504.473	1186.38
504.69	1156.38
504.907	1148.38
505.123	1104.38
505.34	1077.38
505.557	1046.38
505.773	1020.38
505.99	987.38
506.207	981.38
506.423	964.38
506.64	995.38
506.856	974.38
507.073	929.38
507.289	940.38
507.506	955.38
507.722	935.38
507.939	900.38
508.155	917.38
508.372	884.38
508.588	903.38
508.805	895.38
509.021	902.38
509.238	902.38
509.454	880.38
509.67	879.38
509.887	861.38
510.103	885.38
510.319	886.38
510.536	851.38
510.752	834.38
510.968	852.38
511.184	853.38
511.401	860.38
511.617	822.38
511.833	820.38
512.049	871.38
512.265	870.38
512.481	886.38
512.698	867.38
512.914	861.38
513.13	886.38
513.346	830.38
513.562	855.38
513.778	859.38
513.994	855.38
514.21	870.38
514.426	866.38
514.642	894.38
514.858	854.38
515.074	891.38
515.29	904.38
515.506	893.38
515.721	882.38
515.937	887.38
516.153	893.38
516.369	923.38
516.585	942.38
516.801	954.38
517.016	973.38
517.232	978.38
517.448	992.38
517.664	1008.38
517.879	1014.38
518.095	996.38
518.311	1002.38
518.527	975.38
518.742	955.38
518.958	947.38
519.173	933.38
519.389	927.38
519.605	900.38
519.82	911.38
520.036	887.38
520.251	872.38
520.467	831.38
520.682	841.38
520.898	848.38
521.113	833.38
521.329	816.38
521.544	821.38
521.76	820.38
521.975	809.38
522.19	805.38
522.406	815.38
522.621	798.38
522.836	804.38
523.052	823.38
523.267	784.38
523.482	794.38
523.698	786.38
523.913	783.38
524.128	803.38
524.343	759.38
524.559	756.38
524.774	762.38
524.989	782.38
525.204	802.38
525.419	772.38
525.634	767.38
525.849	748.38
526.064	772.38
526.28	740.38
526.495	748.38
526.71	761.38
526.925	750.38
527.14	741.38
527.355	759.38
527.57	750.38
527.785	734.38
527.999	741.38
528.214	748.38
528.429	779.38
528.644	775.38
528.859	736.38
529.074	759.38
529.289	761.38
529.503	757.38
529.718	731.38
529.933	726.38
530.148	749.38
530.363	765.38
530.577	723.38
530.792	749.38
531.007	749.38
531.221	731.38
531.436	728.38
531.651	715.38
531.865	742.38
532.08	730.38
532.295	711.38
532.509	717.38
532.724	715.38
532.938	727.38
533.153	730.38
533.367	723.38
533.582	732.38
533.796	731.38
534.011	755.38
534.225	732.38
534.44	719.38
534.654	732.38
534.868	728.38
535.083	720.38
535.297	716.38
535.511	702.38
535.726	698.38
535.94	696.38
536.154	714.38
536.369	700.38
536.583	697.38
536.797	699.38
537.011	703.38
537.225	708.38
537.44	702.38
537.654	683.38
537.868	678.38
538.082	706.38
538.296	671.38
538.51	690.38
538.724	695.38
538.938	668.38
539.153	658.38
539.367	695.38
539.581	676.38
539.795	670.38
540.009	675.38
540.222	651.38
540.436	683.38
540.65	676.38
540.864	673.38
541.078	693.38
541.292	655.38
541.506	674.38
541.72	662.38
541.934	692.38
542.147	685.38
542.361	660.38
542.575	670.38
542.789	662.38
543.002	666.38
543.216	642.38
543.43	665.38
543.644	662.38
543.857	665.38
544.071	660.38
544.285	662.38
544.498	700.38
544.712	690.38
544.925	660.38
545.139	685.38
545.352	688.38
545.566	682.38
545.779	675.38
545.993	680.38
546.206	678.38
546.42	695.38
546.633	694.38
546.847	667.38
547.06	683.38
547.274	674.38
547.487	670.38
547.7	678.38
547.914	666.38
548.127	679.38
548.34	684.38
548.554	656.38
548.767	657.38
548.98	668.38
549.193	667.38
549.407	663.38
549.62	679.38
549.833	686.38
550.046	676.38
550.259	664.38
550.473	655.38
550.686	671.38
550.899	692.38
551.112	666.38
551.325	654.38
551.538	672.38
551.751	682.38
551.964	661.38
552.177	679.38
552.39	668.38
552.603	679.38
552.816	701.38
553.029	693.38
553.242	686.38
553.455	720.38
553.667	688.38
553.88	659.38
554.093	659.38
554.306	674.38
554.519	671.38
554.732	672.38
554.944	642.38
555.157	648.38
555.37	644.38
555.583	622.38
555.795	628.38
556.008	626.38
556.221	623.38
556.433	613.38
556.646	611.38
556.859	612.38
557.071	608.38
557.284	613.38
557.496	580.38
557.709	590.38
557.921	598.38
558.134	592.38
558.346	575.38
558.559	584.38
558.771	610.38
558.984	599.38
559.196	585.38
559.409	588.38
559.621	568.38
559.833	555.38
560.046	558.38
560.258	568.38
560.47	579.38
560.683	572.38
560.895	566.38
561.107	574.38
561.32	568.38
561.532	573.38
561.744	566.38
561.956	548.38
562.168	577.38
562.381	568.38
562.593	569.38
562.805	591.38
563.017	572.38
563.229	579.38
563.441	586.38
563.653	581.38
563.865	609.38
564.077	577.38
564.289	562.38
564.501	596.38
564.713	602.38
564.925	621.38
565.137	612.38
565.349	638.38
565.561	638.38
565.773	642.38
565.985	669.38
566.197	673.38
566.408	723.38
566.62	732.38
566.832	747.38
567.044	780.38
567.255	776.38
567.467	814.38
567.679	790.38
567.891	840.38
568.102	798.38
568.314	798.38
568.526	748.38
568.737	714.38
568.949	671.38
569.161	645.38
569.372	624.38
569.584	640.38
569.795	576.38
570.007	592.38
570.218	578.38
570.43	567.38
570.641	566.38
570.853	560.38
571.064	553.38
571.276	575.38
571.487	551.38
571.698	529.38
571.91	530.38
572.121	502.38
572.333	488.38
572.544	506.38
572.755	496.38
572.966	487.38
573.178	494.38
573.389	470.38
573.6	482.38
573.811	454.38
574.023	478.38
574.234	456.38
574.445	448.38
574.656	476.38
574.867	447.38
575.078	459.38
575.289	460.38
575.501	477.38
575.712	443.38
575.923	464.38
576.134	438.38
576.345	415.38
576.556	430.38
576.767	448.38
576.978	440.38
577.188	436.38
577.399	423.38
577.61	443.38
577.821	419.38
578.032	434.38
578.243	402.38
578.454	427.38
578.665	430.38
578.875	420.38
579.086	412.38
579.297	418.38
579.508	412.38
579.718	423.38
579.929	426.38
580.14	397.38
580.35	407.38
580.561	404.38
580.772	418.38
580.982	420.38
581.193	403.38
581.403	414.38
581.614	405.38
581.825	414.38
582.035	402.38
582.246	380.38
582.456	382.38
582.667	386.38
582.877	413.38
583.087	397.38
583.298	399.38
583.508	372.38
583.719	391.38
583.929	377.38
584.139	387.38
584.35	392.38
584.56	408.38
584.77	388.38
584.981	379.38
585.191	387.38
585.401	370.38
585.611	394.38
585.821	385.38
586.032	382.38
586.242	380.38
586.452	367.38
586.662	382.38
586.872	378.38
587.082	384.38
587.292	392.38
587.502	379.38
587.713	366.38
587.923	390.38
588.133	384.38
588.343	374.38
588.553	368.38
588.762	378.38
588.972	406.38
589.182	416.38
589.392	414.38
589.602	391.38
589.812	390.38
590.022	372.38
590.232	368.38
590.441	376.38
590.651	398.38
590.861	406.38
591.071	370.38
591.281	387.38
591.49	374.38
591.7	394.38
591.91	398.38
592.119	404.38
592.329	396.38
592.539	415.38
592.748	414.38
592.958	396.38
593.167	419.38
593.377	436.38
593.587	425.38
593.796	423.38
594.006	426.38
594.215	414.38
594.424	420.38
594.634	398.38
594.843	398.38
595.053	407.38
595.262	368.38
595.472	386.38
595.681	370.38
595.89	374.38
596.1	373.38
596.309	371.38
596.518	374.38
596.727	346.38
596.937	352.38
597.146	337.38
597.355	350.38
597.564	343.38
597.774	340.38
597.983	348.38
598.192	336.38
598.401	346.38
598.61	333.38
598.819	335.38
599.028	314.38
599.237	330.38
599.446	329.38
599.655	323.38
599.864	324.38
600.073	316.38
600.282	311.38
600.491	312.38
600.7	336.38
600.909	313.38
601.118	313.38
601.327	308.38
601.536	299.38
601.745	331.38
601.953	334.38
602.162	308.38
602.371	293.38
602.58	316.38
602.789	307.38
602.997	300.38
603.206	308.38
603.415	291.38
603.623	283.38
603.832	309.38
604.041	323.38
604.249	294.38
604.458	306.38
604.666	314.38
604.875	296.38
605.084	294.38
605.292	291.38
605.501	316.38
605.709	316.38
605.918	311.38
606.126	278.38
606.334	283.38
606.543	288.38
606.751	291.38
606.96	307.38
607.168	294.38
607.376	278.38
607.585	304.38
607.793	291.38
608.001	297.38
608.21	288.38
608.418	290.38
608.626	286.38
608.834	286.38
609.043	301.38
609.251	279.38
609.459	271.38
609.667	293.38
609.875	295.38
610.083	283.38
610.291	283.38
610.499	298.38
610.707	272.38
610.916	288.38
611.124	280.38
611.332	271.38
611.54	280.38
611.748	277.38
611.955	263.38
612.163	249.38
612.371	278.38
612.579	290.38
612.787	282.38
612.995	283.38
613.203	279.38
613.411	271.38
613.618	277.38
613.826	260.38
614.034	264.38
614.242	284.38
614.449	296.38
614.657	273.38
614.865	288.38
615.072	264.38
615.28	270.38
615.488	276.38
615.695	277.38
615.903	280.38
616.111	277.38
616.318	286.38
616.526	280.38
616.733	261.38
616.941	258.38
617.148	270.38
617.356	275.38
617.563	272.38
617.771	277.38
617.978	276.38
618.185	263.38
618.393	254.38
618.6	286.38
618.807	277.38
619.015	264.38
619.222	267.38
619.429	259.38
619.637	268.38
619.844	256.38
620.051	253.38
620.258	256.38
620.466	272.38
620.673	263.38
620.88	259.38
621.087	238.38
621.294	247.38
621.501	275.38
621.708	253.38
621.915	258.38
622.122	244.38
622.329	250.38
622.536	236.38
622.743	250.38
622.95	237.38
623.157	258.38
623.364	264.38
623.571	253.38
623.778	249.38
623.985	248.38
624.192	263.38
624.399	230.38
624.606	239.38
624.812	259.38
625.019	254.38
625.226	257.38
625.433	225.38
625.639	230.38
625.846	246.38
626.053	258.38
626.259	233.38
626.466	237.38
626.673	245.38
626.879	239.38
627.086	246.38
627.293	240.38
627.499	215.38
627.706	243.38
627.912	238.38
628.119	231.38
628.325	231.38
628.532	234.38
628.738	230.38
628.945	232.38
629.151	242.38
629.357	239.38
629.564	217.38
629.77	230.38
629.976	218.38
630.183	222.38
630.389	226.38
630.595	223.38
630.802	225.38
631.008	231.38
631.214	234.38
631.42	234.38
631.627	227.38
631.833	216.38
632.039	237.38
632.245	207.38
632.451	217.38
632.657	215.38
632.863	203.38
633.069	212.38
633.275	214.38
633.481	207.38
633.688	215.38
633.893	230.38
634.099	224.38
634.305	229.38
634.511	220.38
634.717	205.38
634.923	219.38
635.129	212.38
635.335	208.38
635.541	191.38
635.747	233.38
635.952	226.38
636.158	209.38
636.364	223.38
636.57	214.38
636.775	207.38
636.981	231.38
637.187	211.38
637.392	203.38
637.598	206.38
637.804	206.38
638.009	201.38
638.215	223.38
638.421	203.38
638.626	210.38
638.832	214.38
639.037	194.38
639.243	203.38
639.448	207.38
639.654	195.38
639.859	183.38
640.065	188.38
640.27	203.38
640.475	198.38
640.681	198.38
640.886	195.38
641.091	190.38
641.297	212.38
641.502	208.38
641.707	193.38
641.913	198.38
642.118	196.38
642.323	181.38
642.528	204.38
642.733	201.38
642.939	184.38
643.144	206.38
643.349	206.38
643.554	204.38
643.759	197.38
643.964	205.38
644.169	204.38
644.374	199.38
644.579	220.38
644.784	203.38
644.989	189.38
645.194	199.38
645.399	188.38
645.604	202.38
645.809	195.38
646.014	183.38
646.219	196.38
646.423	199.38
646.628	201.38
646.833	217.38
647.038	209.38
647.243	188.38
647.447	215.38
647.652	202.38
647.857	197.38
648.062	225.38
648.266	210.38
648.471	195.38
648.676	206.38
648.88	186.38
649.085	218.38
649.289	200.38
649.494	207.38
649.698	203.38
649.903	211.38
650.107	207.38
650.312	187.38
650.516	191.38
650.721	203.38
650.925	193.38
651.13	196.38
651.334	181.38
651.539	187.38
651.743	195.38
651.947	197.38
652.152	191.38
652.356	180.38
652.56	169.38
652.764	191.38
652.969	190.38
653.173	173.38
653.377	178.38
653.581	169.38
653.785	189.38
653.99	181.38
654.194	182.38
654.398	175.38
654.602	179.38
654.806	165.38
655.01	173.38
655.214	182.38
655.418	171.38
655.622	190.38
655.826	175.38
656.03	184.38
656.234	187.38
656.438	190.38
656.642	182.38
656.846	173.38
657.049	166.38
657.253	172.38
657.457	170.38
657.661	158.38
657.865	150.38
658.068	142.38
658.272	138.38
658.476	139.38
658.68	133.38
658.883	119.38
659.087	127.38
659.291	127.38
659.494	119.38
659.698	112.38
659.901	132.38
660.105	115.38
660.309	108.38
660.512	120.38
660.716	117.38
660.919	109.38
661.123	99.38
661.326	107.38
661.53	109.38
661.733	101.38
661.936	98.38
662.14	93.38
662.343	98.38
662.546	95.38
662.75	91.38
662.953	81.38
663.156	83.38
663.36	92.38
663.563	101.38
663.766	95.38
663.969	83.38
664.173	94.38
664.376	90.38
664.579	98.38
664.782	89.38
664.985	77.38
665.188	89.38
665.391	82.38
665.594	89.38
665.797	76.38
666	92.38
666.203	83.38
666.406	73.38
666.609	96.38
666.812	62.38
667.015	75.38
667.218	89.38
667.421	88.38
667.624	98.38
667.827	89.38
668.03	83.38
668.232	74.38
668.435	88.38
668.638	79.38
668.841	95.38
669.043	86.38
669.246	87.38
669.449	77.38
669.651	85.38
669.854	97.38
670.057	105.38
670.259	70.38
670.462	82.38
670.665	83.38
670.867	91.38
671.07	85.38
671.272	70.38
671.475	86.38
671.677	79.38
671.88	82.38
672.082	86.38
672.284	83.38
672.487	77.38
672.689	85.38
672.892	93.38
