Data from Ni(NO3)2@0.0625M.TitratingCurve.Agarose3%dH2O.NegLispCup.LampEnergy10.LIBS07252019_HRD10591_18-15-28-569.txt Node
Date: Thu Jul 25 18:15:28 EDT 2019
User: cochatt
Spectrometer: HR+D1059
Trigger mode: 1
Integration Time (sec): 1.000000E-1
Scans to average: 1
Electric dark correction enabled: true
Nonlinearity correction enabled: false
Boxcar width: 0
XAxis mode: Wavelengths
Number of Pixels in Spectrum: 2048
>>>>>Begin Spectral Data<<<<<
223.165	-11.25
223.4	-11.25
223.635	-11.25
223.869	-19.25
224.104	-13.25
224.338	-7.25
224.573	-13.25
224.808	-17.25
225.042	-6.25
225.277	-10.25
225.511	-7.25
225.746	8.75
225.98	2.75
226.215	9.75
226.449	-1.25
226.683	24.75
226.918	26.75
227.152	33.75
227.387	42.75
227.621	33.75
227.856	42.75
228.09	39.75
228.324	43.75
228.559	55.75
228.793	72.75
229.027	95.75
229.262	108.75
229.496	87.75
229.73	105.75
229.964	119.75
230.199	109.75
230.433	109.75
230.667	120.75
230.901	136.75
231.136	117.75
231.37	120.75
231.604	138.75
231.838	130.75
232.072	125.75
232.306	119.75
232.541	120.75
232.775	112.75
233.009	138.75
233.243	139.75
233.477	134.75
233.711	117.75
233.945	141.75
234.179	128.75
234.413	126.75
234.647	128.75
234.881	129.75
235.115	136.75
235.349	114.75
235.583	129.75
235.817	135.75
236.051	127.75
236.285	125.75
236.519	120.75
236.753	134.75
236.987	155.75
237.221	148.75
237.455	131.75
237.689	150.75
237.922	147.75
238.156	128.75
238.39	147.75
238.624	134.75
238.858	132.75
239.091	150.75
239.325	145.75
239.559	149.75
239.793	148.75
240.027	166.75
240.26	137.75
240.494	161.75
240.728	143.75
240.961	131.75
241.195	165.75
241.429	152.75
241.662	148.75
241.896	158.75
242.13	158.75
242.363	141.75
242.597	142.75
242.83	161.75
243.064	157.75
243.298	184.75
243.531	153.75
243.765	158.75
243.998	160.75
244.232	167.75
244.465	165.75
244.699	161.75
244.932	168.75
245.166	182.75
245.399	173.75
245.633	182.75
245.866	194.75
246.099	180.75
246.333	171.75
246.566	163.75
246.8	165.75
247.033	179.75
247.266	196.75
247.5	180.75
247.733	178.75
247.966	181.75
248.2	190.75
248.433	193.75
248.666	195.75
248.899	194.75
249.133	191.75
249.366	185.75
249.599	207.75
249.832	178.75
250.066	190.75
250.299	189.75
250.532	201.75
250.765	191.75
250.998	202.75
251.231	200.75
251.465	221.75
251.698	212.75
251.931	203.75
252.164	201.75
252.397	196.75
252.63	207.75
252.863	209.75
253.096	222.75
253.329	216.75
253.562	209.75
253.795	205.75
254.028	205.75
254.261	222.75
254.494	209.75
254.727	224.75
254.96	220.75
255.193	192.75
255.426	216.75
255.659	198.75
255.892	225.75
256.124	206.75
256.357	229.75
256.59	218.75
256.823	234.75
257.056	231.75
257.289	253.75
257.521	221.75
257.754	229.75
257.987	242.75
258.22	244.75
258.452	220.75
258.685	223.75
258.918	225.75
259.151	219.75
259.383	230.75
259.616	245.75
259.849	248.75
260.081	252.75
260.314	228.75
260.547	228.75
260.779	230.75
261.012	243.75
261.244	256.75
261.477	256.75
261.71	249.75
261.942	238.75
262.175	238.75
262.407	240.75
262.64	242.75
262.872	241.75
263.105	257.75
263.337	258.75
263.57	278.75
263.802	268.75
264.035	267.75
264.267	259.75
264.499	267.75
264.732	257.75
264.964	265.75
265.197	264.75
265.429	273.75
265.661	272.75
265.894	279.75
266.126	278.75
266.358	265.75
266.591	277.75
266.823	284.75
267.055	276.75
267.287	270.75
267.52	272.75
267.752	268.75
267.984	278.75
268.216	286.75
268.448	290.75
268.681	277.75
268.913	292.75
269.145	280.75
269.377	291.75
269.609	277.75
269.841	276.75
270.073	284.75
270.306	289.75
270.538	267.75
270.77	277.75
271.002	259.75
271.234	286.75
271.466	296.75
271.698	278.75
271.93	310.75
272.162	274.75
272.394	290.75
272.626	296.75
272.858	324.75
273.09	273.75
273.322	297.75
273.553	303.75
273.785	297.75
274.017	316.75
274.249	309.75
274.481	291.75
274.713	316.75
274.945	309.75
275.176	307.75
275.408	292.75
275.64	290.75
275.872	316.75
276.104	306.75
276.335	314.75
276.567	315.75
276.799	309.75
277.031	320.75
277.262	320.75
277.494	313.75
277.726	307.75
277.957	324.75
278.189	313.75
278.421	321.75
278.652	333.75
278.884	344.75
279.115	332.75
279.347	331.75
279.579	332.75
279.81	323.75
280.042	323.75
280.273	336.75
280.505	329.75
280.736	348.75
280.968	338.75
281.199	337.75
281.431	353.75
281.662	342.75
281.894	355.75
282.125	352.75
282.356	347.75
282.588	354.75
282.819	346.75
283.051	349.75
283.282	349.75
283.513	366.75
283.745	371.75
283.976	352.75
284.207	354.75
284.439	349.75
284.67	361.75
284.901	345.75
285.132	359.75
285.364	357.75
285.595	378.75
285.826	347.75
286.057	380.75
286.288	371.75
286.52	377.75
286.751	357.75
286.982	376.75
287.213	363.75
287.444	372.75
287.675	378.75
287.906	398.75
288.138	400.75
288.369	378.75
288.6	386.75
288.831	396.75
289.062	398.75
289.293	355.75
289.524	371.75
289.755	377.75
289.986	373.75
290.217	394.75
290.448	395.75
290.679	406.75
290.91	393.75
291.141	370.75
291.371	398.75
291.602	392.75
291.833	408.75
292.064	389.75
292.295	413.75
292.526	389.75
292.757	402.75
292.987	417.75
293.218	392.75
293.449	382.75
293.68	393.75
293.91	405.75
294.141	402.75
294.372	398.75
294.603	403.75
294.833	402.75
295.064	394.75
295.295	412.75
295.525	396.75
295.756	420.75
295.987	428.75
296.217	413.75
296.448	426.75
296.679	428.75
296.909	422.75
297.14	393.75
297.37	416.75
297.601	420.75
297.831	425.75
298.062	418.75
298.292	425.75
298.523	454.75
298.753	438.75
298.984	441.75
299.214	410.75
299.445	429.75
299.675	410.75
299.905	417.75
300.136	436.75
300.366	430.75
300.597	440.75
300.827	449.75
301.057	456.75
301.288	445.75
301.518	443.75
301.748	460.75
301.979	450.75
302.209	426.75
302.439	443.75
302.669	449.75
302.9	454.75
303.13	432.75
303.36	449.75
303.59	429.75
303.82	448.75
304.051	442.75
304.281	463.75
304.511	446.75
304.741	449.75
304.971	440.75
305.201	456.75
305.431	429.75
305.661	438.75
305.891	448.75
306.121	457.75
306.352	452.75
306.582	446.75
306.812	436.75
307.042	443.75
307.272	419.75
307.502	418.75
307.731	406.75
307.961	435.75
308.191	441.75
308.421	427.75
308.651	443.75
308.881	422.75
309.111	426.75
309.341	422.75
309.571	409.75
309.8	429.75
310.03	430.75
310.26	429.75
310.49	445.75
310.72	445.75
310.949	430.75
311.179	424.75
311.409	432.75
311.639	441.75
311.868	437.75
312.098	445.75
312.328	453.75
312.557	459.75
312.787	465.75
313.017	448.75
313.246	443.75
313.476	456.75
313.706	474.75
313.935	483.75
314.165	453.75
314.394	483.75
314.624	452.75
314.853	466.75
315.083	471.75
315.312	470.75
315.542	476.75
315.771	453.75
316.001	458.75
316.23	453.75
316.46	438.75
316.689	458.75
316.919	459.75
317.148	457.75
317.377	442.75
317.607	433.75
317.836	450.75
318.065	460.75
318.295	480.75
318.524	480.75
318.753	455.75
318.983	462.75
319.212	460.75
319.441	457.75
319.67	441.75
319.9	475.75
320.129	461.75
320.358	452.75
320.587	443.75
320.816	454.75
321.046	446.75
321.275	457.75
321.504	482.75
321.733	470.75
321.962	446.75
322.191	463.75
322.42	464.75
322.649	464.75
322.878	446.75
323.108	461.75
323.337	465.75
323.566	472.75
323.795	464.75
324.024	476.75
324.253	462.75
324.482	478.75
324.71	491.75
324.939	487.75
325.168	468.75
325.397	489.75
325.626	472.75
325.855	476.75
326.084	520.75
326.313	511.75
326.542	503.75
326.77	522.75
326.999	495.75
327.228	485.75
327.457	491.75
327.686	493.75
327.914	491.75
328.143	494.75
328.372	489.75
328.6	514.75
328.829	491.75
329.058	491.75
329.287	507.75
329.515	516.75
329.744	491.75
329.972	502.75
330.201	513.75
330.43	517.75
330.658	512.75
330.887	526.75
331.115	539.75
331.344	523.75
331.572	536.75
331.801	540.75
332.03	533.75
332.258	559.75
332.486	594.75
332.715	585.75
332.943	611.75
333.172	656.75
333.4	672.75
333.629	686.75
333.857	680.75
334.085	656.75
334.314	661.75
334.542	646.75
334.771	637.75
334.999	604.75
335.227	598.75
335.455	606.75
335.684	610.75
335.912	625.75
336.14	626.75
336.369	581.75
336.597	602.75
336.825	612.75
337.053	641.75
337.281	590.75
337.51	577.75
337.738	579.75
337.966	560.75
338.194	558.75
338.422	568.75
338.65	551.75
338.878	557.75
339.106	564.75
339.334	532.75
339.562	547.75
339.79	515.75
340.018	492.75
340.246	530.75
340.474	516.75
340.702	527.75
340.93	528.75
341.158	534.75
341.386	545.75
341.614	569.75
341.842	530.75
342.07	522.75
342.298	545.75
342.526	521.75
342.754	528.75
342.981	531.75
343.209	542.75
343.437	577.75
343.665	613.75
343.893	629.75
344.12	649.75
344.348	630.75
344.576	582.75
344.804	588.75
345.031	558.75
345.259	556.75
345.487	553.75
345.714	550.75
345.942	542.75
346.17	550.75
346.397	544.75
346.625	510.75
346.853	517.75
347.08	538.75
347.308	512.75
347.535	523.75
347.763	539.75
347.99	539.75
348.218	512.75
348.445	542.75
348.673	514.75
348.9	531.75
349.128	536.75
349.355	510.75
349.583	545.75
349.81	509.75
350.037	505.75
350.265	519.75
350.492	511.75
350.72	487.75
350.947	514.75
351.174	521.75
351.402	510.75
351.629	518.75
351.856	497.75
352.083	499.75
352.311	510.75
352.538	500.75
352.765	533.75
352.992	492.75
353.22	503.75
353.447	503.75
353.674	478.75
353.901	474.75
354.128	481.75
354.355	470.75
354.583	504.75
354.81	490.75
355.037	509.75
355.264	510.75
355.491	498.75
355.718	514.75
355.945	517.75
356.172	488.75
356.399	504.75
356.626	508.75
356.853	498.75
357.08	522.75
357.307	515.75
357.534	496.75
357.761	480.75
357.988	491.75
358.215	488.75
358.441	486.75
358.668	492.75
358.895	485.75
359.122	485.75
359.349	504.75
359.576	504.75
359.802	489.75
360.029	492.75
360.256	485.75
360.483	507.75
360.709	498.75
360.936	522.75
361.163	511.75
361.39	502.75
361.616	493.75
361.843	498.75
362.07	530.75
362.296	504.75
362.523	508.75
362.749	491.75
362.976	500.75
363.203	498.75
363.429	505.75
363.656	485.75
363.882	496.75
364.109	495.75
364.335	485.75
364.562	500.75
364.788	470.75
365.015	488.75
365.241	506.75
365.468	501.75
365.694	476.75
365.92	490.75
366.147	505.75
366.373	498.75
366.599	507.75
366.826	498.75
367.052	463.75
367.278	507.75
367.505	523.75
367.731	504.75
367.957	492.75
368.184	508.75
368.41	497.75
368.636	516.75
368.862	496.75
369.089	524.75
369.315	526.75
369.541	518.75
369.767	529.75
369.993	518.75
370.219	514.75
370.445	532.75
370.672	518.75
370.898	536.75
371.124	532.75
371.35	539.75
371.576	561.75
371.802	542.75
372.028	555.75
372.254	542.75
372.48	524.75
372.706	549.75
372.932	580.75
373.158	572.75
373.384	567.75
373.61	519.75
373.835	538.75
374.061	545.75
374.287	553.75
374.513	552.75
374.739	557.75
374.965	595.75
375.191	604.75
375.416	589.75
375.642	565.75
375.868	572.75
376.094	564.75
376.319	553.75
376.545	580.75
376.771	541.75
376.997	540.75
377.222	549.75
377.448	546.75
377.674	553.75
377.899	542.75
378.125	528.75
378.35	527.75
378.576	533.75
378.802	520.75
379.027	543.75
379.253	560.75
379.478	524.75
379.704	528.75
379.929	531.75
380.155	534.75
380.38	534.75
380.606	542.75
380.831	528.75
381.057	526.75
381.282	553.75
381.507	553.75
381.733	531.75
381.958	533.75
382.184	544.75
382.409	560.75
382.634	552.75
382.86	566.75
383.085	575.75
383.31	584.75
383.535	594.75
383.761	591.75
383.986	613.75
384.211	627.75
384.436	624.75
384.662	655.75
384.887	634.75
385.112	649.75
385.337	640.75
385.562	631.75
385.787	652.75
386.013	670.75
386.238	674.75
386.463	675.75
386.688	654.75
386.913	666.75
387.138	650.75
387.363	655.75
387.588	636.75
387.813	654.75
388.038	630.75
388.263	666.75
388.488	635.75
388.713	626.75
388.938	619.75
389.163	625.75
389.387	648.75
389.612	614.75
389.837	630.75
390.062	640.75
390.287	607.75
390.512	642.75
390.736	645.75
390.961	634.75
391.186	642.75
391.411	658.75
391.636	690.75
391.86	718.75
392.085	707.75
392.31	703.75
392.534	703.75
392.759	705.75
392.984	694.75
393.208	677.75
393.433	689.75
393.658	684.75
393.882	682.75
394.107	684.75
394.331	698.75
394.556	681.75
394.78	711.75
395.005	688.75
395.229	677.75
395.454	717.75
395.678	722.75
395.903	710.75
396.127	705.75
396.352	681.75
396.576	684.75
396.801	637.75
397.025	680.75
397.249	678.75
397.474	706.75
397.698	713.75
397.922	722.75
398.147	703.75
398.371	738.75
398.595	751.75
398.82	778.75
399.044	828.75
399.268	918.75
399.492	1084.75
399.717	1235.75
399.941	1221.75
400.165	1073.75
400.389	920.75
400.613	857.75
400.837	802.75
401.062	818.75
401.286	796.75
401.51	817.75
401.734	789.75
401.958	821.75
402.182	826.75
402.406	846.75
402.63	841.75
402.854	838.75
403.078	862.75
403.302	922.75
403.526	902.75
403.75	918.75
403.974	941.75
404.198	940.75
404.422	904.75
404.645	942.75
404.869	922.75
405.093	908.75
405.317	886.75
405.541	892.75
405.765	883.75
405.988	848.75
406.212	880.75
406.436	877.75
406.66	924.75
406.883	928.75
407.107	958.75
407.331	1010.75
407.555	1062.75
407.778	1053.75
408.002	1021.75
408.226	980.75
408.449	940.75
408.673	937.75
408.896	909.75
409.12	890.75
409.344	907.75
409.567	891.75
409.791	945.75
410.014	929.75
410.238	940.75
410.461	904.75
410.685	894.75
410.908	881.75
411.132	882.75
411.355	832.75
411.578	851.75
411.802	859.75
412.025	821.75
412.249	863.75
412.472	890.75
412.695	828.75
412.919	810.75
413.142	801.75
413.365	817.75
413.589	811.75
413.812	814.75
414.035	816.75
414.258	802.75
414.482	786.75
414.705	824.75
414.928	804.75
415.151	797.75
415.374	817.75
415.597	806.75
415.821	788.75
416.044	786.75
416.267	795.75
416.49	770.75
416.713	776.75
416.936	788.75
417.159	770.75
417.382	790.75
417.605	771.75
417.828	794.75
418.051	795.75
418.274	790.75
418.497	796.75
418.72	840.75
418.943	811.75
419.166	885.75
419.389	936.75
419.611	902.75
419.834	846.75
420.057	830.75
420.28	800.75
420.503	770.75
420.726	786.75
420.948	784.75
421.171	747.75
421.394	803.75
421.617	779.75
421.839	780.75
422.062	801.75
422.285	775.75
422.507	825.75
422.73	828.75
422.953	833.75
423.175	827.75
423.398	859.75
423.621	838.75
423.843	859.75
424.066	836.75
424.288	848.75
424.511	868.75
424.733	838.75
424.956	830.75
425.178	792.75
425.401	823.75
425.623	818.75
425.846	775.75
426.068	764.75
426.291	753.75
426.513	752.75
426.735	732.75
426.958	747.75
427.18	706.75
427.402	710.75
427.625	717.75
427.847	704.75
428.069	724.75
428.292	712.75
428.514	703.75
428.736	710.75
428.958	717.75
429.181	694.75
429.403	709.75
429.625	725.75
429.847	699.75
430.069	675.75
430.292	692.75
430.514	674.75
430.736	684.75
430.958	685.75
431.18	695.75
431.402	714.75
431.624	712.75
431.846	694.75
432.068	726.75
432.29	726.75
432.512	694.75
432.734	712.75
432.956	722.75
433.178	717.75
433.4	699.75
433.622	694.75
433.844	713.75
434.066	739.75
434.287	744.75
434.509	779.75
434.731	813.75
434.953	806.75
435.175	826.75
435.397	836.75
435.618	786.75
435.84	726.75
436.062	731.75
436.284	724.75
436.505	725.75
436.727	733.75
436.949	717.75
437.17	708.75
437.392	706.75
437.614	713.75
437.835	694.75
438.057	711.75
438.278	683.75
438.5	690.75
438.721	688.75
438.943	689.75
439.165	691.75
439.386	690.75
439.608	698.75
439.829	723.75
440.05	707.75
440.272	719.75
440.493	740.75
440.715	715.75
440.936	727.75
441.158	750.75
441.379	786.75
441.6	799.75
441.822	811.75
442.043	795.75
442.264	786.75
442.486	785.75
442.707	806.75
442.928	796.75
443.149	799.75
443.371	791.75
443.592	809.75
443.813	828.75
444.034	812.75
444.255	814.75
444.476	850.75
444.698	941.75
444.919	982.75
445.14	1048.75
445.361	969.75
445.582	848.75
445.803	778.75
446.024	777.75
446.245	723.75
446.466	713.75
446.687	720.75
446.908	718.75
447.129	731.75
447.35	699.75
447.571	708.75
447.792	680.75
448.013	700.75
448.234	699.75
448.455	677.75
448.675	665.75
448.896	675.75
449.117	658.75
449.338	650.75
449.559	656.75
449.779	649.75
450	656.75
450.221	642.75
450.442	676.75
450.662	667.75
450.883	698.75
451.104	709.75
451.324	701.75
451.545	668.75
451.766	692.75
451.986	685.75
452.207	682.75
452.428	652.75
452.648	636.75
452.869	657.75
453.089	643.75
453.31	666.75
453.53	658.75
453.751	646.75
453.971	672.75
454.192	632.75
454.412	667.75
454.633	633.75
454.853	652.75
455.073	617.75
455.294	632.75
455.514	638.75
455.734	638.75
455.955	643.75
456.175	641.75
456.395	634.75
456.616	634.75
456.836	603.75
457.056	613.75
457.276	637.75
457.497	639.75
457.717	627.75
457.937	631.75
458.157	643.75
458.377	637.75
458.598	653.75
458.818	656.75
459.038	700.75
459.258	737.75
459.478	740.75
459.698	789.75
459.918	787.75
460.138	797.75
460.358	856.75
460.578	847.75
460.798	850.75
461.018	854.75
461.238	846.75
461.458	878.75
461.678	862.75
461.898	872.75
462.118	861.75
462.338	895.75
462.558	940.75
462.777	967.75
462.997	1052.75
463.217	1134.75
463.437	1171.75
463.657	1081.75
463.876	1022.75
464.096	1020.75
464.316	1028.75
464.536	1033.75
464.755	972.75
464.975	941.75
465.195	889.75
465.414	839.75
465.634	771.75
465.854	740.75
466.073	746.75
466.293	756.75
466.512	700.75
466.732	700.75
466.951	698.75
467.171	685.75
467.391	716.75
467.61	706.75
467.829	692.75
468.049	705.75
468.268	678.75
468.488	688.75
468.707	665.75
468.927	663.75
469.146	661.75
469.365	692.75
469.585	694.75
469.804	675.75
470.023	723.75
470.243	723.75
470.462	721.75
470.681	718.75
470.901	728.75
471.12	720.75
471.339	695.75
471.558	682.75
471.777	682.75
471.997	676.75
472.216	662.75
472.435	666.75
472.654	654.75
472.873	646.75
473.092	665.75
473.311	672.75
473.53	669.75
473.749	655.75
473.968	658.75
474.187	670.75
474.406	671.75
474.625	648.75
474.844	654.75
475.063	659.75
475.282	660.75
475.501	658.75
475.72	654.75
475.939	674.75
476.158	688.75
476.377	678.75
476.596	667.75
476.814	719.75
477.033	676.75
477.252	721.75
477.471	738.75
477.69	713.75
477.908	749.75
478.127	781.75
478.346	777.75
478.564	781.75
478.783	789.75
479.002	807.75
479.22	849.75
479.439	833.75
479.658	796.75
479.876	820.75
480.095	820.75
480.313	858.75
480.532	885.75
480.751	903.75
480.969	834.75
481.188	836.75
481.406	802.75
481.624	746.75
481.843	739.75
482.061	774.75
482.28	739.75
482.498	781.75
482.717	764.75
482.935	739.75
483.153	749.75
483.372	761.75
483.59	759.75
483.808	770.75
484.027	770.75
484.245	801.75
484.463	756.75
484.681	806.75
484.9	782.75
485.118	777.75
485.336	810.75
485.554	805.75
485.772	794.75
485.99	800.75
486.209	804.75
486.427	810.75
486.645	797.75
486.863	820.75
487.081	792.75
487.299	801.75
487.517	804.75
487.735	818.75
487.953	816.75
488.171	801.75
488.389	787.75
488.607	772.75
488.825	797.75
489.043	770.75
489.261	790.75
489.479	804.75
489.696	785.75
489.914	816.75
490.132	816.75
490.35	798.75
490.568	795.75
490.786	789.75
491.003	808.75
491.221	840.75
491.439	772.75
491.657	778.75
491.874	804.75
492.092	801.75
492.31	792.75
492.527	806.75
492.745	814.75
492.963	825.75
493.18	843.75
493.398	837.75
493.615	813.75
493.833	795.75
494.05	808.75
494.268	830.75
494.485	833.75
494.703	828.75
494.92	815.75
495.138	825.75
495.355	804.75
495.573	832.75
495.79	825.75
496.008	852.75
496.225	847.75
496.442	860.75
496.66	885.75
496.877	874.75
497.094	864.75
497.312	894.75
497.529	902.75
497.746	964.75
497.963	935.75
498.181	988.75
498.398	1076.75
498.615	1091.75
498.832	1162.75
499.049	1240.75
499.267	1318.75
499.484	1462.75
499.701	1642.75
499.918	1772.75
500.135	2073.75
500.352	2382.75
500.569	2547.75
500.786	2483.75
501.003	2308.75
501.22	2024.75
501.437	1804.75
501.654	1586.75
501.871	1396.75
502.088	1294.75
502.305	1205.75
502.522	1126.75
502.739	1108.75
502.956	1058.75
503.172	996.75
503.389	995.75
503.606	981.75
503.823	967.75
504.04	920.75
504.256	936.75
504.473	961.75
504.69	1016.75
504.907	969.75
505.123	917.75
505.34	859.75
505.557	808.75
505.773	799.75
505.99	773.75
506.207	740.75
506.423	760.75
506.64	770.75
506.856	718.75
507.073	698.75
507.289	722.75
507.506	740.75
507.722	759.75
507.939	746.75
508.155	697.75
508.372	736.75
508.588	703.75
508.805	702.75
509.021	699.75
509.238	717.75
509.454	708.75
509.67	681.75
509.887	700.75
510.103	698.75
510.319	681.75
510.536	660.75
510.752	680.75
510.968	656.75
511.184	677.75
511.401	672.75
511.617	662.75
511.833	712.75
512.049	672.75
512.265	665.75
512.481	666.75
512.698	673.75
512.914	690.75
513.13	652.75
513.346	683.75
513.562	678.75
513.778	664.75
513.994	663.75
514.21	688.75
514.426	693.75
514.642	672.75
514.858	700.75
515.074	697.75
515.29	698.75
515.506	692.75
515.721	722.75
515.937	741.75
516.153	737.75
516.369	761.75
516.585	772.75
516.801	768.75
517.016	806.75
517.232	887.75
517.448	890.75
517.664	951.75
517.879	928.75
518.095	939.75
518.311	939.75
518.527	896.75
518.742	834.75
518.958	793.75
519.173	781.75
519.389	759.75
519.605	734.75
519.82	724.75
520.036	732.75
520.251	677.75
520.467	708.75
520.682	688.75
520.898	677.75
521.113	659.75
521.329	675.75
521.544	664.75
521.76	658.75
521.975	662.75
522.19	665.75
522.406	653.75
522.621	658.75
522.836	645.75
523.052	617.75
523.267	655.75
523.482	624.75
523.698	632.75
523.913	629.75
524.128	640.75
524.343	641.75
524.559	641.75
524.774	618.75
524.989	629.75
525.204	636.75
525.419	610.75
525.634	633.75
525.849	620.75
526.064	638.75
526.28	603.75
526.495	629.75
526.71	621.75
526.925	623.75
527.14	624.75
527.355	633.75
527.57	603.75
527.785	618.75
527.999	627.75
528.214	624.75
528.429	630.75
528.644	628.75
528.859	616.75
529.074	622.75
529.289	620.75
529.503	600.75
529.718	625.75
529.933	610.75
530.148	610.75
530.363	640.75
530.577	628.75
530.792	620.75
531.007	611.75
531.221	610.75
531.436	613.75
531.651	613.75
531.865	602.75
532.08	625.75
532.295	612.75
532.509	603.75
532.724	626.75
532.938	628.75
533.153	631.75
533.367	618.75
533.582	625.75
533.796	613.75
534.011	608.75
534.225	616.75
534.44	603.75
534.654	597.75
534.868	604.75
535.083	616.75
535.297	588.75
535.511	600.75
535.726	591.75
535.94	587.75
536.154	587.75
536.369	589.75
536.583	584.75
536.797	574.75
537.011	575.75
537.225	558.75
537.44	567.75
537.654	576.75
537.868	590.75
538.082	584.75
538.296	557.75
538.51	572.75
538.724	570.75
538.938	581.75
539.153	564.75
539.367	554.75
539.581	574.75
539.795	535.75
540.009	554.75
540.222	578.75
540.436	559.75
540.65	532.75
540.864	559.75
541.078	558.75
541.292	580.75
541.506	566.75
541.72	542.75
541.934	542.75
542.147	571.75
542.361	553.75
542.575	544.75
542.789	557.75
543.002	544.75
543.216	566.75
543.43	545.75
543.644	556.75
543.857	541.75
544.071	549.75
544.285	550.75
544.498	524.75
544.712	540.75
544.925	553.75
545.139	542.75
545.352	542.75
545.566	556.75
545.779	563.75
545.993	568.75
546.206	568.75
546.42	549.75
546.633	552.75
546.847	562.75
547.06	570.75
547.274	549.75
547.487	581.75
547.7	588.75
547.914	570.75
548.127	593.75
548.34	589.75
548.554	571.75
548.767	569.75
548.98	544.75
549.193	554.75
549.407	570.75
549.62	567.75
549.833	570.75
550.046	565.75
550.259	538.75
550.473	542.75
550.686	557.75
550.899	556.75
551.112	538.75
551.325	523.75
551.538	543.75
551.751	558.75
551.964	557.75
552.177	570.75
552.39	570.75
552.603	581.75
552.816	588.75
553.029	589.75
553.242	594.75
553.455	636.75
553.667	624.75
553.88	618.75
554.093	580.75
554.306	552.75
554.519	577.75
554.732	538.75
554.944	558.75
555.157	549.75
555.37	525.75
555.583	538.75
555.795	522.75
556.008	544.75
556.221	492.75
556.433	485.75
556.646	487.75
556.859	512.75
557.071	504.75
557.284	460.75
557.496	504.75
557.709	495.75
557.921	502.75
558.134	466.75
558.346	466.75
558.559	465.75
558.771	464.75
558.984	470.75
559.196	474.75
559.409	477.75
559.621	466.75
559.833	465.75
560.046	455.75
560.258	475.75
560.47	474.75
560.683	457.75
560.895	481.75
561.107	489.75
561.32	483.75
561.532	470.75
561.744	483.75
561.956	480.75
562.168	459.75
562.381	464.75
562.593	493.75
562.805	472.75
563.017	475.75
563.229	461.75
563.441	461.75
563.653	478.75
563.865	468.75
564.077	477.75
564.289	504.75
564.501	493.75
564.713	507.75
564.925	510.75
565.137	522.75
565.349	513.75
565.561	562.75
565.773	550.75
565.985	578.75
566.197	628.75
566.408	653.75
566.62	696.75
566.832	765.75
567.044	816.75
567.255	749.75
567.467	772.75
567.679	781.75
567.891	876.75
568.102	902.75
568.314	849.75
568.526	776.75
568.737	720.75
568.949	626.75
569.161	579.75
569.372	554.75
569.584	550.75
569.795	492.75
570.007	513.75
570.218	508.75
570.43	492.75
570.641	489.75
570.853	502.75
571.064	485.75
571.276	485.75
571.487	488.75
571.698	470.75
571.91	445.75
572.121	442.75
572.333	416.75
572.544	433.75
572.755	426.75
572.966	411.75
573.178	409.75
573.389	407.75
573.6	410.75
573.811	398.75
574.023	418.75
574.234	398.75
574.445	400.75
574.656	390.75
574.867	400.75
575.078	390.75
575.289	414.75
575.501	412.75
575.712	388.75
575.923	368.75
576.134	375.75
576.345	394.75
576.556	377.75
576.767	379.75
576.978	370.75
577.188	374.75
577.399	369.75
577.61	386.75
577.821	376.75
578.032	372.75
578.243	373.75
578.454	350.75
578.665	357.75
578.875	355.75
579.086	368.75
579.297	366.75
579.508	353.75
579.718	357.75
579.929	344.75
580.14	342.75
580.35	377.75
580.561	349.75
580.772	356.75
580.982	340.75
581.193	348.75
581.403	337.75
581.614	356.75
581.825	343.75
582.035	349.75
582.246	369.75
582.456	363.75
582.667	352.75
582.877	357.75
583.087	317.75
583.298	325.75
583.508	340.75
583.719	335.75
583.929	355.75
584.139	330.75
584.35	322.75
584.56	314.75
584.77	334.75
584.981	329.75
585.191	330.75
585.401	331.75
585.611	319.75
585.821	332.75
586.032	321.75
586.242	343.75
586.452	326.75
586.662	335.75
586.872	328.75
587.082	310.75
587.292	331.75
587.502	331.75
587.713	324.75
587.923	314.75
588.133	325.75
588.343	325.75
588.553	338.75
588.762	334.75
588.972	333.75
589.182	322.75
589.392	320.75
589.602	297.75
589.812	338.75
590.022	320.75
590.232	312.75
590.441	332.75
590.651	342.75
590.861	338.75
591.071	318.75
591.281	325.75
591.49	315.75
591.7	346.75
591.91	328.75
592.119	351.75
592.329	344.75
592.539	372.75
592.748	380.75
592.958	398.75
593.167	394.75
593.377	410.75
593.587	406.75
593.796	402.75
594.006	408.75
594.215	413.75
594.424	425.75
594.634	397.75
594.843	396.75
595.053	363.75
595.262	365.75
595.472	353.75
595.681	338.75
595.89	352.75
596.1	300.75
596.309	315.75
596.518	322.75
596.727	314.75
596.937	317.75
597.146	293.75
597.355	309.75
597.564	299.75
597.774	298.75
597.983	277.75
598.192	287.75
598.401	306.75
598.61	297.75
598.819	281.75
599.028	292.75
599.237	295.75
599.446	281.75
599.655	280.75
599.864	280.75
600.073	284.75
600.282	278.75
600.491	286.75
600.7	272.75
600.909	270.75
601.118	294.75
601.327	287.75
601.536	268.75
601.745	267.75
601.953	285.75
602.162	268.75
602.371	252.75
602.58	278.75
602.789	286.75
602.997	270.75
603.206	285.75
603.415	278.75
603.623	259.75
603.832	270.75
604.041	265.75
604.249	243.75
604.458	261.75
604.666	259.75
604.875	251.75
605.084	261.75
605.292	259.75
605.501	269.75
605.709	248.75
605.918	277.75
606.126	244.75
606.334	246.75
606.543	270.75
606.751	243.75
606.96	268.75
607.168	228.75
607.376	251.75
607.585	243.75
607.793	271.75
608.001	250.75
608.21	235.75
608.418	228.75
608.626	251.75
608.834	262.75
609.043	256.75
609.251	263.75
609.459	249.75
609.667	246.75
609.875	235.75
610.083	244.75
610.291	238.75
610.499	251.75
610.707	244.75
610.916	266.75
611.124	246.75
611.332	230.75
611.54	270.75
611.748	265.75
611.955	244.75
612.163	236.75
612.371	243.75
612.579	257.75
612.787	241.75
612.995	250.75
613.203	246.75
613.411	254.75
613.618	259.75
613.826	248.75
614.034	258.75
614.242	249.75
614.449	248.75
614.657	244.75
614.865	232.75
615.072	241.75
615.28	254.75
615.488	240.75
615.695	254.75
615.903	273.75
616.111	254.75
616.318	266.75
616.526	259.75
616.733	277.75
616.941	248.75
617.148	245.75
617.356	261.75
617.563	244.75
617.771	246.75
617.978	252.75
618.185	240.75
618.393	232.75
618.6	247.75
618.807	244.75
619.015	242.75
619.222	232.75
619.429	237.75
619.637	243.75
619.844	226.75
620.051	229.75
620.258	249.75
620.466	231.75
620.673	234.75
620.88	226.75
621.087	222.75
621.294	228.75
621.501	231.75
621.708	222.75
621.915	234.75
622.122	220.75
622.329	214.75
622.536	227.75
622.743	219.75
622.95	216.75
623.157	236.75
623.364	229.75
623.571	209.75
623.778	221.75
623.985	217.75
624.192	219.75
624.399	224.75
624.606	219.75
624.812	221.75
625.019	226.75
625.226	221.75
625.433	215.75
625.639	212.75
625.846	212.75
626.053	214.75
626.259	189.75
626.466	220.75
626.673	208.75
626.879	200.75
627.086	213.75
627.293	216.75
627.499	214.75
627.706	208.75
627.912	217.75
628.119	201.75
628.325	204.75
628.532	208.75
628.738	196.75
628.945	219.75
629.151	215.75
629.357	201.75
629.564	222.75
629.77	204.75
629.976	193.75
630.183	198.75
630.389	195.75
630.595	196.75
630.802	201.75
631.008	194.75
631.214	186.75
631.42	192.75
631.627	198.75
631.833	177.75
632.039	173.75
632.245	199.75
632.451	200.75
632.657	182.75
632.863	200.75
633.069	187.75
633.275	184.75
633.481	201.75
633.688	189.75
633.893	189.75
634.099	197.75
634.305	191.75
634.511	181.75
634.717	176.75
634.923	192.75
635.129	189.75
635.335	183.75
635.541	181.75
635.747	178.75
635.952	187.75
636.158	199.75
636.364	180.75
636.57	169.75
636.775	181.75
636.981	169.75
637.187	185.75
637.392	169.75
637.598	180.75
637.804	179.75
638.009	185.75
638.215	205.75
638.421	176.75
638.626	177.75
638.832	182.75
639.037	185.75
639.243	172.75
639.448	170.75
639.654	177.75
639.859	181.75
640.065	165.75
640.27	200.75
640.475	168.75
640.681	178.75
640.886	172.75
641.091	164.75
641.297	171.75
641.502	179.75
641.707	162.75
641.913	161.75
642.118	166.75
642.323	176.75
642.528	164.75
642.733	173.75
642.939	188.75
643.144	162.75
643.349	177.75
643.554	181.75
643.759	169.75
643.964	158.75
644.169	169.75
644.374	158.75
644.579	169.75
644.784	165.75
644.989	179.75
645.194	152.75
645.399	172.75
645.604	166.75
645.809	166.75
646.014	175.75
646.219	161.75
646.423	176.75
646.628	176.75
646.833	174.75
647.038	170.75
647.243	172.75
647.447	197.75
647.652	181.75
647.857	193.75
648.062	174.75
648.266	191.75
648.471	180.75
648.676	181.75
648.88	188.75
649.085	180.75
649.289	183.75
649.494	169.75
649.698	181.75
649.903	187.75
650.107	152.75
650.312	155.75
650.516	176.75
650.721	163.75
650.925	169.75
651.13	151.75
651.334	168.75
651.539	154.75
651.743	141.75
651.947	152.75
652.152	160.75
652.356	150.75
652.56	162.75
652.764	151.75
652.969	140.75
653.173	157.75
653.377	134.75
653.581	136.75
653.785	152.75
653.99	134.75
654.194	158.75
654.398	145.75
654.602	137.75
654.806	147.75
655.01	150.75
655.214	157.75
655.418	142.75
655.622	137.75
655.826	158.75
656.03	156.75
656.234	144.75
656.438	149.75
656.642	159.75
656.846	134.75
657.049	124.75
657.253	130.75
657.457	126.75
657.661	128.75
657.865	121.75
658.068	127.75
658.272	123.75
658.476	110.75
658.68	114.75
658.883	102.75
659.087	99.75
659.291	105.75
659.494	93.75
659.698	105.75
659.901	112.75
660.105	85.75
660.309	80.75
660.512	98.75
660.716	94.75
660.919	96.75
661.123	98.75
661.326	94.75
661.53	81.75
661.733	93.75
661.936	82.75
662.14	84.75
662.343	85.75
662.546	82.75
662.75	84.75
662.953	88.75
663.156	88.75
663.36	85.75
663.563	89.75
663.766	89.75
663.969	84.75
664.173	75.75
664.376	84.75
664.579	98.75
664.782	87.75
664.985	76.75
665.188	94.75
665.391	76.75
665.594	81.75
665.797	91.75
666	67.75
666.203	77.75
666.406	76.75
666.609	71.75
666.812	79.75
667.015	85.75
667.218	86.75
667.421	81.75
667.624	78.75
667.827	81.75
668.03	82.75
668.232	68.75
668.435	77.75
668.638	79.75
668.841	90.75
669.043	97.75
669.246	95.75
669.449	85.75
669.651	74.75
669.854	86.75
670.057	78.75
670.259	96.75
670.462	99.75
670.665	79.75
670.867	89.75
671.07	93.75
671.272	90.75
671.475	72.75
671.677	84.75
671.88	90.75
672.082	84.75
672.284	78.75
672.487	78.75
672.689	73.75
672.892	82.75
