Data from Ni(NO3)2@0.5M.TitratingCurve.Agarose3%dH2O.NegLispCup.LampEnergy10.LIBS07252019_HRD10591_17-57-58-564.txt Node
Date: Thu Jul 25 17:57:58 EDT 2019
User: cochatt
Spectrometer: HR+D1059
Trigger mode: 1
Integration Time (sec): 1.000000E-1
Scans to average: 1
Electric dark correction enabled: true
Nonlinearity correction enabled: false
Boxcar width: 0
XAxis mode: Wavelengths
Number of Pixels in Spectrum: 2048
>>>>>Begin Spectral Data<<<<<
223.165	-23.5
223.4	-23.5
223.635	-23.5
223.869	-11.5
224.104	-31.5
224.338	-3.5
224.573	-23.5
224.808	-14.5
225.042	-22.5
225.277	3.5
225.511	0.5
225.746	8.5
225.98	6.5
226.215	7.5
226.449	23.5
226.683	24.5
226.918	33.5
227.152	22.5
227.387	33.5
227.621	23.5
227.856	24.5
228.09	43.5
228.324	51.5
228.559	55.5
228.793	83.5
229.027	115.5
229.262	136.5
229.496	135.5
229.73	133.5
229.964	135.5
230.199	173.5
230.433	172.5
230.667	181.5
230.901	184.5
231.136	152.5
231.37	167.5
231.604	185.5
231.838	170.5
232.072	198.5
232.306	168.5
232.541	179.5
232.775	169.5
233.009	154.5
233.243	146.5
233.477	156.5
233.711	138.5
233.945	163.5
234.179	155.5
234.413	169.5
234.647	162.5
234.881	151.5
235.115	156.5
235.349	147.5
235.583	153.5
235.817	133.5
236.051	131.5
236.285	149.5
236.519	169.5
236.753	146.5
236.987	145.5
237.221	156.5
237.455	148.5
237.689	173.5
237.922	161.5
238.156	156.5
238.39	160.5
238.624	167.5
238.858	153.5
239.091	169.5
239.325	194.5
239.559	195.5
239.793	203.5
240.027	195.5
240.26	171.5
240.494	169.5
240.728	165.5
240.961	170.5
241.195	180.5
241.429	171.5
241.662	184.5
241.896	197.5
242.13	215.5
242.363	195.5
242.597	169.5
242.83	205.5
243.064	182.5
243.298	186.5
243.531	192.5
243.765	200.5
243.998	217.5
244.232	199.5
244.465	207.5
244.699	194.5
244.932	217.5
245.166	195.5
245.399	197.5
245.633	221.5
245.866	216.5
246.099	203.5
246.333	226.5
246.566	208.5
246.8	227.5
247.033	216.5
247.266	208.5
247.5	208.5
247.733	225.5
247.966	227.5
248.2	213.5
248.433	243.5
248.666	214.5
248.899	229.5
249.133	235.5
249.366	218.5
249.599	236.5
249.832	239.5
250.066	251.5
250.299	241.5
250.532	256.5
250.765	258.5
250.998	269.5
251.231	281.5
251.465	297.5
251.698	289.5
251.931	267.5
252.164	268.5
252.397	268.5
252.63	275.5
252.863	260.5
253.096	271.5
253.329	267.5
253.562	258.5
253.795	281.5
254.028	275.5
254.261	267.5
254.494	303.5
254.727	287.5
254.96	295.5
255.193	299.5
255.426	307.5
255.659	318.5
255.892	304.5
256.124	304.5
256.357	304.5
256.59	324.5
256.823	314.5
257.056	295.5
257.289	325.5
257.521	309.5
257.754	309.5
257.987	316.5
258.22	333.5
258.452	331.5
258.685	305.5
258.918	333.5
259.151	319.5
259.383	332.5
259.616	316.5
259.849	330.5
260.081	325.5
260.314	327.5
260.547	337.5
260.779	328.5
261.012	353.5
261.244	326.5
261.477	362.5
261.71	360.5
261.942	324.5
262.175	347.5
262.407	344.5
262.64	348.5
262.872	362.5
263.105	378.5
263.337	375.5
263.57	362.5
263.802	356.5
264.035	363.5
264.267	364.5
264.499	346.5
264.732	387.5
264.964	379.5
265.197	364.5
265.429	381.5
265.661	387.5
265.894	359.5
266.126	373.5
266.358	352.5
266.591	393.5
266.823	371.5
267.055	379.5
267.287	404.5
267.52	365.5
267.752	403.5
267.984	389.5
268.216	391.5
268.448	399.5
268.681	393.5
268.913	392.5
269.145	391.5
269.377	397.5
269.609	419.5
269.841	412.5
270.073	397.5
270.306	394.5
270.538	438.5
270.77	408.5
271.002	425.5
271.234	407.5
271.466	417.5
271.698	407.5
271.93	427.5
272.162	425.5
272.394	415.5
272.626	409.5
272.858	420.5
273.09	431.5
273.322	418.5
273.553	419.5
273.785	439.5
274.017	426.5
274.249	428.5
274.481	427.5
274.713	402.5
274.945	440.5
275.176	437.5
275.408	434.5
275.64	429.5
275.872	465.5
276.104	452.5
276.335	458.5
276.567	443.5
276.799	459.5
277.031	450.5
277.262	460.5
277.494	438.5
277.726	461.5
277.957	469.5
278.189	464.5
278.421	472.5
278.652	459.5
278.884	467.5
279.115	457.5
279.347	469.5
279.579	484.5
279.81	476.5
280.042	469.5
280.273	495.5
280.505	482.5
280.736	477.5
280.968	489.5
281.199	460.5
281.431	498.5
281.662	479.5
281.894	478.5
282.125	466.5
282.356	464.5
282.588	468.5
282.819	464.5
283.051	485.5
283.282	500.5
283.513	501.5
283.745	487.5
283.976	498.5
284.207	489.5
284.439	492.5
284.67	486.5
284.901	516.5
285.132	518.5
285.364	495.5
285.595	499.5
285.826	521.5
286.057	475.5
286.288	522.5
286.52	499.5
286.751	509.5
286.982	491.5
287.213	517.5
287.444	505.5
287.675	495.5
287.906	489.5
288.138	509.5
288.369	508.5
288.6	504.5
288.831	507.5
289.062	503.5
289.293	522.5
289.524	521.5
289.755	506.5
289.986	518.5
290.217	522.5
290.448	520.5
290.679	528.5
290.91	513.5
291.141	534.5
291.371	539.5
291.602	525.5
291.833	521.5
292.064	539.5
292.295	541.5
292.526	536.5
292.757	528.5
292.987	519.5
293.218	537.5
293.449	533.5
293.68	536.5
293.91	524.5
294.141	543.5
294.372	528.5
294.603	536.5
294.833	515.5
295.064	525.5
295.295	526.5
295.525	537.5
295.756	533.5
295.987	555.5
296.217	536.5
296.448	528.5
296.679	544.5
296.909	546.5
297.14	525.5
297.37	586.5
297.601	553.5
297.831	535.5
298.062	560.5
298.292	561.5
298.523	563.5
298.753	573.5
298.984	564.5
299.214	557.5
299.445	561.5
299.675	562.5
299.905	586.5
300.136	586.5
300.366	593.5
300.597	602.5
300.827	604.5
301.057	601.5
301.288	596.5
301.518	603.5
301.748	584.5
301.979	587.5
302.209	565.5
302.439	571.5
302.669	580.5
302.9	599.5
303.13	588.5
303.36	619.5
303.59	597.5
303.82	603.5
304.051	610.5
304.281	608.5
304.511	597.5
304.741	615.5
304.971	624.5
305.201	647.5
305.431	657.5
305.661	605.5
305.891	616.5
306.121	616.5
306.352	612.5
306.582	601.5
306.812	593.5
307.042	619.5
307.272	616.5
307.502	613.5
307.731	637.5
307.961	598.5
308.191	612.5
308.421	606.5
308.651	624.5
308.881	592.5
309.111	612.5
309.341	615.5
309.571	631.5
309.8	653.5
310.03	660.5
310.26	662.5
310.49	681.5
310.72	667.5
310.949	636.5
311.179	619.5
311.409	659.5
311.639	645.5
311.868	646.5
312.098	657.5
312.328	660.5
312.557	677.5
312.787	661.5
313.017	682.5
313.246	652.5
313.476	666.5
313.706	709.5
313.935	671.5
314.165	675.5
314.394	677.5
314.624	661.5
314.853	683.5
315.083	689.5
315.312	689.5
315.542	683.5
315.771	673.5
316.001	688.5
316.23	721.5
316.46	713.5
316.689	695.5
316.919	701.5
317.148	695.5
317.377	688.5
317.607	696.5
317.836	683.5
318.065	689.5
318.295	722.5
318.524	716.5
318.753	700.5
318.983	715.5
319.212	713.5
319.441	720.5
319.67	708.5
319.9	701.5
320.129	730.5
320.358	728.5
320.587	735.5
320.816	707.5
321.046	725.5
321.275	721.5
321.504	735.5
321.733	738.5
321.962	758.5
322.191	771.5
322.42	755.5
322.649	732.5
322.878	743.5
323.108	763.5
323.337	791.5
323.566	801.5
323.795	773.5
324.024	791.5
324.253	791.5
324.482	803.5
324.71	791.5
324.939	809.5
325.168	804.5
325.397	763.5
325.626	803.5
325.855	797.5
326.084	789.5
326.313	812.5
326.542	791.5
326.77	825.5
326.999	812.5
327.228	813.5
327.457	798.5
327.686	780.5
327.914	790.5
328.143	822.5
328.372	813.5
328.6	823.5
328.829	803.5
329.058	829.5
329.287	819.5
329.515	818.5
329.744	841.5
329.972	807.5
330.201	831.5
330.43	842.5
330.658	827.5
330.887	837.5
331.115	822.5
331.344	856.5
331.572	838.5
331.801	849.5
332.03	868.5
332.258	875.5
332.486	864.5
332.715	889.5
332.943	864.5
333.172	887.5
333.4	889.5
333.629	920.5
333.857	904.5
334.085	927.5
334.314	902.5
334.542	898.5
334.771	888.5
334.999	915.5
335.227	912.5
335.455	920.5
335.684	892.5
335.912	897.5
336.14	920.5
336.369	935.5
336.597	929.5
336.825	932.5
337.053	954.5
337.281	947.5
337.51	922.5
337.738	942.5
337.966	922.5
338.194	940.5
338.422	927.5
338.65	905.5
338.878	910.5
339.106	904.5
339.334	902.5
339.562	930.5
339.79	919.5
340.018	895.5
340.246	871.5
340.474	901.5
340.702	893.5
340.93	900.5
341.158	903.5
341.386	911.5
341.614	961.5
341.842	949.5
342.07	893.5
342.298	915.5
342.526	901.5
342.754	914.5
342.981	902.5
343.209	907.5
343.437	937.5
343.665	967.5
343.893	941.5
344.12	935.5
344.348	906.5
344.576	938.5
344.804	984.5
345.031	945.5
345.259	901.5
345.487	889.5
345.714	923.5
345.942	915.5
346.17	954.5
346.397	951.5
346.625	898.5
346.853	901.5
347.08	867.5
347.308	866.5
347.535	928.5
347.763	860.5
347.99	870.5
348.218	864.5
348.445	874.5
348.673	888.5
348.9	879.5
349.128	861.5
349.355	910.5
349.583	943.5
349.81	868.5
350.037	857.5
350.265	854.5
350.492	885.5
350.72	871.5
350.947	886.5
351.174	905.5
351.402	896.5
351.629	923.5
351.856	920.5
352.083	899.5
352.311	857.5
352.538	923.5
352.765	958.5
352.992	861.5
353.22	849.5
353.447	849.5
353.674	859.5
353.901	851.5
354.128	834.5
354.355	842.5
354.583	875.5
354.81	877.5
355.037	837.5
355.264	848.5
355.491	844.5
355.718	838.5
355.945	863.5
356.172	853.5
356.399	863.5
356.626	900.5
356.853	921.5
357.08	860.5
357.307	888.5
357.534	876.5
357.761	872.5
357.988	863.5
358.215	861.5
358.441	879.5
358.668	847.5
358.895	858.5
359.122	863.5
359.349	842.5
359.576	872.5
359.802	855.5
360.029	817.5
360.256	850.5
360.483	841.5
360.709	875.5
360.936	873.5
361.163	889.5
361.39	883.5
361.616	871.5
361.843	856.5
362.07	904.5
362.296	917.5
362.523	856.5
362.749	851.5
362.976	850.5
363.203	843.5
363.429	864.5
363.656	883.5
363.882	863.5
364.109	852.5
364.335	851.5
364.562	855.5
364.788	860.5
365.015	860.5
365.241	871.5
365.468	857.5
365.694	874.5
365.92	857.5
366.147	863.5
366.373	871.5
366.599	850.5
366.826	860.5
367.052	866.5
367.278	864.5
367.505	859.5
367.731	845.5
367.957	894.5
368.184	891.5
368.41	872.5
368.636	871.5
368.862	897.5
369.089	885.5
369.315	902.5
369.541	887.5
369.767	876.5
369.993	891.5
370.219	890.5
370.445	887.5
370.672	891.5
370.898	891.5
371.124	908.5
371.35	908.5
371.576	905.5
371.802	889.5
372.028	903.5
372.254	887.5
372.48	892.5
372.706	906.5
372.932	902.5
373.158	886.5
373.384	901.5
373.61	895.5
373.835	905.5
374.061	874.5
374.287	902.5
374.513	893.5
374.739	925.5
374.965	899.5
375.191	909.5
375.416	905.5
375.642	904.5
375.868	906.5
376.094	880.5
376.319	885.5
376.545	880.5
376.771	891.5
376.997	871.5
377.222	885.5
377.448	886.5
377.674	873.5
377.899	891.5
378.125	899.5
378.35	880.5
378.576	874.5
378.802	874.5
379.027	881.5
379.253	879.5
379.478	869.5
379.704	883.5
379.929	867.5
380.155	857.5
380.38	885.5
380.606	887.5
380.831	896.5
381.057	883.5
381.282	884.5
381.507	889.5
381.733	873.5
381.958	882.5
382.184	876.5
382.409	874.5
382.634	896.5
382.86	891.5
383.085	868.5
383.31	914.5
383.535	908.5
383.761	900.5
383.986	943.5
384.211	921.5
384.436	901.5
384.662	897.5
384.887	954.5
385.112	908.5
385.337	940.5
385.562	945.5
385.787	921.5
386.013	976.5
386.238	933.5
386.463	924.5
386.688	936.5
386.913	951.5
387.138	978.5
387.363	940.5
387.588	936.5
387.813	960.5
388.038	944.5
388.263	968.5
388.488	956.5
388.713	958.5
388.938	951.5
389.163	953.5
389.387	925.5
389.612	949.5
389.837	949.5
390.062	941.5
390.287	991.5
390.512	938.5
390.736	956.5
390.961	943.5
391.186	947.5
391.411	969.5
391.636	973.5
391.86	963.5
392.085	971.5
392.31	954.5
392.534	979.5
392.759	995.5
392.984	975.5
393.208	945.5
393.433	990.5
393.658	968.5
393.882	936.5
394.107	957.5
394.331	965.5
394.556	949.5
394.78	970.5
395.005	986.5
395.229	950.5
395.454	992.5
395.678	993.5
395.903	950.5
396.127	979.5
396.352	979.5
396.576	1008.5
396.801	977.5
397.025	994.5
397.249	1013.5
397.474	1009.5
397.698	999.5
397.922	1012.5
398.147	1000.5
398.371	1013.5
398.595	1071.5
398.82	1056.5
399.044	1083.5
399.268	1061.5
399.492	1107.5
399.717	1148.5
399.941	1160.5
400.165	1165.5
400.389	1085.5
400.613	1093.5
400.837	1058.5
401.062	1053.5
401.286	1072.5
401.51	1068.5
401.734	1061.5
401.958	1079.5
402.182	1041.5
402.406	1087.5
402.63	1089.5
402.854	1071.5
403.078	1073.5
403.302	1067.5
403.526	1100.5
403.75	1073.5
403.974	1079.5
404.198	1072.5
404.422	1105.5
404.645	1080.5
404.869	1064.5
405.093	1065.5
405.317	1061.5
405.541	1080.5
405.765	1087.5
405.988	1094.5
406.212	1122.5
406.436	1106.5
406.66	1103.5
406.883	1102.5
407.107	1149.5
407.331	1146.5
407.555	1144.5
407.778	1164.5
408.002	1154.5
408.226	1167.5
408.449	1173.5
408.673	1130.5
408.896	1089.5
409.12	1112.5
409.344	1128.5
409.567	1116.5
409.791	1124.5
410.014	1125.5
410.238	1091.5
410.461	1113.5
410.685	1085.5
410.908	1104.5
411.132	1087.5
411.355	1063.5
411.578	1087.5
411.802	1105.5
412.025	1117.5
412.249	1081.5
412.472	1069.5
412.695	1071.5
412.919	1072.5
413.142	1096.5
413.365	1073.5
413.589	1057.5
413.812	1081.5
414.035	1091.5
414.258	1065.5
414.482	1044.5
414.705	1065.5
414.928	1051.5
415.151	1068.5
415.374	1044.5
415.597	1028.5
415.821	1060.5
416.044	1027.5
416.267	1026.5
416.49	1049.5
416.713	1043.5
416.936	1051.5
417.159	1036.5
417.382	1025.5
417.605	1017.5
417.828	1045.5
418.051	1062.5
418.274	1048.5
418.497	1027.5
418.72	1021.5
418.943	1030.5
419.166	1052.5
419.389	1112.5
419.611	1125.5
419.834	1091.5
420.057	1074.5
420.28	1054.5
420.503	1023.5
420.726	1044.5
420.948	1019.5
421.171	1033.5
421.394	1022.5
421.617	1011.5
421.839	1049.5
422.062	1051.5
422.285	1020.5
422.507	1041.5
422.73	1024.5
422.953	1032.5
423.175	1053.5
423.398	1034.5
423.621	1021.5
423.843	1034.5
424.066	1059.5
424.288	1070.5
424.511	1039.5
424.733	1027.5
424.956	1035.5
425.178	1036.5
425.401	1043.5
425.623	1019.5
425.846	1036.5
426.068	1052.5
426.291	1049.5
426.513	1033.5
426.735	1001.5
426.958	1009.5
427.18	1019.5
427.402	998.5
427.625	978.5
427.847	970.5
428.069	1007.5
428.292	1039.5
428.514	1003.5
428.736	1004.5
428.958	1037.5
429.181	1010.5
429.403	1027.5
429.625	1001.5
429.847	980.5
430.069	1009.5
430.292	1016.5
430.514	1015.5
430.736	1032.5
430.958	1045.5
431.18	1025.5
431.402	1002.5
431.624	1009.5
431.846	1011.5
432.068	1008.5
432.29	1005.5
432.512	1012.5
432.734	1052.5
432.956	1015.5
433.178	1034.5
433.4	1055.5
433.622	1056.5
433.844	1048.5
434.066	1058.5
434.287	1013.5
434.509	1025.5
434.731	1061.5
434.953	1043.5
435.175	1075.5
435.397	1077.5
435.618	1046.5
435.84	1034.5
436.062	1040.5
436.284	1026.5
436.505	1048.5
436.727	1031.5
436.949	1005.5
437.17	1032.5
437.392	1002.5
437.614	1009.5
437.835	995.5
438.057	999.5
438.278	983.5
438.5	981.5
438.721	967.5
438.943	1007.5
439.165	991.5
439.386	1043.5
439.608	1022.5
439.829	1027.5
440.05	992.5
440.272	1041.5
440.493	1039.5
440.715	1054.5
440.936	1002.5
441.158	1041.5
441.379	1038.5
441.6	1078.5
441.822	1051.5
442.043	1051.5
442.264	1044.5
442.486	1025.5
442.707	1070.5
442.928	1053.5
443.149	1061.5
443.371	1075.5
443.592	1098.5
443.813	1110.5
444.034	1082.5
444.255	1066.5
444.476	1077.5
444.698	1107.5
444.919	1120.5
445.14	1203.5
445.361	1155.5
445.582	1113.5
445.803	1057.5
446.024	1037.5
446.245	1025.5
446.466	1033.5
446.687	1026.5
446.908	1001.5
447.129	1002.5
447.35	988.5
447.571	971.5
447.792	940.5
448.013	979.5
448.234	965.5
448.455	971.5
448.675	955.5
448.896	969.5
449.117	967.5
449.338	953.5
449.559	970.5
449.779	951.5
450	933.5
450.221	952.5
450.442	927.5
450.662	952.5
450.883	1012.5
451.104	1000.5
451.324	993.5
451.545	962.5
451.766	959.5
451.986	922.5
452.207	936.5
452.428	950.5
452.648	956.5
452.869	943.5
453.089	936.5
453.31	950.5
453.53	911.5
453.751	926.5
453.971	948.5
454.192	953.5
454.412	951.5
454.633	941.5
454.853	941.5
455.073	915.5
455.294	965.5
455.514	950.5
455.734	933.5
455.955	951.5
456.175	965.5
456.395	952.5
456.616	892.5
456.836	939.5
457.056	910.5
457.276	894.5
457.497	941.5
457.717	929.5
457.937	961.5
458.157	940.5
458.377	949.5
458.598	928.5
458.818	951.5
459.038	958.5
459.258	955.5
459.478	1008.5
459.698	1107.5
459.918	1091.5
460.138	1059.5
460.358	1085.5
460.578	1075.5
460.798	1108.5
461.018	1086.5
461.238	1043.5
461.458	1043.5
461.678	1048.5
461.898	1087.5
462.118	1044.5
462.338	1093.5
462.558	1120.5
462.777	1135.5
462.997	1187.5
463.217	1183.5
463.437	1180.5
463.657	1212.5
463.876	1128.5
464.096	1167.5
464.316	1142.5
464.536	1139.5
464.755	1097.5
464.975	1073.5
465.195	1072.5
465.414	1063.5
465.634	1041.5
465.854	993.5
466.073	1038.5
466.293	987.5
466.512	986.5
466.732	987.5
466.951	1008.5
467.171	999.5
467.391	995.5
467.61	987.5
467.829	989.5
468.049	1016.5
468.268	996.5
468.488	985.5
468.707	956.5
468.927	970.5
469.146	988.5
469.365	1010.5
469.585	1008.5
469.804	997.5
470.023	1006.5
470.243	993.5
470.462	979.5
470.681	1009.5
470.901	1025.5
471.12	991.5
471.339	993.5
471.558	1019.5
471.777	1014.5
471.997	1013.5
472.216	968.5
472.435	997.5
472.654	967.5
472.873	994.5
473.092	981.5
473.311	991.5
473.53	980.5
473.749	999.5
473.968	1016.5
474.187	989.5
474.406	994.5
474.625	1012.5
474.844	992.5
475.063	1012.5
475.282	1032.5
475.501	1033.5
475.72	1051.5
475.939	1001.5
476.158	1005.5
476.377	1042.5
476.596	1022.5
476.814	1050.5
477.033	1055.5
477.252	1071.5
477.471	1072.5
477.69	1088.5
477.908	1120.5
478.127	1149.5
478.346	1122.5
478.564	1154.5
478.783	1131.5
479.002	1161.5
479.22	1183.5
479.439	1135.5
479.658	1151.5
479.876	1149.5
480.095	1147.5
480.313	1178.5
480.532	1191.5
480.751	1176.5
480.969	1169.5
481.188	1142.5
481.406	1150.5
481.624	1117.5
481.843	1132.5
482.061	1164.5
482.28	1125.5
482.498	1122.5
482.717	1130.5
482.935	1145.5
483.153	1203.5
483.372	1195.5
483.59	1227.5
483.808	1211.5
484.027	1179.5
484.245	1201.5
484.463	1211.5
484.681	1179.5
484.9	1200.5
485.118	1209.5
485.336	1188.5
485.554	1197.5
485.772	1192.5
485.99	1175.5
486.209	1181.5
486.427	1192.5
486.645	1221.5
486.863	1194.5
487.081	1155.5
487.299	1209.5
487.517	1232.5
487.735	1248.5
487.953	1233.5
488.171	1220.5
488.389	1218.5
488.607	1213.5
488.825	1220.5
489.043	1199.5
489.261	1172.5
489.479	1216.5
489.696	1221.5
489.914	1222.5
490.132	1191.5
490.35	1196.5
490.568	1213.5
490.786	1235.5
491.003	1220.5
491.221	1241.5
491.439	1263.5
491.657	1245.5
491.874	1248.5
492.092	1279.5
492.31	1268.5
492.527	1281.5
492.745	1282.5
492.963	1274.5
493.18	1289.5
493.398	1276.5
493.615	1272.5
493.833	1244.5
494.05	1281.5
494.268	1299.5
494.485	1256.5
494.703	1250.5
494.92	1299.5
495.138	1294.5
495.355	1296.5
495.573	1304.5
495.79	1263.5
496.008	1272.5
496.225	1288.5
496.442	1293.5
496.66	1329.5
496.877	1273.5
497.094	1318.5
497.312	1339.5
497.529	1354.5
497.746	1337.5
497.963	1354.5
498.181	1419.5
498.398	1379.5
498.615	1455.5
498.832	1459.5
499.049	1501.5
499.267	1526.5
499.484	1525.5
499.701	1599.5
499.918	1639.5
500.135	1746.5
500.352	1825.5
500.569	1814.5
500.786	1796.5
501.003	1730.5
501.22	1702.5
501.437	1643.5
501.654	1562.5
501.871	1532.5
502.088	1548.5
502.305	1483.5
502.522	1462.5
502.739	1464.5
502.956	1366.5
503.172	1372.5
503.389	1351.5
503.606	1323.5
503.823	1301.5
504.04	1315.5
504.256	1305.5
504.473	1306.5
504.69	1279.5
504.907	1307.5
505.123	1252.5
505.34	1181.5
505.557	1235.5
505.773	1199.5
505.99	1212.5
506.207	1151.5
506.423	1182.5
506.64	1179.5
506.856	1140.5
507.073	1165.5
507.289	1153.5
507.506	1139.5
507.722	1139.5
507.939	1112.5
508.155	1130.5
508.372	1108.5
508.588	1093.5
508.805	1085.5
509.021	1075.5
509.238	1087.5
509.454	1069.5
509.67	1061.5
509.887	1074.5
510.103	1085.5
510.319	1068.5
510.536	1090.5
510.752	1052.5
510.968	1053.5
511.184	1022.5
511.401	1045.5
511.617	1056.5
511.833	1049.5
512.049	1033.5
512.265	1047.5
512.481	1021.5
512.698	1057.5
512.914	1030.5
513.13	1011.5
513.346	1063.5
513.562	1053.5
513.778	1020.5
513.994	1023.5
514.21	1044.5
514.426	1053.5
514.642	1029.5
514.858	1056.5
515.074	1035.5
515.29	1007.5
515.506	1069.5
515.721	1052.5
515.937	1048.5
516.153	1051.5
516.369	1036.5
516.585	1060.5
516.801	1045.5
517.016	1067.5
517.232	1101.5
517.448	1098.5
517.664	1107.5
517.879	1110.5
518.095	1091.5
518.311	1079.5
518.527	1083.5
518.742	1076.5
518.958	1071.5
519.173	1022.5
519.389	1039.5
519.605	1028.5
519.82	1025.5
520.036	1041.5
520.251	1003.5
520.467	986.5
520.682	1014.5
520.898	991.5
521.113	994.5
521.329	977.5
521.544	959.5
521.76	980.5
521.975	993.5
522.19	990.5
522.406	1003.5
522.621	945.5
522.836	944.5
523.052	952.5
523.267	949.5
523.482	951.5
523.698	957.5
523.913	969.5
524.128	963.5
524.343	954.5
524.559	972.5
524.774	971.5
524.989	978.5
525.204	977.5
525.419	946.5
525.634	942.5
525.849	936.5
526.064	956.5
526.28	938.5
526.495	898.5
526.71	936.5
526.925	926.5
527.14	915.5
527.355	897.5
527.57	907.5
527.785	916.5
527.999	910.5
528.214	931.5
528.429	933.5
528.644	932.5
528.859	917.5
529.074	924.5
529.289	919.5
529.503	925.5
529.718	909.5
529.933	921.5
530.148	927.5
530.363	909.5
530.577	899.5
530.792	915.5
531.007	880.5
531.221	911.5
531.436	888.5
531.651	919.5
531.865	886.5
532.08	892.5
532.295	862.5
532.509	903.5
532.724	849.5
532.938	889.5
533.153	872.5
533.367	879.5
533.582	915.5
533.796	893.5
534.011	861.5
534.225	882.5
534.44	865.5
534.654	882.5
534.868	853.5
535.083	843.5
535.297	842.5
535.511	845.5
535.726	876.5
535.94	870.5
536.154	854.5
536.369	860.5
536.583	835.5
536.797	867.5
537.011	842.5
537.225	860.5
537.44	827.5
537.654	848.5
537.868	831.5
538.082	797.5
538.296	826.5
538.51	822.5
538.724	853.5
538.938	861.5
539.153	877.5
539.367	826.5
539.581	819.5
539.795	822.5
540.009	809.5
540.222	802.5
540.436	803.5
540.65	797.5
540.864	827.5
541.078	828.5
541.292	828.5
541.506	835.5
541.72	817.5
541.934	829.5
542.147	851.5
542.361	818.5
542.575	833.5
542.789	825.5
543.002	823.5
543.216	808.5
543.43	779.5
543.644	787.5
543.857	830.5
544.071	842.5
544.285	807.5
544.498	799.5
544.712	805.5
544.925	797.5
545.139	802.5
545.352	825.5
545.566	833.5
545.779	792.5
545.993	802.5
546.206	819.5
546.42	810.5
546.633	805.5
546.847	802.5
547.06	824.5
547.274	812.5
547.487	824.5
547.7	804.5
547.914	829.5
548.127	797.5
548.34	805.5
548.554	792.5
548.767	795.5
548.98	805.5
549.193	810.5
549.407	784.5
549.62	767.5
549.833	789.5
550.046	784.5
550.259	807.5
550.473	767.5
550.686	790.5
550.899	772.5
551.112	789.5
551.325	786.5
551.538	777.5
551.751	753.5
551.964	737.5
552.177	782.5
552.39	781.5
552.603	777.5
552.816	789.5
553.029	761.5
553.242	791.5
553.455	793.5
553.667	818.5
553.88	787.5
554.093	772.5
554.306	777.5
554.519	772.5
554.732	772.5
554.944	750.5
555.157	755.5
555.37	754.5
555.583	739.5
555.795	757.5
556.008	744.5
556.221	735.5
556.433	706.5
556.646	708.5
556.859	711.5
557.071	718.5
557.284	701.5
557.496	707.5
557.709	699.5
557.921	714.5
558.134	738.5
558.346	690.5
558.559	694.5
558.771	671.5
558.984	693.5
559.196	671.5
559.409	680.5
559.621	689.5
559.833	643.5
560.046	679.5
560.258	692.5
560.47	654.5
560.683	676.5
560.895	670.5
561.107	681.5
561.32	641.5
561.532	681.5
561.744	678.5
561.956	690.5
562.168	676.5
562.381	680.5
562.593	676.5
562.805	662.5
563.017	652.5
563.229	657.5
563.441	669.5
563.653	670.5
563.865	668.5
564.077	667.5
564.289	675.5
564.501	697.5
564.713	670.5
564.925	675.5
565.137	672.5
565.349	682.5
565.561	693.5
565.773	698.5
565.985	679.5
566.197	697.5
566.408	720.5
566.62	739.5
566.832	752.5
567.044	729.5
567.255	720.5
567.467	737.5
567.679	755.5
567.891	775.5
568.102	742.5
568.314	738.5
568.526	701.5
568.737	695.5
568.949	666.5
569.161	644.5
569.372	638.5
569.584	633.5
569.795	644.5
570.007	625.5
570.218	626.5
570.43	598.5
570.641	606.5
570.853	628.5
571.064	610.5
571.276	610.5
571.487	592.5
571.698	571.5
571.91	578.5
572.121	556.5
572.333	580.5
572.544	576.5
572.755	554.5
572.966	569.5
573.178	527.5
573.389	552.5
573.6	563.5
573.811	549.5
574.023	537.5
574.234	535.5
574.445	526.5
574.656	537.5
574.867	541.5
575.078	533.5
575.289	527.5
575.501	523.5
575.712	508.5
575.923	506.5
576.134	500.5
576.345	510.5
576.556	507.5
576.767	497.5
576.978	500.5
577.188	507.5
577.399	513.5
577.61	529.5
577.821	498.5
578.032	491.5
578.243	495.5
578.454	489.5
578.665	486.5
578.875	481.5
579.086	503.5
579.297	488.5
579.508	490.5
579.718	454.5
579.929	481.5
580.14	477.5
580.35	491.5
580.561	452.5
580.772	458.5
580.982	473.5
581.193	468.5
581.403	474.5
581.614	486.5
581.825	462.5
582.035	464.5
582.246	464.5
582.456	465.5
582.667	455.5
582.877	468.5
583.087	486.5
583.298	453.5
583.508	459.5
583.719	461.5
583.929	453.5
584.139	442.5
584.35	452.5
584.56	461.5
584.77	466.5
584.981	463.5
585.191	452.5
585.401	448.5
585.611	421.5
585.821	430.5
586.032	425.5
586.242	453.5
586.452	438.5
586.662	431.5
586.872	460.5
587.082	423.5
587.292	435.5
587.502	410.5
587.713	420.5
587.923	448.5
588.133	432.5
588.343	421.5
588.553	423.5
588.762	444.5
588.972	447.5
589.182	503.5
589.392	480.5
589.602	441.5
589.812	479.5
590.022	451.5
590.232	421.5
590.441	433.5
590.651	414.5
590.861	411.5
591.071	437.5
591.281	408.5
591.49	433.5
591.7	428.5
591.91	423.5
592.119	409.5
592.329	427.5
592.539	425.5
592.748	418.5
592.958	436.5
593.167	426.5
593.377	411.5
593.587	425.5
593.796	437.5
594.006	431.5
594.215	426.5
594.424	442.5
594.634	399.5
594.843	402.5
595.053	407.5
595.262	427.5
595.472	410.5
595.681	409.5
595.89	409.5
596.1	403.5
596.309	403.5
596.518	384.5
596.727	397.5
596.937	382.5
597.146	395.5
597.355	365.5
597.564	375.5
597.774	378.5
597.983	370.5
598.192	360.5
598.401	355.5
598.61	379.5
598.819	369.5
599.028	379.5
599.237	360.5
599.446	361.5
599.655	365.5
599.864	370.5
600.073	331.5
600.282	362.5
600.491	358.5
600.7	352.5
600.909	347.5
601.118	359.5
601.327	364.5
601.536	366.5
601.745	335.5
601.953	383.5
602.162	375.5
602.371	377.5
602.58	353.5
602.789	358.5
602.997	346.5
603.206	340.5
603.415	349.5
603.623	331.5
603.832	364.5
604.041	350.5
604.249	355.5
604.458	338.5
604.666	321.5
604.875	329.5
605.084	345.5
605.292	325.5
605.501	336.5
605.709	327.5
605.918	317.5
606.126	338.5
606.334	337.5
606.543	345.5
606.751	336.5
606.96	336.5
607.168	336.5
607.376	323.5
607.585	341.5
607.793	335.5
608.001	329.5
608.21	333.5
608.418	350.5
608.626	331.5
608.834	339.5
609.043	329.5
609.251	336.5
609.459	314.5
609.667	323.5
609.875	331.5
610.083	318.5
610.291	343.5
610.499	320.5
610.707	314.5
610.916	300.5
611.124	295.5
611.332	312.5
611.54	307.5
611.748	317.5
611.955	309.5
612.163	303.5
612.371	312.5
612.579	317.5
612.787	315.5
612.995	287.5
613.203	320.5
613.411	311.5
613.618	309.5
613.826	302.5
614.034	315.5
614.242	310.5
614.449	308.5
614.657	315.5
614.865	306.5
615.072	319.5
615.28	313.5
615.488	330.5
615.695	300.5
615.903	293.5
616.111	309.5
616.318	317.5
616.526	312.5
616.733	307.5
616.941	308.5
617.148	307.5
617.356	324.5
617.563	295.5
617.771	297.5
617.978	304.5
618.185	309.5
618.393	295.5
618.6	296.5
618.807	296.5
619.015	292.5
619.222	313.5
619.429	295.5
619.637	304.5
619.844	281.5
620.051	295.5
620.258	314.5
620.466	296.5
620.673	284.5
620.88	267.5
621.087	275.5
621.294	308.5
621.501	294.5
621.708	290.5
621.915	282.5
622.122	266.5
622.329	262.5
622.536	293.5
622.743	284.5
622.95	281.5
623.157	284.5
623.364	276.5
623.571	284.5
623.778	269.5
623.985	281.5
624.192	288.5
624.399	264.5
624.606	261.5
624.812	269.5
625.019	270.5
625.226	284.5
625.433	267.5
625.639	269.5
625.846	276.5
626.053	257.5
626.259	270.5
626.466	253.5
626.673	260.5
626.879	255.5
627.086	260.5
627.293	266.5
627.499	251.5
627.706	272.5
627.912	273.5
628.119	246.5
628.325	252.5
628.532	268.5
628.738	251.5
628.945	260.5
629.151	255.5
629.357	232.5
629.564	229.5
629.77	249.5
629.976	258.5
630.183	244.5
630.389	268.5
630.595	251.5
630.802	231.5
631.008	242.5
631.214	247.5
631.42	241.5
631.627	244.5
631.833	261.5
632.039	246.5
632.245	227.5
632.451	252.5
632.657	255.5
632.863	247.5
633.069	251.5
633.275	234.5
633.481	233.5
633.688	226.5
633.893	229.5
634.099	240.5
634.305	232.5
634.511	256.5
634.717	244.5
634.923	226.5
635.129	243.5
635.335	220.5
635.541	227.5
635.747	236.5
635.952	258.5
636.158	220.5
636.364	243.5
636.57	234.5
636.775	231.5
636.981	250.5
637.187	231.5
637.392	221.5
637.598	233.5
637.804	222.5
638.009	239.5
638.215	228.5
638.421	218.5
638.626	218.5
638.832	244.5
639.037	232.5
639.243	216.5
639.448	225.5
639.654	229.5
639.859	220.5
640.065	220.5
640.27	227.5
640.475	223.5
640.681	231.5
640.886	220.5
641.091	213.5
641.297	229.5
641.502	208.5
641.707	215.5
641.913	218.5
642.118	226.5
642.323	217.5
642.528	216.5
642.733	215.5
642.939	220.5
643.144	204.5
643.349	208.5
643.554	230.5
643.759	241.5
643.964	219.5
644.169	224.5
644.374	226.5
644.579	225.5
644.784	199.5
644.989	218.5
645.194	203.5
645.399	214.5
645.604	225.5
645.809	220.5
646.014	227.5
646.219	211.5
646.423	208.5
646.628	220.5
646.833	216.5
647.038	223.5
647.243	227.5
647.447	225.5
647.652	221.5
647.857	218.5
648.062	233.5
648.266	216.5
648.471	198.5
648.676	230.5
648.88	217.5
649.085	210.5
649.289	224.5
649.494	211.5
649.698	189.5
649.903	215.5
650.107	220.5
650.312	207.5
650.516	210.5
650.721	200.5
650.925	207.5
651.13	224.5
651.334	205.5
651.539	204.5
651.743	188.5
651.947	203.5
652.152	225.5
652.356	201.5
652.56	186.5
652.764	203.5
652.969	191.5
653.173	212.5
653.377	184.5
653.581	199.5
653.785	192.5
653.99	177.5
654.194	190.5
654.398	184.5
654.602	189.5
654.806	172.5
655.01	183.5
655.214	182.5
655.418	184.5
655.622	172.5
655.826	181.5
656.03	170.5
656.234	166.5
656.438	185.5
656.642	162.5
656.846	173.5
657.049	175.5
657.253	164.5
657.457	153.5
657.661	136.5
657.865	154.5
658.068	142.5
658.272	144.5
658.476	145.5
658.68	131.5
658.883	118.5
659.087	124.5
659.291	146.5
659.494	112.5
659.698	125.5
659.901	113.5
660.105	127.5
660.309	114.5
660.512	115.5
660.716	106.5
660.919	94.5
661.123	106.5
661.326	109.5
661.53	105.5
661.733	111.5
661.936	102.5
662.14	92.5
662.343	97.5
662.546	95.5
662.75	87.5
662.953	95.5
663.156	83.5
663.36	87.5
663.563	93.5
663.766	96.5
663.969	103.5
664.173	72.5
664.376	78.5
664.579	67.5
664.782	73.5
664.985	77.5
665.188	81.5
665.391	80.5
665.594	93.5
665.797	75.5
666	79.5
666.203	77.5
666.406	81.5
666.609	85.5
666.812	89.5
667.015	84.5
667.218	84.5
667.421	90.5
667.624	85.5
667.827	77.5
668.03	85.5
668.232	76.5
668.435	81.5
668.638	77.5
668.841	90.5
669.043	84.5
669.246	73.5
669.449	80.5
669.651	72.5
669.854	74.5
670.057	79.5
670.259	65.5
670.462	87.5
670.665	67.5
670.867	93.5
671.07	76.5
671.272	74.5
671.475	85.5
671.677	83.5
671.88	76.5
672.082	97.5
672.284	82.5
672.487	63.5
672.689	70.5
672.892	78.5
