Data from Ni(NO3)2Standard.Agarose3%.GreenCap.LampEnergy5.5.E.O_HRD10591_14-41-46-188.txt Node
Date: Mon Jul 22 14:41:46 EDT 2019
User: cochatt
Spectrometer: HR+D1059
Trigger mode: 1
Integration Time (sec): 1.000000E-1
Scans to average: 1
Electric dark correction enabled: true
Nonlinearity correction enabled: false
Boxcar width: 0
XAxis mode: Wavelengths
Number of Pixels in Spectrum: 2048
>>>>>Begin Spectral Data<<<<<
223.165	-9.12
223.4	-9.12
223.635	-9.12
223.869	-2.12
224.104	-24.12
224.338	-16.12
224.573	-11.12
224.808	-17.12
225.042	-5.12
225.277	-18.12
225.511	3.88
225.746	2.88
225.98	11.88
226.215	12.88
226.449	8.88
226.683	24.88
226.918	16.88
227.152	20.88
227.387	43.88
227.621	45.88
227.856	42.88
228.09	57.88
228.324	46.88
228.559	61.88
228.793	51.88
229.027	61.88
229.262	75.88
229.496	65.88
229.73	78.88
229.964	73.88
230.199	65.88
230.433	67.88
230.667	81.88
230.901	99.88
231.136	84.88
231.37	85.88
231.604	75.88
231.838	78.88
232.072	71.88
232.306	94.88
232.541	100.88
232.775	87.88
233.009	78.88
233.243	78.88
233.477	83.88
233.711	97.88
233.945	80.88
234.179	85.88
234.413	85.88
234.647	94.88
234.881	67.88
235.115	81.88
235.349	98.88
235.583	82.88
235.817	91.88
236.051	97.88
236.285	94.88
236.519	59.88
236.753	81.88
236.987	92.88
237.221	77.88
237.455	64.88
237.689	93.88
237.922	80.88
238.156	70.88
238.39	83.88
238.624	78.88
238.858	95.88
239.091	78.88
239.325	93.88
239.559	85.88
239.793	78.88
240.027	89.88
240.26	69.88
240.494	85.88
240.728	77.88
240.961	81.88
241.195	81.88
241.429	70.88
241.662	86.88
241.896	89.88
242.13	86.88
242.363	83.88
242.597	73.88
242.83	71.88
243.064	91.88
243.298	71.88
243.531	80.88
243.765	86.88
243.998	90.88
244.232	91.88
244.465	85.88
244.699	84.88
244.932	69.88
245.166	88.88
245.399	90.88
245.633	86.88
245.866	81.88
246.099	82.88
246.333	83.88
246.566	73.88
246.8	70.88
247.033	94.88
247.266	80.88
247.5	80.88
247.733	81.88
247.966	86.88
248.2	90.88
248.433	93.88
248.666	81.88
248.899	85.88
249.133	107.88
249.366	84.88
249.599	84.88
249.832	81.88
250.066	89.88
250.299	71.88
250.532	59.88
250.765	84.88
250.998	72.88
251.231	86.88
251.465	92.88
251.698	79.88
251.931	86.88
252.164	77.88
252.397	95.88
252.63	86.88
252.863	94.88
253.096	78.88
253.329	86.88
253.562	82.88
253.795	85.88
254.028	88.88
254.261	87.88
254.494	93.88
254.727	78.88
254.96	89.88
255.193	61.88
255.426	84.88
255.659	81.88
255.892	100.88
256.124	76.88
256.357	89.88
256.59	92.88
256.823	87.88
257.056	81.88
257.289	82.88
257.521	93.88
257.754	87.88
257.987	93.88
258.22	81.88
258.452	93.88
258.685	84.88
258.918	76.88
259.151	86.88
259.383	86.88
259.616	88.88
259.849	83.88
260.081	85.88
260.314	96.88
260.547	91.88
260.779	86.88
261.012	80.88
261.244	83.88
261.477	81.88
261.71	87.88
261.942	86.88
262.175	87.88
262.407	69.88
262.64	95.88
262.872	82.88
263.105	91.88
263.337	100.88
263.57	91.88
263.802	85.88
264.035	86.88
264.267	80.88
264.499	84.88
264.732	101.88
264.964	96.88
265.197	98.88
265.429	97.88
265.661	77.88
265.894	83.88
266.126	94.88
266.358	75.88
266.591	80.88
266.823	89.88
267.055	91.88
267.287	93.88
267.52	84.88
267.752	91.88
267.984	86.88
268.216	88.88
268.448	91.88
268.681	92.88
268.913	88.88
269.145	93.88
269.377	92.88
269.609	83.88
269.841	88.88
270.073	93.88
270.306	86.88
270.538	80.88
270.77	85.88
271.002	101.88
271.234	92.88
271.466	73.88
271.698	91.88
271.93	81.88
272.162	102.88
272.394	92.88
272.626	92.88
272.858	89.88
273.09	85.88
273.322	84.88
273.553	88.88
273.785	107.88
274.017	102.88
274.249	88.88
274.481	93.88
274.713	94.88
274.945	93.88
275.176	95.88
275.408	94.88
275.64	88.88
275.872	81.88
276.104	75.88
276.335	76.88
276.567	93.88
276.799	81.88
277.031	92.88
277.262	73.88
277.494	91.88
277.726	94.88
277.957	94.88
278.189	80.88
278.421	83.88
278.652	91.88
278.884	84.88
279.115	72.88
279.347	88.88
279.579	87.88
279.81	82.88
280.042	95.88
280.273	83.88
280.505	89.88
280.736	81.88
280.968	80.88
281.199	79.88
281.431	87.88
281.662	83.88
281.894	91.88
282.125	84.88
282.356	97.88
282.588	92.88
282.819	88.88
283.051	86.88
283.282	75.88
283.513	88.88
283.745	84.88
283.976	91.88
284.207	90.88
284.439	95.88
284.67	84.88
284.901	90.88
285.132	87.88
285.364	91.88
285.595	81.88
285.826	88.88
286.057	98.88
286.288	83.88
286.52	87.88
286.751	86.88
286.982	93.88
287.213	95.88
287.444	76.88
287.675	85.88
287.906	95.88
288.138	88.88
288.369	97.88
288.6	101.88
288.831	99.88
289.062	83.88
289.293	92.88
289.524	89.88
289.755	76.88
289.986	94.88
290.217	108.88
290.448	86.88
290.679	88.88
290.91	90.88
291.141	97.88
291.371	100.88
291.602	92.88
291.833	85.88
292.064	81.88
292.295	79.88
292.526	102.88
292.757	107.88
292.987	89.88
293.218	91.88
293.449	89.88
293.68	87.88
293.91	90.88
294.141	91.88
294.372	80.88
294.603	85.88
294.833	83.88
295.064	96.88
295.295	89.88
295.525	88.88
295.756	94.88
295.987	93.88
296.217	88.88
296.448	85.88
296.679	93.88
296.909	86.88
297.14	94.88
297.37	92.88
297.601	79.88
297.831	81.88
298.062	79.88
298.292	91.88
298.523	90.88
298.753	92.88
298.984	88.88
299.214	100.88
299.445	76.88
299.675	84.88
299.905	87.88
300.136	79.88
300.366	77.88
300.597	92.88
300.827	90.88
301.057	92.88
301.288	92.88
301.518	89.88
301.748	89.88
301.979	96.88
302.209	77.88
302.439	96.88
302.669	100.88
302.9	81.88
303.13	103.88
303.36	90.88
303.59	98.88
303.82	104.88
304.051	91.88
304.281	86.88
304.511	92.88
304.741	108.88
304.971	91.88
305.201	82.88
305.431	86.88
305.661	80.88
305.891	86.88
306.121	97.88
306.352	91.88
306.582	99.88
306.812	86.88
307.042	87.88
307.272	80.88
307.502	89.88
307.731	102.88
307.961	92.88
308.191	87.88
308.421	91.88
308.651	102.88
308.881	96.88
309.111	91.88
309.341	81.88
309.571	85.88
309.8	88.88
310.03	97.88
310.26	91.88
310.49	90.88
310.72	96.88
310.949	91.88
311.179	79.88
311.409	81.88
311.639	94.88
311.868	97.88
312.098	91.88
312.328	103.88
312.557	98.88
312.787	96.88
313.017	94.88
313.246	88.88
313.476	78.88
313.706	92.88
313.935	85.88
314.165	104.88
314.394	90.88
314.624	79.88
314.853	93.88
315.083	77.88
315.312	84.88
315.542	96.88
315.771	85.88
316.001	99.88
316.23	99.88
316.46	86.88
316.689	84.88
316.919	83.88
317.148	91.88
317.377	81.88
317.607	93.88
317.836	94.88
318.065	96.88
318.295	101.88
318.524	93.88
318.753	98.88
318.983	81.88
319.212	81.88
319.441	95.88
319.67	93.88
319.9	90.88
320.129	95.88
320.358	88.88
320.587	95.88
320.816	91.88
321.046	95.88
321.275	92.88
321.504	96.88
321.733	101.88
321.962	107.88
322.191	85.88
322.42	97.88
322.649	83.88
322.878	87.88
323.108	97.88
323.337	103.88
323.566	81.88
323.795	96.88
324.024	89.88
324.253	93.88
324.482	105.88
324.71	83.88
324.939	89.88
325.168	80.88
325.397	87.88
325.626	94.88
325.855	118.88
326.084	96.88
326.313	99.88
326.542	104.88
326.77	104.88
326.999	83.88
327.228	86.88
327.457	100.88
327.686	95.88
327.914	89.88
328.143	94.88
328.372	87.88
328.6	81.88
328.829	107.88
329.058	79.88
329.287	87.88
329.515	92.88
329.744	89.88
329.972	69.88
330.201	91.88
330.43	103.88
330.658	96.88
330.887	101.88
331.115	86.88
331.344	100.88
331.572	98.88
331.801	95.88
332.03	94.88
332.258	96.88
332.486	97.88
332.715	97.88
332.943	84.88
333.172	71.88
333.4	79.88
333.629	77.88
333.857	85.88
334.085	86.88
334.314	105.88
334.542	96.88
334.771	81.88
334.999	87.88
335.227	86.88
335.455	80.88
335.684	92.88
335.912	75.88
336.14	79.88
336.369	85.88
336.597	105.88
336.825	90.88
337.053	95.88
337.281	81.88
337.51	78.88
337.738	100.88
337.966	99.88
338.194	88.88
338.422	100.88
338.65	94.88
338.878	105.88
339.106	93.88
339.334	98.88
339.562	95.88
339.79	92.88
340.018	90.88
340.246	92.88
340.474	82.88
340.702	95.88
340.93	85.88
341.158	74.88
341.386	83.88
341.614	91.88
341.842	81.88
342.07	84.88
342.298	98.88
342.526	92.88
342.754	95.88
342.981	89.88
343.209	100.88
343.437	84.88
343.665	100.88
343.893	94.88
344.12	102.88
344.348	96.88
344.576	85.88
344.804	92.88
345.031	99.88
345.259	99.88
345.487	99.88
345.714	102.88
345.942	78.88
346.17	87.88
346.397	99.88
346.625	80.88
346.853	84.88
347.08	81.88
347.308	94.88
347.535	87.88
347.763	89.88
347.99	94.88
348.218	97.88
348.445	84.88
348.673	103.88
348.9	89.88
349.128	94.88
349.355	84.88
349.583	87.88
349.81	75.88
350.037	93.88
350.265	87.88
350.492	89.88
350.72	73.88
350.947	93.88
351.174	90.88
351.402	87.88
351.629	97.88
351.856	97.88
352.083	95.88
352.311	99.88
352.538	84.88
352.765	97.88
352.992	104.88
353.22	95.88
353.447	104.88
353.674	105.88
353.901	104.88
354.128	85.88
354.355	86.88
354.583	89.88
354.81	91.88
355.037	101.88
355.264	78.88
355.491	97.88
355.718	106.88
355.945	96.88
356.172	98.88
356.399	106.88
356.626	99.88
356.853	93.88
357.08	106.88
357.307	90.88
357.534	95.88
357.761	96.88
357.988	90.88
358.215	87.88
358.441	85.88
358.668	96.88
358.895	86.88
359.122	95.88
359.349	82.88
359.576	87.88
359.802	94.88
360.029	97.88
360.256	93.88
360.483	86.88
360.709	94.88
360.936	97.88
361.163	78.88
361.39	92.88
361.616	79.88
361.843	102.88
362.07	91.88
362.296	104.88
362.523	94.88
362.749	99.88
362.976	106.88
363.203	103.88
363.429	77.88
363.656	91.88
363.882	95.88
364.109	85.88
364.335	93.88
364.562	76.88
364.788	89.88
365.015	89.88
365.241	91.88
365.468	91.88
365.694	85.88
365.92	95.88
366.147	96.88
366.373	97.88
366.599	82.88
366.826	94.88
367.052	84.88
367.278	78.88
367.505	77.88
367.731	81.88
367.957	86.88
368.184	88.88
368.41	86.88
368.636	91.88
368.862	78.88
369.089	81.88
369.315	90.88
369.541	94.88
369.767	86.88
369.993	86.88
370.219	93.88
370.445	80.88
370.672	89.88
370.898	92.88
371.124	91.88
371.35	89.88
371.576	68.88
371.802	80.88
372.028	75.88
372.254	95.88
372.48	84.88
372.706	85.88
372.932	86.88
373.158	94.88
373.384	85.88
373.61	90.88
373.835	79.88
374.061	100.88
374.287	81.88
374.513	92.88
374.739	88.88
374.965	95.88
375.191	89.88
375.416	84.88
375.642	86.88
375.868	79.88
376.094	97.88
376.319	89.88
376.545	85.88
376.771	97.88
376.997	96.88
377.222	88.88
377.448	91.88
377.674	94.88
377.899	92.88
378.125	91.88
378.35	93.88
378.576	100.88
378.802	93.88
379.027	81.88
379.253	91.88
379.478	80.88
379.704	92.88
379.929	93.88
380.155	85.88
380.38	81.88
380.606	85.88
380.831	84.88
381.057	88.88
381.282	91.88
381.507	81.88
381.733	85.88
381.958	96.88
382.184	92.88
382.409	91.88
382.634	98.88
382.86	85.88
383.085	96.88
383.31	92.88
383.535	91.88
383.761	72.88
383.986	88.88
384.211	85.88
384.436	91.88
384.662	101.88
384.887	84.88
385.112	87.88
385.337	76.88
385.562	93.88
385.787	91.88
386.013	90.88
386.238	86.88
386.463	106.88
386.688	96.88
386.913	94.88
387.138	90.88
387.363	89.88
387.588	88.88
387.813	88.88
388.038	86.88
388.263	91.88
388.488	92.88
388.713	90.88
388.938	88.88
389.163	95.88
389.387	89.88
389.612	84.88
389.837	91.88
390.062	92.88
390.287	84.88
390.512	78.88
390.736	89.88
390.961	83.88
391.186	81.88
391.411	85.88
391.636	91.88
391.86	78.88
392.085	92.88
392.31	94.88
392.534	77.88
392.759	81.88
392.984	86.88
393.208	98.88
393.433	89.88
393.658	96.88
393.882	78.88
394.107	91.88
394.331	91.88
394.556	76.88
394.78	73.88
395.005	76.88
395.229	96.88
395.454	96.88
395.678	97.88
395.903	92.88
396.127	95.88
396.352	97.88
396.576	85.88
396.801	96.88
397.025	93.88
397.249	99.88
397.474	91.88
397.698	77.88
397.922	90.88
398.147	94.88
398.371	97.88
398.595	99.88
398.82	93.88
399.044	96.88
399.268	89.88
399.492	80.88
399.717	94.88
399.941	99.88
400.165	92.88
400.389	88.88
400.613	86.88
400.837	92.88
401.062	79.88
401.286	100.88
401.51	95.88
401.734	80.88
401.958	89.88
402.182	91.88
402.406	80.88
402.63	81.88
402.854	85.88
403.078	102.88
403.302	77.88
403.526	88.88
403.75	97.88
403.974	88.88
404.198	87.88
404.422	88.88
404.645	98.88
404.869	93.88
405.093	103.88
405.317	91.88
405.541	85.88
405.765	86.88
405.988	85.88
406.212	102.88
406.436	97.88
406.66	94.88
406.883	80.88
407.107	89.88
407.331	90.88
407.555	78.88
407.778	81.88
408.002	90.88
408.226	90.88
408.449	92.88
408.673	79.88
408.896	88.88
409.12	93.88
409.344	99.88
409.567	81.88
409.791	96.88
410.014	95.88
410.238	91.88
410.461	101.88
410.685	112.88
410.908	92.88
411.132	100.88
411.355	75.88
411.578	79.88
411.802	88.88
412.025	87.88
412.249	103.88
412.472	79.88
412.695	84.88
412.919	91.88
413.142	93.88
413.365	91.88
413.589	79.88
413.812	75.88
414.035	91.88
414.258	87.88
414.482	84.88
414.705	96.88
414.928	98.88
415.151	101.88
415.374	88.88
415.597	82.88
415.821	93.88
416.044	91.88
416.267	73.88
416.49	82.88
416.713	89.88
416.936	87.88
417.159	91.88
417.382	90.88
417.605	83.88
417.828	84.88
418.051	80.88
418.274	89.88
418.497	87.88
418.72	97.88
418.943	88.88
419.166	79.88
419.389	97.88
419.611	87.88
419.834	77.88
420.057	89.88
420.28	75.88
420.503	77.88
420.726	88.88
420.948	90.88
421.171	87.88
421.394	100.88
421.617	88.88
421.839	97.88
422.062	92.88
422.285	86.88
422.507	83.88
422.73	85.88
422.953	84.88
423.175	86.88
423.398	79.88
423.621	85.88
423.843	88.88
424.066	90.88
424.288	86.88
424.511	80.88
424.733	88.88
424.956	90.88
425.178	84.88
425.401	89.88
425.623	82.88
425.846	91.88
426.068	93.88
426.291	86.88
426.513	91.88
426.735	89.88
426.958	94.88
427.18	71.88
427.402	87.88
427.625	105.88
427.847	100.88
428.069	87.88
428.292	88.88
428.514	95.88
428.736	95.88
428.958	93.88
429.181	91.88
429.403	93.88
429.625	76.88
429.847	72.88
430.069	95.88
430.292	92.88
430.514	84.88
430.736	95.88
430.958	99.88
431.18	89.88
431.402	80.88
431.624	93.88
431.846	105.88
432.068	98.88
432.29	81.88
432.512	94.88
432.734	87.88
432.956	89.88
433.178	100.88
433.4	88.88
433.622	92.88
433.844	91.88
434.066	81.88
434.287	85.88
434.509	84.88
434.731	82.88
434.953	80.88
435.175	87.88
435.397	86.88
435.618	83.88
435.84	95.88
436.062	101.88
436.284	87.88
436.505	98.88
436.727	84.88
436.949	89.88
437.17	107.88
437.392	99.88
437.614	76.88
437.835	80.88
438.057	84.88
438.278	89.88
438.5	91.88
438.721	91.88
438.943	86.88
439.165	72.88
439.386	93.88
439.608	82.88
439.829	80.88
440.05	110.88
440.272	97.88
440.493	89.88
440.715	92.88
440.936	101.88
441.158	90.88
441.379	85.88
441.6	91.88
441.822	79.88
442.043	84.88
442.264	87.88
442.486	89.88
442.707	89.88
442.928	99.88
443.149	87.88
443.371	95.88
443.592	82.88
443.813	96.88
444.034	96.88
444.255	93.88
444.476	97.88
444.698	95.88
444.919	92.88
445.14	179.88
445.361	147.88
445.582	108.88
445.803	84.88
446.024	81.88
446.245	97.88
446.466	89.88
446.687	83.88
446.908	79.88
447.129	77.88
447.35	80.88
447.571	79.88
447.792	86.88
448.013	101.88
448.234	98.88
448.455	80.88
448.675	86.88
448.896	100.88
449.117	81.88
449.338	96.88
449.559	92.88
449.779	87.88
450	91.88
450.221	96.88
450.442	93.88
450.662	100.88
450.883	82.88
451.104	97.88
451.324	88.88
451.545	94.88
451.766	81.88
451.986	79.88
452.207	87.88
452.428	94.88
452.648	95.88
452.869	86.88
453.089	91.88
453.31	91.88
453.53	76.88
453.751	92.88
453.971	94.88
454.192	87.88
454.412	84.88
454.633	86.88
454.853	79.88
455.073	90.88
455.294	89.88
455.514	102.88
455.734	84.88
455.955	93.88
456.175	71.88
456.395	71.88
456.616	94.88
456.836	92.88
457.056	102.88
457.276	89.88
457.497	87.88
457.717	95.88
457.937	91.88
458.157	92.88
458.377	93.88
458.598	98.88
458.818	89.88
459.038	85.88
459.258	104.88
459.478	82.88
459.698	96.88
459.918	92.88
460.138	70.88
460.358	81.88
460.578	92.88
460.798	81.88
461.018	79.88
461.238	88.88
461.458	113.88
461.678	105.88
461.898	95.88
462.118	99.88
462.338	83.88
462.558	94.88
462.777	80.88
462.997	84.88
463.217	105.88
463.437	90.88
463.657	86.88
463.876	92.88
464.096	99.88
464.316	90.88
464.536	100.88
464.755	97.88
464.975	91.88
465.195	86.88
465.414	91.88
465.634	87.88
465.854	85.88
466.073	97.88
466.293	93.88
466.512	88.88
466.732	83.88
466.951	94.88
467.171	76.88
467.391	107.88
467.61	93.88
467.829	93.88
468.049	84.88
468.268	79.88
468.488	76.88
468.707	92.88
468.927	92.88
469.146	93.88
469.365	90.88
469.585	103.88
469.804	82.88
470.023	97.88
470.243	95.88
470.462	96.88
470.681	89.88
470.901	84.88
471.12	88.88
471.339	103.88
471.558	98.88
471.777	97.88
471.997	79.88
472.216	96.88
472.435	91.88
472.654	110.88
472.873	99.88
473.092	89.88
473.311	93.88
473.53	93.88
473.749	76.88
473.968	91.88
474.187	100.88
474.406	84.88
474.625	78.88
474.844	88.88
475.063	89.88
475.282	85.88
475.501	82.88
475.72	83.88
475.939	97.88
476.158	97.88
476.377	87.88
476.596	99.88
476.814	95.88
477.033	95.88
477.252	106.88
477.471	92.88
477.69	92.88
477.908	97.88
478.127	81.88
478.346	93.88
478.564	94.88
478.783	80.88
479.002	100.88
479.22	92.88
479.439	93.88
479.658	99.88
479.876	91.88
480.095	91.88
480.313	95.88
480.532	93.88
480.751	95.88
480.969	90.88
481.188	102.88
481.406	106.88
481.624	109.88
481.843	111.88
482.061	89.88
482.28	86.88
482.498	81.88
482.717	92.88
482.935	84.88
483.153	87.88
483.372	93.88
483.59	96.88
483.808	95.88
484.027	97.88
484.245	93.88
484.463	104.88
484.681	106.88
484.9	104.88
485.118	97.88
485.336	96.88
485.554	102.88
485.772	88.88
485.99	94.88
486.209	82.88
486.427	102.88
486.645	104.88
486.863	97.88
487.081	89.88
487.299	101.88
487.517	94.88
487.735	92.88
487.953	95.88
488.171	82.88
488.389	95.88
488.607	127.88
488.825	98.88
489.043	107.88
489.261	93.88
489.479	93.88
489.696	83.88
489.914	98.88
490.132	85.88
490.35	88.88
490.568	93.88
490.786	94.88
491.003	96.88
491.221	96.88
491.439	102.88
491.657	94.88
491.874	115.88
492.092	102.88
492.31	103.88
492.527	97.88
492.745	104.88
492.963	99.88
493.18	102.88
493.398	97.88
493.615	84.88
493.833	98.88
494.05	91.88
494.268	112.88
494.485	88.88
494.703	88.88
494.92	86.88
495.138	92.88
495.355	97.88
495.573	111.88
495.79	93.88
496.008	96.88
496.225	84.88
496.442	99.88
496.66	94.88
496.877	88.88
497.094	91.88
497.312	108.88
497.529	95.88
497.746	93.88
497.963	95.88
498.181	107.88
498.398	99.88
498.615	94.88
498.832	99.88
499.049	105.88
499.267	116.88
499.484	105.88
499.701	104.88
499.918	111.88
500.135	111.88
500.352	125.88
500.569	127.88
500.786	123.88
501.003	104.88
501.22	112.88
501.437	107.88
501.654	97.88
501.871	110.88
502.088	108.88
502.305	118.88
502.522	112.88
502.739	108.88
502.956	102.88
503.172	85.88
503.389	80.88
503.606	109.88
503.823	93.88
504.04	104.88
504.256	106.88
504.473	111.88
504.69	108.88
504.907	104.88
505.123	95.88
505.34	81.88
505.557	90.88
505.773	100.88
505.99	102.88
506.207	100.88
506.423	100.88
506.64	97.88
506.856	99.88
507.073	93.88
507.289	95.88
507.506	98.88
507.722	103.88
507.939	91.88
508.155	93.88
508.372	101.88
508.588	88.88
508.805	85.88
509.021	90.88
509.238	97.88
509.454	100.88
509.67	91.88
509.887	96.88
510.103	90.88
510.319	94.88
510.536	101.88
510.752	88.88
510.968	85.88
511.184	89.88
511.401	84.88
511.617	89.88
511.833	96.88
512.049	96.88
512.265	86.88
512.481	102.88
512.698	87.88
512.914	114.88
513.13	92.88
513.346	97.88
513.562	94.88
513.778	93.88
513.994	86.88
514.21	91.88
514.426	97.88
514.642	98.88
514.858	89.88
515.074	96.88
515.29	103.88
515.506	91.88
515.721	95.88
515.937	88.88
516.153	114.88
516.369	108.88
516.585	85.88
516.801	92.88
517.016	77.88
517.232	99.88
517.448	93.88
517.664	104.88
517.879	102.88
518.095	101.88
518.311	84.88
518.527	95.88
518.742	101.88
518.958	82.88
519.173	88.88
519.389	89.88
519.605	90.88
519.82	91.88
520.036	102.88
520.251	113.88
520.467	99.88
520.682	97.88
520.898	85.88
521.113	99.88
521.329	100.88
521.544	111.88
521.76	100.88
521.975	96.88
522.19	91.88
522.406	91.88
522.621	88.88
522.836	90.88
523.052	92.88
523.267	93.88
523.482	90.88
523.698	93.88
523.913	91.88
524.128	93.88
524.343	98.88
524.559	88.88
524.774	99.88
524.989	101.88
525.204	98.88
525.419	113.88
525.634	98.88
525.849	104.88
526.064	97.88
526.28	90.88
526.495	110.88
526.71	102.88
526.925	98.88
527.14	101.88
527.355	118.88
527.57	89.88
527.785	82.88
527.999	90.88
528.214	89.88
528.429	88.88
528.644	82.88
528.859	104.88
529.074	95.88
529.289	99.88
529.503	108.88
529.718	94.88
529.933	78.88
530.148	108.88
530.363	99.88
530.577	85.88
530.792	93.88
531.007	87.88
531.221	97.88
531.436	99.88
531.651	106.88
531.865	94.88
532.08	91.88
532.295	100.88
532.509	89.88
532.724	99.88
532.938	100.88
533.153	95.88
533.367	92.88
533.582	101.88
533.796	95.88
534.011	82.88
534.225	107.88
534.44	91.88
534.654	101.88
534.868	91.88
535.083	94.88
535.297	101.88
535.511	93.88
535.726	111.88
535.94	103.88
536.154	93.88
536.369	74.88
536.583	91.88
536.797	99.88
537.011	85.88
537.225	97.88
537.44	103.88
537.654	107.88
537.868	80.88
538.082	85.88
538.296	94.88
538.51	98.88
538.724	90.88
538.938	97.88
539.153	93.88
539.367	105.88
539.581	91.88
539.795	95.88
540.009	94.88
540.222	90.88
540.436	98.88
540.65	96.88
540.864	100.88
541.078	87.88
541.292	101.88
541.506	100.88
541.72	84.88
541.934	91.88
542.147	94.88
542.361	99.88
542.575	97.88
542.789	96.88
543.002	96.88
543.216	99.88
543.43	82.88
543.644	91.88
543.857	95.88
544.071	100.88
544.285	95.88
544.498	91.88
544.712	107.88
544.925	97.88
545.139	107.88
545.352	96.88
545.566	83.88
545.779	86.88
545.993	87.88
546.206	92.88
546.42	94.88
546.633	104.88
546.847	94.88
547.06	100.88
547.274	87.88
547.487	94.88
547.7	97.88
547.914	93.88
548.127	88.88
548.34	83.88
548.554	104.88
548.767	96.88
548.98	95.88
549.193	116.88
549.407	92.88
549.62	101.88
549.833	92.88
550.046	101.88
550.259	95.88
550.473	83.88
550.686	95.88
550.899	99.88
551.112	111.88
551.325	98.88
551.538	86.88
551.751	96.88
551.964	81.88
552.177	79.88
552.39	95.88
552.603	83.88
552.816	90.88
553.029	95.88
553.242	92.88
553.455	104.88
553.667	102.88
553.88	86.88
554.093	99.88
554.306	99.88
554.519	103.88
554.732	99.88
554.944	94.88
555.157	91.88
555.37	104.88
555.583	83.88
555.795	87.88
556.008	95.88
556.221	100.88
556.433	103.88
556.646	106.88
556.859	101.88
557.071	93.88
557.284	82.88
557.496	100.88
557.709	81.88
557.921	97.88
558.134	100.88
558.346	105.88
558.559	109.88
558.771	107.88
558.984	91.88
559.196	89.88
559.409	107.88
559.621	95.88
559.833	92.88
560.046	94.88
560.258	107.88
560.47	94.88
560.683	86.88
560.895	96.88
561.107	89.88
561.32	80.88
561.532	100.88
561.744	91.88
561.956	100.88
562.168	87.88
562.381	86.88
562.593	96.88
562.805	82.88
563.017	88.88
563.229	98.88
563.441	96.88
563.653	85.88
563.865	96.88
564.077	100.88
564.289	89.88
564.501	96.88
564.713	98.88
564.925	90.88
565.137	85.88
565.349	108.88
565.561	100.88
565.773	99.88
565.985	91.88
566.197	95.88
566.408	95.88
566.62	91.88
566.832	97.88
567.044	89.88
567.255	108.88
567.467	103.88
567.679	96.88
567.891	97.88
568.102	92.88
568.314	100.88
568.526	88.88
568.737	106.88
568.949	98.88
569.161	100.88
569.372	82.88
569.584	84.88
569.795	96.88
570.007	89.88
570.218	88.88
570.43	99.88
570.641	93.88
570.853	94.88
571.064	91.88
571.276	91.88
571.487	92.88
571.698	86.88
571.91	93.88
572.121	91.88
572.333	88.88
572.544	101.88
572.755	92.88
572.966	86.88
573.178	102.88
573.389	94.88
573.6	85.88
573.811	94.88
574.023	100.88
574.234	91.88
574.445	97.88
574.656	98.88
574.867	99.88
575.078	82.88
575.289	86.88
575.501	84.88
575.712	96.88
575.923	88.88
576.134	97.88
576.345	86.88
576.556	90.88
576.767	88.88
576.978	98.88
577.188	96.88
577.399	96.88
577.61	89.88
577.821	95.88
578.032	93.88
578.243	90.88
578.454	91.88
578.665	96.88
578.875	101.88
579.086	100.88
579.297	81.88
579.508	102.88
579.718	83.88
579.929	113.88
580.14	97.88
580.35	82.88
580.561	101.88
580.772	108.88
580.982	79.88
581.193	81.88
581.403	87.88
581.614	87.88
581.825	83.88
582.035	87.88
582.246	92.88
582.456	92.88
582.667	96.88
582.877	96.88
583.087	94.88
583.298	86.88
583.508	85.88
583.719	100.88
583.929	87.88
584.139	85.88
584.35	100.88
584.56	87.88
584.77	108.88
584.981	99.88
585.191	77.88
585.401	93.88
585.611	85.88
585.821	104.88
586.032	91.88
586.242	91.88
586.452	99.88
586.662	85.88
586.872	96.88
587.082	74.88
587.292	83.88
587.502	99.88
587.713	102.88
587.923	108.88
588.133	92.88
588.343	86.88
588.553	87.88
588.762	89.88
588.972	97.88
589.182	97.88
589.392	95.88
589.602	91.88
589.812	85.88
590.022	104.88
590.232	91.88
590.441	88.88
590.651	92.88
590.861	77.88
591.071	109.88
591.281	79.88
591.49	86.88
591.7	89.88
591.91	95.88
592.119	87.88
592.329	96.88
592.539	95.88
592.748	86.88
592.958	92.88
593.167	85.88
593.377	90.88
593.587	103.88
593.796	97.88
594.006	87.88
594.215	98.88
594.424	92.88
594.634	94.88
594.843	95.88
595.053	85.88
595.262	76.88
595.472	91.88
595.681	87.88
595.89	93.88
596.1	91.88
596.309	80.88
596.518	98.88
596.727	95.88
596.937	92.88
597.146	91.88
597.355	90.88
597.564	94.88
597.774	84.88
597.983	71.88
598.192	76.88
598.401	73.88
598.61	83.88
598.819	88.88
599.028	104.88
599.237	94.88
599.446	97.88
599.655	99.88
599.864	88.88
600.073	85.88
600.282	84.88
600.491	85.88
600.7	86.88
600.909	93.88
601.118	85.88
601.327	95.88
601.536	100.88
601.745	91.88
601.953	87.88
602.162	89.88
602.371	101.88
602.58	101.88
602.789	104.88
602.997	93.88
603.206	102.88
603.415	99.88
603.623	86.88
603.832	92.88
604.041	103.88
604.249	79.88
604.458	85.88
604.666	91.88
604.875	94.88
605.084	97.88
605.292	98.88
605.501	88.88
605.709	99.88
605.918	99.88
606.126	76.88
606.334	91.88
606.543	94.88
606.751	101.88
606.96	99.88
607.168	83.88
607.376	63.88
607.585	86.88
607.793	96.88
608.001	90.88
608.21	92.88
608.418	87.88
608.626	93.88
608.834	86.88
609.043	73.88
609.251	85.88
609.459	94.88
609.667	103.88
609.875	92.88
610.083	81.88
610.291	76.88
610.499	85.88
610.707	90.88
610.916	96.88
611.124	99.88
611.332	102.88
611.54	89.88
611.748	93.88
611.955	94.88
612.163	83.88
612.371	98.88
612.579	71.88
612.787	80.88
612.995	91.88
613.203	85.88
613.411	90.88
613.618	95.88
613.826	95.88
614.034	97.88
614.242	91.88
614.449	87.88
614.657	85.88
614.865	95.88
615.072	87.88
615.28	97.88
615.488	69.88
615.695	91.88
615.903	83.88
616.111	83.88
616.318	89.88
616.526	77.88
616.733	77.88
616.941	81.88
617.148	96.88
617.356	100.88
617.563	88.88
617.771	100.88
617.978	103.88
618.185	92.88
618.393	86.88
618.6	86.88
618.807	87.88
619.015	89.88
619.222	76.88
619.429	87.88
619.637	103.88
619.844	108.88
620.051	76.88
620.258	96.88
620.466	85.88
620.673	84.88
620.88	86.88
621.087	73.88
621.294	93.88
621.501	86.88
621.708	87.88
621.915	86.88
622.122	91.88
622.329	91.88
622.536	84.88
622.743	97.88
622.95	93.88
623.157	83.88
623.364	83.88
623.571	78.88
623.778	91.88
623.985	93.88
624.192	106.88
624.399	101.88
624.606	80.88
624.812	92.88
625.019	93.88
625.226	95.88
625.433	100.88
625.639	85.88
625.846	92.88
626.053	89.88
626.259	92.88
626.466	99.88
626.673	88.88
626.879	75.88
627.086	80.88
627.293	96.88
627.499	86.88
627.706	87.88
627.912	80.88
628.119	88.88
628.325	82.88
628.532	94.88
628.738	80.88
628.945	78.88
629.151	80.88
629.357	75.88
629.564	79.88
629.77	89.88
629.976	87.88
630.183	92.88
630.389	82.88
630.595	80.88
630.802	89.88
631.008	87.88
631.214	91.88
631.42	96.88
631.627	103.88
631.833	99.88
632.039	94.88
632.245	88.88
632.451	100.88
632.657	106.88
632.863	87.88
633.069	78.88
633.275	89.88
633.481	78.88
633.688	93.88
633.893	76.88
634.099	70.88
634.305	79.88
634.511	83.88
634.717	95.88
634.923	91.88
635.129	91.88
635.335	90.88
635.541	79.88
635.747	100.88
635.952	89.88
636.158	94.88
636.364	82.88
636.57	90.88
636.775	89.88
636.981	89.88
637.187	76.88
637.392	86.88
637.598	76.88
637.804	87.88
638.009	71.88
638.215	90.88
638.421	98.88
638.626	77.88
638.832	91.88
639.037	92.88
639.243	79.88
639.448	92.88
639.654	92.88
639.859	99.88
640.065	80.88
640.27	88.88
640.475	93.88
640.681	93.88
640.886	88.88
641.091	90.88
641.297	89.88
641.502	81.88
641.707	83.88
641.913	85.88
642.118	95.88
642.323	84.88
642.528	96.88
642.733	103.88
642.939	90.88
643.144	87.88
643.349	84.88
643.554	82.88
643.759	90.88
643.964	96.88
644.169	75.88
644.374	99.88
644.579	87.88
644.784	82.88
644.989	105.88
645.194	84.88
645.399	86.88
645.604	83.88
645.809	98.88
646.014	71.88
646.219	79.88
646.423	100.88
646.628	88.88
646.833	89.88
647.038	90.88
647.243	99.88
647.447	98.88
647.652	81.88
647.857	73.88
648.062	87.88
648.266	90.88
648.471	88.88
648.676	97.88
648.88	81.88
649.085	88.88
649.289	94.88
649.494	83.88
649.698	86.88
649.903	84.88
650.107	74.88
650.312	89.88
650.516	86.88
650.721	96.88
650.925	95.88
651.13	85.88
651.334	99.88
651.539	83.88
651.743	78.88
651.947	84.88
652.152	99.88
652.356	85.88
652.56	100.88
652.764	83.88
652.969	76.88
653.173	81.88
653.377	94.88
653.581	81.88
653.785	83.88
653.99	80.88
654.194	94.88
654.398	85.88
654.602	78.88
654.806	71.88
655.01	84.88
655.214	83.88
655.418	80.88
655.622	89.88
655.826	82.88
656.03	83.88
656.234	100.88
656.438	95.88
656.642	87.88
656.846	88.88
657.049	93.88
657.253	96.88
657.457	86.88
657.661	86.88
657.865	80.88
658.068	68.88
658.272	80.88
658.476	95.88
658.68	86.88
658.883	85.88
659.087	87.88
659.291	80.88
659.494	97.88
659.698	92.88
659.901	95.88
660.105	76.88
660.309	81.88
660.512	86.88
660.716	77.88
660.919	102.88
661.123	93.88
661.326	83.88
661.53	84.88
661.733	81.88
661.936	86.88
662.14	82.88
662.343	71.88
662.546	78.88
662.75	62.88
662.953	97.88
663.156	81.88
663.36	93.88
663.563	90.88
663.766	83.88
663.969	99.88
664.173	92.88
664.376	77.88
664.579	88.88
664.782	89.88
664.985	91.88
665.188	76.88
665.391	87.88
665.594	89.88
665.797	87.88
666	81.88
666.203	89.88
666.406	82.88
666.609	86.88
666.812	84.88
667.015	87.88
667.218	90.88
667.421	89.88
667.624	77.88
667.827	87.88
668.03	87.88
668.232	85.88
668.435	105.88
668.638	92.88
668.841	79.88
669.043	84.88
669.246	88.88
669.449	85.88
669.651	95.88
669.854	83.88
670.057	81.88
670.259	82.88
670.462	80.88
670.665	89.88
670.867	94.88
671.07	84.88
671.272	72.88
671.475	85.88
671.677	77.88
671.88	79.88
672.082	96.88
672.284	95.88
672.487	84.88
672.689	79.88
672.892	79.88
