Data from Ni(NO3)2Standard.Agarose3%.GreenCap.LampEnergy5.5.E.O_HRD10591_14-40-51-188.txt Node
Date: Mon Jul 22 14:40:51 EDT 2019
User: cochatt
Spectrometer: HR+D1059
Trigger mode: 1
Integration Time (sec): 1.000000E-1
Scans to average: 1
Electric dark correction enabled: true
Nonlinearity correction enabled: false
Boxcar width: 0
XAxis mode: Wavelengths
Number of Pixels in Spectrum: 2048
>>>>>Begin Spectral Data<<<<<
223.165	-17.25
223.4	-17.25
223.635	-17.25
223.869	-28.25
224.104	-24.25
224.338	-7.25
224.573	-10.25
224.808	-2.25
225.042	-7.25
225.277	-11.25
225.511	-12.25
225.746	7.75
225.98	15.75
226.215	7.75
226.449	11.75
226.683	7.75
226.918	35.75
227.152	33.75
227.387	21.75
227.621	39.75
227.856	46.75
228.09	36.75
228.324	54.75
228.559	59.75
228.793	50.75
229.027	64.75
229.262	56.75
229.496	50.75
229.73	76.75
229.964	73.75
230.199	83.75
230.433	81.75
230.667	73.75
230.901	73.75
231.136	86.75
231.37	87.75
231.604	85.75
231.838	86.75
232.072	83.75
232.306	87.75
232.541	91.75
232.775	77.75
233.009	76.75
233.243	80.75
233.477	72.75
233.711	76.75
233.945	78.75
234.179	76.75
234.413	83.75
234.647	77.75
234.881	86.75
235.115	77.75
235.349	69.75
235.583	84.75
235.817	75.75
236.051	64.75
236.285	90.75
236.519	87.75
236.753	75.75
236.987	69.75
237.221	87.75
237.455	75.75
237.689	66.75
237.922	82.75
238.156	71.75
238.39	77.75
238.624	66.75
238.858	93.75
239.091	90.75
239.325	72.75
239.559	71.75
239.793	81.75
240.027	87.75
240.26	72.75
240.494	70.75
240.728	85.75
240.961	77.75
241.195	77.75
241.429	83.75
241.662	73.75
241.896	64.75
242.13	75.75
242.363	70.75
242.597	75.75
242.83	82.75
243.064	70.75
243.298	82.75
243.531	77.75
243.765	80.75
243.998	73.75
244.232	73.75
244.465	81.75
244.699	80.75
244.932	70.75
245.166	71.75
245.399	78.75
245.633	71.75
245.866	71.75
246.099	70.75
246.333	81.75
246.566	82.75
246.8	77.75
247.033	93.75
247.266	84.75
247.5	80.75
247.733	63.75
247.966	86.75
248.2	82.75
248.433	60.75
248.666	81.75
248.899	85.75
249.133	78.75
249.366	80.75
249.599	66.75
249.832	80.75
250.066	85.75
250.299	82.75
250.532	80.75
250.765	86.75
250.998	84.75
251.231	87.75
251.465	77.75
251.698	76.75
251.931	87.75
252.164	86.75
252.397	67.75
252.63	63.75
252.863	87.75
253.096	76.75
253.329	76.75
253.562	75.75
253.795	84.75
254.028	74.75
254.261	77.75
254.494	80.75
254.727	75.75
254.96	87.75
255.193	82.75
255.426	78.75
255.659	84.75
255.892	85.75
256.124	76.75
256.357	71.75
256.59	83.75
256.823	73.75
257.056	79.75
257.289	88.75
257.521	85.75
257.754	75.75
257.987	76.75
258.22	93.75
258.452	77.75
258.685	80.75
258.918	83.75
259.151	73.75
259.383	91.75
259.616	75.75
259.849	72.75
260.081	78.75
260.314	81.75
260.547	81.75
260.779	79.75
261.012	85.75
261.244	76.75
261.477	78.75
261.71	87.75
261.942	83.75
262.175	89.75
262.407	68.75
262.64	94.75
262.872	84.75
263.105	75.75
263.337	88.75
263.57	80.75
263.802	84.75
264.035	89.75
264.267	74.75
264.499	87.75
264.732	72.75
264.964	68.75
265.197	83.75
265.429	77.75
265.661	82.75
265.894	86.75
266.126	83.75
266.358	79.75
266.591	86.75
266.823	84.75
267.055	95.75
267.287	92.75
267.52	84.75
267.752	86.75
267.984	69.75
268.216	71.75
268.448	86.75
268.681	82.75
268.913	82.75
269.145	83.75
269.377	88.75
269.609	94.75
269.841	85.75
270.073	87.75
270.306	80.75
270.538	94.75
270.77	71.75
271.002	93.75
271.234	77.75
271.466	88.75
271.698	93.75
271.93	74.75
272.162	89.75
272.394	84.75
272.626	78.75
272.858	91.75
273.09	90.75
273.322	81.75
273.553	88.75
273.785	83.75
274.017	80.75
274.249	75.75
274.481	67.75
274.713	92.75
274.945	95.75
275.176	72.75
275.408	87.75
275.64	94.75
275.872	72.75
276.104	77.75
276.335	81.75
276.567	81.75
276.799	84.75
277.031	90.75
277.262	84.75
277.494	82.75
277.726	81.75
277.957	79.75
278.189	81.75
278.421	77.75
278.652	83.75
278.884	85.75
279.115	81.75
279.347	71.75
279.579	89.75
279.81	78.75
280.042	93.75
280.273	76.75
280.505	74.75
280.736	77.75
280.968	87.75
281.199	65.75
281.431	82.75
281.662	77.75
281.894	87.75
282.125	88.75
282.356	80.75
282.588	86.75
282.819	81.75
283.051	89.75
283.282	93.75
283.513	84.75
283.745	92.75
283.976	81.75
284.207	88.75
284.439	81.75
284.67	80.75
284.901	74.75
285.132	83.75
285.364	82.75
285.595	92.75
285.826	78.75
286.057	89.75
286.288	74.75
286.52	83.75
286.751	80.75
286.982	72.75
287.213	83.75
287.444	86.75
287.675	77.75
287.906	82.75
288.138	79.75
288.369	92.75
288.6	71.75
288.831	80.75
289.062	87.75
289.293	90.75
289.524	85.75
289.755	71.75
289.986	72.75
290.217	84.75
290.448	87.75
290.679	68.75
290.91	72.75
291.141	96.75
291.371	80.75
291.602	93.75
291.833	82.75
292.064	73.75
292.295	87.75
292.526	79.75
292.757	95.75
292.987	89.75
293.218	72.75
293.449	75.75
293.68	74.75
293.91	73.75
294.141	89.75
294.372	96.75
294.603	100.75
294.833	82.75
295.064	82.75
295.295	93.75
295.525	90.75
295.756	89.75
295.987	87.75
296.217	68.75
296.448	84.75
296.679	89.75
296.909	75.75
297.14	87.75
297.37	94.75
297.601	84.75
297.831	81.75
298.062	95.75
298.292	95.75
298.523	96.75
298.753	97.75
298.984	90.75
299.214	100.75
299.445	83.75
299.675	81.75
299.905	89.75
300.136	79.75
300.366	89.75
300.597	79.75
300.827	90.75
301.057	81.75
301.288	93.75
301.518	91.75
301.748	80.75
301.979	96.75
302.209	103.75
302.439	100.75
302.669	89.75
302.9	100.75
303.13	88.75
303.36	87.75
303.59	71.75
303.82	80.75
304.051	83.75
304.281	93.75
304.511	91.75
304.741	82.75
304.971	88.75
305.201	77.75
305.431	91.75
305.661	93.75
305.891	73.75
306.121	100.75
306.352	67.75
306.582	76.75
306.812	82.75
307.042	89.75
307.272	78.75
307.502	97.75
307.731	87.75
307.961	92.75
308.191	89.75
308.421	72.75
308.651	89.75
308.881	84.75
309.111	74.75
309.341	85.75
309.571	91.75
309.8	88.75
310.03	85.75
310.26	69.75
310.49	92.75
310.72	76.75
310.949	86.75
311.179	83.75
311.409	93.75
311.639	87.75
311.868	86.75
312.098	83.75
312.328	84.75
312.557	96.75
312.787	92.75
313.017	80.75
313.246	87.75
313.476	69.75
313.706	88.75
313.935	85.75
314.165	84.75
314.394	92.75
314.624	90.75
314.853	92.75
315.083	90.75
315.312	84.75
315.542	87.75
315.771	97.75
316.001	92.75
316.23	97.75
316.46	86.75
316.689	79.75
316.919	79.75
317.148	83.75
317.377	88.75
317.607	87.75
317.836	84.75
318.065	88.75
318.295	74.75
318.524	88.75
318.753	92.75
318.983	85.75
319.212	87.75
319.441	73.75
319.67	83.75
319.9	81.75
320.129	86.75
320.358	91.75
320.587	77.75
320.816	77.75
321.046	83.75
321.275	92.75
321.504	80.75
321.733	87.75
321.962	83.75
322.191	84.75
322.42	80.75
322.649	87.75
322.878	92.75
323.108	81.75
323.337	85.75
323.566	90.75
323.795	81.75
324.024	89.75
324.253	85.75
324.482	83.75
324.71	82.75
324.939	87.75
325.168	85.75
325.397	73.75
325.626	85.75
325.855	82.75
326.084	73.75
326.313	83.75
326.542	76.75
326.77	86.75
326.999	85.75
327.228	107.75
327.457	85.75
327.686	88.75
327.914	96.75
328.143	81.75
328.372	90.75
328.6	86.75
328.829	86.75
329.058	88.75
329.287	99.75
329.515	77.75
329.744	76.75
329.972	85.75
330.201	69.75
330.43	76.75
330.658	90.75
330.887	86.75
331.115	85.75
331.344	74.75
331.572	89.75
331.801	81.75
332.03	84.75
332.258	88.75
332.486	81.75
332.715	91.75
332.943	88.75
333.172	78.75
333.4	100.75
333.629	91.75
333.857	90.75
334.085	89.75
334.314	84.75
334.542	79.75
334.771	92.75
334.999	85.75
335.227	92.75
335.455	80.75
335.684	83.75
335.912	92.75
336.14	79.75
336.369	77.75
336.597	84.75
336.825	92.75
337.053	74.75
337.281	93.75
337.51	90.75
337.738	106.75
337.966	77.75
338.194	83.75
338.422	75.75
338.65	99.75
338.878	97.75
339.106	94.75
339.334	89.75
339.562	73.75
339.79	84.75
340.018	82.75
340.246	76.75
340.474	99.75
340.702	81.75
340.93	78.75
341.158	90.75
341.386	79.75
341.614	81.75
341.842	91.75
342.07	78.75
342.298	97.75
342.526	100.75
342.754	84.75
342.981	84.75
343.209	85.75
343.437	95.75
343.665	91.75
343.893	70.75
344.12	78.75
344.348	77.75
344.576	82.75
344.804	76.75
345.031	83.75
345.259	84.75
345.487	82.75
345.714	82.75
345.942	107.75
346.17	77.75
346.397	73.75
346.625	103.75
346.853	84.75
347.08	81.75
347.308	85.75
347.535	77.75
347.763	88.75
347.99	91.75
348.218	88.75
348.445	71.75
348.673	79.75
348.9	78.75
349.128	89.75
349.355	91.75
349.583	87.75
349.81	79.75
350.037	86.75
350.265	81.75
350.492	96.75
350.72	97.75
350.947	94.75
351.174	71.75
351.402	91.75
351.629	92.75
351.856	84.75
352.083	90.75
352.311	71.75
352.538	75.75
352.765	102.75
352.992	92.75
353.22	83.75
353.447	84.75
353.674	77.75
353.901	86.75
354.128	88.75
354.355	79.75
354.583	90.75
354.81	80.75
355.037	79.75
355.264	77.75
355.491	73.75
355.718	81.75
355.945	77.75
356.172	80.75
356.399	85.75
356.626	92.75
356.853	86.75
357.08	98.75
357.307	83.75
357.534	88.75
357.761	88.75
357.988	89.75
358.215	103.75
358.441	89.75
358.668	86.75
358.895	85.75
359.122	84.75
359.349	87.75
359.576	79.75
359.802	97.75
360.029	80.75
360.256	95.75
360.483	87.75
360.709	92.75
360.936	101.75
361.163	95.75
361.39	70.75
361.616	85.75
361.843	87.75
362.07	88.75
362.296	89.75
362.523	84.75
362.749	79.75
362.976	93.75
363.203	88.75
363.429	91.75
363.656	93.75
363.882	91.75
364.109	96.75
364.335	89.75
364.562	69.75
364.788	81.75
365.015	75.75
365.241	97.75
365.468	88.75
365.694	77.75
365.92	93.75
366.147	91.75
366.373	86.75
366.599	75.75
366.826	81.75
367.052	88.75
367.278	85.75
367.505	93.75
367.731	88.75
367.957	81.75
368.184	90.75
368.41	100.75
368.636	71.75
368.862	90.75
369.089	87.75
369.315	90.75
369.541	84.75
369.767	100.75
369.993	81.75
370.219	78.75
370.445	88.75
370.672	85.75
370.898	84.75
371.124	88.75
371.35	88.75
371.576	78.75
371.802	85.75
372.028	85.75
372.254	96.75
372.48	83.75
372.706	90.75
372.932	75.75
373.158	73.75
373.384	87.75
373.61	92.75
373.835	91.75
374.061	77.75
374.287	84.75
374.513	68.75
374.739	85.75
374.965	88.75
375.191	92.75
375.416	78.75
375.642	99.75
375.868	91.75
376.094	88.75
376.319	87.75
376.545	86.75
376.771	78.75
376.997	73.75
377.222	77.75
377.448	93.75
377.674	81.75
377.899	90.75
378.125	78.75
378.35	81.75
378.576	86.75
378.802	90.75
379.027	93.75
379.253	79.75
379.478	87.75
379.704	81.75
379.929	90.75
380.155	82.75
380.38	87.75
380.606	78.75
380.831	79.75
381.057	99.75
381.282	89.75
381.507	98.75
381.733	88.75
381.958	93.75
382.184	92.75
382.409	89.75
382.634	90.75
382.86	89.75
383.085	99.75
383.31	87.75
383.535	100.75
383.761	76.75
383.986	90.75
384.211	73.75
384.436	79.75
384.662	92.75
384.887	95.75
385.112	97.75
385.337	76.75
385.562	84.75
385.787	90.75
386.013	104.75
386.238	74.75
386.463	95.75
386.688	85.75
386.913	79.75
387.138	78.75
387.363	85.75
387.588	84.75
387.813	67.75
388.038	76.75
388.263	92.75
388.488	75.75
388.713	82.75
388.938	81.75
389.163	78.75
389.387	99.75
389.612	92.75
389.837	82.75
390.062	89.75
390.287	88.75
390.512	75.75
390.736	79.75
390.961	83.75
391.186	77.75
391.411	93.75
391.636	83.75
391.86	80.75
392.085	76.75
392.31	89.75
392.534	76.75
392.759	84.75
392.984	94.75
393.208	81.75
393.433	81.75
393.658	83.75
393.882	80.75
394.107	87.75
394.331	94.75
394.556	89.75
394.78	80.75
395.005	82.75
395.229	92.75
395.454	87.75
395.678	92.75
395.903	76.75
396.127	97.75
396.352	83.75
396.576	82.75
396.801	72.75
397.025	84.75
397.249	77.75
397.474	99.75
397.698	88.75
397.922	90.75
398.147	90.75
398.371	87.75
398.595	82.75
398.82	83.75
399.044	89.75
399.268	97.75
399.492	97.75
399.717	90.75
399.941	89.75
400.165	81.75
400.389	86.75
400.613	84.75
400.837	84.75
401.062	89.75
401.286	97.75
401.51	85.75
401.734	76.75
401.958	77.75
402.182	94.75
402.406	87.75
402.63	86.75
402.854	85.75
403.078	73.75
403.302	79.75
403.526	69.75
403.75	83.75
403.974	88.75
404.198	79.75
404.422	90.75
404.645	92.75
404.869	85.75
405.093	81.75
405.317	72.75
405.541	78.75
405.765	90.75
405.988	81.75
406.212	75.75
406.436	80.75
406.66	97.75
406.883	79.75
407.107	68.75
407.331	80.75
407.555	92.75
407.778	97.75
408.002	81.75
408.226	85.75
408.449	84.75
408.673	90.75
408.896	87.75
409.12	80.75
409.344	88.75
409.567	80.75
409.791	90.75
410.014	68.75
410.238	77.75
410.461	76.75
410.685	89.75
410.908	90.75
411.132	97.75
411.355	96.75
411.578	88.75
411.802	84.75
412.025	86.75
412.249	88.75
412.472	91.75
412.695	86.75
412.919	86.75
413.142	96.75
413.365	84.75
413.589	99.75
413.812	99.75
414.035	97.75
414.258	84.75
414.482	95.75
414.705	82.75
414.928	92.75
415.151	94.75
415.374	90.75
415.597	65.75
415.821	87.75
416.044	77.75
416.267	86.75
416.49	76.75
416.713	84.75
416.936	85.75
417.159	102.75
417.382	95.75
417.605	74.75
417.828	92.75
418.051	84.75
418.274	83.75
418.497	89.75
418.72	81.75
418.943	82.75
419.166	97.75
419.389	84.75
419.611	63.75
419.834	92.75
420.057	84.75
420.28	63.75
420.503	68.75
420.726	85.75
420.948	89.75
421.171	82.75
421.394	94.75
421.617	81.75
421.839	72.75
422.062	79.75
422.285	81.75
422.507	90.75
422.73	83.75
422.953	88.75
423.175	94.75
423.398	86.75
423.621	87.75
423.843	78.75
424.066	89.75
424.288	88.75
424.511	96.75
424.733	76.75
424.956	84.75
425.178	93.75
425.401	79.75
425.623	68.75
425.846	90.75
426.068	84.75
426.291	81.75
426.513	93.75
426.735	84.75
426.958	94.75
427.18	79.75
427.402	77.75
427.625	94.75
427.847	98.75
428.069	67.75
428.292	70.75
428.514	92.75
428.736	79.75
428.958	74.75
429.181	82.75
429.403	77.75
429.625	95.75
429.847	91.75
430.069	104.75
430.292	87.75
430.514	91.75
430.736	89.75
430.958	66.75
431.18	76.75
431.402	72.75
431.624	77.75
431.846	96.75
432.068	84.75
432.29	81.75
432.512	82.75
432.734	88.75
432.956	84.75
433.178	84.75
433.4	94.75
433.622	84.75
433.844	71.75
434.066	83.75
434.287	69.75
434.509	91.75
434.731	86.75
434.953	84.75
435.175	79.75
435.397	79.75
435.618	91.75
435.84	69.75
436.062	91.75
436.284	78.75
436.505	83.75
436.727	70.75
436.949	80.75
437.17	92.75
437.392	74.75
437.614	72.75
437.835	89.75
438.057	89.75
438.278	83.75
438.5	82.75
438.721	75.75
438.943	75.75
439.165	85.75
439.386	78.75
439.608	89.75
439.829	82.75
440.05	99.75
440.272	92.75
440.493	91.75
440.715	83.75
440.936	72.75
441.158	85.75
441.379	94.75
441.6	100.75
441.822	93.75
442.043	101.75
442.264	80.75
442.486	84.75
442.707	90.75
442.928	90.75
443.149	100.75
443.371	88.75
443.592	87.75
443.813	86.75
444.034	80.75
444.255	86.75
444.476	85.75
444.698	84.75
444.919	93.75
445.14	191.75
445.361	135.75
445.582	93.75
445.803	86.75
446.024	75.75
446.245	83.75
446.466	97.75
446.687	97.75
446.908	84.75
447.129	95.75
447.35	84.75
447.571	87.75
447.792	70.75
448.013	83.75
448.234	77.75
448.455	107.75
448.675	80.75
448.896	109.75
449.117	84.75
449.338	88.75
449.559	83.75
449.779	82.75
450	90.75
450.221	83.75
450.442	99.75
450.662	77.75
450.883	89.75
451.104	77.75
451.324	93.75
451.545	92.75
451.766	79.75
451.986	84.75
452.207	83.75
452.428	90.75
452.648	98.75
452.869	83.75
453.089	88.75
453.31	92.75
453.53	84.75
453.751	72.75
453.971	66.75
454.192	85.75
454.412	88.75
454.633	87.75
454.853	93.75
455.073	77.75
455.294	81.75
455.514	81.75
455.734	80.75
455.955	84.75
456.175	88.75
456.395	81.75
456.616	87.75
456.836	82.75
457.056	76.75
457.276	83.75
457.497	97.75
457.717	85.75
457.937	91.75
458.157	74.75
458.377	84.75
458.598	93.75
458.818	76.75
459.038	99.75
459.258	92.75
459.478	76.75
459.698	83.75
459.918	77.75
460.138	87.75
460.358	79.75
460.578	84.75
460.798	91.75
461.018	69.75
461.238	99.75
461.458	106.75
461.678	77.75
461.898	78.75
462.118	82.75
462.338	70.75
462.558	88.75
462.777	98.75
462.997	89.75
463.217	85.75
463.437	92.75
463.657	89.75
463.876	90.75
464.096	91.75
464.316	93.75
464.536	98.75
464.755	97.75
464.975	75.75
465.195	94.75
465.414	96.75
465.634	93.75
465.854	87.75
466.073	85.75
466.293	97.75
466.512	87.75
466.732	68.75
466.951	87.75
467.171	104.75
467.391	78.75
467.61	87.75
467.829	88.75
468.049	84.75
468.268	86.75
468.488	85.75
468.707	102.75
468.927	88.75
469.146	70.75
469.365	98.75
469.585	88.75
469.804	79.75
470.023	83.75
470.243	98.75
470.462	90.75
470.681	93.75
470.901	90.75
471.12	80.75
471.339	94.75
471.558	87.75
471.777	68.75
471.997	83.75
472.216	100.75
472.435	87.75
472.654	94.75
472.873	83.75
473.092	88.75
473.311	90.75
473.53	90.75
473.749	75.75
473.968	92.75
474.187	92.75
474.406	74.75
474.625	83.75
474.844	83.75
475.063	87.75
475.282	78.75
475.501	93.75
475.72	83.75
475.939	81.75
476.158	76.75
476.377	80.75
476.596	100.75
476.814	85.75
477.033	81.75
477.252	87.75
477.471	83.75
477.69	83.75
477.908	79.75
478.127	88.75
478.346	81.75
478.564	92.75
478.783	75.75
479.002	83.75
479.22	76.75
479.439	84.75
479.658	101.75
479.876	80.75
480.095	79.75
480.313	84.75
480.532	93.75
480.751	112.75
480.969	90.75
481.188	90.75
481.406	96.75
481.624	83.75
481.843	83.75
482.061	96.75
482.28	90.75
482.498	88.75
482.717	91.75
482.935	81.75
483.153	90.75
483.372	88.75
483.59	99.75
483.808	89.75
484.027	91.75
484.245	72.75
484.463	81.75
484.681	88.75
484.9	100.75
485.118	95.75
485.336	79.75
485.554	99.75
485.772	78.75
485.99	91.75
486.209	81.75
486.427	80.75
486.645	82.75
486.863	91.75
487.081	92.75
487.299	103.75
487.517	97.75
487.735	84.75
487.953	81.75
488.171	74.75
488.389	86.75
488.607	99.75
488.825	103.75
489.043	95.75
489.261	91.75
489.479	80.75
489.696	97.75
489.914	86.75
490.132	88.75
490.35	92.75
490.568	98.75
490.786	107.75
491.003	84.75
491.221	92.75
491.439	99.75
491.657	99.75
491.874	92.75
492.092	88.75
492.31	108.75
492.527	103.75
492.745	97.75
492.963	97.75
493.18	83.75
493.398	101.75
493.615	94.75
493.833	108.75
494.05	111.75
494.268	89.75
494.485	93.75
494.703	85.75
494.92	92.75
495.138	88.75
495.355	81.75
495.573	95.75
495.79	74.75
496.008	85.75
496.225	85.75
496.442	98.75
496.66	108.75
496.877	92.75
497.094	101.75
497.312	87.75
497.529	111.75
497.746	101.75
497.963	97.75
498.181	88.75
498.398	101.75
498.615	89.75
498.832	99.75
499.049	104.75
499.267	108.75
499.484	102.75
499.701	109.75
499.918	107.75
500.135	107.75
500.352	127.75
500.569	119.75
500.786	120.75
501.003	119.75
501.22	115.75
501.437	106.75
501.654	118.75
501.871	109.75
502.088	87.75
502.305	103.75
502.522	80.75
502.739	95.75
502.956	92.75
503.172	98.75
503.389	96.75
503.606	108.75
503.823	99.75
504.04	103.75
504.256	91.75
504.473	108.75
504.69	100.75
504.907	114.75
505.123	96.75
505.34	81.75
505.557	94.75
505.773	82.75
505.99	82.75
506.207	89.75
506.423	95.75
506.64	80.75
506.856	92.75
507.073	103.75
507.289	96.75
507.506	98.75
507.722	76.75
507.939	89.75
508.155	94.75
508.372	81.75
508.588	96.75
508.805	97.75
509.021	77.75
509.238	98.75
509.454	78.75
509.67	91.75
509.887	83.75
510.103	78.75
510.319	83.75
510.536	92.75
510.752	83.75
510.968	101.75
511.184	90.75
511.401	106.75
511.617	88.75
511.833	101.75
512.049	91.75
512.265	89.75
512.481	98.75
512.698	88.75
512.914	76.75
513.13	95.75
513.346	88.75
513.562	103.75
513.778	92.75
513.994	89.75
514.21	93.75
514.426	94.75
514.642	76.75
514.858	96.75
515.074	96.75
515.29	94.75
515.506	98.75
515.721	97.75
515.937	95.75
516.153	94.75
516.369	85.75
516.585	81.75
516.801	91.75
517.016	90.75
517.232	99.75
517.448	87.75
517.664	100.75
517.879	91.75
518.095	87.75
518.311	95.75
518.527	99.75
518.742	88.75
518.958	86.75
519.173	103.75
519.389	95.75
519.605	93.75
519.82	85.75
520.036	97.75
520.251	90.75
520.467	82.75
520.682	78.75
520.898	86.75
521.113	93.75
521.329	92.75
521.544	81.75
521.76	92.75
521.975	97.75
522.19	92.75
522.406	100.75
522.621	98.75
522.836	105.75
523.052	79.75
523.267	81.75
523.482	88.75
523.698	87.75
523.913	96.75
524.128	91.75
524.343	84.75
524.559	94.75
524.774	91.75
524.989	88.75
525.204	95.75
525.419	77.75
525.634	93.75
525.849	89.75
526.064	90.75
526.28	83.75
526.495	90.75
526.71	84.75
526.925	92.75
527.14	94.75
527.355	86.75
527.57	99.75
527.785	84.75
527.999	93.75
528.214	81.75
528.429	88.75
528.644	84.75
528.859	84.75
529.074	80.75
529.289	88.75
529.503	83.75
529.718	85.75
529.933	87.75
530.148	102.75
530.363	85.75
530.577	97.75
530.792	85.75
531.007	98.75
531.221	76.75
531.436	75.75
531.651	82.75
531.865	89.75
532.08	99.75
532.295	88.75
532.509	91.75
532.724	93.75
532.938	86.75
533.153	82.75
533.367	93.75
533.582	94.75
533.796	83.75
534.011	93.75
534.225	87.75
534.44	98.75
534.654	71.75
534.868	90.75
535.083	74.75
535.297	104.75
535.511	100.75
535.726	106.75
535.94	93.75
536.154	91.75
536.369	79.75
536.583	93.75
536.797	84.75
537.011	80.75
537.225	84.75
537.44	100.75
537.654	84.75
537.868	96.75
538.082	90.75
538.296	93.75
538.51	91.75
538.724	93.75
538.938	81.75
539.153	85.75
539.367	88.75
539.581	82.75
539.795	81.75
540.009	99.75
540.222	83.75
540.436	84.75
540.65	78.75
540.864	91.75
541.078	91.75
541.292	88.75
541.506	95.75
541.72	96.75
541.934	86.75
542.147	100.75
542.361	91.75
542.575	81.75
542.789	81.75
543.002	90.75
543.216	86.75
543.43	90.75
543.644	100.75
543.857	85.75
544.071	108.75
544.285	86.75
544.498	85.75
544.712	95.75
544.925	86.75
545.139	80.75
545.352	82.75
545.566	98.75
545.779	98.75
545.993	95.75
546.206	86.75
546.42	86.75
546.633	103.75
546.847	89.75
547.06	92.75
547.274	92.75
547.487	80.75
547.7	83.75
547.914	91.75
548.127	73.75
548.34	87.75
548.554	87.75
548.767	102.75
548.98	91.75
549.193	87.75
549.407	97.75
549.62	94.75
549.833	75.75
550.046	101.75
550.259	89.75
550.473	81.75
550.686	89.75
550.899	85.75
551.112	81.75
551.325	104.75
551.538	96.75
551.751	84.75
551.964	99.75
552.177	80.75
552.39	89.75
552.603	88.75
552.816	94.75
553.029	96.75
553.242	91.75
553.455	92.75
553.667	93.75
553.88	96.75
554.093	78.75
554.306	101.75
554.519	76.75
554.732	81.75
554.944	95.75
555.157	104.75
555.37	100.75
555.583	88.75
555.795	102.75
556.008	94.75
556.221	85.75
556.433	98.75
556.646	103.75
556.859	93.75
557.071	72.75
557.284	96.75
557.496	84.75
557.709	86.75
557.921	80.75
558.134	86.75
558.346	89.75
558.559	85.75
558.771	92.75
558.984	91.75
559.196	101.75
559.409	88.75
559.621	102.75
559.833	96.75
560.046	93.75
560.258	90.75
560.47	94.75
560.683	68.75
560.895	78.75
561.107	96.75
561.32	96.75
561.532	99.75
561.744	102.75
561.956	84.75
562.168	89.75
562.381	85.75
562.593	86.75
562.805	81.75
563.017	75.75
563.229	77.75
563.441	68.75
563.653	80.75
563.865	75.75
564.077	82.75
564.289	83.75
564.501	75.75
564.713	83.75
564.925	89.75
565.137	91.75
565.349	97.75
565.561	87.75
565.773	81.75
565.985	90.75
566.197	94.75
566.408	86.75
566.62	95.75
566.832	76.75
567.044	88.75
567.255	88.75
567.467	89.75
567.679	91.75
567.891	99.75
568.102	106.75
568.314	91.75
568.526	89.75
568.737	79.75
568.949	86.75
569.161	76.75
569.372	95.75
569.584	86.75
569.795	97.75
570.007	78.75
570.218	97.75
570.43	88.75
570.641	92.75
570.853	96.75
571.064	90.75
571.276	95.75
571.487	75.75
571.698	83.75
571.91	94.75
572.121	91.75
572.333	85.75
572.544	71.75
572.755	78.75
572.966	85.75
573.178	75.75
573.389	91.75
573.6	75.75
573.811	84.75
574.023	95.75
574.234	94.75
574.445	86.75
574.656	102.75
574.867	90.75
575.078	82.75
575.289	79.75
575.501	83.75
575.712	89.75
575.923	91.75
576.134	94.75
576.345	86.75
576.556	89.75
576.767	86.75
576.978	76.75
577.188	92.75
577.399	78.75
577.61	64.75
577.821	90.75
578.032	72.75
578.243	85.75
578.454	85.75
578.665	75.75
578.875	87.75
579.086	76.75
579.297	93.75
579.508	80.75
579.718	89.75
579.929	88.75
580.14	84.75
580.35	89.75
580.561	86.75
580.772	82.75
580.982	83.75
581.193	99.75
581.403	75.75
581.614	90.75
581.825	95.75
582.035	72.75
582.246	85.75
582.456	90.75
582.667	77.75
582.877	63.75
583.087	91.75
583.298	81.75
583.508	77.75
583.719	76.75
583.929	91.75
584.139	76.75
584.35	72.75
584.56	90.75
584.77	85.75
584.981	96.75
585.191	76.75
585.401	95.75
585.611	78.75
585.821	80.75
586.032	92.75
586.242	73.75
586.452	97.75
586.662	85.75
586.872	96.75
587.082	83.75
587.292	66.75
587.502	75.75
587.713	81.75
587.923	71.75
588.133	79.75
588.343	94.75
588.553	92.75
588.762	90.75
588.972	95.75
589.182	95.75
589.392	76.75
589.602	85.75
589.812	86.75
590.022	97.75
590.232	85.75
590.441	98.75
590.651	78.75
590.861	95.75
591.071	76.75
591.281	89.75
591.49	72.75
591.7	92.75
591.91	84.75
592.119	83.75
592.329	85.75
592.539	72.75
592.748	77.75
592.958	91.75
593.167	91.75
593.377	83.75
593.587	93.75
593.796	82.75
594.006	92.75
594.215	89.75
594.424	100.75
594.634	91.75
594.843	87.75
595.053	86.75
595.262	73.75
595.472	85.75
595.681	71.75
595.89	95.75
596.1	84.75
596.309	90.75
596.518	91.75
596.727	95.75
596.937	84.75
597.146	80.75
597.355	84.75
597.564	77.75
597.774	75.75
597.983	83.75
598.192	76.75
598.401	89.75
598.61	82.75
598.819	83.75
599.028	80.75
599.237	79.75
599.446	86.75
599.655	96.75
599.864	93.75
600.073	81.75
600.282	89.75
600.491	87.75
600.7	82.75
600.909	68.75
601.118	92.75
601.327	85.75
601.536	86.75
601.745	87.75
601.953	71.75
602.162	89.75
602.371	77.75
602.58	69.75
602.789	66.75
602.997	77.75
603.206	77.75
603.415	90.75
603.623	77.75
603.832	86.75
604.041	72.75
604.249	76.75
604.458	87.75
604.666	89.75
604.875	77.75
605.084	92.75
605.292	92.75
605.501	96.75
605.709	87.75
605.918	87.75
606.126	66.75
606.334	87.75
606.543	90.75
606.751	77.75
606.96	81.75
607.168	74.75
607.376	83.75
607.585	86.75
607.793	84.75
608.001	75.75
608.21	97.75
608.418	86.75
608.626	96.75
608.834	91.75
609.043	66.75
609.251	82.75
609.459	81.75
609.667	87.75
609.875	84.75
610.083	91.75
610.291	81.75
610.499	75.75
610.707	87.75
610.916	92.75
611.124	81.75
611.332	96.75
611.54	74.75
611.748	64.75
611.955	76.75
612.163	90.75
612.371	84.75
612.579	96.75
612.787	78.75
612.995	93.75
613.203	74.75
613.411	75.75
613.618	78.75
613.826	83.75
614.034	87.75
614.242	93.75
614.449	83.75
614.657	101.75
614.865	87.75
615.072	92.75
615.28	84.75
615.488	60.75
615.695	74.75
615.903	83.75
616.111	80.75
616.318	91.75
616.526	89.75
616.733	77.75
616.941	91.75
617.148	88.75
617.356	84.75
617.563	82.75
617.771	75.75
617.978	95.75
618.185	83.75
618.393	85.75
618.6	85.75
618.807	88.75
619.015	86.75
619.222	66.75
619.429	93.75
619.637	84.75
619.844	93.75
620.051	68.75
620.258	92.75
620.466	72.75
620.673	81.75
620.88	92.75
621.087	85.75
621.294	78.75
621.501	82.75
621.708	86.75
621.915	82.75
622.122	86.75
622.329	96.75
622.536	95.75
622.743	84.75
622.95	85.75
623.157	84.75
623.364	82.75
623.571	90.75
623.778	84.75
623.985	98.75
624.192	90.75
624.399	83.75
624.606	84.75
624.812	84.75
625.019	88.75
625.226	88.75
625.433	80.75
625.639	90.75
625.846	89.75
626.053	80.75
626.259	78.75
626.466	81.75
626.673	74.75
626.879	76.75
627.086	85.75
627.293	70.75
627.499	84.75
627.706	92.75
627.912	85.75
628.119	77.75
628.325	77.75
628.532	71.75
628.738	88.75
628.945	83.75
629.151	99.75
629.357	84.75
629.564	88.75
629.77	85.75
629.976	68.75
630.183	88.75
630.389	90.75
630.595	88.75
630.802	73.75
631.008	82.75
631.214	85.75
631.42	79.75
631.627	87.75
631.833	89.75
632.039	94.75
632.245	68.75
632.451	95.75
632.657	79.75
632.863	76.75
633.069	88.75
633.275	81.75
633.481	71.75
633.688	71.75
633.893	80.75
634.099	79.75
634.305	71.75
634.511	85.75
634.717	86.75
634.923	91.75
635.129	92.75
635.335	84.75
635.541	73.75
635.747	97.75
635.952	89.75
636.158	102.75
636.364	76.75
636.57	80.75
636.775	85.75
636.981	82.75
637.187	95.75
637.392	83.75
637.598	81.75
637.804	86.75
638.009	76.75
638.215	89.75
638.421	75.75
638.626	82.75
638.832	79.75
639.037	74.75
639.243	67.75
639.448	80.75
639.654	79.75
639.859	82.75
640.065	82.75
640.27	91.75
640.475	86.75
640.681	90.75
640.886	96.75
641.091	87.75
641.297	85.75
641.502	79.75
641.707	75.75
641.913	86.75
642.118	77.75
642.323	75.75
642.528	92.75
642.733	85.75
642.939	84.75
643.144	80.75
643.349	83.75
643.554	84.75
643.759	81.75
643.964	79.75
644.169	77.75
644.374	112.75
644.579	83.75
644.784	86.75
644.989	79.75
645.194	79.75
645.399	87.75
645.604	83.75
645.809	88.75
646.014	77.75
646.219	87.75
646.423	78.75
646.628	80.75
646.833	71.75
647.038	90.75
647.243	90.75
647.447	85.75
647.652	97.75
647.857	82.75
648.062	91.75
648.266	84.75
648.471	97.75
648.676	84.75
648.88	92.75
649.085	91.75
649.289	84.75
649.494	88.75
649.698	75.75
649.903	85.75
650.107	85.75
650.312	75.75
650.516	73.75
650.721	86.75
650.925	83.75
651.13	81.75
651.334	96.75
651.539	70.75
651.743	80.75
651.947	95.75
652.152	95.75
652.356	86.75
652.56	90.75
652.764	67.75
652.969	79.75
653.173	86.75
653.377	78.75
653.581	76.75
653.785	87.75
653.99	78.75
654.194	79.75
654.398	72.75
654.602	70.75
654.806	106.75
655.01	100.75
655.214	84.75
655.418	83.75
655.622	92.75
655.826	80.75
656.03	90.75
656.234	70.75
656.438	79.75
656.642	93.75
656.846	81.75
657.049	81.75
657.253	80.75
657.457	81.75
657.661	68.75
657.865	81.75
658.068	71.75
658.272	84.75
658.476	75.75
658.68	83.75
658.883	99.75
659.087	89.75
659.291	100.75
659.494	87.75
659.698	95.75
659.901	75.75
660.105	83.75
660.309	77.75
660.512	86.75
660.716	69.75
660.919	74.75
661.123	88.75
661.326	84.75
661.53	91.75
661.733	89.75
661.936	85.75
662.14	71.75
662.343	82.75
662.546	100.75
662.75	89.75
662.953	90.75
663.156	79.75
663.36	87.75
663.563	64.75
663.766	76.75
663.969	86.75
664.173	68.75
664.376	81.75
664.579	88.75
664.782	76.75
664.985	72.75
665.188	79.75
665.391	67.75
665.594	89.75
665.797	86.75
666	76.75
666.203	87.75
666.406	65.75
666.609	80.75
666.812	75.75
667.015	71.75
667.218	80.75
667.421	82.75
667.624	84.75
667.827	84.75
668.03	67.75
668.232	74.75
668.435	72.75
668.638	71.75
668.841	81.75
669.043	91.75
669.246	82.75
669.449	81.75
669.651	65.75
669.854	92.75
670.057	80.75
670.259	93.75
670.462	81.75
670.665	74.75
670.867	79.75
671.07	87.75
671.272	75.75
671.475	84.75
671.677	90.75
671.88	81.75
672.082	80.75
672.284	78.75
672.487	74.75
672.689	86.75
672.892	85.75
