Data from Ni(NO3)2@0.0625M.TitratingCurve.Agarose3%dH2O.NegLispCup.LampEnergy10.LIBS07252019_HRD10591_18-13-29-569.txt Node
Date: Thu Jul 25 18:13:29 EDT 2019
User: cochatt
Spectrometer: HR+D1059
Trigger mode: 1
Integration Time (sec): 1.000000E-1
Scans to average: 1
Electric dark correction enabled: true
Nonlinearity correction enabled: false
Boxcar width: 0
XAxis mode: Wavelengths
Number of Pixels in Spectrum: 2048
>>>>>Begin Spectral Data<<<<<
223.165	-17.06
223.4	-17.06
223.635	-17.06
223.869	-11.06
224.104	-16.06
224.338	-21.06
224.573	-16.06
224.808	-5.06
225.042	2.94
225.277	-5.06
225.511	-4.06
225.746	4.94
225.98	19.94
226.215	5.94
226.449	15.94
226.683	11.94
226.918	8.94
227.152	24.94
227.387	49.94
227.621	46.94
227.856	46.94
228.09	41.94
228.324	46.94
228.559	64.94
228.793	68.94
229.027	80.94
229.262	89.94
229.496	88.94
229.73	86.94
229.964	104.94
230.199	106.94
230.433	115.94
230.667	108.94
230.901	130.94
231.136	118.94
231.37	118.94
231.604	115.94
231.838	121.94
232.072	130.94
232.306	124.94
232.541	133.94
232.775	117.94
233.009	126.94
233.243	131.94
233.477	120.94
233.711	118.94
233.945	124.94
234.179	126.94
234.413	125.94
234.647	127.94
234.881	125.94
235.115	121.94
235.349	118.94
235.583	111.94
235.817	118.94
236.051	122.94
236.285	136.94
236.519	128.94
236.753	111.94
236.987	109.94
237.221	100.94
237.455	124.94
237.689	137.94
237.922	133.94
238.156	135.94
238.39	132.94
238.624	144.94
238.858	120.94
239.091	132.94
239.325	147.94
239.559	148.94
239.793	139.94
240.027	137.94
240.26	143.94
240.494	132.94
240.728	143.94
240.961	162.94
241.195	143.94
241.429	152.94
241.662	143.94
241.896	152.94
242.13	145.94
242.363	134.94
242.597	138.94
242.83	153.94
243.064	149.94
243.298	147.94
243.531	139.94
243.765	156.94
243.998	153.94
244.232	169.94
244.465	158.94
244.699	152.94
244.932	164.94
245.166	153.94
245.399	155.94
245.633	162.94
245.866	148.94
246.099	166.94
246.333	163.94
246.566	166.94
246.8	151.94
247.033	176.94
247.266	162.94
247.5	178.94
247.733	158.94
247.966	180.94
248.2	176.94
248.433	161.94
248.666	177.94
248.899	185.94
249.133	184.94
249.366	182.94
249.599	179.94
249.832	198.94
250.066	186.94
250.299	179.94
250.532	183.94
250.765	192.94
250.998	187.94
251.231	188.94
251.465	193.94
251.698	185.94
251.931	176.94
252.164	192.94
252.397	202.94
252.63	191.94
252.863	195.94
253.096	207.94
253.329	186.94
253.562	204.94
253.795	209.94
254.028	217.94
254.261	202.94
254.494	205.94
254.727	199.94
254.96	192.94
255.193	202.94
255.426	208.94
255.659	200.94
255.892	212.94
256.124	224.94
256.357	195.94
256.59	216.94
256.823	202.94
257.056	192.94
257.289	215.94
257.521	219.94
257.754	213.94
257.987	214.94
258.22	230.94
258.452	228.94
258.685	243.94
258.918	219.94
259.151	208.94
259.383	226.94
259.616	207.94
259.849	225.94
260.081	225.94
260.314	228.94
260.547	226.94
260.779	214.94
261.012	234.94
261.244	226.94
261.477	237.94
261.71	246.94
261.942	214.94
262.175	240.94
262.407	239.94
262.64	243.94
262.872	230.94
263.105	248.94
263.337	237.94
263.57	242.94
263.802	263.94
264.035	233.94
264.267	243.94
264.499	254.94
264.732	249.94
264.964	255.94
265.197	250.94
265.429	244.94
265.661	257.94
265.894	237.94
266.126	249.94
266.358	241.94
266.591	275.94
266.823	254.94
267.055	250.94
267.287	242.94
267.52	248.94
267.752	264.94
267.984	260.94
268.216	258.94
268.448	262.94
268.681	267.94
268.913	281.94
269.145	259.94
269.377	258.94
269.609	276.94
269.841	267.94
270.073	252.94
270.306	275.94
270.538	258.94
270.77	283.94
271.002	243.94
271.234	266.94
271.466	267.94
271.698	263.94
271.93	264.94
272.162	265.94
272.394	271.94
272.626	276.94
272.858	283.94
273.09	284.94
273.322	306.94
273.553	287.94
273.785	282.94
274.017	281.94
274.249	290.94
274.481	292.94
274.713	299.94
274.945	287.94
275.176	296.94
275.408	299.94
275.64	294.94
275.872	278.94
276.104	276.94
276.335	289.94
276.567	313.94
276.799	291.94
277.031	306.94
277.262	308.94
277.494	299.94
277.726	295.94
277.957	309.94
278.189	322.94
278.421	306.94
278.652	297.94
278.884	302.94
279.115	313.94
279.347	304.94
279.579	307.94
279.81	318.94
280.042	311.94
280.273	314.94
280.505	318.94
280.736	310.94
280.968	312.94
281.199	313.94
281.431	306.94
281.662	318.94
281.894	311.94
282.125	307.94
282.356	329.94
282.588	322.94
282.819	334.94
283.051	328.94
283.282	320.94
283.513	313.94
283.745	329.94
283.976	329.94
284.207	341.94
284.439	355.94
284.67	342.94
284.901	344.94
285.132	336.94
285.364	327.94
285.595	332.94
285.826	347.94
286.057	341.94
286.288	341.94
286.52	332.94
286.751	340.94
286.982	334.94
287.213	352.94
287.444	360.94
287.675	351.94
287.906	364.94
288.138	364.94
288.369	350.94
288.6	366.94
288.831	359.94
289.062	341.94
289.293	359.94
289.524	370.94
289.755	347.94
289.986	363.94
290.217	370.94
290.448	366.94
290.679	362.94
290.91	365.94
291.141	349.94
291.371	370.94
291.602	369.94
291.833	366.94
292.064	374.94
292.295	381.94
292.526	386.94
292.757	375.94
292.987	366.94
293.218	378.94
293.449	368.94
293.68	348.94
293.91	373.94
294.141	359.94
294.372	355.94
294.603	380.94
294.833	374.94
295.064	391.94
295.295	376.94
295.525	386.94
295.756	382.94
295.987	360.94
296.217	376.94
296.448	403.94
296.679	397.94
296.909	384.94
297.14	379.94
297.37	396.94
297.601	375.94
297.831	397.94
298.062	401.94
298.292	406.94
298.523	414.94
298.753	415.94
298.984	394.94
299.214	395.94
299.445	382.94
299.675	407.94
299.905	414.94
300.136	416.94
300.366	396.94
300.597	404.94
300.827	414.94
301.057	439.94
301.288	417.94
301.518	443.94
301.748	421.94
301.979	412.94
302.209	443.94
302.439	406.94
302.669	426.94
302.9	397.94
303.13	419.94
303.36	402.94
303.59	380.94
303.82	392.94
304.051	398.94
304.281	406.94
304.511	407.94
304.741	424.94
304.971	407.94
305.201	404.94
305.431	404.94
305.661	411.94
305.891	398.94
306.121	399.94
306.352	404.94
306.582	420.94
306.812	377.94
307.042	394.94
307.272	420.94
307.502	399.94
307.731	392.94
307.961	397.94
308.191	383.94
308.421	413.94
308.651	415.94
308.881	394.94
309.111	390.94
309.341	400.94
309.571	418.94
309.8	406.94
310.03	376.94
310.26	398.94
310.49	392.94
310.72	403.94
310.949	395.94
311.179	386.94
311.409	410.94
311.639	402.94
311.868	399.94
312.098	419.94
312.328	418.94
312.557	404.94
312.787	416.94
313.017	415.94
313.246	443.94
313.476	415.94
313.706	415.94
313.935	430.94
314.165	425.94
314.394	438.94
314.624	423.94
314.853	408.94
315.083	423.94
315.312	441.94
315.542	431.94
315.771	422.94
316.001	418.94
316.23	413.94
316.46	430.94
316.689	421.94
316.919	410.94
317.148	415.94
317.377	421.94
317.607	409.94
317.836	427.94
318.065	425.94
318.295	414.94
318.524	398.94
318.753	415.94
318.983	414.94
319.212	416.94
319.441	411.94
319.67	423.94
319.9	415.94
320.129	411.94
320.358	415.94
320.587	430.94
320.816	446.94
321.046	415.94
321.275	427.94
321.504	438.94
321.733	434.94
321.962	404.94
322.191	415.94
322.42	408.94
322.649	430.94
322.878	422.94
323.108	416.94
323.337	427.94
323.566	433.94
323.795	433.94
324.024	431.94
324.253	426.94
324.482	423.94
324.71	443.94
324.939	441.94
325.168	425.94
325.397	432.94
325.626	428.94
325.855	440.94
326.084	452.94
326.313	471.94
326.542	476.94
326.77	473.94
326.999	472.94
327.228	468.94
327.457	479.94
327.686	440.94
327.914	449.94
328.143	475.94
328.372	438.94
328.6	446.94
328.829	458.94
329.058	459.94
329.287	455.94
329.515	467.94
329.744	491.94
329.972	460.94
330.201	464.94
330.43	469.94
330.658	475.94
330.887	483.94
331.115	478.94
331.344	485.94
331.572	484.94
331.801	500.94
332.03	484.94
332.258	522.94
332.486	519.94
332.715	557.94
332.943	586.94
333.172	597.94
333.4	616.94
333.629	616.94
333.857	611.94
334.085	625.94
334.314	607.94
334.542	570.94
334.771	591.94
334.999	571.94
335.227	569.94
335.455	554.94
335.684	579.94
335.912	578.94
336.14	563.94
336.369	571.94
336.597	571.94
336.825	563.94
337.053	559.94
337.281	558.94
337.51	529.94
337.738	524.94
337.966	536.94
338.194	514.94
338.422	495.94
338.65	498.94
338.878	514.94
339.106	495.94
339.334	524.94
339.562	504.94
339.79	489.94
340.018	494.94
340.246	479.94
340.474	490.94
340.702	457.94
340.93	491.94
341.158	500.94
341.386	493.94
341.614	507.94
341.842	472.94
342.07	457.94
342.298	480.94
342.526	482.94
342.754	463.94
342.981	483.94
343.209	490.94
343.437	529.94
343.665	538.94
343.893	588.94
344.12	614.94
344.348	588.94
344.576	528.94
344.804	510.94
345.031	498.94
345.259	500.94
345.487	474.94
345.714	511.94
345.942	503.94
346.17	475.94
346.397	475.94
346.625	470.94
346.853	454.94
347.08	466.94
347.308	474.94
347.535	496.94
347.763	489.94
347.99	471.94
348.218	481.94
348.445	472.94
348.673	484.94
348.9	474.94
349.128	496.94
349.355	466.94
349.583	450.94
349.81	447.94
350.037	445.94
350.265	457.94
350.492	451.94
350.72	455.94
350.947	444.94
351.174	448.94
351.402	454.94
351.629	477.94
351.856	479.94
352.083	455.94
352.311	458.94
352.538	443.94
352.765	453.94
352.992	459.94
353.22	463.94
353.447	442.94
353.674	456.94
353.901	448.94
354.128	449.94
354.355	451.94
354.583	454.94
354.81	459.94
355.037	473.94
355.264	447.94
355.491	450.94
355.718	448.94
355.945	467.94
356.172	448.94
356.399	478.94
356.626	458.94
356.853	476.94
357.08	468.94
357.307	467.94
357.534	467.94
357.761	466.94
357.988	471.94
358.215	453.94
358.441	446.94
358.668	472.94
358.895	446.94
359.122	465.94
359.349	442.94
359.576	456.94
359.802	463.94
360.029	452.94
360.256	475.94
360.483	470.94
360.709	454.94
360.936	471.94
361.163	470.94
361.39	436.94
361.616	447.94
361.843	455.94
362.07	460.94
362.296	469.94
362.523	453.94
362.749	457.94
362.976	461.94
363.203	443.94
363.429	440.94
363.656	448.94
363.882	442.94
364.109	444.94
364.335	460.94
364.562	442.94
364.788	472.94
365.015	453.94
365.241	469.94
365.468	468.94
365.694	445.94
365.92	447.94
366.147	446.94
366.373	454.94
366.599	439.94
366.826	458.94
367.052	450.94
367.278	470.94
367.505	482.94
367.731	472.94
367.957	454.94
368.184	445.94
368.41	479.94
368.636	469.94
368.862	454.94
369.089	449.94
369.315	483.94
369.541	464.94
369.767	467.94
369.993	480.94
370.219	479.94
370.445	492.94
370.672	466.94
370.898	483.94
371.124	488.94
371.35	509.94
371.576	504.94
371.802	505.94
372.028	480.94
372.254	503.94
372.48	484.94
372.706	516.94
372.932	512.94
373.158	536.94
373.384	517.94
373.61	510.94
373.835	498.94
374.061	500.94
374.287	517.94
374.513	507.94
374.739	510.94
374.965	534.94
375.191	553.94
375.416	565.94
375.642	539.94
375.868	533.94
376.094	531.94
376.319	494.94
376.545	482.94
376.771	506.94
376.997	502.94
377.222	519.94
377.448	505.94
377.674	510.94
377.899	503.94
378.125	489.94
378.35	492.94
378.576	489.94
378.802	494.94
379.027	496.94
379.253	494.94
379.478	497.94
379.704	481.94
379.929	490.94
380.155	467.94
380.38	485.94
380.606	466.94
380.831	483.94
381.057	486.94
381.282	476.94
381.507	503.94
381.733	492.94
381.958	507.94
382.184	488.94
382.409	520.94
382.634	491.94
382.86	496.94
383.085	539.94
383.31	542.94
383.535	542.94
383.761	553.94
383.986	553.94
384.211	564.94
384.436	584.94
384.662	593.94
384.887	580.94
385.112	578.94
385.337	586.94
385.562	582.94
385.787	606.94
386.013	603.94
386.238	587.94
386.463	602.94
386.688	593.94
386.913	578.94
387.138	577.94
387.363	577.94
387.588	578.94
387.813	572.94
388.038	575.94
388.263	577.94
388.488	597.94
388.713	588.94
388.938	568.94
389.163	546.94
389.387	562.94
389.612	554.94
389.837	576.94
390.062	550.94
390.287	574.94
390.512	594.94
390.736	561.94
390.961	593.94
391.186	603.94
391.411	613.94
391.636	636.94
391.86	668.94
392.085	663.94
392.31	644.94
392.534	638.94
392.759	625.94
392.984	623.94
393.208	607.94
393.433	606.94
393.658	647.94
393.882	599.94
394.107	608.94
394.331	641.94
394.556	643.94
394.78	616.94
395.005	642.94
395.229	651.94
395.454	646.94
395.678	670.94
395.903	653.94
396.127	648.94
396.352	607.94
396.576	605.94
396.801	627.94
397.025	611.94
397.249	624.94
397.474	646.94
397.698	659.94
397.922	666.94
398.147	651.94
398.371	658.94
398.595	662.94
398.82	719.94
399.044	768.94
399.268	856.94
399.492	973.94
399.717	1106.94
399.941	1111.94
400.165	955.94
400.389	855.94
400.613	790.94
400.837	732.94
401.062	715.94
401.286	740.94
401.51	703.94
401.734	713.94
401.958	719.94
402.182	734.94
402.406	719.94
402.63	766.94
402.854	791.94
403.078	807.94
403.302	770.94
403.526	834.94
403.75	844.94
403.974	876.94
404.198	856.94
404.422	861.94
404.645	854.94
404.869	829.94
405.093	847.94
405.317	839.94
405.541	837.94
405.765	778.94
405.988	798.94
406.212	798.94
406.436	795.94
406.66	823.94
406.883	834.94
407.107	874.94
407.331	942.94
407.555	970.94
407.778	925.94
408.002	932.94
408.226	896.94
408.449	855.94
408.673	850.94
408.896	832.94
409.12	816.94
409.344	853.94
409.567	860.94
409.791	852.94
410.014	868.94
410.238	858.94
410.461	840.94
410.685	822.94
410.908	818.94
411.132	780.94
411.355	776.94
411.578	746.94
411.802	770.94
412.025	758.94
412.249	775.94
412.472	780.94
412.695	728.94
412.919	710.94
413.142	717.94
413.365	724.94
413.589	742.94
413.812	728.94
414.035	699.94
414.258	743.94
414.482	742.94
414.705	753.94
414.928	751.94
415.151	711.94
415.374	700.94
415.597	724.94
415.821	722.94
416.044	710.94
416.267	720.94
416.49	726.94
416.713	702.94
416.936	716.94
417.159	722.94
417.382	711.94
417.605	716.94
417.828	733.94
418.051	732.94
418.274	742.94
418.497	741.94
418.72	762.94
418.943	743.94
419.166	781.94
419.389	822.94
419.611	836.94
419.834	784.94
420.057	753.94
420.28	746.94
420.503	740.94
420.726	722.94
420.948	711.94
421.171	723.94
421.394	720.94
421.617	731.94
421.839	738.94
422.062	748.94
422.285	724.94
422.507	742.94
422.73	766.94
422.953	741.94
423.175	773.94
423.398	795.94
423.621	771.94
423.843	783.94
424.066	775.94
424.288	784.94
424.511	801.94
424.733	760.94
424.956	750.94
425.178	740.94
425.401	727.94
425.623	727.94
425.846	717.94
426.068	695.94
426.291	712.94
426.513	643.94
426.735	687.94
426.958	679.94
427.18	674.94
427.402	678.94
427.625	694.94
427.847	656.94
428.069	653.94
428.292	670.94
428.514	653.94
428.736	632.94
428.958	678.94
429.181	642.94
429.403	652.94
429.625	622.94
429.847	638.94
430.069	618.94
430.292	615.94
430.514	622.94
430.736	648.94
430.958	647.94
431.18	623.94
431.402	633.94
431.624	633.94
431.846	639.94
432.068	654.94
432.29	694.94
432.512	661.94
432.734	652.94
432.956	638.94
433.178	675.94
433.4	687.94
433.622	647.94
433.844	682.94
434.066	662.94
434.287	661.94
434.509	701.94
434.731	719.94
434.953	736.94
435.175	773.94
435.397	731.94
435.618	706.94
435.84	668.94
436.062	662.94
436.284	667.94
436.505	682.94
436.727	661.94
436.949	659.94
437.17	670.94
437.392	658.94
437.614	639.94
437.835	621.94
438.057	622.94
438.278	635.94
438.5	632.94
438.721	637.94
438.943	633.94
439.165	628.94
439.386	664.94
439.608	671.94
439.829	657.94
440.05	660.94
440.272	647.94
440.493	657.94
440.715	673.94
440.936	688.94
441.158	700.94
441.379	719.94
441.6	747.94
441.822	742.94
442.043	747.94
442.264	725.94
442.486	734.94
442.707	742.94
442.928	722.94
443.149	745.94
443.371	728.94
443.592	760.94
443.813	726.94
444.034	766.94
444.255	794.94
444.476	809.94
444.698	855.94
444.919	890.94
445.14	976.94
445.361	863.94
445.582	755.94
445.803	730.94
446.024	690.94
446.245	689.94
446.466	700.94
446.687	682.94
446.908	670.94
447.129	651.94
447.35	620.94
447.571	652.94
447.792	656.94
448.013	619.94
448.234	610.94
448.455	634.94
448.675	622.94
448.896	614.94
449.117	647.94
449.338	622.94
449.559	599.94
449.779	614.94
450	624.94
450.221	611.94
450.442	626.94
450.662	638.94
450.883	652.94
451.104	640.94
451.324	651.94
451.545	648.94
451.766	637.94
451.986	635.94
452.207	632.94
452.428	635.94
452.648	628.94
452.869	602.94
453.089	601.94
453.31	617.94
453.53	597.94
453.751	588.94
453.971	604.94
454.192	606.94
454.412	586.94
454.633	580.94
454.853	580.94
455.073	592.94
455.294	578.94
455.514	580.94
455.734	581.94
455.955	581.94
456.175	564.94
456.395	589.94
456.616	556.94
456.836	580.94
457.056	567.94
457.276	551.94
457.497	553.94
457.717	562.94
457.937	598.94
458.157	583.94
458.377	592.94
458.598	616.94
458.818	612.94
459.038	603.94
459.258	647.94
459.478	657.94
459.698	690.94
459.918	730.94
460.138	741.94
460.358	772.94
460.578	774.94
460.798	796.94
461.018	810.94
461.238	766.94
461.458	801.94
461.678	792.94
461.898	764.94
462.118	807.94
462.338	824.94
462.558	858.94
462.777	868.94
462.997	986.94
463.217	1050.94
463.437	1079.94
463.657	988.94
463.876	943.94
464.096	930.94
464.316	938.94
464.536	949.94
464.755	899.94
464.975	879.94
465.195	828.94
465.414	777.94
465.634	723.94
465.854	686.94
466.073	690.94
466.293	674.94
466.512	675.94
466.732	633.94
466.951	644.94
467.171	642.94
467.391	655.94
467.61	648.94
467.829	658.94
468.049	632.94
468.268	615.94
468.488	587.94
468.707	630.94
468.927	609.94
469.146	624.94
469.365	630.94
469.585	630.94
469.804	640.94
470.023	670.94
470.243	661.94
470.462	677.94
470.681	667.94
470.901	663.94
471.12	637.94
471.339	641.94
471.558	646.94
471.777	615.94
471.997	605.94
472.216	612.94
472.435	627.94
472.654	601.94
472.873	602.94
473.092	591.94
473.311	602.94
473.53	589.94
473.749	580.94
473.968	612.94
474.187	590.94
474.406	596.94
474.625	594.94
474.844	598.94
475.063	612.94
475.282	606.94
475.501	616.94
475.72	600.94
475.939	600.94
476.158	603.94
476.377	629.94
476.596	605.94
476.814	639.94
477.033	643.94
477.252	648.94
477.471	646.94
477.69	671.94
477.908	680.94
478.127	703.94
478.346	697.94
478.564	725.94
478.783	726.94
479.002	750.94
479.22	758.94
479.439	725.94
479.658	711.94
479.876	733.94
480.095	750.94
480.313	764.94
480.532	823.94
480.751	816.94
480.969	758.94
481.188	722.94
481.406	707.94
481.624	688.94
481.843	683.94
482.061	679.94
482.28	680.94
482.498	664.94
482.717	679.94
482.935	688.94
483.153	681.94
483.372	660.94
483.59	697.94
483.808	693.94
484.027	682.94
484.245	692.94
484.463	669.94
484.681	709.94
484.9	710.94
485.118	695.94
485.336	722.94
485.554	727.94
485.772	745.94
485.99	723.94
486.209	768.94
486.427	723.94
486.645	731.94
486.863	735.94
487.081	730.94
487.299	727.94
487.517	727.94
487.735	711.94
487.953	730.94
488.171	720.94
488.389	712.94
488.607	705.94
488.825	687.94
489.043	705.94
489.261	683.94
489.479	710.94
489.696	706.94
489.914	713.94
490.132	708.94
490.35	719.94
490.568	713.94
490.786	718.94
491.003	723.94
491.221	755.94
491.439	743.94
491.657	736.94
491.874	719.94
492.092	731.94
492.31	747.94
492.527	713.94
492.745	724.94
492.963	726.94
493.18	723.94
493.398	723.94
493.615	752.94
493.833	739.94
494.05	735.94
494.268	755.94
494.485	737.94
494.703	740.94
494.92	761.94
495.138	764.94
495.355	729.94
495.573	743.94
495.79	780.94
496.008	786.94
496.225	768.94
496.442	779.94
496.66	784.94
496.877	778.94
497.094	789.94
497.312	802.94
497.529	793.94
497.746	839.94
497.963	871.94
498.181	872.94
498.398	895.94
498.615	955.94
498.832	1031.94
499.049	1153.94
499.267	1248.94
499.484	1351.94
499.701	1463.94
499.918	1640.94
500.135	1904.94
500.352	2218.94
500.569	2391.94
500.786	2380.94
501.003	2128.94
501.22	1874.94
501.437	1640.94
501.654	1418.94
501.871	1322.94
502.088	1163.94
502.305	1114.94
502.522	1082.94
502.739	1002.94
502.956	970.94
503.172	922.94
503.389	895.94
503.606	878.94
503.823	849.94
504.04	834.94
504.256	859.94
504.473	875.94
504.69	931.94
504.907	882.94
505.123	830.94
505.34	790.94
505.557	772.94
505.773	738.94
505.99	737.94
506.207	707.94
506.423	681.94
506.64	696.94
506.856	672.94
507.073	686.94
507.289	688.94
507.506	671.94
507.722	662.94
507.939	632.94
508.155	652.94
508.372	639.94
508.588	621.94
508.805	657.94
509.021	639.94
509.238	642.94
509.454	632.94
509.67	633.94
509.887	628.94
510.103	624.94
510.319	604.94
510.536	624.94
510.752	624.94
510.968	624.94
511.184	612.94
511.401	626.94
511.617	627.94
511.833	627.94
512.049	623.94
512.265	625.94
512.481	641.94
512.698	609.94
512.914	616.94
513.13	619.94
513.346	619.94
513.562	612.94
513.778	611.94
513.994	620.94
514.21	626.94
514.426	624.94
514.642	659.94
514.858	633.94
515.074	633.94
515.29	656.94
515.506	630.94
515.721	647.94
515.937	681.94
516.153	676.94
516.369	681.94
516.585	731.94
516.801	742.94
517.016	776.94
517.232	807.94
517.448	838.94
517.664	887.94
517.879	896.94
518.095	881.94
518.311	872.94
518.527	822.94
518.742	795.94
518.958	772.94
519.173	712.94
519.389	695.94
519.605	671.94
519.82	650.94
520.036	647.94
520.251	643.94
520.467	631.94
520.682	647.94
520.898	655.94
521.113	628.94
521.329	604.94
521.544	625.94
521.76	614.94
521.975	580.94
522.19	598.94
522.406	597.94
522.621	583.94
522.836	599.94
523.052	577.94
523.267	572.94
523.482	596.94
523.698	572.94
523.913	592.94
524.128	578.94
524.343	581.94
524.559	610.94
524.774	581.94
524.989	574.94
525.204	583.94
525.419	574.94
525.634	568.94
525.849	588.94
526.064	579.94
526.28	537.94
526.495	564.94
526.71	574.94
526.925	567.94
527.14	565.94
527.355	570.94
527.57	591.94
527.785	586.94
527.999	550.94
528.214	569.94
528.429	574.94
528.644	576.94
528.859	599.94
529.074	578.94
529.289	564.94
529.503	580.94
529.718	611.94
529.933	590.94
530.148	598.94
530.363	571.94
530.577	586.94
530.792	547.94
531.007	553.94
531.221	555.94
531.436	598.94
531.651	574.94
531.865	570.94
532.08	578.94
532.295	565.94
532.509	571.94
532.724	579.94
532.938	583.94
533.153	557.94
533.367	572.94
533.582	539.94
533.796	561.94
534.011	585.94
534.225	575.94
534.44	552.94
534.654	547.94
534.868	557.94
535.083	569.94
535.297	577.94
535.511	549.94
535.726	562.94
535.94	568.94
536.154	542.94
536.369	538.94
536.583	530.94
536.797	514.94
537.011	545.94
537.225	531.94
537.44	534.94
537.654	537.94
537.868	529.94
538.082	533.94
538.296	512.94
538.51	542.94
538.724	522.94
538.938	513.94
539.153	498.94
539.367	509.94
539.581	509.94
539.795	498.94
540.009	510.94
540.222	510.94
540.436	510.94
540.65	532.94
540.864	523.94
541.078	526.94
541.292	517.94
541.506	528.94
541.72	502.94
541.934	505.94
542.147	506.94
542.361	520.94
542.575	507.94
542.789	515.94
543.002	499.94
543.216	502.94
543.43	481.94
543.644	482.94
543.857	499.94
544.071	514.94
544.285	494.94
544.498	521.94
544.712	504.94
544.925	533.94
545.139	523.94
545.352	538.94
545.566	508.94
545.779	540.94
545.993	533.94
546.206	508.94
546.42	518.94
546.633	505.94
546.847	506.94
547.06	510.94
547.274	528.94
547.487	523.94
547.7	516.94
547.914	523.94
548.127	517.94
548.34	534.94
548.554	531.94
548.767	536.94
548.98	504.94
549.193	535.94
549.407	542.94
549.62	529.94
549.833	532.94
550.046	545.94
550.259	525.94
550.473	516.94
550.686	508.94
550.899	515.94
551.112	499.94
551.325	519.94
551.538	515.94
551.751	493.94
551.964	514.94
552.177	516.94
552.39	503.94
552.603	526.94
552.816	544.94
553.029	561.94
553.242	548.94
553.455	584.94
553.667	603.94
553.88	582.94
554.093	568.94
554.306	543.94
554.519	525.94
554.732	491.94
554.944	506.94
555.157	507.94
555.37	509.94
555.583	480.94
555.795	493.94
556.008	475.94
556.221	467.94
556.433	459.94
556.646	458.94
556.859	458.94
557.071	463.94
557.284	444.94
557.496	447.94
557.709	448.94
557.921	455.94
558.134	466.94
558.346	446.94
558.559	421.94
558.771	421.94
558.984	430.94
559.196	435.94
559.409	439.94
559.621	437.94
559.833	450.94
560.046	453.94
560.258	448.94
560.47	425.94
560.683	434.94
560.895	428.94
561.107	434.94
561.32	411.94
561.532	424.94
561.744	439.94
561.956	423.94
562.168	423.94
562.381	424.94
562.593	431.94
562.805	454.94
563.017	440.94
563.229	414.94
563.441	430.94
563.653	434.94
563.865	463.94
564.077	458.94
564.289	448.94
564.501	450.94
564.713	440.94
564.925	476.94
565.137	458.94
565.349	457.94
565.561	476.94
565.773	522.94
565.985	533.94
566.197	553.94
566.408	599.94
566.62	619.94
566.832	689.94
567.044	703.94
567.255	714.94
567.467	743.94
567.679	780.94
567.891	808.94
568.102	857.94
568.314	836.94
568.526	743.94
568.737	642.94
568.949	587.94
569.161	578.94
569.372	522.94
569.584	485.94
569.795	485.94
570.007	461.94
570.218	449.94
570.43	457.94
570.641	453.94
570.853	459.94
571.064	453.94
571.276	463.94
571.487	440.94
571.698	447.94
571.91	423.94
572.121	395.94
572.333	377.94
572.544	389.94
572.755	379.94
572.966	374.94
573.178	357.94
573.389	385.94
573.6	384.94
573.811	386.94
574.023	376.94
574.234	380.94
574.445	358.94
574.656	372.94
574.867	376.94
575.078	367.94
575.289	368.94
575.501	358.94
575.712	356.94
575.923	362.94
576.134	356.94
576.345	350.94
576.556	359.94
576.767	362.94
576.978	343.94
577.188	358.94
577.399	344.94
577.61	340.94
577.821	336.94
578.032	346.94
578.243	335.94
578.454	343.94
578.665	342.94
578.875	345.94
579.086	337.94
579.297	314.94
579.508	328.94
579.718	328.94
579.929	314.94
580.14	320.94
580.35	329.94
580.561	326.94
580.772	318.94
580.982	323.94
581.193	318.94
581.403	341.94
581.614	312.94
581.825	343.94
582.035	318.94
582.246	325.94
582.456	324.94
582.667	310.94
582.877	314.94
583.087	304.94
583.298	319.94
583.508	302.94
583.719	310.94
583.929	333.94
584.139	304.94
584.35	286.94
584.56	310.94
584.77	319.94
584.981	307.94
585.191	321.94
585.401	307.94
585.611	310.94
585.821	313.94
586.032	313.94
586.242	296.94
586.452	287.94
586.662	309.94
586.872	297.94
587.082	312.94
587.292	278.94
587.502	315.94
587.713	304.94
587.923	308.94
588.133	321.94
588.343	308.94
588.553	319.94
588.762	297.94
588.972	299.94
589.182	293.94
589.392	282.94
589.602	295.94
589.812	279.94
590.022	288.94
590.232	301.94
590.441	290.94
590.651	315.94
590.861	315.94
591.071	307.94
591.281	308.94
591.49	319.94
591.7	314.94
591.91	330.94
592.119	330.94
592.329	321.94
592.539	327.94
592.748	348.94
592.958	366.94
593.167	380.94
593.377	357.94
593.587	372.94
593.796	384.94
594.006	378.94
594.215	386.94
594.424	376.94
594.634	381.94
594.843	364.94
595.053	357.94
595.262	322.94
595.472	336.94
595.681	312.94
595.89	307.94
596.1	312.94
596.309	320.94
596.518	290.94
596.727	290.94
596.937	264.94
597.146	288.94
597.355	276.94
597.564	273.94
597.774	272.94
597.983	246.94
598.192	249.94
598.401	275.94
598.61	265.94
598.819	271.94
599.028	262.94
599.237	273.94
599.446	248.94
599.655	267.94
599.864	269.94
600.073	264.94
600.282	260.94
600.491	280.94
600.7	240.94
600.909	261.94
601.118	243.94
601.327	252.94
601.536	246.94
601.745	246.94
601.953	256.94
602.162	250.94
602.371	243.94
602.58	262.94
602.789	261.94
602.997	242.94
603.206	238.94
603.415	273.94
603.623	240.94
603.832	248.94
604.041	247.94
604.249	256.94
604.458	248.94
604.666	229.94
604.875	242.94
605.084	237.94
605.292	252.94
605.501	243.94
605.709	241.94
605.918	228.94
606.126	235.94
606.334	239.94
606.543	245.94
606.751	241.94
606.96	239.94
607.168	225.94
607.376	239.94
607.585	250.94
607.793	236.94
608.001	233.94
608.21	232.94
608.418	230.94
608.626	241.94
608.834	236.94
609.043	240.94
609.251	227.94
609.459	223.94
609.667	228.94
609.875	231.94
610.083	239.94
610.291	238.94
610.499	235.94
610.707	220.94
610.916	238.94
611.124	219.94
611.332	225.94
611.54	233.94
611.748	222.94
611.955	234.94
612.163	235.94
612.371	228.94
612.579	242.94
612.787	233.94
612.995	215.94
613.203	221.94
613.411	227.94
613.618	219.94
613.826	223.94
614.034	224.94
614.242	228.94
614.449	219.94
614.657	229.94
614.865	218.94
615.072	225.94
615.28	244.94
615.488	226.94
615.695	219.94
615.903	217.94
616.111	235.94
616.318	228.94
616.526	223.94
616.733	226.94
616.941	231.94
617.148	242.94
617.356	219.94
617.563	240.94
617.771	223.94
617.978	230.94
618.185	229.94
618.393	216.94
618.6	235.94
618.807	238.94
619.015	214.94
619.222	217.94
619.429	218.94
619.637	231.94
619.844	225.94
620.051	210.94
620.258	205.94
620.466	219.94
620.673	215.94
620.88	206.94
621.087	207.94
621.294	208.94
621.501	217.94
621.708	212.94
621.915	222.94
622.122	183.94
622.329	210.94
622.536	217.94
622.743	211.94
622.95	210.94
623.157	208.94
623.364	196.94
623.571	208.94
623.778	218.94
623.985	210.94
624.192	192.94
624.399	202.94
624.606	200.94
624.812	218.94
625.019	208.94
625.226	217.94
625.433	199.94
625.639	181.94
625.846	203.94
626.053	209.94
626.259	193.94
626.466	204.94
626.673	169.94
626.879	194.94
627.086	200.94
627.293	206.94
627.499	186.94
627.706	204.94
627.912	193.94
628.119	194.94
628.325	199.94
628.532	200.94
628.738	190.94
628.945	193.94
629.151	196.94
629.357	196.94
629.564	180.94
629.77	193.94
629.976	177.94
630.183	174.94
630.389	208.94
630.595	184.94
630.802	177.94
631.008	169.94
631.214	174.94
631.42	166.94
631.627	173.94
631.833	181.94
632.039	177.94
632.245	191.94
632.451	174.94
632.657	180.94
632.863	164.94
633.069	193.94
633.275	174.94
633.481	181.94
633.688	178.94
633.893	179.94
634.099	171.94
634.305	165.94
634.511	166.94
634.717	179.94
634.923	168.94
635.129	155.94
635.335	162.94
635.541	191.94
635.747	168.94
635.952	162.94
636.158	168.94
636.364	177.94
636.57	158.94
636.775	168.94
636.981	169.94
637.187	171.94
637.392	161.94
637.598	152.94
637.804	165.94
638.009	171.94
638.215	169.94
638.421	160.94
638.626	168.94
638.832	170.94
639.037	180.94
639.243	170.94
639.448	155.94
639.654	174.94
639.859	156.94
640.065	165.94
640.27	157.94
640.475	144.94
640.681	162.94
640.886	160.94
641.091	172.94
641.297	165.94
641.502	170.94
641.707	182.94
641.913	154.94
642.118	170.94
642.323	152.94
642.528	162.94
642.733	156.94
642.939	144.94
643.144	162.94
643.349	150.94
643.554	159.94
643.759	170.94
643.964	157.94
644.169	171.94
644.374	147.94
644.579	162.94
644.784	162.94
644.989	163.94
645.194	151.94
645.399	171.94
645.604	167.94
645.809	147.94
646.014	142.94
646.219	171.94
646.423	164.94
646.628	152.94
646.833	165.94
647.038	176.94
647.243	167.94
647.447	154.94
647.652	154.94
647.857	169.94
648.062	166.94
648.266	160.94
648.471	157.94
648.676	162.94
648.88	143.94
649.085	166.94
649.289	171.94
649.494	166.94
649.698	146.94
649.903	164.94
650.107	155.94
650.312	159.94
650.516	154.94
650.721	154.94
650.925	136.94
651.13	145.94
651.334	136.94
651.539	152.94
651.743	147.94
651.947	137.94
652.152	148.94
652.356	128.94
652.56	132.94
652.764	135.94
652.969	133.94
653.173	147.94
653.377	120.94
653.581	128.94
653.785	131.94
653.99	118.94
654.194	126.94
654.398	127.94
654.602	143.94
654.806	130.94
655.01	141.94
655.214	109.94
655.418	126.94
655.622	114.94
655.826	138.94
656.03	129.94
656.234	124.94
656.438	132.94
656.642	115.94
656.846	109.94
657.049	117.94
657.253	111.94
657.457	100.94
657.661	104.94
657.865	112.94
658.068	92.94
658.272	120.94
658.476	111.94
658.68	116.94
658.883	106.94
659.087	95.94
659.291	90.94
659.494	97.94
659.698	88.94
659.901	88.94
660.105	96.94
660.309	79.94
660.512	78.94
660.716	83.94
660.919	95.94
661.123	88.94
661.326	96.94
661.53	76.94
661.733	77.94
661.936	74.94
662.14	89.94
662.343	81.94
662.546	63.94
662.75	93.94
662.953	85.94
663.156	87.94
663.36	70.94
663.563	91.94
663.766	91.94
663.969	101.94
664.173	84.94
664.376	77.94
664.579	69.94
664.782	82.94
664.985	87.94
665.188	96.94
665.391	94.94
665.594	63.94
665.797	74.94
666	75.94
666.203	83.94
666.406	89.94
666.609	81.94
666.812	83.94
667.015	78.94
667.218	73.94
667.421	75.94
667.624	89.94
667.827	74.94
668.03	90.94
668.232	78.94
668.435	76.94
668.638	80.94
668.841	84.94
669.043	77.94
669.246	79.94
669.449	82.94
669.651	82.94
669.854	77.94
670.057	82.94
670.259	77.94
670.462	77.94
670.665	75.94
670.867	86.94
671.07	82.94
671.272	77.94
671.475	85.94
671.677	75.94
671.88	87.94
672.082	80.94
672.284	94.94
672.487	84.94
672.689	78.94
672.892	84.94
