Data from Ni(NO3)2@0.5M.TitratingCurve.Agarose3%dH2O.NegLispCup.LampEnergy10.LIBS07252019_HRD10591_17-59-56-564.txt Node
Date: Thu Jul 25 17:59:56 EDT 2019
User: cochatt
Spectrometer: HR+D1059
Trigger mode: 1
Integration Time (sec): 1.000000E-1
Scans to average: 1
Electric dark correction enabled: true
Nonlinearity correction enabled: false
Boxcar width: 0
XAxis mode: Wavelengths
Number of Pixels in Spectrum: 2048
>>>>>Begin Spectral Data<<<<<
223.165	-12.19
223.4	-12.19
223.635	-12.19
223.869	-13.19
224.104	-17.19
224.338	-15.19
224.573	-17.19
224.808	-11.19
225.042	-11.19
225.277	-10.19
225.511	-4.19
225.746	3.81
225.98	6.81
226.215	0.81
226.449	18.81
226.683	30.81
226.918	25.81
227.152	24.81
227.387	29.81
227.621	29.81
227.856	42.81
228.09	33.81
228.324	40.81
228.559	56.81
228.793	72.81
229.027	116.81
229.262	127.81
229.496	126.81
229.73	128.81
229.964	144.81
230.199	163.81
230.433	169.81
230.667	156.81
230.901	159.81
231.136	151.81
231.37	151.81
231.604	166.81
231.838	162.81
232.072	173.81
232.306	159.81
232.541	169.81
232.775	159.81
233.009	148.81
233.243	155.81
233.477	150.81
233.711	167.81
233.945	162.81
234.179	160.81
234.413	163.81
234.647	158.81
234.881	170.81
235.115	179.81
235.349	166.81
235.583	164.81
235.817	153.81
236.051	180.81
236.285	162.81
236.519	154.81
236.753	159.81
236.987	183.81
237.221	166.81
237.455	173.81
237.689	163.81
237.922	183.81
238.156	178.81
238.39	156.81
238.624	178.81
238.858	166.81
239.091	183.81
239.325	181.81
239.559	183.81
239.793	210.81
240.027	206.81
240.26	192.81
240.494	168.81
240.728	176.81
240.961	181.81
241.195	184.81
241.429	204.81
241.662	198.81
241.896	211.81
242.13	214.81
242.363	187.81
242.597	196.81
242.83	197.81
243.064	194.81
243.298	198.81
243.531	198.81
243.765	215.81
243.998	224.81
244.232	227.81
244.465	212.81
244.699	208.81
244.932	208.81
245.166	223.81
245.399	219.81
245.633	221.81
245.866	230.81
246.099	233.81
246.333	221.81
246.566	236.81
246.8	219.81
247.033	230.81
247.266	236.81
247.5	227.81
247.733	231.81
247.966	251.81
248.2	235.81
248.433	240.81
248.666	258.81
248.899	244.81
249.133	230.81
249.366	242.81
249.599	240.81
249.832	251.81
250.066	232.81
250.299	247.81
250.532	256.81
250.765	272.81
250.998	275.81
251.231	268.81
251.465	288.81
251.698	287.81
251.931	282.81
252.164	288.81
252.397	268.81
252.63	283.81
252.863	270.81
253.096	263.81
253.329	274.81
253.562	276.81
253.795	280.81
254.028	277.81
254.261	283.81
254.494	282.81
254.727	267.81
254.96	297.81
255.193	296.81
255.426	303.81
255.659	280.81
255.892	302.81
256.124	300.81
256.357	297.81
256.59	325.81
256.823	323.81
257.056	294.81
257.289	291.81
257.521	302.81
257.754	314.81
257.987	323.81
258.22	314.81
258.452	306.81
258.685	311.81
258.918	301.81
259.151	323.81
259.383	314.81
259.616	333.81
259.849	318.81
260.081	331.81
260.314	321.81
260.547	314.81
260.779	332.81
261.012	362.81
261.244	355.81
261.477	320.81
261.71	345.81
261.942	334.81
262.175	342.81
262.407	347.81
262.64	346.81
262.872	350.81
263.105	366.81
263.337	362.81
263.57	349.81
263.802	345.81
264.035	351.81
264.267	359.81
264.499	347.81
264.732	375.81
264.964	363.81
265.197	380.81
265.429	386.81
265.661	377.81
265.894	373.81
266.126	368.81
266.358	343.81
266.591	374.81
266.823	370.81
267.055	375.81
267.287	390.81
267.52	400.81
267.752	364.81
267.984	404.81
268.216	380.81
268.448	388.81
268.681	414.81
268.913	379.81
269.145	387.81
269.377	386.81
269.609	387.81
269.841	382.81
270.073	404.81
270.306	386.81
270.538	399.81
270.77	396.81
271.002	403.81
271.234	421.81
271.466	393.81
271.698	417.81
271.93	393.81
272.162	395.81
272.394	427.81
272.626	420.81
272.858	391.81
273.09	420.81
273.322	418.81
273.553	426.81
273.785	428.81
274.017	436.81
274.249	431.81
274.481	434.81
274.713	416.81
274.945	439.81
275.176	447.81
275.408	433.81
275.64	446.81
275.872	429.81
276.104	430.81
276.335	444.81
276.567	440.81
276.799	436.81
277.031	428.81
277.262	441.81
277.494	452.81
277.726	442.81
277.957	468.81
278.189	446.81
278.421	456.81
278.652	451.81
278.884	450.81
279.115	452.81
279.347	455.81
279.579	474.81
279.81	464.81
280.042	463.81
280.273	475.81
280.505	479.81
280.736	474.81
280.968	475.81
281.199	486.81
281.431	462.81
281.662	474.81
281.894	500.81
282.125	476.81
282.356	502.81
282.588	475.81
282.819	492.81
283.051	477.81
283.282	482.81
283.513	490.81
283.745	504.81
283.976	486.81
284.207	515.81
284.439	502.81
284.67	518.81
284.901	506.81
285.132	537.81
285.364	528.81
285.595	523.81
285.826	495.81
286.057	492.81
286.288	521.81
286.52	519.81
286.751	540.81
286.982	512.81
287.213	542.81
287.444	526.81
287.675	535.81
287.906	524.81
288.138	522.81
288.369	505.81
288.6	543.81
288.831	526.81
289.062	528.81
289.293	525.81
289.524	542.81
289.755	524.81
289.986	535.81
290.217	512.81
290.448	541.81
290.679	548.81
290.91	566.81
291.141	538.81
291.371	551.81
291.602	550.81
291.833	551.81
292.064	544.81
292.295	538.81
292.526	557.81
292.757	529.81
292.987	557.81
293.218	552.81
293.449	550.81
293.68	559.81
293.91	548.81
294.141	554.81
294.372	543.81
294.603	535.81
294.833	564.81
295.064	548.81
295.295	555.81
295.525	546.81
295.756	547.81
295.987	548.81
296.217	566.81
296.448	565.81
296.679	555.81
296.909	566.81
297.14	568.81
297.37	590.81
297.601	585.81
297.831	572.81
298.062	570.81
298.292	554.81
298.523	589.81
298.753	575.81
298.984	565.81
299.214	571.81
299.445	576.81
299.675	567.81
299.905	608.81
300.136	591.81
300.366	617.81
300.597	604.81
300.827	617.81
301.057	617.81
301.288	631.81
301.518	646.81
301.748	623.81
301.979	611.81
302.209	623.81
302.439	616.81
302.669	631.81
302.9	630.81
303.13	584.81
303.36	619.81
303.59	619.81
303.82	639.81
304.051	634.81
304.281	635.81
304.511	624.81
304.741	624.81
304.971	630.81
305.201	674.81
305.431	646.81
305.661	627.81
305.891	632.81
306.121	633.81
306.352	619.81
306.582	621.81
306.812	618.81
307.042	622.81
307.272	621.81
307.502	611.81
307.731	638.81
307.961	620.81
308.191	637.81
308.421	632.81
308.651	624.81
308.881	598.81
309.111	619.81
309.341	629.81
309.571	627.81
309.8	645.81
310.03	640.81
310.26	649.81
310.49	644.81
310.72	642.81
310.949	645.81
311.179	637.81
311.409	639.81
311.639	645.81
311.868	642.81
312.098	642.81
312.328	640.81
312.557	654.81
312.787	667.81
313.017	660.81
313.246	667.81
313.476	680.81
313.706	689.81
313.935	676.81
314.165	672.81
314.394	651.81
314.624	664.81
314.853	654.81
315.083	670.81
315.312	679.81
315.542	694.81
315.771	664.81
316.001	697.81
316.23	710.81
316.46	676.81
316.689	674.81
316.919	668.81
317.148	680.81
317.377	671.81
317.607	660.81
317.836	678.81
318.065	684.81
318.295	670.81
318.524	655.81
318.753	683.81
318.983	681.81
319.212	675.81
319.441	661.81
319.67	699.81
319.9	678.81
320.129	717.81
320.358	685.81
320.587	693.81
320.816	690.81
321.046	703.81
321.275	690.81
321.504	680.81
321.733	704.81
321.962	708.81
322.191	667.81
322.42	692.81
322.649	690.81
322.878	676.81
323.108	713.81
323.337	707.81
323.566	723.81
323.795	724.81
324.024	713.81
324.253	702.81
324.482	699.81
324.71	735.81
324.939	734.81
325.168	719.81
325.397	731.81
325.626	720.81
325.855	754.81
326.084	770.81
326.313	742.81
326.542	737.81
326.77	739.81
326.999	763.81
327.228	735.81
327.457	748.81
327.686	728.81
327.914	735.81
328.143	770.81
328.372	756.81
328.6	750.81
328.829	750.81
329.058	758.81
329.287	772.81
329.515	770.81
329.744	757.81
329.972	772.81
330.201	777.81
330.43	782.81
330.658	790.81
330.887	774.81
331.115	780.81
331.344	828.81
331.572	798.81
331.801	810.81
332.03	819.81
332.258	792.81
332.486	830.81
332.715	847.81
332.943	854.81
333.172	895.81
333.4	900.81
333.629	924.81
333.857	936.81
334.085	918.81
334.314	940.81
334.542	926.81
334.771	914.81
334.999	948.81
335.227	939.81
335.455	914.81
335.684	922.81
335.912	900.81
336.14	886.81
336.369	903.81
336.597	904.81
336.825	923.81
337.053	911.81
337.281	919.81
337.51	884.81
337.738	911.81
337.966	854.81
338.194	851.81
338.422	894.81
338.65	839.81
338.878	897.81
339.106	854.81
339.334	878.81
339.562	874.81
339.79	847.81
340.018	831.81
340.246	809.81
340.474	824.81
340.702	832.81
340.93	822.81
341.158	822.81
341.386	856.81
341.614	868.81
341.842	836.81
342.07	836.81
342.298	839.81
342.526	811.81
342.754	834.81
342.981	816.81
343.209	831.81
343.437	861.81
343.665	862.81
343.893	904.81
344.12	924.81
344.348	916.81
344.576	920.81
344.804	883.81
345.031	870.81
345.259	822.81
345.487	837.81
345.714	823.81
345.942	862.81
346.17	887.81
346.397	837.81
346.625	776.81
346.853	814.81
347.08	796.81
347.308	794.81
347.535	802.81
347.763	795.81
347.99	773.81
348.218	787.81
348.445	802.81
348.673	777.81
348.9	798.81
349.128	773.81
349.355	838.81
349.583	806.81
349.81	775.81
350.037	780.81
350.265	776.81
350.492	793.81
350.72	766.81
350.947	772.81
351.174	790.81
351.402	826.81
351.629	834.81
351.856	806.81
352.083	778.81
352.311	804.81
352.538	822.81
352.765	818.81
352.992	759.81
353.22	771.81
353.447	747.81
353.674	737.81
353.901	784.81
354.128	780.81
354.355	760.81
354.583	736.81
354.81	754.81
355.037	783.81
355.264	769.81
355.491	745.81
355.718	770.81
355.945	778.81
356.172	748.81
356.399	768.81
356.626	772.81
356.853	794.81
357.08	746.81
357.307	793.81
357.534	762.81
357.761	773.81
357.988	784.81
358.215	763.81
358.441	774.81
358.668	757.81
358.895	781.81
359.122	772.81
359.349	764.81
359.576	764.81
359.802	783.81
360.029	766.81
360.256	794.81
360.483	778.81
360.709	787.81
360.936	782.81
361.163	764.81
361.39	777.81
361.616	810.81
361.843	809.81
362.07	830.81
362.296	824.81
362.523	784.81
362.749	763.81
362.976	774.81
363.203	747.81
363.429	755.81
363.656	757.81
363.882	760.81
364.109	759.81
364.335	758.81
364.562	757.81
364.788	735.81
365.015	793.81
365.241	787.81
365.468	781.81
365.694	763.81
365.92	761.81
366.147	780.81
366.373	769.81
366.599	785.81
366.826	794.81
367.052	778.81
367.278	797.81
367.505	811.81
367.731	796.81
367.957	783.81
368.184	778.81
368.41	784.81
368.636	796.81
368.862	789.81
369.089	792.81
369.315	793.81
369.541	777.81
369.767	798.81
369.993	820.81
370.219	809.81
370.445	815.81
370.672	819.81
370.898	836.81
371.124	815.81
371.35	842.81
371.576	808.81
371.802	846.81
372.028	831.81
372.254	845.81
372.48	828.81
372.706	827.81
372.932	863.81
373.158	837.81
373.384	851.81
373.61	849.81
373.835	850.81
374.061	828.81
374.287	831.81
374.513	847.81
374.739	866.81
374.965	878.81
375.191	891.81
375.416	894.81
375.642	862.81
375.868	884.81
376.094	870.81
376.319	874.81
376.545	831.81
376.771	810.81
376.997	835.81
377.222	850.81
377.448	854.81
377.674	817.81
377.899	847.81
378.125	835.81
378.35	827.81
378.576	820.81
378.802	825.81
379.027	824.81
379.253	807.81
379.478	803.81
379.704	822.81
379.929	811.81
380.155	812.81
380.38	843.81
380.606	809.81
380.831	838.81
381.057	846.81
381.282	834.81
381.507	821.81
381.733	838.81
381.958	838.81
382.184	861.81
382.409	883.81
382.634	846.81
382.86	872.81
383.085	869.81
383.31	892.81
383.535	876.81
383.761	902.81
383.986	890.81
384.211	915.81
384.436	890.81
384.662	903.81
384.887	908.81
385.112	934.81
385.337	923.81
385.562	944.81
385.787	964.81
386.013	969.81
386.238	984.81
386.463	976.81
386.688	946.81
386.913	950.81
387.138	949.81
387.363	957.81
387.588	953.81
387.813	962.81
388.038	983.81
388.263	966.81
388.488	978.81
388.713	988.81
388.938	960.81
389.163	964.81
389.387	954.81
389.612	980.81
389.837	955.81
390.062	960.81
390.287	956.81
390.512	950.81
390.736	969.81
390.961	989.81
391.186	1007.81
391.411	1015.81
391.636	1030.81
391.86	1015.81
392.085	1031.81
392.31	1048.81
392.534	1060.81
392.759	1032.81
392.984	1022.81
393.208	1017.81
393.433	1012.81
393.658	1019.81
393.882	996.81
394.107	1042.81
394.331	1013.81
394.556	991.81
394.78	1002.81
395.005	999.81
395.229	1011.81
395.454	1041.81
395.678	1051.81
395.903	1063.81
396.127	1065.81
396.352	1064.81
396.576	1014.81
396.801	1037.81
397.025	1082.81
397.249	1062.81
397.474	1054.81
397.698	1046.81
397.922	1087.81
398.147	1078.81
398.371	1128.81
398.595	1149.81
398.82	1136.81
399.044	1234.81
399.268	1262.81
399.492	1379.81
399.717	1445.81
399.941	1471.81
400.165	1395.81
400.389	1358.81
400.613	1290.81
400.837	1224.81
401.062	1240.81
401.286	1214.81
401.51	1205.81
401.734	1157.81
401.958	1210.81
402.182	1190.81
402.406	1168.81
402.63	1166.81
402.854	1190.81
403.078	1183.81
403.302	1200.81
403.526	1219.81
403.75	1218.81
403.974	1209.81
404.198	1232.81
404.422	1242.81
404.645	1218.81
404.869	1219.81
405.093	1245.81
405.317	1230.81
405.541	1264.81
405.765	1233.81
405.988	1220.81
406.212	1225.81
406.436	1258.81
406.66	1288.81
406.883	1308.81
407.107	1359.81
407.331	1354.81
407.555	1402.81
407.778	1391.81
408.002	1380.81
408.226	1387.81
408.449	1375.81
408.673	1340.81
408.896	1315.81
409.12	1304.81
409.344	1288.81
409.567	1309.81
409.791	1271.81
410.014	1262.81
410.238	1231.81
410.461	1268.81
410.685	1229.81
410.908	1238.81
411.132	1261.81
411.355	1238.81
411.578	1219.81
411.802	1215.81
412.025	1242.81
412.249	1233.81
412.472	1226.81
412.695	1193.81
412.919	1205.81
413.142	1212.81
413.365	1182.81
413.589	1193.81
413.812	1187.81
414.035	1140.81
414.258	1152.81
414.482	1184.81
414.705	1201.81
414.928	1181.81
415.151	1182.81
415.374	1186.81
415.597	1175.81
415.821	1145.81
416.044	1144.81
416.267	1137.81
416.49	1122.81
416.713	1154.81
416.936	1160.81
417.159	1128.81
417.382	1138.81
417.605	1122.81
417.828	1162.81
418.051	1155.81
418.274	1132.81
418.497	1129.81
418.72	1128.81
418.943	1124.81
419.166	1206.81
419.389	1266.81
419.611	1258.81
419.834	1197.81
420.057	1176.81
420.28	1161.81
420.503	1147.81
420.726	1120.81
420.948	1106.81
421.171	1116.81
421.394	1135.81
421.617	1133.81
421.839	1132.81
422.062	1144.81
422.285	1070.81
422.507	1103.81
422.73	1115.81
422.953	1112.81
423.175	1151.81
423.398	1129.81
423.621	1133.81
423.843	1169.81
424.066	1134.81
424.288	1146.81
424.511	1138.81
424.733	1129.81
424.956	1110.81
425.178	1108.81
425.401	1138.81
425.623	1133.81
425.846	1129.81
426.068	1118.81
426.291	1086.81
426.513	1101.81
426.735	1080.81
426.958	1087.81
427.18	1076.81
427.402	1074.81
427.625	1077.81
427.847	1083.81
428.069	1091.81
428.292	1044.81
428.514	1037.81
428.736	1038.81
428.958	1091.81
429.181	1054.81
429.403	1030.81
429.625	1047.81
429.847	1051.81
430.069	1044.81
430.292	1052.81
430.514	1043.81
430.736	1047.81
430.958	1056.81
431.18	1056.81
431.402	1064.81
431.624	1062.81
431.846	1072.81
432.068	1065.81
432.29	1084.81
432.512	1068.81
432.734	1061.81
432.956	1051.81
433.178	1079.81
433.4	1086.81
433.622	1101.81
433.844	1106.81
434.066	1090.81
434.287	1083.81
434.509	1123.81
434.731	1128.81
434.953	1142.81
435.175	1131.81
435.397	1156.81
435.618	1121.81
435.84	1099.81
436.062	1073.81
436.284	1076.81
436.505	1084.81
436.727	1071.81
436.949	1063.81
437.17	1051.81
437.392	1069.81
437.614	1050.81
437.835	1016.81
438.057	1026.81
438.278	1025.81
438.5	1037.81
438.721	1039.81
438.943	1059.81
439.165	1002.81
439.386	1044.81
439.608	1075.81
439.829	1047.81
440.05	1021.81
440.272	1046.81
440.493	1053.81
440.715	1078.81
440.936	1085.81
441.158	1092.81
441.379	1101.81
441.6	1185.81
441.822	1118.81
442.043	1130.81
442.264	1083.81
442.486	1136.81
442.707	1104.81
442.928	1149.81
443.149	1128.81
443.371	1134.81
443.592	1166.81
443.813	1168.81
444.034	1135.81
444.255	1160.81
444.476	1178.81
444.698	1210.81
444.919	1226.81
445.14	1336.81
445.361	1226.81
445.582	1170.81
445.803	1138.81
446.024	1113.81
446.245	1074.81
446.466	1093.81
446.687	1065.81
446.908	1076.81
447.129	1036.81
447.35	1032.81
447.571	1042.81
447.792	1015.81
448.013	1018.81
448.234	954.81
448.455	998.81
448.675	995.81
448.896	981.81
449.117	955.81
449.338	970.81
449.559	952.81
449.779	981.81
450	949.81
450.221	937.81
450.442	973.81
450.662	942.81
450.883	964.81
451.104	983.81
451.324	988.81
451.545	978.81
451.766	978.81
451.986	957.81
452.207	950.81
452.428	946.81
452.648	960.81
452.869	929.81
453.089	918.81
453.31	941.81
453.53	924.81
453.751	911.81
453.971	920.81
454.192	912.81
454.412	932.81
454.633	920.81
454.853	940.81
455.073	923.81
455.294	916.81
455.514	920.81
455.734	935.81
455.955	942.81
456.175	939.81
456.395	920.81
456.616	898.81
456.836	908.81
457.056	905.81
457.276	913.81
457.497	945.81
457.717	919.81
457.937	958.81
458.157	948.81
458.377	932.81
458.598	953.81
458.818	981.81
459.038	1016.81
459.258	1040.81
459.478	1103.81
459.698	1124.81
459.918	1133.81
460.138	1165.81
460.358	1166.81
460.578	1142.81
460.798	1172.81
461.018	1199.81
461.238	1184.81
461.458	1164.81
461.678	1173.81
461.898	1182.81
462.118	1199.81
462.338	1242.81
462.558	1289.81
462.777	1311.81
462.997	1347.81
463.217	1420.81
463.437	1416.81
463.657	1407.81
463.876	1347.81
464.096	1335.81
464.316	1308.81
464.536	1306.81
464.755	1264.81
464.975	1209.81
465.195	1168.81
465.414	1163.81
465.634	1112.81
465.854	1096.81
466.073	1091.81
466.293	1065.81
466.512	1046.81
466.732	1018.81
466.951	1032.81
467.171	1029.81
467.391	1014.81
467.61	1017.81
467.829	1009.81
468.049	1015.81
468.268	985.81
468.488	997.81
468.707	954.81
468.927	979.81
469.146	986.81
469.365	1006.81
469.585	1021.81
469.804	991.81
470.023	989.81
470.243	1007.81
470.462	1008.81
470.681	1007.81
470.901	1010.81
471.12	990.81
471.339	1025.81
471.558	1013.81
471.777	997.81
471.997	1000.81
472.216	993.81
472.435	966.81
472.654	977.81
472.873	1000.81
473.092	960.81
473.311	969.81
473.53	987.81
473.749	997.81
473.968	986.81
474.187	950.81
474.406	963.81
474.625	1001.81
474.844	976.81
475.063	983.81
475.282	977.81
475.501	990.81
475.72	999.81
475.939	1006.81
476.158	984.81
476.377	1027.81
476.596	1012.81
476.814	1017.81
477.033	1034.81
477.252	1059.81
477.471	1089.81
477.69	1103.81
477.908	1110.81
478.127	1120.81
478.346	1138.81
478.564	1150.81
478.783	1161.81
479.002	1204.81
479.22	1214.81
479.439	1183.81
479.658	1187.81
479.876	1175.81
480.095	1173.81
480.313	1236.81
480.532	1224.81
480.751	1192.81
480.969	1188.81
481.188	1168.81
481.406	1144.81
481.624	1157.81
481.843	1157.81
482.061	1141.81
482.28	1146.81
482.498	1135.81
482.717	1122.81
482.935	1149.81
483.153	1169.81
483.372	1181.81
483.59	1169.81
483.808	1163.81
484.027	1152.81
484.245	1172.81
484.463	1164.81
484.681	1163.81
484.9	1194.81
485.118	1210.81
485.336	1166.81
485.554	1187.81
485.772	1182.81
485.99	1198.81
486.209	1183.81
486.427	1167.81
486.645	1173.81
486.863	1196.81
487.081	1186.81
487.299	1214.81
487.517	1168.81
487.735	1184.81
487.953	1228.81
488.171	1200.81
488.389	1159.81
488.607	1168.81
488.825	1174.81
489.043	1171.81
489.261	1158.81
489.479	1200.81
489.696	1193.81
489.914	1198.81
490.132	1183.81
490.35	1201.81
490.568	1206.81
490.786	1183.81
491.003	1183.81
491.221	1186.81
491.439	1206.81
491.657	1218.81
491.874	1244.81
492.092	1204.81
492.31	1240.81
492.527	1242.81
492.745	1224.81
492.963	1206.81
493.18	1205.81
493.398	1223.81
493.615	1216.81
493.833	1215.81
494.05	1231.81
494.268	1234.81
494.485	1263.81
494.703	1242.81
494.92	1234.81
495.138	1244.81
495.355	1239.81
495.573	1258.81
495.79	1289.81
496.008	1229.81
496.225	1276.81
496.442	1310.81
496.66	1295.81
496.877	1316.81
497.094	1338.81
497.312	1370.81
497.529	1377.81
497.746	1412.81
497.963	1416.81
498.181	1491.81
498.398	1546.81
498.615	1606.81
498.832	1668.81
499.049	1751.81
499.267	1848.81
499.484	1939.81
499.701	2090.81
499.918	2197.81
500.135	2342.81
500.352	2466.81
500.569	2563.81
500.786	2476.81
501.003	2435.81
501.22	2316.81
501.437	2190.81
501.654	2001.81
501.871	1915.81
502.088	1830.81
502.305	1718.81
502.522	1661.81
502.739	1598.81
502.956	1535.81
503.172	1539.81
503.389	1461.81
503.606	1428.81
503.823	1417.81
504.04	1400.81
504.256	1397.81
504.473	1390.81
504.69	1347.81
504.907	1320.81
505.123	1296.81
505.34	1244.81
505.557	1243.81
505.773	1196.81
505.99	1195.81
506.207	1158.81
506.423	1115.81
506.64	1127.81
506.856	1104.81
507.073	1132.81
507.289	1135.81
507.506	1105.81
507.722	1096.81
507.939	1077.81
508.155	1053.81
508.372	1051.81
508.588	1030.81
508.805	1029.81
509.021	1025.81
509.238	1051.81
509.454	1016.81
509.67	991.81
509.887	992.81
510.103	997.81
510.319	982.81
510.536	1011.81
510.752	990.81
510.968	1014.81
511.184	966.81
511.401	994.81
511.617	974.81
511.833	991.81
512.049	943.81
512.265	982.81
512.481	1001.81
512.698	957.81
512.914	979.81
513.13	982.81
513.346	967.81
513.562	970.81
513.778	962.81
513.994	990.81
514.21	1013.81
514.426	968.81
514.642	1005.81
514.858	996.81
515.074	1019.81
515.29	1010.81
515.506	998.81
515.721	1028.81
515.937	1040.81
516.153	1041.81
516.369	1050.81
516.585	1060.81
516.801	1066.81
517.016	1135.81
517.232	1146.81
517.448	1155.81
517.664	1164.81
517.879	1142.81
518.095	1197.81
518.311	1178.81
518.527	1135.81
518.742	1129.81
518.958	1084.81
519.173	1080.81
519.389	1050.81
519.605	1044.81
519.82	1023.81
520.036	993.81
520.251	987.81
520.467	969.81
520.682	978.81
520.898	968.81
521.113	974.81
521.329	973.81
521.544	937.81
521.76	930.81
521.975	924.81
522.19	916.81
522.406	909.81
522.621	943.81
522.836	911.81
523.052	900.81
523.267	905.81
523.482	903.81
523.698	901.81
523.913	919.81
524.128	902.81
524.343	878.81
524.559	916.81
524.774	879.81
524.989	876.81
525.204	878.81
525.419	900.81
525.634	870.81
525.849	858.81
526.064	845.81
526.28	875.81
526.495	831.81
526.71	872.81
526.925	863.81
527.14	813.81
527.355	861.81
527.57	883.81
527.785	859.81
527.999	861.81
528.214	862.81
528.429	852.81
528.644	859.81
528.859	889.81
529.074	873.81
529.289	850.81
529.503	867.81
529.718	855.81
529.933	853.81
530.148	867.81
530.363	875.81
530.577	842.81
530.792	838.81
531.007	856.81
531.221	842.81
531.436	853.81
531.651	852.81
531.865	878.81
532.08	856.81
532.295	855.81
532.509	848.81
532.724	830.81
532.938	835.81
533.153	844.81
533.367	843.81
533.582	836.81
533.796	845.81
534.011	848.81
534.225	846.81
534.44	824.81
534.654	821.81
534.868	811.81
535.083	826.81
535.297	819.81
535.511	783.81
535.726	804.81
535.94	806.81
536.154	797.81
536.369	807.81
536.583	791.81
536.797	781.81
537.011	804.81
537.225	775.81
537.44	797.81
537.654	812.81
537.868	797.81
538.082	796.81
538.296	794.81
538.51	782.81
538.724	790.81
538.938	761.81
539.153	768.81
539.367	796.81
539.581	776.81
539.795	775.81
540.009	772.81
540.222	767.81
540.436	754.81
540.65	787.81
540.864	764.81
541.078	782.81
541.292	759.81
541.506	766.81
541.72	771.81
541.934	773.81
542.147	771.81
542.361	740.81
542.575	758.81
542.789	735.81
543.002	772.81
543.216	763.81
543.43	749.81
543.644	757.81
543.857	773.81
544.071	796.81
544.285	750.81
544.498	750.81
544.712	760.81
544.925	786.81
545.139	763.81
545.352	742.81
545.566	783.81
545.779	764.81
545.993	788.81
546.206	774.81
546.42	773.81
546.633	779.81
546.847	777.81
547.06	758.81
547.274	787.81
547.487	773.81
547.7	759.81
547.914	761.81
548.127	794.81
548.34	761.81
548.554	766.81
548.767	749.81
548.98	786.81
549.193	752.81
549.407	765.81
549.62	778.81
549.833	814.81
550.046	767.81
550.259	778.81
550.473	755.81
550.686	768.81
550.899	798.81
551.112	772.81
551.325	775.81
551.538	785.81
551.751	759.81
551.964	762.81
552.177	770.81
552.39	781.81
552.603	799.81
552.816	777.81
553.029	784.81
553.242	805.81
553.455	813.81
553.667	784.81
553.88	785.81
554.093	780.81
554.306	759.81
554.519	758.81
554.732	756.81
554.944	769.81
555.157	732.81
555.37	718.81
555.583	712.81
555.795	680.81
556.008	732.81
556.221	710.81
556.433	676.81
556.646	695.81
556.859	701.81
557.071	679.81
557.284	688.81
557.496	670.81
557.709	693.81
557.921	660.81
558.134	649.81
558.346	668.81
558.559	660.81
558.771	657.81
558.984	652.81
559.196	662.81
559.409	642.81
559.621	656.81
559.833	665.81
560.046	659.81
560.258	652.81
560.47	640.81
560.683	663.81
560.895	638.81
561.107	633.81
561.32	635.81
561.532	629.81
561.744	650.81
561.956	634.81
562.168	648.81
562.381	640.81
562.593	627.81
562.805	651.81
563.017	652.81
563.229	670.81
563.441	644.81
563.653	654.81
563.865	646.81
564.077	662.81
564.289	656.81
564.501	681.81
564.713	723.81
564.925	678.81
565.137	700.81
565.349	711.81
565.561	744.81
565.773	774.81
565.985	783.81
566.197	808.81
566.408	814.81
566.62	840.81
566.832	857.81
567.044	882.81
567.255	888.81
567.467	906.81
567.679	919.81
567.891	932.81
568.102	916.81
568.314	919.81
568.526	865.81
568.737	846.81
568.949	776.81
569.161	745.81
569.372	723.81
569.584	690.81
569.795	675.81
570.007	655.81
570.218	642.81
570.43	627.81
570.641	628.81
570.853	627.81
571.064	630.81
571.276	623.81
571.487	610.81
571.698	608.81
571.91	584.81
572.121	574.81
572.333	568.81
572.544	573.81
572.755	556.81
572.966	547.81
573.178	547.81
573.389	547.81
573.6	539.81
573.811	527.81
574.023	527.81
574.234	545.81
574.445	547.81
574.656	519.81
574.867	531.81
575.078	514.81
575.289	528.81
575.501	512.81
575.712	502.81
575.923	503.81
576.134	500.81
576.345	491.81
576.556	491.81
576.767	479.81
576.978	504.81
577.188	479.81
577.399	495.81
577.61	473.81
577.821	489.81
578.032	458.81
578.243	441.81
578.454	478.81
578.665	475.81
578.875	466.81
579.086	490.81
579.297	473.81
579.508	477.81
579.718	470.81
579.929	458.81
580.14	459.81
580.35	474.81
580.561	450.81
580.772	455.81
580.982	441.81
581.193	451.81
581.403	451.81
581.614	449.81
581.825	457.81
582.035	460.81
582.246	452.81
582.456	443.81
582.667	428.81
582.877	444.81
583.087	429.81
583.298	449.81
583.508	430.81
583.719	444.81
583.929	442.81
584.139	431.81
584.35	436.81
584.56	427.81
584.77	419.81
584.981	427.81
585.191	427.81
585.401	430.81
585.611	434.81
585.821	426.81
586.032	427.81
586.242	422.81
586.452	423.81
586.662	434.81
586.872	420.81
587.082	423.81
587.292	402.81
587.502	429.81
587.713	426.81
587.923	413.81
588.133	418.81
588.343	427.81
588.553	414.81
588.762	431.81
588.972	430.81
589.182	457.81
589.392	440.81
589.602	438.81
589.812	456.81
590.022	420.81
590.232	411.81
590.441	422.81
590.651	415.81
590.861	420.81
591.071	435.81
591.281	418.81
591.49	433.81
591.7	434.81
591.91	442.81
592.119	459.81
592.329	450.81
592.539	453.81
592.748	463.81
592.958	459.81
593.167	465.81
593.377	463.81
593.587	463.81
593.796	474.81
594.006	495.81
594.215	486.81
594.424	481.81
594.634	471.81
594.843	460.81
595.053	453.81
595.262	443.81
595.472	439.81
595.681	432.81
595.89	417.81
596.1	409.81
596.309	419.81
596.518	403.81
596.727	391.81
596.937	400.81
597.146	397.81
597.355	403.81
597.564	390.81
597.774	389.81
597.983	375.81
598.192	377.81
598.401	379.81
598.61	366.81
598.819	361.81
599.028	374.81
599.237	367.81
599.446	356.81
599.655	360.81
599.864	349.81
600.073	356.81
600.282	351.81
600.491	362.81
600.7	330.81
600.909	361.81
601.118	332.81
601.327	336.81
601.536	340.81
601.745	345.81
601.953	363.81
602.162	346.81
602.371	340.81
602.58	356.81
602.789	354.81
602.997	343.81
603.206	328.81
603.415	336.81
603.623	334.81
603.832	336.81
604.041	325.81
604.249	332.81
604.458	340.81
604.666	323.81
604.875	345.81
605.084	332.81
605.292	335.81
605.501	325.81
605.709	319.81
605.918	315.81
606.126	319.81
606.334	295.81
606.543	338.81
606.751	339.81
606.96	324.81
607.168	316.81
607.376	309.81
607.585	321.81
607.793	323.81
608.001	322.81
608.21	308.81
608.418	315.81
608.626	295.81
608.834	310.81
609.043	311.81
609.251	306.81
609.459	331.81
609.667	322.81
609.875	298.81
610.083	308.81
610.291	322.81
610.499	334.81
610.707	309.81
610.916	328.81
611.124	322.81
611.332	308.81
611.54	310.81
611.748	304.81
611.955	325.81
612.163	296.81
612.371	298.81
612.579	307.81
612.787	319.81
612.995	298.81
613.203	298.81
613.411	293.81
613.618	319.81
613.826	308.81
614.034	303.81
614.242	310.81
614.449	298.81
614.657	283.81
614.865	317.81
615.072	289.81
615.28	309.81
615.488	300.81
615.695	303.81
615.903	287.81
616.111	304.81
616.318	296.81
616.526	297.81
616.733	295.81
616.941	282.81
617.148	299.81
617.356	302.81
617.563	292.81
617.771	294.81
617.978	299.81
618.185	298.81
618.393	286.81
618.6	299.81
618.807	295.81
619.015	267.81
619.222	298.81
619.429	302.81
619.637	301.81
619.844	293.81
620.051	293.81
620.258	272.81
620.466	276.81
620.673	278.81
620.88	280.81
621.087	276.81
621.294	277.81
621.501	265.81
621.708	300.81
621.915	290.81
622.122	294.81
622.329	281.81
622.536	267.81
622.743	263.81
622.95	278.81
623.157	277.81
623.364	283.81
623.571	286.81
623.778	270.81
623.985	263.81
624.192	288.81
624.399	268.81
624.606	269.81
624.812	274.81
625.019	270.81
625.226	266.81
625.433	271.81
625.639	262.81
625.846	272.81
626.053	262.81
626.259	273.81
626.466	262.81
626.673	270.81
626.879	252.81
627.086	250.81
627.293	255.81
627.499	259.81
627.706	263.81
627.912	271.81
628.119	245.81
628.325	253.81
628.532	233.81
628.738	268.81
628.945	267.81
629.151	251.81
629.357	242.81
629.564	234.81
629.77	239.81
629.976	248.81
630.183	256.81
630.389	254.81
630.595	247.81
630.802	239.81
631.008	252.81
631.214	229.81
631.42	234.81
631.627	259.81
631.833	248.81
632.039	253.81
632.245	217.81
632.451	240.81
632.657	244.81
632.863	212.81
633.069	235.81
633.275	238.81
633.481	242.81
633.688	228.81
633.893	236.81
634.099	228.81
634.305	227.81
634.511	227.81
634.717	239.81
634.923	226.81
635.129	231.81
635.335	218.81
635.541	255.81
635.747	242.81
635.952	247.81
636.158	237.81
636.364	226.81
636.57	243.81
636.775	228.81
636.981	219.81
637.187	234.81
637.392	232.81
637.598	240.81
637.804	224.81
638.009	226.81
638.215	226.81
638.421	238.81
638.626	235.81
638.832	226.81
639.037	224.81
639.243	223.81
639.448	214.81
639.654	231.81
639.859	213.81
640.065	227.81
640.27	227.81
640.475	224.81
640.681	210.81
640.886	230.81
641.091	221.81
641.297	236.81
641.502	205.81
641.707	222.81
641.913	219.81
642.118	217.81
642.323	225.81
642.528	215.81
642.733	214.81
642.939	211.81
643.144	221.81
643.349	206.81
643.554	219.81
643.759	213.81
643.964	204.81
644.169	222.81
644.374	207.81
644.579	227.81
644.784	213.81
644.989	231.81
645.194	222.81
645.399	235.81
645.604	224.81
645.809	216.81
646.014	222.81
646.219	230.81
646.423	218.81
646.628	213.81
646.833	210.81
647.038	233.81
647.243	222.81
647.447	214.81
647.652	226.81
647.857	212.81
648.062	227.81
648.266	215.81
648.471	224.81
648.676	220.81
648.88	221.81
649.085	225.81
649.289	211.81
649.494	223.81
649.698	226.81
649.903	218.81
650.107	208.81
650.312	218.81
650.516	211.81
650.721	230.81
650.925	213.81
651.13	226.81
651.334	212.81
651.539	209.81
651.743	214.81
651.947	198.81
652.152	209.81
652.356	210.81
652.56	198.81
652.764	205.81
652.969	211.81
653.173	192.81
653.377	195.81
653.581	205.81
653.785	209.81
653.99	208.81
654.194	202.81
654.398	203.81
654.602	211.81
654.806	199.81
655.01	202.81
655.214	203.81
655.418	214.81
655.622	214.81
655.826	203.81
656.03	204.81
656.234	213.81
656.438	199.81
656.642	220.81
656.846	219.81
657.049	210.81
657.253	204.81
657.457	179.81
657.661	156.81
657.865	166.81
658.068	166.81
658.272	154.81
658.476	154.81
658.68	133.81
658.883	142.81
659.087	141.81
659.291	134.81
659.494	140.81
659.698	125.81
659.901	112.81
660.105	134.81
660.309	108.81
660.512	122.81
660.716	110.81
660.919	107.81
661.123	103.81
661.326	94.81
661.53	107.81
661.733	89.81
661.936	100.81
662.14	87.81
662.343	85.81
662.546	87.81
662.75	87.81
662.953	91.81
663.156	84.81
663.36	98.81
663.563	99.81
663.766	95.81
663.969	97.81
664.173	82.81
664.376	98.81
664.579	89.81
664.782	75.81
664.985	80.81
665.188	78.81
665.391	83.81
665.594	78.81
665.797	75.81
666	85.81
666.203	95.81
666.406	85.81
666.609	83.81
666.812	103.81
667.015	102.81
667.218	84.81
667.421	80.81
667.624	92.81
667.827	89.81
668.03	94.81
668.232	99.81
668.435	61.81
668.638	78.81
668.841	78.81
669.043	87.81
669.246	99.81
669.449	81.81
669.651	87.81
669.854	85.81
670.057	90.81
670.259	75.81
670.462	94.81
670.665	95.81
670.867	87.81
671.07	88.81
671.272	92.81
671.475	81.81
671.677	84.81
671.88	76.81
672.082	75.81
672.284	72.81
672.487	82.81
672.689	70.81
672.892	78.81
