Data from Ni(NO3)2@0.25M.TitratingCurve.Agarose3%dH2O.NegLispCup.LampEnergy10.LIBS07252019_HRD10591_18-02-37-565.txt Node
Date: Thu Jul 25 18:02:37 EDT 2019
User: cochatt
Spectrometer: HR+D1059
Trigger mode: 1
Integration Time (sec): 1.000000E-1
Scans to average: 1
Electric dark correction enabled: true
Nonlinearity correction enabled: false
Boxcar width: 0
XAxis mode: Wavelengths
Number of Pixels in Spectrum: 2048
>>>>>Begin Spectral Data<<<<<
223.165	-7.88
223.4	-7.88
223.635	-7.88
223.869	-7.88
224.104	-24.88
224.338	-17.88
224.573	-8.88
224.808	-21.88
225.042	-4.88
225.277	-5.88
225.511	1.12
225.746	3.12
225.98	5.12
226.215	6.12
226.449	23.12
226.683	14.12
226.918	21.12
227.152	26.12
227.387	24.12
227.621	36.12
227.856	40.12
228.09	40.12
228.324	44.12
228.559	52.12
228.793	69.12
229.027	107.12
229.262	135.12
229.496	111.12
229.73	125.12
229.964	124.12
230.199	150.12
230.433	145.12
230.667	150.12
230.901	150.12
231.136	147.12
231.37	136.12
231.604	149.12
231.838	159.12
232.072	160.12
232.306	160.12
232.541	167.12
232.775	160.12
233.009	144.12
233.243	147.12
233.477	152.12
233.711	159.12
233.945	152.12
234.179	152.12
234.413	139.12
234.647	168.12
234.881	164.12
235.115	126.12
235.349	143.12
235.583	144.12
235.817	147.12
236.051	154.12
236.285	162.12
236.519	149.12
236.753	156.12
236.987	132.12
237.221	142.12
237.455	162.12
237.689	167.12
237.922	163.12
238.156	168.12
238.39	150.12
238.624	151.12
238.858	185.12
239.091	176.12
239.325	176.12
239.559	175.12
239.793	174.12
240.027	177.12
240.26	187.12
240.494	156.12
240.728	163.12
240.961	170.12
241.195	172.12
241.429	179.12
241.662	180.12
241.896	194.12
242.13	178.12
242.363	199.12
242.597	198.12
242.83	185.12
243.064	195.12
243.298	199.12
243.531	192.12
243.765	194.12
243.998	202.12
244.232	214.12
244.465	211.12
244.699	206.12
244.932	196.12
245.166	215.12
245.399	215.12
245.633	208.12
245.866	200.12
246.099	216.12
246.333	179.12
246.566	214.12
246.8	208.12
247.033	221.12
247.266	213.12
247.5	235.12
247.733	216.12
247.966	232.12
248.2	234.12
248.433	239.12
248.666	238.12
248.899	251.12
249.133	246.12
249.366	247.12
249.599	252.12
249.832	234.12
250.066	251.12
250.299	257.12
250.532	258.12
250.765	260.12
250.998	279.12
251.231	251.12
251.465	279.12
251.698	280.12
251.931	282.12
252.164	287.12
252.397	277.12
252.63	271.12
252.863	278.12
253.096	284.12
253.329	279.12
253.562	296.12
253.795	319.12
254.028	312.12
254.261	298.12
254.494	316.12
254.727	301.12
254.96	316.12
255.193	319.12
255.426	310.12
255.659	334.12
255.892	319.12
256.124	319.12
256.357	327.12
256.59	319.12
256.823	344.12
257.056	343.12
257.289	324.12
257.521	359.12
257.754	346.12
257.987	346.12
258.22	352.12
258.452	364.12
258.685	372.12
258.918	358.12
259.151	361.12
259.383	366.12
259.616	369.12
259.849	365.12
260.081	378.12
260.314	362.12
260.547	364.12
260.779	360.12
261.012	375.12
261.244	376.12
261.477	370.12
261.71	371.12
261.942	388.12
262.175	387.12
262.407	379.12
262.64	413.12
262.872	410.12
263.105	389.12
263.337	404.12
263.57	396.12
263.802	414.12
264.035	412.12
264.267	388.12
264.499	400.12
264.732	419.12
264.964	400.12
265.197	404.12
265.429	411.12
265.661	404.12
265.894	430.12
266.126	437.12
266.358	434.12
266.591	412.12
266.823	418.12
267.055	424.12
267.287	451.12
267.52	436.12
267.752	440.12
267.984	446.12
268.216	422.12
268.448	438.12
268.681	449.12
268.913	438.12
269.145	465.12
269.377	423.12
269.609	453.12
269.841	448.12
270.073	446.12
270.306	453.12
270.538	436.12
270.77	447.12
271.002	440.12
271.234	450.12
271.466	450.12
271.698	462.12
271.93	451.12
272.162	453.12
272.394	468.12
272.626	492.12
272.858	460.12
273.09	473.12
273.322	460.12
273.553	452.12
273.785	470.12
274.017	485.12
274.249	465.12
274.481	474.12
274.713	488.12
274.945	483.12
275.176	495.12
275.408	500.12
275.64	476.12
275.872	458.12
276.104	482.12
276.335	470.12
276.567	494.12
276.799	499.12
277.031	500.12
277.262	484.12
277.494	486.12
277.726	485.12
277.957	493.12
278.189	520.12
278.421	504.12
278.652	483.12
278.884	485.12
279.115	493.12
279.347	508.12
279.579	516.12
279.81	502.12
280.042	493.12
280.273	522.12
280.505	534.12
280.736	523.12
280.968	547.12
281.199	528.12
281.431	523.12
281.662	528.12
281.894	513.12
282.125	539.12
282.356	543.12
282.588	520.12
282.819	545.12
283.051	541.12
283.282	510.12
283.513	535.12
283.745	560.12
283.976	529.12
284.207	516.12
284.439	526.12
284.67	536.12
284.901	552.12
285.132	540.12
285.364	533.12
285.595	537.12
285.826	560.12
286.057	545.12
286.288	543.12
286.52	551.12
286.751	563.12
286.982	564.12
287.213	571.12
287.444	546.12
287.675	548.12
287.906	554.12
288.138	556.12
288.369	507.12
288.6	550.12
288.831	546.12
289.062	559.12
289.293	553.12
289.524	578.12
289.755	568.12
289.986	568.12
290.217	559.12
290.448	582.12
290.679	566.12
290.91	577.12
291.141	568.12
291.371	570.12
291.602	582.12
291.833	591.12
292.064	562.12
292.295	587.12
292.526	559.12
292.757	561.12
292.987	564.12
293.218	570.12
293.449	562.12
293.68	571.12
293.91	568.12
294.141	581.12
294.372	578.12
294.603	540.12
294.833	574.12
295.064	579.12
295.295	584.12
295.525	558.12
295.756	562.12
295.987	550.12
296.217	588.12
296.448	587.12
296.679	586.12
296.909	583.12
297.14	588.12
297.37	587.12
297.601	598.12
297.831	596.12
298.062	580.12
298.292	607.12
298.523	575.12
298.753	620.12
298.984	594.12
299.214	581.12
299.445	604.12
299.675	612.12
299.905	608.12
300.136	614.12
300.366	639.12
300.597	634.12
300.827	627.12
301.057	616.12
301.288	648.12
301.518	623.12
301.748	618.12
301.979	646.12
302.209	626.12
302.439	641.12
302.669	629.12
302.9	644.12
303.13	655.12
303.36	663.12
303.59	638.12
303.82	654.12
304.051	634.12
304.281	669.12
304.511	654.12
304.741	636.12
304.971	663.12
305.201	636.12
305.431	670.12
305.661	666.12
305.891	664.12
306.121	660.12
306.352	663.12
306.582	683.12
306.812	666.12
307.042	648.12
307.272	654.12
307.502	665.12
307.731	660.12
307.961	670.12
308.191	662.12
308.421	645.12
308.651	655.12
308.881	643.12
309.111	682.12
309.341	678.12
309.571	700.12
309.8	675.12
310.03	705.12
310.26	701.12
310.49	685.12
310.72	671.12
310.949	695.12
311.179	672.12
311.409	685.12
311.639	688.12
311.868	701.12
312.098	698.12
312.328	697.12
312.557	717.12
312.787	702.12
313.017	712.12
313.246	707.12
313.476	733.12
313.706	718.12
313.935	707.12
314.165	733.12
314.394	746.12
314.624	745.12
314.853	720.12
315.083	756.12
315.312	747.12
315.542	769.12
315.771	761.12
316.001	756.12
316.23	746.12
316.46	759.12
316.689	797.12
316.919	782.12
317.148	787.12
317.377	759.12
317.607	778.12
317.836	791.12
318.065	768.12
318.295	791.12
318.524	804.12
318.753	796.12
318.983	815.12
319.212	794.12
319.441	804.12
319.67	796.12
319.9	795.12
320.129	807.12
320.358	818.12
320.587	804.12
320.816	808.12
321.046	831.12
321.275	802.12
321.504	844.12
321.733	839.12
321.962	842.12
322.191	847.12
322.42	854.12
322.649	858.12
322.878	845.12
323.108	861.12
323.337	862.12
323.566	841.12
323.795	842.12
324.024	882.12
324.253	890.12
324.482	898.12
324.71	920.12
324.939	892.12
325.168	889.12
325.397	893.12
325.626	888.12
325.855	890.12
326.084	919.12
326.313	903.12
326.542	937.12
326.77	943.12
326.999	928.12
327.228	920.12
327.457	940.12
327.686	951.12
327.914	945.12
328.143	949.12
328.372	931.12
328.6	927.12
328.829	908.12
329.058	931.12
329.287	976.12
329.515	979.12
329.744	948.12
329.972	969.12
330.201	1015.12
330.43	1015.12
330.658	984.12
330.887	1031.12
331.115	1018.12
331.344	1013.12
331.572	1005.12
331.801	1050.12
332.03	1010.12
332.258	1008.12
332.486	1035.12
332.715	1066.12
332.943	1025.12
333.172	1065.12
333.4	1074.12
333.629	1081.12
333.857	1104.12
334.085	1103.12
334.314	1097.12
334.542	1099.12
334.771	1152.12
334.999	1089.12
335.227	1138.12
335.455	1119.12
335.684	1113.12
335.912	1144.12
336.14	1122.12
336.369	1138.12
336.597	1131.12
336.825	1152.12
337.053	1169.12
337.281	1128.12
337.51	1140.12
337.738	1130.12
337.966	1129.12
338.194	1151.12
338.422	1103.12
338.65	1088.12
338.878	1105.12
339.106	1121.12
339.334	1104.12
339.562	1095.12
339.79	1049.12
340.018	1082.12
340.246	1084.12
340.474	1079.12
340.702	1081.12
340.93	1063.12
341.158	1091.12
341.386	1109.12
341.614	1131.12
341.842	1100.12
342.07	1059.12
342.298	1068.12
342.526	1082.12
342.754	1060.12
342.981	1069.12
343.209	1107.12
343.437	1138.12
343.665	1125.12
343.893	1136.12
344.12	1151.12
344.348	1132.12
344.576	1142.12
344.804	1131.12
345.031	1117.12
345.259	1116.12
345.487	1094.12
345.714	1107.12
345.942	1079.12
346.17	1109.12
346.397	1080.12
346.625	1085.12
346.853	1060.12
347.08	1039.12
347.308	1061.12
347.535	1043.12
347.763	1079.12
347.99	1082.12
348.218	1050.12
348.445	1040.12
348.673	1048.12
348.9	1025.12
349.128	1067.12
349.355	1058.12
349.583	1061.12
349.81	1033.12
350.037	1040.12
350.265	1035.12
350.492	1015.12
350.72	1027.12
350.947	1053.12
351.174	1064.12
351.402	1040.12
351.629	1033.12
351.856	1057.12
352.083	1039.12
352.311	1060.12
352.538	1066.12
352.765	1028.12
352.992	994.12
353.22	986.12
353.447	959.12
353.674	1010.12
353.901	964.12
354.128	1030.12
354.355	1026.12
354.583	1026.12
354.81	1006.12
355.037	1041.12
355.264	1018.12
355.491	1010.12
355.718	1010.12
355.945	1002.12
356.172	1002.12
356.399	1010.12
356.626	1026.12
356.853	1003.12
357.08	1007.12
357.307	998.12
357.534	1005.12
357.761	1016.12
357.988	1030.12
358.215	1015.12
358.441	1017.12
358.668	982.12
358.895	996.12
359.122	984.12
359.349	1016.12
359.576	1026.12
359.802	1031.12
360.029	1009.12
360.256	1038.12
360.483	996.12
360.709	1012.12
360.936	1038.12
361.163	1015.12
361.39	999.12
361.616	1020.12
361.843	1017.12
362.07	1066.12
362.296	1028.12
362.523	979.12
362.749	998.12
362.976	995.12
363.203	1006.12
363.429	999.12
363.656	1022.12
363.882	1016.12
364.109	1013.12
364.335	1022.12
364.562	974.12
364.788	1007.12
365.015	988.12
365.241	1038.12
365.468	1031.12
365.694	1000.12
365.92	982.12
366.147	1028.12
366.373	1023.12
366.599	1019.12
366.826	1007.12
367.052	1033.12
367.278	1039.12
367.505	1008.12
367.731	996.12
367.957	1029.12
368.184	994.12
368.41	1010.12
368.636	1036.12
368.862	1055.12
369.089	1023.12
369.315	1034.12
369.541	1030.12
369.767	1014.12
369.993	1000.12
370.219	1026.12
370.445	1022.12
370.672	1032.12
370.898	1049.12
371.124	1015.12
371.35	1044.12
371.576	1045.12
371.802	1049.12
372.028	1036.12
372.254	1026.12
372.48	1042.12
372.706	1040.12
372.932	1056.12
373.158	1033.12
373.384	1037.12
373.61	1033.12
373.835	1034.12
374.061	1053.12
374.287	1069.12
374.513	1082.12
374.739	1062.12
374.965	1026.12
375.191	1044.12
375.416	1050.12
375.642	1055.12
375.868	1059.12
376.094	1059.12
376.319	1047.12
376.545	1015.12
376.771	1006.12
376.997	1011.12
377.222	1018.12
377.448	980.12
377.674	1017.12
377.899	1031.12
378.125	1006.12
378.35	1027.12
378.576	1002.12
378.802	1024.12
379.027	1006.12
379.253	1014.12
379.478	987.12
379.704	1002.12
379.929	966.12
380.155	1027.12
380.38	997.12
380.606	1045.12
380.831	1034.12
381.057	1022.12
381.282	1001.12
381.507	1003.12
381.733	986.12
381.958	1043.12
382.184	1045.12
382.409	1049.12
382.634	1021.12
382.86	1032.12
383.085	1047.12
383.31	1038.12
383.535	1017.12
383.761	1045.12
383.986	1047.12
384.211	1055.12
384.436	1046.12
384.662	1080.12
384.887	1060.12
385.112	1103.12
385.337	1090.12
385.562	1113.12
385.787	1120.12
386.013	1132.12
386.238	1102.12
386.463	1094.12
386.688	1111.12
386.913	1106.12
387.138	1085.12
387.363	1122.12
387.588	1091.12
387.813	1131.12
388.038	1138.12
388.263	1139.12
388.488	1127.12
388.713	1144.12
388.938	1139.12
389.163	1142.12
389.387	1152.12
389.612	1127.12
389.837	1130.12
390.062	1109.12
390.287	1147.12
390.512	1123.12
390.736	1120.12
390.961	1182.12
391.186	1152.12
391.411	1151.12
391.636	1182.12
391.86	1198.12
392.085	1180.12
392.31	1166.12
392.534	1154.12
392.759	1176.12
392.984	1150.12
393.208	1162.12
393.433	1186.12
393.658	1204.12
393.882	1151.12
394.107	1183.12
394.331	1195.12
394.556	1198.12
394.78	1168.12
395.005	1167.12
395.229	1181.12
395.454	1202.12
395.678	1199.12
395.903	1193.12
396.127	1190.12
396.352	1217.12
396.576	1235.12
396.801	1212.12
397.025	1220.12
397.249	1206.12
397.474	1228.12
397.698	1224.12
397.922	1272.12
398.147	1273.12
398.371	1275.12
398.595	1257.12
398.82	1318.12
399.044	1341.12
399.268	1369.12
399.492	1396.12
399.717	1430.12
399.941	1466.12
400.165	1426.12
400.389	1460.12
400.613	1374.12
400.837	1362.12
401.062	1360.12
401.286	1366.12
401.51	1311.12
401.734	1316.12
401.958	1354.12
402.182	1323.12
402.406	1317.12
402.63	1272.12
402.854	1314.12
403.078	1297.12
403.302	1293.12
403.526	1307.12
403.75	1319.12
403.974	1327.12
404.198	1315.12
404.422	1312.12
404.645	1324.12
404.869	1333.12
405.093	1346.12
405.317	1316.12
405.541	1356.12
405.765	1376.12
405.988	1363.12
406.212	1365.12
406.436	1387.12
406.66	1378.12
406.883	1376.12
407.107	1451.12
407.331	1455.12
407.555	1478.12
407.778	1462.12
408.002	1462.12
408.226	1436.12
408.449	1468.12
408.673	1436.12
408.896	1421.12
409.12	1438.12
409.344	1427.12
409.567	1410.12
409.791	1413.12
410.014	1429.12
410.238	1386.12
410.461	1420.12
410.685	1419.12
410.908	1405.12
411.132	1403.12
411.355	1359.12
411.578	1405.12
411.802	1363.12
412.025	1344.12
412.249	1362.12
412.472	1354.12
412.695	1348.12
412.919	1363.12
413.142	1365.12
413.365	1343.12
413.589	1352.12
413.812	1333.12
414.035	1336.12
414.258	1340.12
414.482	1357.12
414.705	1327.12
414.928	1327.12
415.151	1355.12
415.374	1324.12
415.597	1335.12
415.821	1307.12
416.044	1288.12
416.267	1307.12
416.49	1310.12
416.713	1276.12
416.936	1335.12
417.159	1320.12
417.382	1305.12
417.605	1258.12
417.828	1249.12
418.051	1274.12
418.274	1324.12
418.497	1259.12
418.72	1267.12
418.943	1294.12
419.166	1357.12
419.389	1437.12
419.611	1378.12
419.834	1383.12
420.057	1346.12
420.28	1311.12
420.503	1288.12
420.726	1280.12
420.948	1292.12
421.171	1289.12
421.394	1289.12
421.617	1267.12
421.839	1317.12
422.062	1333.12
422.285	1249.12
422.507	1314.12
422.73	1285.12
422.953	1284.12
423.175	1274.12
423.398	1295.12
423.621	1298.12
423.843	1308.12
424.066	1311.12
424.288	1317.12
424.511	1283.12
424.733	1324.12
424.956	1316.12
425.178	1322.12
425.401	1294.12
425.623	1334.12
425.846	1272.12
426.068	1310.12
426.291	1306.12
426.513	1336.12
426.735	1268.12
426.958	1325.12
427.18	1296.12
427.402	1270.12
427.625	1300.12
427.847	1259.12
428.069	1262.12
428.292	1291.12
428.514	1286.12
428.736	1249.12
428.958	1294.12
429.181	1294.12
429.403	1256.12
429.625	1272.12
429.847	1267.12
430.069	1267.12
430.292	1294.12
430.514	1276.12
430.736	1270.12
430.958	1264.12
431.18	1292.12
431.402	1238.12
431.624	1309.12
431.846	1270.12
432.068	1236.12
432.29	1266.12
432.512	1320.12
432.734	1293.12
432.956	1310.12
433.178	1336.12
433.4	1304.12
433.622	1320.12
433.844	1342.12
434.066	1291.12
434.287	1317.12
434.509	1292.12
434.731	1301.12
434.953	1301.12
435.175	1336.12
435.397	1352.12
435.618	1344.12
435.84	1308.12
436.062	1274.12
436.284	1278.12
436.505	1262.12
436.727	1297.12
436.949	1296.12
437.17	1282.12
437.392	1283.12
437.614	1262.12
437.835	1254.12
438.057	1255.12
438.278	1238.12
438.5	1254.12
438.721	1258.12
438.943	1257.12
439.165	1246.12
439.386	1260.12
439.608	1283.12
439.829	1278.12
440.05	1268.12
440.272	1284.12
440.493	1285.12
440.715	1325.12
440.936	1320.12
441.158	1335.12
441.379	1331.12
441.6	1358.12
441.822	1340.12
442.043	1338.12
442.264	1342.12
442.486	1310.12
442.707	1368.12
442.928	1324.12
443.149	1328.12
443.371	1363.12
443.592	1374.12
443.813	1371.12
444.034	1336.12
444.255	1342.12
444.476	1382.12
444.698	1397.12
444.919	1381.12
445.14	1503.12
445.361	1421.12
445.582	1357.12
445.803	1326.12
446.024	1306.12
446.245	1285.12
446.466	1322.12
446.687	1282.12
446.908	1275.12
447.129	1298.12
447.35	1279.12
447.571	1262.12
447.792	1246.12
448.013	1234.12
448.234	1228.12
448.455	1236.12
448.675	1229.12
448.896	1209.12
449.117	1252.12
449.338	1228.12
449.559	1190.12
449.779	1195.12
450	1182.12
450.221	1170.12
450.442	1205.12
450.662	1183.12
450.883	1185.12
451.104	1214.12
451.324	1169.12
451.545	1156.12
451.766	1180.12
451.986	1190.12
452.207	1197.12
452.428	1204.12
452.648	1170.12
452.869	1140.12
453.089	1140.12
453.31	1186.12
453.53	1158.12
453.751	1167.12
453.971	1193.12
454.192	1160.12
454.412	1155.12
454.633	1173.12
454.853	1130.12
455.073	1154.12
455.294	1155.12
455.514	1163.12
455.734	1151.12
455.955	1147.12
456.175	1139.12
456.395	1149.12
456.616	1135.12
456.836	1161.12
457.056	1154.12
457.276	1115.12
457.497	1158.12
457.717	1152.12
457.937	1192.12
458.157	1174.12
458.377	1184.12
458.598	1175.12
458.818	1182.12
459.038	1203.12
459.258	1220.12
459.478	1247.12
459.698	1293.12
459.918	1310.12
460.138	1293.12
460.358	1293.12
460.578	1334.12
460.798	1364.12
461.018	1378.12
461.238	1343.12
461.458	1353.12
461.678	1355.12
461.898	1391.12
462.118	1369.12
462.338	1384.12
462.558	1453.12
462.777	1450.12
462.997	1446.12
463.217	1468.12
463.437	1518.12
463.657	1484.12
463.876	1447.12
464.096	1447.12
464.316	1452.12
464.536	1436.12
464.755	1431.12
464.975	1401.12
465.195	1362.12
465.414	1359.12
465.634	1288.12
465.854	1302.12
466.073	1287.12
466.293	1285.12
466.512	1246.12
466.732	1250.12
466.951	1275.12
467.171	1241.12
467.391	1260.12
467.61	1241.12
467.829	1255.12
468.049	1220.12
468.268	1245.12
468.488	1246.12
468.707	1183.12
468.927	1231.12
469.146	1245.12
469.365	1243.12
469.585	1219.12
469.804	1254.12
470.023	1270.12
470.243	1241.12
470.462	1286.12
470.681	1252.12
470.901	1296.12
471.12	1242.12
471.339	1281.12
471.558	1261.12
471.777	1248.12
471.997	1207.12
472.216	1219.12
472.435	1228.12
472.654	1207.12
472.873	1224.12
473.092	1248.12
473.311	1259.12
473.53	1224.12
473.749	1207.12
473.968	1258.12
474.187	1251.12
474.406	1238.12
474.625	1235.12
474.844	1271.12
475.063	1300.12
475.282	1246.12
475.501	1292.12
475.72	1299.12
475.939	1304.12
476.158	1305.12
476.377	1318.12
476.596	1346.12
476.814	1321.12
477.033	1316.12
477.252	1361.12
477.471	1359.12
477.69	1373.12
477.908	1384.12
478.127	1376.12
478.346	1404.12
478.564	1425.12
478.783	1457.12
479.002	1465.12
479.22	1486.12
479.439	1463.12
479.658	1448.12
479.876	1413.12
480.095	1469.12
480.313	1488.12
480.532	1470.12
480.751	1471.12
480.969	1435.12
481.188	1440.12
481.406	1470.12
481.624	1448.12
481.843	1437.12
482.061	1435.12
482.28	1461.12
482.498	1450.12
482.717	1431.12
482.935	1461.12
483.153	1495.12
483.372	1485.12
483.59	1474.12
483.808	1447.12
484.027	1467.12
484.245	1463.12
484.463	1452.12
484.681	1498.12
484.9	1468.12
485.118	1460.12
485.336	1452.12
485.554	1448.12
485.772	1451.12
485.99	1455.12
486.209	1491.12
486.427	1480.12
486.645	1489.12
486.863	1469.12
487.081	1467.12
487.299	1538.12
487.517	1484.12
487.735	1516.12
487.953	1515.12
488.171	1562.12
488.389	1516.12
488.607	1523.12
488.825	1538.12
489.043	1486.12
489.261	1502.12
489.479	1511.12
489.696	1511.12
489.914	1516.12
490.132	1506.12
490.35	1509.12
490.568	1547.12
490.786	1583.12
491.003	1550.12
491.221	1589.12
491.439	1541.12
491.657	1574.12
491.874	1590.12
492.092	1580.12
492.31	1602.12
492.527	1620.12
492.745	1591.12
492.963	1603.12
493.18	1601.12
493.398	1583.12
493.615	1645.12
493.833	1572.12
494.05	1639.12
494.268	1610.12
494.485	1613.12
494.703	1625.12
494.92	1639.12
495.138	1616.12
495.355	1637.12
495.573	1664.12
495.79	1650.12
496.008	1660.12
496.225	1652.12
496.442	1711.12
496.66	1740.12
496.877	1714.12
497.094	1740.12
497.312	1766.12
497.529	1767.12
497.746	1821.12
497.963	1824.12
498.181	1844.12
498.398	1854.12
498.615	1922.12
498.832	1962.12
499.049	2027.12
499.267	2056.12
499.484	2139.12
499.701	2180.12
499.918	2203.12
500.135	2318.12
500.352	2351.12
500.569	2351.12
500.786	2373.12
501.003	2303.12
501.22	2311.12
501.437	2253.12
501.654	2184.12
501.871	2128.12
502.088	2054.12
502.305	1998.12
502.522	2000.12
502.739	1972.12
502.956	1881.12
503.172	1862.12
503.389	1799.12
503.606	1816.12
503.823	1775.12
504.04	1763.12
504.256	1729.12
504.473	1710.12
504.69	1708.12
504.907	1677.12
505.123	1656.12
505.34	1590.12
505.557	1569.12
505.773	1595.12
505.99	1546.12
506.207	1531.12
506.423	1483.12
506.64	1511.12
506.856	1466.12
507.073	1439.12
507.289	1428.12
507.506	1461.12
507.722	1432.12
507.939	1414.12
508.155	1420.12
508.372	1440.12
508.588	1395.12
508.805	1381.12
509.021	1371.12
509.238	1353.12
509.454	1378.12
509.67	1354.12
509.887	1355.12
510.103	1360.12
510.319	1327.12
510.536	1309.12
510.752	1288.12
510.968	1334.12
511.184	1302.12
511.401	1331.12
511.617	1296.12
511.833	1312.12
512.049	1300.12
512.265	1285.12
512.481	1314.12
512.698	1288.12
512.914	1270.12
513.13	1318.12
513.346	1300.12
513.562	1291.12
513.778	1335.12
513.994	1304.12
514.21	1289.12
514.426	1327.12
514.642	1294.12
514.858	1328.12
515.074	1342.12
515.29	1349.12
515.506	1326.12
515.721	1351.12
515.937	1365.12
516.153	1340.12
516.369	1353.12
516.585	1359.12
516.801	1409.12
517.016	1400.12
517.232	1399.12
517.448	1405.12
517.664	1434.12
517.879	1420.12
518.095	1384.12
518.311	1430.12
518.527	1394.12
518.742	1389.12
518.958	1398.12
519.173	1355.12
519.389	1325.12
519.605	1321.12
519.82	1333.12
520.036	1323.12
520.251	1319.12
520.467	1286.12
520.682	1291.12
520.898	1289.12
521.113	1274.12
521.329	1245.12
521.544	1239.12
521.76	1271.12
521.975	1231.12
522.19	1220.12
522.406	1220.12
522.621	1220.12
522.836	1220.12
523.052	1229.12
523.267	1196.12
523.482	1215.12
523.698	1220.12
523.913	1199.12
524.128	1170.12
524.343	1214.12
524.559	1191.12
524.774	1182.12
524.989	1206.12
525.204	1186.12
525.419	1207.12
525.634	1185.12
525.849	1186.12
526.064	1165.12
526.28	1158.12
526.495	1141.12
526.71	1177.12
526.925	1145.12
527.14	1139.12
527.355	1124.12
527.57	1156.12
527.785	1146.12
527.999	1135.12
528.214	1169.12
528.429	1130.12
528.644	1154.12
528.859	1158.12
529.074	1187.12
529.289	1177.12
529.503	1154.12
529.718	1151.12
529.933	1115.12
530.148	1135.12
530.363	1138.12
530.577	1122.12
530.792	1111.12
531.007	1115.12
531.221	1115.12
531.436	1079.12
531.651	1105.12
531.865	1101.12
532.08	1105.12
532.295	1086.12
532.509	1086.12
532.724	1096.12
532.938	1094.12
533.153	1116.12
533.367	1101.12
533.582	1129.12
533.796	1096.12
534.011	1097.12
534.225	1079.12
534.44	1090.12
534.654	1105.12
534.868	1100.12
535.083	1111.12
535.297	1098.12
535.511	1073.12
535.726	1064.12
535.94	1081.12
536.154	1033.12
536.369	1070.12
536.583	1065.12
536.797	1061.12
537.011	1064.12
537.225	1056.12
537.44	1067.12
537.654	1039.12
537.868	1036.12
538.082	1043.12
538.296	1055.12
538.51	1029.12
538.724	1034.12
538.938	1045.12
539.153	1040.12
539.367	1067.12
539.581	1059.12
539.795	1004.12
540.009	1020.12
540.222	996.12
540.436	1026.12
540.65	1020.12
540.864	1029.12
541.078	1032.12
541.292	1056.12
541.506	1034.12
541.72	1051.12
541.934	1030.12
542.147	1072.12
542.361	1034.12
542.575	1017.12
542.789	995.12
543.002	1011.12
543.216	1012.12
543.43	997.12
543.644	1020.12
543.857	1012.12
544.071	1025.12
544.285	1067.12
544.498	1030.12
544.712	1009.12
544.925	1031.12
545.139	1037.12
545.352	1017.12
545.566	1050.12
545.779	1026.12
545.993	1031.12
546.206	1039.12
546.42	992.12
546.633	1006.12
546.847	1039.12
547.06	1032.12
547.274	1014.12
547.487	1013.12
547.7	1031.12
547.914	1021.12
548.127	1026.12
548.34	1001.12
548.554	1044.12
548.767	1031.12
548.98	1028.12
549.193	1018.12
549.407	1005.12
549.62	1014.12
549.833	1020.12
550.046	1003.12
550.259	1004.12
550.473	1004.12
550.686	1017.12
550.899	1014.12
551.112	997.12
551.325	972.12
551.538	990.12
551.751	978.12
551.964	985.12
552.177	988.12
552.39	999.12
552.603	1021.12
552.816	1019.12
553.029	995.12
553.242	994.12
553.455	1010.12
553.667	1024.12
553.88	978.12
554.093	996.12
554.306	1000.12
554.519	969.12
554.732	960.12
554.944	973.12
555.157	957.12
555.37	942.12
555.583	912.12
555.795	920.12
556.008	944.12
556.221	880.12
556.433	892.12
556.646	892.12
556.859	911.12
557.071	901.12
557.284	870.12
557.496	865.12
557.709	896.12
557.921	895.12
558.134	873.12
558.346	863.12
558.559	893.12
558.771	900.12
558.984	852.12
559.196	881.12
559.409	844.12
559.621	841.12
559.833	843.12
560.046	855.12
560.258	869.12
560.47	829.12
560.683	849.12
560.895	848.12
561.107	847.12
561.32	825.12
561.532	853.12
561.744	834.12
561.956	853.12
562.168	858.12
562.381	856.12
562.593	862.12
562.805	877.12
563.017	830.12
563.229	827.12
563.441	858.12
563.653	854.12
563.865	847.12
564.077	867.12
564.289	854.12
564.501	880.12
564.713	869.12
564.925	894.12
565.137	898.12
565.349	897.12
565.561	923.12
565.773	931.12
565.985	905.12
566.197	923.12
566.408	955.12
566.62	966.12
566.832	954.12
567.044	981.12
567.255	985.12
567.467	986.12
567.679	976.12
567.891	947.12
568.102	968.12
568.314	919.12
568.526	932.12
568.737	890.12
568.949	893.12
569.161	864.12
569.372	842.12
569.584	826.12
569.795	825.12
570.007	836.12
570.218	783.12
570.43	785.12
570.641	781.12
570.853	748.12
571.064	766.12
571.276	786.12
571.487	727.12
571.698	765.12
571.91	751.12
572.121	739.12
572.333	723.12
572.544	697.12
572.755	703.12
572.966	699.12
573.178	693.12
573.389	695.12
573.6	677.12
573.811	677.12
574.023	706.12
574.234	677.12
574.445	662.12
574.656	661.12
574.867	670.12
575.078	653.12
575.289	658.12
575.501	642.12
575.712	644.12
575.923	623.12
576.134	635.12
576.345	647.12
576.556	659.12
576.767	630.12
576.978	640.12
577.188	614.12
577.399	608.12
577.61	603.12
577.821	602.12
578.032	606.12
578.243	622.12
578.454	605.12
578.665	596.12
578.875	590.12
579.086	592.12
579.297	599.12
579.508	592.12
579.718	577.12
579.929	601.12
580.14	573.12
580.35	597.12
580.561	617.12
580.772	599.12
580.982	584.12
581.193	580.12
581.403	583.12
581.614	581.12
581.825	556.12
582.035	542.12
582.246	557.12
582.456	566.12
582.667	562.12
582.877	568.12
583.087	563.12
583.298	574.12
583.508	567.12
583.719	558.12
583.929	565.12
584.139	563.12
584.35	546.12
584.56	536.12
584.77	527.12
584.981	539.12
585.191	535.12
585.401	544.12
585.611	540.12
585.821	534.12
586.032	537.12
586.242	514.12
586.452	517.12
586.662	535.12
586.872	547.12
587.082	534.12
587.292	536.12
587.502	526.12
587.713	527.12
587.923	503.12
588.133	516.12
588.343	517.12
588.553	541.12
588.762	539.12
588.972	524.12
589.182	566.12
589.392	544.12
589.602	523.12
589.812	572.12
590.022	526.12
590.232	511.12
590.441	522.12
590.651	499.12
590.861	523.12
591.071	513.12
591.281	533.12
591.49	546.12
591.7	555.12
591.91	534.12
592.119	516.12
592.329	543.12
592.539	520.12
592.748	526.12
592.958	533.12
593.167	524.12
593.377	511.12
593.587	546.12
593.796	518.12
594.006	521.12
594.215	521.12
594.424	531.12
594.634	527.12
594.843	532.12
595.053	526.12
595.262	520.12
595.472	506.12
595.681	514.12
595.89	483.12
596.1	488.12
596.309	510.12
596.518	496.12
596.727	481.12
596.937	477.12
597.146	471.12
597.355	495.12
597.564	464.12
597.774	459.12
597.983	458.12
598.192	452.12
598.401	442.12
598.61	452.12
598.819	464.12
599.028	451.12
599.237	460.12
599.446	444.12
599.655	437.12
599.864	427.12
600.073	445.12
600.282	417.12
600.491	438.12
600.7	425.12
600.909	429.12
601.118	430.12
601.327	451.12
601.536	429.12
601.745	416.12
601.953	431.12
602.162	430.12
602.371	424.12
602.58	430.12
602.789	423.12
602.997	420.12
603.206	437.12
603.415	420.12
603.623	404.12
603.832	426.12
604.041	412.12
604.249	399.12
604.458	394.12
604.666	418.12
604.875	411.12
605.084	400.12
605.292	404.12
605.501	407.12
605.709	409.12
605.918	410.12
606.126	399.12
606.334	420.12
606.543	403.12
606.751	395.12
606.96	372.12
607.168	410.12
607.376	403.12
607.585	392.12
607.793	401.12
608.001	382.12
608.21	386.12
608.418	403.12
608.626	376.12
608.834	387.12
609.043	371.12
609.251	388.12
609.459	391.12
609.667	396.12
609.875	393.12
610.083	388.12
610.291	401.12
610.499	386.12
610.707	380.12
610.916	364.12
611.124	390.12
611.332	388.12
611.54	376.12
611.748	377.12
611.955	394.12
612.163	365.12
612.371	390.12
612.579	363.12
612.787	363.12
612.995	376.12
613.203	380.12
613.411	368.12
613.618	356.12
613.826	368.12
614.034	364.12
614.242	374.12
614.449	367.12
614.657	365.12
614.865	383.12
615.072	380.12
615.28	365.12
615.488	372.12
615.695	354.12
615.903	350.12
616.111	376.12
616.318	370.12
616.526	349.12
616.733	365.12
616.941	354.12
617.148	363.12
617.356	362.12
617.563	365.12
617.771	347.12
617.978	357.12
618.185	335.12
618.393	341.12
618.6	367.12
618.807	356.12
619.015	365.12
619.222	356.12
619.429	354.12
619.637	343.12
619.844	343.12
620.051	344.12
620.258	330.12
620.466	325.12
620.673	358.12
620.88	331.12
621.087	339.12
621.294	322.12
621.501	328.12
621.708	323.12
621.915	344.12
622.122	344.12
622.329	332.12
622.536	333.12
622.743	331.12
622.95	344.12
623.157	337.12
623.364	332.12
623.571	343.12
623.778	332.12
623.985	332.12
624.192	332.12
624.399	309.12
624.606	326.12
624.812	346.12
625.019	315.12
625.226	336.12
625.433	321.12
625.639	327.12
625.846	319.12
626.053	313.12
626.259	304.12
626.466	302.12
626.673	303.12
626.879	323.12
627.086	319.12
627.293	303.12
627.499	304.12
627.706	303.12
627.912	292.12
628.119	296.12
628.325	325.12
628.532	306.12
628.738	295.12
628.945	308.12
629.151	310.12
629.357	314.12
629.564	294.12
629.77	292.12
629.976	309.12
630.183	310.12
630.389	295.12
630.595	294.12
630.802	316.12
631.008	269.12
631.214	284.12
631.42	299.12
631.627	291.12
631.833	290.12
632.039	271.12
632.245	284.12
632.451	295.12
632.657	278.12
632.863	267.12
633.069	272.12
633.275	273.12
633.481	261.12
633.688	295.12
633.893	284.12
634.099	284.12
634.305	272.12
634.511	273.12
634.717	280.12
634.923	275.12
635.129	258.12
635.335	260.12
635.541	276.12
635.747	267.12
635.952	251.12
636.158	267.12
636.364	255.12
636.57	268.12
636.775	277.12
636.981	272.12
637.187	252.12
637.392	245.12
637.598	245.12
637.804	262.12
638.009	279.12
638.215	254.12
638.421	271.12
638.626	260.12
638.832	251.12
639.037	260.12
639.243	261.12
639.448	265.12
639.654	260.12
639.859	260.12
640.065	277.12
640.27	251.12
640.475	270.12
640.681	262.12
640.886	258.12
641.091	248.12
641.297	250.12
641.502	263.12
641.707	258.12
641.913	263.12
642.118	239.12
642.323	244.12
642.528	246.12
642.733	258.12
642.939	266.12
643.144	246.12
643.349	260.12
643.554	262.12
643.759	260.12
643.964	245.12
644.169	258.12
644.374	248.12
644.579	251.12
644.784	262.12
644.989	242.12
645.194	261.12
645.399	256.12
645.604	250.12
645.809	259.12
646.014	251.12
646.219	250.12
646.423	250.12
646.628	249.12
646.833	248.12
647.038	247.12
647.243	240.12
647.447	238.12
647.652	244.12
647.857	246.12
648.062	232.12
648.266	242.12
648.471	229.12
648.676	257.12
648.88	269.12
649.085	253.12
649.289	240.12
649.494	246.12
649.698	241.12
649.903	252.12
650.107	267.12
650.312	241.12
650.516	234.12
650.721	238.12
650.925	238.12
651.13	239.12
651.334	224.12
651.539	222.12
651.743	226.12
651.947	229.12
652.152	219.12
652.356	224.12
652.56	220.12
652.764	222.12
652.969	205.12
653.173	216.12
653.377	218.12
653.581	206.12
653.785	209.12
653.99	206.12
654.194	196.12
654.398	198.12
654.602	196.12
654.806	214.12
655.01	224.12
655.214	194.12
655.418	200.12
655.622	187.12
655.826	186.12
656.03	199.12
656.234	192.12
656.438	183.12
656.642	180.12
656.846	193.12
657.049	185.12
657.253	183.12
657.457	163.12
657.661	160.12
657.865	154.12
658.068	165.12
658.272	143.12
658.476	173.12
658.68	136.12
658.883	122.12
659.087	128.12
659.291	131.12
659.494	134.12
659.698	132.12
659.901	107.12
660.105	113.12
660.309	136.12
660.512	116.12
660.716	117.12
660.919	101.12
661.123	116.12
661.326	92.12
661.53	106.12
661.733	93.12
661.936	103.12
662.14	109.12
662.343	91.12
662.546	81.12
662.75	102.12
662.953	90.12
663.156	100.12
663.36	104.12
663.563	96.12
663.766	87.12
663.969	86.12
664.173	80.12
664.376	89.12
664.579	87.12
664.782	102.12
664.985	98.12
665.188	92.12
665.391	80.12
665.594	79.12
665.797	95.12
666	74.12
666.203	90.12
666.406	80.12
666.609	90.12
666.812	93.12
667.015	81.12
667.218	80.12
667.421	90.12
667.624	87.12
667.827	77.12
668.03	98.12
668.232	76.12
668.435	83.12
668.638	90.12
668.841	75.12
669.043	75.12
669.246	96.12
669.449	84.12
669.651	85.12
669.854	84.12
670.057	79.12
670.259	79.12
670.462	70.12
670.665	92.12
670.867	79.12
671.07	74.12
671.272	90.12
671.475	86.12
671.677	84.12
671.88	84.12
672.082	77.12
672.284	71.12
672.487	82.12
672.689	83.12
672.892	67.12
