Data from Ni(NO3)2@0.25M.TitratingCurve.Agarose3%dH2O.NegLispCup.LampEnergy10.LIBS07252019_HRD10591_18-05-13-566.txt Node
Date: Thu Jul 25 18:05:13 EDT 2019
User: cochatt
Spectrometer: HR+D1059
Trigger mode: 1
Integration Time (sec): 1.000000E-1
Scans to average: 1
Electric dark correction enabled: true
Nonlinearity correction enabled: false
Boxcar width: 0
XAxis mode: Wavelengths
Number of Pixels in Spectrum: 2048
>>>>>Begin Spectral Data<<<<<
223.165	-6.31
223.4	-6.31
223.635	-6.31
223.869	-12.31
224.104	-16.31
224.338	-16.31
224.573	-21.31
224.808	-6.31
225.042	-3.31
225.277	-3.31
225.511	-8.31
225.746	-0.31
225.98	17.69
226.215	10.69
226.449	16.69
226.683	12.69
226.918	13.69
227.152	22.69
227.387	11.69
227.621	34.69
227.856	38.69
228.09	32.69
228.324	49.69
228.559	63.69
228.793	53.69
229.027	94.69
229.262	107.69
229.496	125.69
229.73	111.69
229.964	119.69
230.199	116.69
230.433	128.69
230.667	114.69
230.901	121.69
231.136	142.69
231.37	139.69
231.604	129.69
231.838	137.69
232.072	140.69
232.306	139.69
232.541	135.69
232.775	131.69
233.009	127.69
233.243	147.69
233.477	132.69
233.711	135.69
233.945	153.69
234.179	144.69
234.413	135.69
234.647	149.69
234.881	133.69
235.115	147.69
235.349	133.69
235.583	132.69
235.817	147.69
236.051	142.69
236.285	150.69
236.519	139.69
236.753	138.69
236.987	149.69
237.221	147.69
237.455	161.69
237.689	144.69
237.922	147.69
238.156	143.69
238.39	137.69
238.624	156.69
238.858	169.69
239.091	173.69
239.325	166.69
239.559	163.69
239.793	152.69
240.027	171.69
240.26	177.69
240.494	165.69
240.728	164.69
240.961	178.69
241.195	159.69
241.429	177.69
241.662	157.69
241.896	168.69
242.13	186.69
242.363	186.69
242.597	184.69
242.83	181.69
243.064	188.69
243.298	179.69
243.531	189.69
243.765	178.69
243.998	178.69
244.232	169.69
244.465	191.69
244.699	197.69
244.932	195.69
245.166	192.69
245.399	191.69
245.633	196.69
245.866	210.69
246.099	185.69
246.333	203.69
246.566	213.69
246.8	216.69
247.033	212.69
247.266	209.69
247.5	215.69
247.733	195.69
247.966	217.69
248.2	215.69
248.433	205.69
248.666	227.69
248.899	225.69
249.133	243.69
249.366	230.69
249.599	248.69
249.832	227.69
250.066	232.69
250.299	223.69
250.532	217.69
250.765	246.69
250.998	246.69
251.231	245.69
251.465	252.69
251.698	266.69
251.931	256.69
252.164	266.69
252.397	268.69
252.63	272.69
252.863	263.69
253.096	249.69
253.329	259.69
253.562	278.69
253.795	289.69
254.028	290.69
254.261	275.69
254.494	270.69
254.727	283.69
254.96	273.69
255.193	284.69
255.426	297.69
255.659	296.69
255.892	293.69
256.124	297.69
256.357	309.69
256.59	326.69
256.823	299.69
257.056	311.69
257.289	310.69
257.521	293.69
257.754	293.69
257.987	320.69
258.22	306.69
258.452	320.69
258.685	303.69
258.918	303.69
259.151	323.69
259.383	323.69
259.616	327.69
259.849	307.69
260.081	333.69
260.314	332.69
260.547	326.69
260.779	318.69
261.012	332.69
261.244	322.69
261.477	360.69
261.71	341.69
261.942	349.69
262.175	328.69
262.407	332.69
262.64	346.69
262.872	348.69
263.105	352.69
263.337	352.69
263.57	382.69
263.802	371.69
264.035	338.69
264.267	355.69
264.499	352.69
264.732	381.69
264.964	377.69
265.197	371.69
265.429	369.69
265.661	343.69
265.894	360.69
266.126	367.69
266.358	369.69
266.591	357.69
266.823	385.69
267.055	373.69
267.287	384.69
267.52	396.69
267.752	377.69
267.984	388.69
268.216	388.69
268.448	391.69
268.681	389.69
268.913	389.69
269.145	389.69
269.377	388.69
269.609	384.69
269.841	383.69
270.073	381.69
270.306	400.69
270.538	396.69
270.77	387.69
271.002	409.69
271.234	388.69
271.466	421.69
271.698	402.69
271.93	401.69
272.162	413.69
272.394	410.69
272.626	419.69
272.858	393.69
273.09	408.69
273.322	409.69
273.553	413.69
273.785	410.69
274.017	435.69
274.249	434.69
274.481	417.69
274.713	414.69
274.945	424.69
275.176	407.69
275.408	426.69
275.64	431.69
275.872	426.69
276.104	432.69
276.335	431.69
276.567	408.69
276.799	430.69
277.031	431.69
277.262	452.69
277.494	428.69
277.726	416.69
277.957	428.69
278.189	425.69
278.421	425.69
278.652	446.69
278.884	451.69
279.115	444.69
279.347	479.69
279.579	455.69
279.81	447.69
280.042	442.69
280.273	459.69
280.505	482.69
280.736	454.69
280.968	485.69
281.199	453.69
281.431	463.69
281.662	464.69
281.894	485.69
282.125	455.69
282.356	492.69
282.588	473.69
282.819	453.69
283.051	460.69
283.282	463.69
283.513	487.69
283.745	465.69
283.976	466.69
284.207	459.69
284.439	489.69
284.67	468.69
284.901	473.69
285.132	481.69
285.364	501.69
285.595	485.69
285.826	492.69
286.057	489.69
286.288	477.69
286.52	498.69
286.751	511.69
286.982	502.69
287.213	495.69
287.444	498.69
287.675	515.69
287.906	508.69
288.138	508.69
288.369	503.69
288.6	495.69
288.831	509.69
289.062	521.69
289.293	525.69
289.524	518.69
289.755	497.69
289.986	521.69
290.217	491.69
290.448	526.69
290.679	521.69
290.91	499.69
291.141	490.69
291.371	515.69
291.602	501.69
291.833	522.69
292.064	528.69
292.295	523.69
292.526	501.69
292.757	508.69
292.987	530.69
293.218	519.69
293.449	522.69
293.68	530.69
293.91	515.69
294.141	499.69
294.372	529.69
294.603	519.69
294.833	520.69
295.064	531.69
295.295	538.69
295.525	525.69
295.756	523.69
295.987	533.69
296.217	519.69
296.448	519.69
296.679	534.69
296.909	537.69
297.14	533.69
297.37	539.69
297.601	550.69
297.831	546.69
298.062	548.69
298.292	538.69
298.523	572.69
298.753	565.69
298.984	578.69
299.214	563.69
299.445	580.69
299.675	545.69
299.905	559.69
300.136	556.69
300.366	564.69
300.597	575.69
300.827	567.69
301.057	580.69
301.288	565.69
301.518	572.69
301.748	587.69
301.979	602.69
302.209	585.69
302.439	599.69
302.669	590.69
302.9	581.69
303.13	592.69
303.36	575.69
303.59	561.69
303.82	592.69
304.051	619.69
304.281	592.69
304.511	604.69
304.741	570.69
304.971	581.69
305.201	593.69
305.431	580.69
305.661	612.69
305.891	595.69
306.121	587.69
306.352	578.69
306.582	565.69
306.812	581.69
307.042	588.69
307.272	584.69
307.502	573.69
307.731	587.69
307.961	589.69
308.191	572.69
308.421	577.69
308.651	587.69
308.881	592.69
309.111	599.69
309.341	579.69
309.571	576.69
309.8	566.69
310.03	610.69
310.26	610.69
310.49	609.69
310.72	577.69
310.949	583.69
311.179	613.69
311.409	603.69
311.639	619.69
311.868	589.69
312.098	619.69
312.328	611.69
312.557	634.69
312.787	629.69
313.017	607.69
313.246	639.69
313.476	646.69
313.706	646.69
313.935	626.69
314.165	623.69
314.394	667.69
314.624	661.69
314.853	619.69
315.083	657.69
315.312	670.69
315.542	652.69
315.771	654.69
316.001	647.69
316.23	653.69
316.46	626.69
316.689	659.69
316.919	684.69
317.148	685.69
317.377	642.69
317.607	659.69
317.836	656.69
318.065	639.69
318.295	683.69
318.524	665.69
318.753	641.69
318.983	640.69
319.212	658.69
319.441	651.69
319.67	672.69
319.9	665.69
320.129	678.69
320.358	669.69
320.587	675.69
320.816	666.69
321.046	693.69
321.275	685.69
321.504	691.69
321.733	673.69
321.962	686.69
322.191	687.69
322.42	694.69
322.649	694.69
322.878	668.69
323.108	705.69
323.337	712.69
323.566	714.69
323.795	698.69
324.024	706.69
324.253	722.69
324.482	705.69
324.71	723.69
324.939	732.69
325.168	742.69
325.397	743.69
325.626	746.69
325.855	754.69
326.084	746.69
326.313	782.69
326.542	779.69
326.77	767.69
326.999	752.69
327.228	759.69
327.457	788.69
327.686	761.69
327.914	770.69
328.143	801.69
328.372	791.69
328.6	794.69
328.829	760.69
329.058	771.69
329.287	799.69
329.515	819.69
329.744	799.69
329.972	841.69
330.201	805.69
330.43	819.69
330.658	846.69
330.887	803.69
331.115	827.69
331.344	853.69
331.572	828.69
331.801	844.69
332.03	887.69
332.258	872.69
332.486	880.69
332.715	925.69
332.943	924.69
333.172	931.69
333.4	998.69
333.629	1024.69
333.857	1051.69
334.085	1035.69
334.314	1032.69
334.542	1038.69
334.771	1023.69
334.999	1020.69
335.227	1043.69
335.455	1043.69
335.684	1023.69
335.912	1026.69
336.14	1051.69
336.369	1009.69
336.597	1023.69
336.825	1013.69
337.053	1033.69
337.281	986.69
337.51	958.69
337.738	964.69
337.966	966.69
338.194	938.69
338.422	939.69
338.65	909.69
338.878	912.69
339.106	914.69
339.334	922.69
339.562	923.69
339.79	859.69
340.018	881.69
340.246	895.69
340.474	869.69
340.702	885.69
340.93	883.69
341.158	885.69
341.386	892.69
341.614	914.69
341.842	891.69
342.07	860.69
342.298	839.69
342.526	863.69
342.754	868.69
342.981	879.69
343.209	879.69
343.437	944.69
343.665	969.69
343.893	977.69
344.12	999.69
344.348	992.69
344.576	1016.69
344.804	968.69
345.031	934.69
345.259	922.69
345.487	932.69
345.714	893.69
345.942	897.69
346.17	912.69
346.397	877.69
346.625	842.69
346.853	840.69
347.08	821.69
347.308	844.69
347.535	850.69
347.763	861.69
347.99	833.69
348.218	845.69
348.445	841.69
348.673	854.69
348.9	847.69
349.128	853.69
349.355	841.69
349.583	859.69
349.81	844.69
350.037	820.69
350.265	798.69
350.492	796.69
350.72	817.69
350.947	822.69
351.174	835.69
351.402	834.69
351.629	868.69
351.856	824.69
352.083	804.69
352.311	822.69
352.538	834.69
352.765	843.69
352.992	811.69
353.22	791.69
353.447	795.69
353.674	808.69
353.901	763.69
354.128	787.69
354.355	794.69
354.583	796.69
354.81	798.69
355.037	810.69
355.264	806.69
355.491	797.69
355.718	835.69
355.945	781.69
356.172	816.69
356.399	792.69
356.626	810.69
356.853	844.69
357.08	850.69
357.307	802.69
357.534	808.69
357.761	805.69
357.988	823.69
358.215	822.69
358.441	810.69
358.668	794.69
358.895	761.69
359.122	794.69
359.349	802.69
359.576	772.69
359.802	812.69
360.029	801.69
360.256	822.69
360.483	798.69
360.709	787.69
360.936	813.69
361.163	818.69
361.39	809.69
361.616	817.69
361.843	829.69
362.07	837.69
362.296	839.69
362.523	802.69
362.749	820.69
362.976	795.69
363.203	822.69
363.429	799.69
363.656	788.69
363.882	831.69
364.109	795.69
364.335	793.69
364.562	786.69
364.788	794.69
365.015	795.69
365.241	817.69
365.468	772.69
365.694	770.69
365.92	818.69
366.147	808.69
366.373	811.69
366.599	806.69
366.826	794.69
367.052	803.69
367.278	789.69
367.505	798.69
367.731	801.69
367.957	795.69
368.184	773.69
368.41	831.69
368.636	823.69
368.862	802.69
369.089	808.69
369.315	811.69
369.541	799.69
369.767	834.69
369.993	831.69
370.219	815.69
370.445	823.69
370.672	854.69
370.898	838.69
371.124	843.69
371.35	848.69
371.576	834.69
371.802	859.69
372.028	859.69
372.254	863.69
372.48	852.69
372.706	856.69
372.932	877.69
373.158	881.69
373.384	881.69
373.61	868.69
373.835	859.69
374.061	860.69
374.287	853.69
374.513	867.69
374.739	921.69
374.965	903.69
375.191	905.69
375.416	939.69
375.642	901.69
375.868	902.69
376.094	875.69
376.319	873.69
376.545	848.69
376.771	858.69
376.997	850.69
377.222	830.69
377.448	840.69
377.674	841.69
377.899	849.69
378.125	838.69
378.35	825.69
378.576	867.69
378.802	870.69
379.027	817.69
379.253	843.69
379.478	808.69
379.704	834.69
379.929	843.69
380.155	803.69
380.38	843.69
380.606	818.69
380.831	835.69
381.057	844.69
381.282	823.69
381.507	838.69
381.733	849.69
381.958	843.69
382.184	862.69
382.409	869.69
382.634	879.69
382.86	879.69
383.085	880.69
383.31	861.69
383.535	903.69
383.761	893.69
383.986	922.69
384.211	921.69
384.436	916.69
384.662	957.69
384.887	957.69
385.112	967.69
385.337	972.69
385.562	979.69
385.787	991.69
386.013	999.69
386.238	1008.69
386.463	989.69
386.688	994.69
386.913	970.69
387.138	989.69
387.363	989.69
387.588	986.69
387.813	985.69
388.038	994.69
388.263	993.69
388.488	985.69
388.713	1002.69
388.938	976.69
389.163	972.69
389.387	994.69
389.612	1002.69
389.837	981.69
390.062	977.69
390.287	978.69
390.512	1009.69
390.736	993.69
390.961	1009.69
391.186	1023.69
391.411	1036.69
391.636	1060.69
391.86	1075.69
392.085	1068.69
392.31	1089.69
392.534	1088.69
392.759	1083.69
392.984	1085.69
393.208	1049.69
393.433	1055.69
393.658	1041.69
393.882	1052.69
394.107	1052.69
394.331	1059.69
394.556	1073.69
394.78	1071.69
395.005	1067.69
395.229	1073.69
395.454	1075.69
395.678	1122.69
395.903	1123.69
396.127	1108.69
396.352	1091.69
396.576	1097.69
396.801	1104.69
397.025	1119.69
397.249	1087.69
397.474	1144.69
397.698	1107.69
397.922	1159.69
398.147	1155.69
398.371	1225.69
398.595	1231.69
398.82	1243.69
399.044	1327.69
399.268	1410.69
399.492	1519.69
399.717	1639.69
399.941	1669.69
400.165	1602.69
400.389	1537.69
400.613	1435.69
400.837	1340.69
401.062	1333.69
401.286	1312.69
401.51	1296.69
401.734	1279.69
401.958	1294.69
402.182	1278.69
402.406	1256.69
402.63	1314.69
402.854	1303.69
403.078	1321.69
403.302	1322.69
403.526	1327.69
403.75	1316.69
403.974	1322.69
404.198	1343.69
404.422	1337.69
404.645	1350.69
404.869	1362.69
405.093	1384.69
405.317	1346.69
405.541	1332.69
405.765	1364.69
405.988	1383.69
406.212	1395.69
406.436	1367.69
406.66	1437.69
406.883	1416.69
407.107	1470.69
407.331	1513.69
407.555	1597.69
407.778	1590.69
408.002	1527.69
408.226	1544.69
408.449	1512.69
408.673	1477.69
408.896	1415.69
409.12	1413.69
409.344	1460.69
409.567	1413.69
409.791	1402.69
410.014	1409.69
410.238	1413.69
410.461	1358.69
410.685	1362.69
410.908	1323.69
411.132	1369.69
411.355	1312.69
411.578	1295.69
411.802	1307.69
412.025	1332.69
412.249	1360.69
412.472	1369.69
412.695	1309.69
412.919	1331.69
413.142	1327.69
413.365	1314.69
413.589	1305.69
413.812	1292.69
414.035	1285.69
414.258	1279.69
414.482	1295.69
414.705	1290.69
414.928	1346.69
415.151	1319.69
415.374	1292.69
415.597	1265.69
415.821	1257.69
416.044	1235.69
416.267	1246.69
416.49	1220.69
416.713	1238.69
416.936	1250.69
417.159	1252.69
417.382	1238.69
417.605	1279.69
417.828	1251.69
418.051	1248.69
418.274	1302.69
418.497	1265.69
418.72	1273.69
418.943	1285.69
419.166	1356.69
419.389	1418.69
419.611	1404.69
419.834	1410.69
420.057	1356.69
420.28	1277.69
420.503	1267.69
420.726	1282.69
420.948	1252.69
421.171	1264.69
421.394	1257.69
421.617	1281.69
421.839	1276.69
422.062	1264.69
422.285	1258.69
422.507	1281.69
422.73	1270.69
422.953	1285.69
423.175	1269.69
423.398	1286.69
423.621	1294.69
423.843	1285.69
424.066	1313.69
424.288	1267.69
424.511	1297.69
424.733	1283.69
424.956	1260.69
425.178	1269.69
425.401	1284.69
425.623	1276.69
425.846	1284.69
426.068	1267.69
426.291	1252.69
426.513	1242.69
426.735	1212.69
426.958	1221.69
427.18	1203.69
427.402	1229.69
427.625	1224.69
427.847	1168.69
428.069	1196.69
428.292	1169.69
428.514	1165.69
428.736	1157.69
428.958	1207.69
429.181	1121.69
429.403	1172.69
429.625	1158.69
429.847	1169.69
430.069	1140.69
430.292	1155.69
430.514	1148.69
430.736	1144.69
430.958	1173.69
431.18	1168.69
431.402	1193.69
431.624	1173.69
431.846	1161.69
432.068	1188.69
432.29	1203.69
432.512	1154.69
432.734	1205.69
432.956	1213.69
433.178	1195.69
433.4	1206.69
433.622	1231.69
433.844	1242.69
434.066	1236.69
434.287	1223.69
434.509	1239.69
434.731	1269.69
434.953	1281.69
435.175	1300.69
435.397	1311.69
435.618	1250.69
435.84	1223.69
436.062	1223.69
436.284	1215.69
436.505	1199.69
436.727	1200.69
436.949	1221.69
437.17	1176.69
437.392	1143.69
437.614	1149.69
437.835	1132.69
438.057	1148.69
438.278	1155.69
438.5	1137.69
438.721	1121.69
438.943	1128.69
439.165	1129.69
439.386	1168.69
439.608	1177.69
439.829	1203.69
440.05	1191.69
440.272	1186.69
440.493	1168.69
440.715	1226.69
440.936	1219.69
441.158	1246.69
441.379	1243.69
441.6	1281.69
441.822	1296.69
442.043	1293.69
442.264	1305.69
442.486	1298.69
442.707	1285.69
442.928	1291.69
443.149	1289.69
443.371	1289.69
443.592	1305.69
443.813	1310.69
444.034	1291.69
444.255	1361.69
444.476	1371.69
444.698	1432.69
444.919	1435.69
445.14	1565.69
445.361	1436.69
445.582	1355.69
445.803	1313.69
446.024	1289.69
446.245	1246.69
446.466	1258.69
446.687	1207.69
446.908	1206.69
447.129	1188.69
447.35	1154.69
447.571	1129.69
447.792	1139.69
448.013	1135.69
448.234	1099.69
448.455	1104.69
448.675	1126.69
448.896	1105.69
449.117	1085.69
449.338	1101.69
449.559	1088.69
449.779	1087.69
450	1097.69
450.221	1105.69
450.442	1089.69
450.662	1113.69
450.883	1077.69
451.104	1098.69
451.324	1068.69
451.545	1084.69
451.766	1075.69
451.986	1067.69
452.207	1063.69
452.428	1080.69
452.648	1055.69
452.869	1057.69
453.089	1059.69
453.31	1065.69
453.53	1035.69
453.751	1017.69
453.971	1045.69
454.192	1038.69
454.412	1026.69
454.633	1042.69
454.853	1025.69
455.073	1035.69
455.294	986.69
455.514	1024.69
455.734	998.69
455.955	1003.69
456.175	1021.69
456.395	1032.69
456.616	1026.69
456.836	1010.69
457.056	1011.69
457.276	1032.69
457.497	1060.69
457.717	1022.69
457.937	1028.69
458.157	1058.69
458.377	1087.69
458.598	1098.69
458.818	1131.69
459.038	1137.69
459.258	1148.69
459.478	1196.69
459.698	1233.69
459.918	1261.69
460.138	1273.69
460.358	1322.69
460.578	1343.69
460.798	1339.69
461.018	1368.69
461.238	1387.69
461.458	1377.69
461.678	1369.69
461.898	1406.69
462.118	1404.69
462.338	1496.69
462.558	1514.69
462.777	1556.69
462.997	1618.69
463.217	1698.69
463.437	1654.69
463.657	1629.69
463.876	1607.69
464.096	1602.69
464.316	1602.69
464.536	1547.69
464.755	1520.69
464.975	1474.69
465.195	1422.69
465.414	1388.69
465.634	1271.69
465.854	1246.69
466.073	1252.69
466.293	1175.69
466.512	1176.69
466.732	1149.69
466.951	1169.69
467.171	1149.69
467.391	1119.69
467.61	1144.69
467.829	1109.69
468.049	1154.69
468.268	1087.69
468.488	1109.69
468.707	1106.69
468.927	1131.69
469.146	1084.69
469.365	1125.69
469.585	1109.69
469.804	1157.69
470.023	1151.69
470.243	1115.69
470.462	1169.69
470.681	1163.69
470.901	1148.69
471.12	1163.69
471.339	1147.69
471.558	1123.69
471.777	1124.69
471.997	1109.69
472.216	1114.69
472.435	1103.69
472.654	1064.69
472.873	1090.69
473.092	1081.69
473.311	1075.69
473.53	1080.69
473.749	1067.69
473.968	1065.69
474.187	1050.69
474.406	1047.69
474.625	1073.69
474.844	1072.69
475.063	1099.69
475.282	1098.69
475.501	1105.69
475.72	1121.69
475.939	1099.69
476.158	1125.69
476.377	1128.69
476.596	1114.69
476.814	1162.69
477.033	1132.69
477.252	1135.69
477.471	1210.69
477.69	1189.69
477.908	1216.69
478.127	1249.69
478.346	1297.69
478.564	1281.69
478.783	1301.69
479.002	1345.69
479.22	1324.69
479.439	1328.69
479.658	1343.69
479.876	1330.69
480.095	1314.69
480.313	1380.69
480.532	1367.69
480.751	1347.69
480.969	1333.69
481.188	1315.69
481.406	1280.69
481.624	1279.69
481.843	1255.69
482.061	1236.69
482.28	1235.69
482.498	1253.69
482.717	1223.69
482.935	1260.69
483.153	1259.69
483.372	1273.69
483.59	1238.69
483.808	1228.69
484.027	1249.69
484.245	1250.69
484.463	1253.69
484.681	1242.69
484.9	1228.69
485.118	1279.69
485.336	1254.69
485.554	1261.69
485.772	1254.69
485.99	1265.69
486.209	1277.69
486.427	1290.69
486.645	1283.69
486.863	1302.69
487.081	1265.69
487.299	1314.69
487.517	1254.69
487.735	1266.69
487.953	1287.69
488.171	1313.69
488.389	1265.69
488.607	1250.69
488.825	1247.69
489.043	1239.69
489.261	1267.69
489.479	1286.69
489.696	1293.69
489.914	1308.69
490.132	1329.69
490.35	1300.69
490.568	1322.69
490.786	1315.69
491.003	1306.69
491.221	1344.69
491.439	1316.69
491.657	1301.69
491.874	1341.69
492.092	1345.69
492.31	1371.69
492.527	1363.69
492.745	1373.69
492.963	1325.69
493.18	1348.69
493.398	1396.69
493.615	1347.69
493.833	1396.69
494.05	1365.69
494.268	1397.69
494.485	1381.69
494.703	1408.69
494.92	1420.69
495.138	1412.69
495.355	1407.69
495.573	1428.69
495.79	1436.69
496.008	1450.69
496.225	1443.69
496.442	1469.69
496.66	1490.69
496.877	1535.69
497.094	1558.69
497.312	1618.69
497.529	1618.69
497.746	1653.69
497.963	1720.69
498.181	1805.69
498.398	1841.69
498.615	1923.69
498.832	2063.69
499.049	2173.69
499.267	2307.69
499.484	2481.69
499.701	2643.69
499.918	2851.69
500.135	3072.69
500.352	3305.69
500.569	3381.69
500.786	3394.69
501.003	3284.69
501.22	3132.69
501.437	2851.69
501.654	2623.69
501.871	2495.69
502.088	2347.69
502.305	2203.69
502.522	2067.69
502.739	2011.69
502.956	1907.69
503.172	1864.69
503.389	1768.69
503.606	1718.69
503.823	1697.69
504.04	1638.69
504.256	1635.69
504.473	1616.69
504.69	1600.69
504.907	1560.69
505.123	1558.69
505.34	1489.69
505.557	1427.69
505.773	1397.69
505.99	1365.69
506.207	1315.69
506.423	1307.69
506.64	1314.69
506.856	1300.69
507.073	1291.69
507.289	1243.69
507.506	1233.69
507.722	1248.69
507.939	1240.69
508.155	1215.69
508.372	1223.69
508.588	1206.69
508.805	1158.69
509.021	1205.69
509.238	1158.69
509.454	1184.69
509.67	1155.69
509.887	1154.69
510.103	1115.69
510.319	1135.69
510.536	1089.69
510.752	1109.69
510.968	1137.69
511.184	1102.69
511.401	1119.69
511.617	1104.69
511.833	1155.69
512.049	1111.69
512.265	1128.69
512.481	1111.69
512.698	1124.69
512.914	1133.69
513.13	1148.69
513.346	1163.69
513.562	1127.69
513.778	1145.69
513.994	1160.69
514.21	1137.69
514.426	1153.69
514.642	1155.69
514.858	1179.69
515.074	1185.69
515.29	1149.69
515.506	1163.69
515.721	1222.69
515.937	1228.69
516.153	1236.69
516.369	1228.69
516.585	1291.69
516.801	1325.69
517.016	1373.69
517.232	1386.69
517.448	1438.69
517.664	1491.69
517.879	1447.69
518.095	1458.69
518.311	1472.69
518.527	1391.69
518.742	1377.69
518.958	1340.69
519.173	1288.69
519.389	1258.69
519.605	1260.69
519.82	1210.69
520.036	1191.69
520.251	1166.69
520.467	1120.69
520.682	1107.69
520.898	1150.69
521.113	1099.69
521.329	1099.69
521.544	1092.69
521.76	1093.69
521.975	1081.69
522.19	1068.69
522.406	1042.69
522.621	1049.69
522.836	1065.69
523.052	1068.69
523.267	1012.69
523.482	1021.69
523.698	1032.69
523.913	1032.69
524.128	1057.69
524.343	1038.69
524.559	1004.69
524.774	995.69
524.989	998.69
525.204	1013.69
525.419	1005.69
525.634	1023.69
525.849	1007.69
526.064	1016.69
526.28	977.69
526.495	993.69
526.71	995.69
526.925	997.69
527.14	1028.69
527.355	989.69
527.57	951.69
527.785	1002.69
527.999	973.69
528.214	998.69
528.429	1007.69
528.644	1005.69
528.859	1003.69
529.074	990.69
529.289	999.69
529.503	1009.69
529.718	1019.69
529.933	994.69
530.148	975.69
530.363	1004.69
530.577	976.69
530.792	977.69
531.007	927.69
531.221	970.69
531.436	1004.69
531.651	1014.69
531.865	975.69
532.08	984.69
532.295	977.69
532.509	963.69
532.724	972.69
532.938	974.69
533.153	965.69
533.367	979.69
533.582	1001.69
533.796	976.69
534.011	991.69
534.225	976.69
534.44	974.69
534.654	986.69
534.868	971.69
535.083	981.69
535.297	960.69
535.511	983.69
535.726	958.69
535.94	940.69
536.154	943.69
536.369	958.69
536.583	910.69
536.797	922.69
537.011	929.69
537.225	923.69
537.44	931.69
537.654	912.69
537.868	921.69
538.082	892.69
538.296	917.69
538.51	890.69
538.724	923.69
538.938	928.69
539.153	889.69
539.367	930.69
539.581	918.69
539.795	907.69
540.009	897.69
540.222	876.69
540.436	893.69
540.65	895.69
540.864	879.69
541.078	906.69
541.292	904.69
541.506	906.69
541.72	912.69
541.934	907.69
542.147	903.69
542.361	915.69
542.575	918.69
542.789	889.69
543.002	903.69
543.216	892.69
543.43	899.69
543.644	868.69
543.857	890.69
544.071	923.69
544.285	915.69
544.498	911.69
544.712	931.69
544.925	892.69
545.139	915.69
545.352	910.69
545.566	921.69
545.779	919.69
545.993	925.69
546.206	918.69
546.42	917.69
546.633	896.69
546.847	917.69
547.06	893.69
547.274	920.69
547.487	904.69
547.7	928.69
547.914	954.69
548.127	933.69
548.34	917.69
548.554	949.69
548.767	904.69
548.98	922.69
549.193	940.69
549.407	919.69
549.62	930.69
549.833	929.69
550.046	936.69
550.259	915.69
550.473	927.69
550.686	909.69
550.899	905.69
551.112	930.69
551.325	905.69
551.538	919.69
551.751	919.69
551.964	898.69
552.177	925.69
552.39	933.69
552.603	925.69
552.816	963.69
553.029	943.69
553.242	995.69
553.455	1016.69
553.667	1009.69
553.88	965.69
554.093	892.69
554.306	924.69
554.519	929.69
554.732	901.69
554.944	892.69
555.157	869.69
555.37	868.69
555.583	855.69
555.795	862.69
556.008	842.69
556.221	833.69
556.433	825.69
556.646	825.69
556.859	821.69
557.071	817.69
557.284	819.69
557.496	812.69
557.709	801.69
557.921	776.69
558.134	782.69
558.346	753.69
558.559	771.69
558.771	773.69
558.984	775.69
559.196	759.69
559.409	757.69
559.621	753.69
559.833	772.69
560.046	758.69
560.258	767.69
560.47	761.69
560.683	736.69
560.895	763.69
561.107	758.69
561.32	744.69
561.532	781.69
561.744	756.69
561.956	759.69
562.168	751.69
562.381	749.69
562.593	780.69
562.805	782.69
563.017	754.69
563.229	806.69
563.441	764.69
563.653	793.69
563.865	796.69
564.077	776.69
564.289	798.69
564.501	811.69
564.713	800.69
564.925	831.69
565.137	853.69
565.349	885.69
565.561	907.69
565.773	915.69
565.985	928.69
566.197	982.69
566.408	1027.69
566.62	1090.69
566.832	1098.69
567.044	1127.69
567.255	1158.69
567.467	1184.69
567.679	1161.69
567.891	1253.69
568.102	1215.69
568.314	1178.69
568.526	1128.69
568.737	1084.69
568.949	975.69
569.161	926.69
569.372	901.69
569.584	862.69
569.795	855.69
570.007	817.69
570.218	791.69
570.43	788.69
570.641	770.69
570.853	772.69
571.064	790.69
571.276	730.69
571.487	723.69
571.698	724.69
571.91	715.69
572.121	727.69
572.333	696.69
572.544	649.69
572.755	697.69
572.966	664.69
573.178	660.69
573.389	627.69
573.6	633.69
573.811	631.69
574.023	640.69
574.234	640.69
574.445	629.69
574.656	628.69
574.867	623.69
575.078	626.69
575.289	582.69
575.501	593.69
575.712	589.69
575.923	601.69
576.134	579.69
576.345	596.69
576.556	572.69
576.767	597.69
576.978	573.69
577.188	594.69
577.399	597.69
577.61	558.69
577.821	588.69
578.032	565.69
578.243	547.69
578.454	535.69
578.665	556.69
578.875	588.69
579.086	520.69
579.297	535.69
579.508	547.69
579.718	560.69
579.929	526.69
580.14	544.69
580.35	556.69
580.561	517.69
580.772	511.69
580.982	544.69
581.193	540.69
581.403	526.69
581.614	537.69
581.825	526.69
582.035	516.69
582.246	522.69
582.456	499.69
582.667	510.69
582.877	524.69
583.087	509.69
583.298	524.69
583.508	519.69
583.719	484.69
583.929	501.69
584.139	522.69
584.35	517.69
584.56	506.69
584.77	502.69
584.981	508.69
585.191	504.69
585.401	504.69
585.611	504.69
585.821	490.69
586.032	507.69
586.242	508.69
586.452	486.69
586.662	500.69
586.872	492.69
587.082	513.69
587.292	488.69
587.502	494.69
587.713	500.69
587.923	512.69
588.133	469.69
588.343	468.69
588.553	500.69
588.762	471.69
588.972	482.69
589.182	519.69
589.392	519.69
589.602	517.69
589.812	537.69
590.022	501.69
590.232	502.69
590.441	481.69
590.651	505.69
590.861	491.69
591.071	498.69
591.281	504.69
591.49	518.69
591.7	525.69
591.91	534.69
592.119	532.69
592.329	523.69
592.539	559.69
592.748	560.69
592.958	564.69
593.167	554.69
593.377	575.69
593.587	580.69
593.796	585.69
594.006	587.69
594.215	579.69
594.424	586.69
594.634	589.69
594.843	553.69
595.053	565.69
595.262	514.69
595.472	525.69
595.681	503.69
595.89	495.69
596.1	486.69
596.309	475.69
596.518	490.69
596.727	455.69
596.937	458.69
597.146	456.69
597.355	439.69
597.564	483.69
597.774	441.69
597.983	448.69
598.192	465.69
598.401	433.69
598.61	438.69
598.819	428.69
599.028	414.69
599.237	423.69
599.446	410.69
599.655	411.69
599.864	439.69
600.073	419.69
600.282	394.69
600.491	398.69
600.7	423.69
600.909	425.69
601.118	415.69
601.327	415.69
601.536	400.69
601.745	395.69
601.953	403.69
602.162	391.69
602.371	392.69
602.58	394.69
602.789	401.69
602.997	394.69
603.206	385.69
603.415	397.69
603.623	378.69
603.832	370.69
604.041	378.69
604.249	360.69
604.458	377.69
604.666	363.69
604.875	386.69
605.084	378.69
605.292	389.69
605.501	368.69
605.709	368.69
605.918	368.69
606.126	371.69
606.334	372.69
606.543	374.69
606.751	367.69
606.96	365.69
607.168	385.69
607.376	383.69
607.585	356.69
607.793	381.69
608.001	373.69
608.21	348.69
608.418	360.69
608.626	347.69
608.834	345.69
609.043	374.69
609.251	369.69
609.459	371.69
609.667	366.69
609.875	352.69
610.083	345.69
610.291	354.69
610.499	351.69
610.707	364.69
610.916	361.69
611.124	368.69
611.332	362.69
611.54	364.69
611.748	330.69
611.955	341.69
612.163	337.69
612.371	362.69
612.579	361.69
612.787	341.69
612.995	360.69
613.203	360.69
613.411	339.69
613.618	321.69
613.826	355.69
614.034	334.69
614.242	345.69
614.449	340.69
614.657	352.69
614.865	350.69
615.072	340.69
615.28	351.69
615.488	332.69
615.695	346.69
615.903	334.69
616.111	358.69
616.318	343.69
616.526	333.69
616.733	360.69
616.941	339.69
617.148	335.69
617.356	348.69
617.563	327.69
617.771	345.69
617.978	344.69
618.185	325.69
618.393	347.69
618.6	328.69
618.807	336.69
619.015	336.69
619.222	342.69
619.429	325.69
619.637	319.69
619.844	323.69
620.051	320.69
620.258	333.69
620.466	318.69
620.673	317.69
620.88	323.69
621.087	298.69
621.294	317.69
621.501	307.69
621.708	312.69
621.915	322.69
622.122	322.69
622.329	315.69
622.536	322.69
622.743	299.69
622.95	309.69
623.157	310.69
623.364	325.69
623.571	305.69
623.778	309.69
623.985	323.69
624.192	319.69
624.399	301.69
624.606	306.69
624.812	298.69
625.019	280.69
625.226	292.69
625.433	286.69
625.639	300.69
625.846	294.69
626.053	283.69
626.259	307.69
626.466	280.69
626.673	295.69
626.879	280.69
627.086	291.69
627.293	282.69
627.499	276.69
627.706	300.69
627.912	288.69
628.119	271.69
628.325	279.69
628.532	283.69
628.738	295.69
628.945	292.69
629.151	269.69
629.357	292.69
629.564	274.69
629.77	274.69
629.976	266.69
630.183	276.69
630.389	265.69
630.595	265.69
630.802	268.69
631.008	272.69
631.214	245.69
631.42	263.69
631.627	267.69
631.833	283.69
632.039	252.69
632.245	257.69
632.451	253.69
632.657	243.69
632.863	275.69
633.069	262.69
633.275	263.69
633.481	261.69
633.688	242.69
633.893	243.69
634.099	252.69
634.305	245.69
634.511	246.69
634.717	261.69
634.923	269.69
635.129	240.69
635.335	250.69
635.541	243.69
635.747	247.69
635.952	261.69
636.158	260.69
636.364	242.69
636.57	263.69
636.775	253.69
636.981	251.69
637.187	254.69
637.392	240.69
637.598	218.69
637.804	259.69
638.009	239.69
638.215	244.69
638.421	233.69
638.626	259.69
638.832	244.69
639.037	236.69
639.243	227.69
639.448	233.69
639.654	212.69
639.859	212.69
640.065	224.69
640.27	239.69
640.475	238.69
640.681	235.69
640.886	218.69
641.091	232.69
641.297	223.69
641.502	220.69
641.707	227.69
641.913	224.69
642.118	234.69
642.323	244.69
642.528	234.69
642.733	224.69
642.939	214.69
643.144	225.69
643.349	215.69
643.554	218.69
643.759	230.69
643.964	229.69
644.169	233.69
644.374	199.69
644.579	232.69
644.784	218.69
644.989	211.69
645.194	201.69
645.399	213.69
645.604	235.69
645.809	220.69
646.014	224.69
646.219	226.69
646.423	214.69
646.628	210.69
646.833	205.69
647.038	213.69
647.243	218.69
647.447	215.69
647.652	211.69
647.857	210.69
648.062	212.69
648.266	232.69
648.471	226.69
648.676	215.69
648.88	218.69
649.085	203.69
649.289	225.69
649.494	217.69
649.698	204.69
649.903	219.69
650.107	199.69
650.312	193.69
650.516	205.69
650.721	203.69
650.925	210.69
651.13	200.69
651.334	184.69
651.539	195.69
651.743	201.69
651.947	190.69
652.152	201.69
652.356	179.69
652.56	172.69
652.764	180.69
652.969	187.69
653.173	168.69
653.377	175.69
653.581	159.69
653.785	163.69
653.99	176.69
654.194	164.69
654.398	161.69
654.602	164.69
654.806	184.69
655.01	154.69
655.214	159.69
655.418	167.69
655.622	151.69
655.826	155.69
656.03	155.69
656.234	154.69
656.438	146.69
656.642	141.69
656.846	156.69
657.049	144.69
657.253	131.69
657.457	141.69
657.661	127.69
657.865	126.69
658.068	136.69
658.272	125.69
658.476	121.69
658.68	131.69
658.883	98.69
659.087	106.69
659.291	114.69
659.494	108.69
659.698	95.69
659.901	112.69
660.105	106.69
660.309	100.69
660.512	95.69
660.716	104.69
660.919	94.69
661.123	102.69
661.326	98.69
661.53	101.69
661.733	101.69
661.936	92.69
662.14	87.69
662.343	92.69
662.546	95.69
662.75	85.69
662.953	82.69
663.156	88.69
663.36	92.69
663.563	75.69
663.766	98.69
663.969	72.69
664.173	85.69
664.376	79.69
664.579	82.69
664.782	85.69
664.985	67.69
665.188	68.69
665.391	87.69
665.594	61.69
665.797	84.69
666	98.69
666.203	89.69
666.406	75.69
666.609	79.69
666.812	78.69
667.015	89.69
667.218	73.69
667.421	82.69
667.624	70.69
667.827	100.69
668.03	81.69
668.232	71.69
668.435	73.69
668.638	83.69
668.841	85.69
669.043	75.69
669.246	73.69
669.449	80.69
669.651	73.69
669.854	94.69
670.057	76.69
670.259	102.69
670.462	80.69
670.665	94.69
670.867	66.69
671.07	90.69
671.272	82.69
671.475	95.69
671.677	80.69
671.88	80.69
672.082	81.69
672.284	68.69
672.487	79.69
672.689	73.69
672.892	78.69
