Data from Ni(NO3)2@0.125M.TitratingCurve.Agarose3%dH2O.NegLispCup.LampEnergy10.LIBS07252019_HRD10591_18-11-15-568.txt Node
Date: Thu Jul 25 18:11:15 EDT 2019
User: cochatt
Spectrometer: HR+D1059
Trigger mode: 1
Integration Time (sec): 1.000000E-1
Scans to average: 1
Electric dark correction enabled: true
Nonlinearity correction enabled: false
Boxcar width: 0
XAxis mode: Wavelengths
Number of Pixels in Spectrum: 2048
>>>>>Begin Spectral Data<<<<<
223.165	-9.12
223.4	-9.12
223.635	-9.12
223.869	-23.12
224.104	-17.12
224.338	-19.12
224.573	-15.12
224.808	-21.12
225.042	-11.12
225.277	-5.12
225.511	0.88
225.746	8.88
225.98	-0.12
226.215	6.88
226.449	8.88
226.683	17.88
226.918	33.88
227.152	43.88
227.387	33.88
227.621	56.88
227.856	56.88
228.09	54.88
228.324	42.88
228.559	57.88
228.793	77.88
229.027	108.88
229.262	128.88
229.496	106.88
229.73	102.88
229.964	108.88
230.199	124.88
230.433	120.88
230.667	110.88
230.901	124.88
231.136	130.88
231.37	112.88
231.604	140.88
231.838	132.88
232.072	138.88
232.306	132.88
232.541	145.88
232.775	128.88
233.009	130.88
233.243	139.88
233.477	154.88
233.711	130.88
233.945	137.88
234.179	130.88
234.413	144.88
234.647	150.88
234.881	132.88
235.115	129.88
235.349	128.88
235.583	139.88
235.817	137.88
236.051	138.88
236.285	150.88
236.519	128.88
236.753	150.88
236.987	143.88
237.221	133.88
237.455	149.88
237.689	160.88
237.922	141.88
238.156	144.88
238.39	145.88
238.624	147.88
238.858	162.88
239.091	155.88
239.325	155.88
239.559	155.88
239.793	155.88
240.027	152.88
240.26	161.88
240.494	157.88
240.728	154.88
240.961	158.88
241.195	184.88
241.429	162.88
241.662	166.88
241.896	169.88
242.13	182.88
242.363	173.88
242.597	180.88
242.83	171.88
243.064	172.88
243.298	160.88
243.531	171.88
243.765	177.88
243.998	188.88
244.232	173.88
244.465	177.88
244.699	187.88
244.932	199.88
245.166	180.88
245.399	184.88
245.633	186.88
245.866	188.88
246.099	189.88
246.333	199.88
246.566	209.88
246.8	203.88
247.033	202.88
247.266	191.88
247.5	201.88
247.733	200.88
247.966	194.88
248.2	212.88
248.433	217.88
248.666	230.88
248.899	212.88
249.133	205.88
249.366	208.88
249.599	223.88
249.832	220.88
250.066	221.88
250.299	226.88
250.532	213.88
250.765	228.88
250.998	227.88
251.231	222.88
251.465	217.88
251.698	221.88
251.931	210.88
252.164	219.88
252.397	224.88
252.63	228.88
252.863	236.88
253.096	253.88
253.329	228.88
253.562	212.88
253.795	233.88
254.028	246.88
254.261	229.88
254.494	251.88
254.727	222.88
254.96	229.88
255.193	249.88
255.426	229.88
255.659	245.88
255.892	239.88
256.124	233.88
256.357	241.88
256.59	265.88
256.823	264.88
257.056	246.88
257.289	250.88
257.521	258.88
257.754	249.88
257.987	257.88
258.22	253.88
258.452	256.88
258.685	246.88
258.918	260.88
259.151	254.88
259.383	266.88
259.616	248.88
259.849	265.88
260.081	252.88
260.314	278.88
260.547	274.88
260.779	269.88
261.012	245.88
261.244	271.88
261.477	286.88
261.71	284.88
261.942	285.88
262.175	267.88
262.407	289.88
262.64	278.88
262.872	282.88
263.105	280.88
263.337	296.88
263.57	302.88
263.802	297.88
264.035	297.88
264.267	292.88
264.499	262.88
264.732	294.88
264.964	291.88
265.197	311.88
265.429	316.88
265.661	293.88
265.894	279.88
266.126	298.88
266.358	281.88
266.591	301.88
266.823	317.88
267.055	297.88
267.287	296.88
267.52	311.88
267.752	317.88
267.984	312.88
268.216	324.88
268.448	315.88
268.681	314.88
268.913	314.88
269.145	325.88
269.377	318.88
269.609	319.88
269.841	319.88
270.073	275.88
270.306	311.88
270.538	309.88
270.77	320.88
271.002	323.88
271.234	330.88
271.466	301.88
271.698	328.88
271.93	324.88
272.162	316.88
272.394	310.88
272.626	319.88
272.858	323.88
273.09	332.88
273.322	342.88
273.553	327.88
273.785	327.88
274.017	339.88
274.249	318.88
274.481	347.88
274.713	349.88
274.945	333.88
275.176	341.88
275.408	345.88
275.64	336.88
275.872	336.88
276.104	357.88
276.335	341.88
276.567	338.88
276.799	346.88
277.031	349.88
277.262	338.88
277.494	368.88
277.726	369.88
277.957	367.88
278.189	361.88
278.421	367.88
278.652	351.88
278.884	377.88
279.115	354.88
279.347	351.88
279.579	368.88
279.81	353.88
280.042	361.88
280.273	380.88
280.505	362.88
280.736	372.88
280.968	379.88
281.199	380.88
281.431	397.88
281.662	372.88
281.894	387.88
282.125	374.88
282.356	383.88
282.588	383.88
282.819	379.88
283.051	379.88
283.282	366.88
283.513	382.88
283.745	379.88
283.976	376.88
284.207	380.88
284.439	392.88
284.67	405.88
284.901	415.88
285.132	383.88
285.364	391.88
285.595	402.88
285.826	402.88
286.057	422.88
286.288	388.88
286.52	397.88
286.751	400.88
286.982	406.88
287.213	408.88
287.444	394.88
287.675	405.88
287.906	430.88
288.138	425.88
288.369	418.88
288.6	429.88
288.831	409.88
289.062	416.88
289.293	416.88
289.524	414.88
289.755	431.88
289.986	430.88
290.217	436.88
290.448	422.88
290.679	416.88
290.91	428.88
291.141	426.88
291.371	432.88
291.602	437.88
291.833	415.88
292.064	446.88
292.295	434.88
292.526	436.88
292.757	406.88
292.987	412.88
293.218	413.88
293.449	433.88
293.68	433.88
293.91	438.88
294.141	424.88
294.372	424.88
294.603	442.88
294.833	432.88
295.064	446.88
295.295	433.88
295.525	452.88
295.756	433.88
295.987	454.88
296.217	439.88
296.448	440.88
296.679	443.88
296.909	440.88
297.14	466.88
297.37	445.88
297.601	458.88
297.831	480.88
298.062	484.88
298.292	465.88
298.523	473.88
298.753	474.88
298.984	462.88
299.214	473.88
299.445	475.88
299.675	478.88
299.905	471.88
300.136	465.88
300.366	487.88
300.597	482.88
300.827	494.88
301.057	485.88
301.288	471.88
301.518	509.88
301.748	494.88
301.979	487.88
302.209	505.88
302.439	485.88
302.669	491.88
302.9	483.88
303.13	504.88
303.36	471.88
303.59	488.88
303.82	490.88
304.051	489.88
304.281	496.88
304.511	490.88
304.741	466.88
304.971	476.88
305.201	456.88
305.431	472.88
305.661	478.88
305.891	463.88
306.121	473.88
306.352	488.88
306.582	432.88
306.812	472.88
307.042	479.88
307.272	459.88
307.502	487.88
307.731	492.88
307.961	476.88
308.191	453.88
308.421	479.88
308.651	479.88
308.881	477.88
309.111	465.88
309.341	458.88
309.571	453.88
309.8	473.88
310.03	479.88
310.26	454.88
310.49	474.88
310.72	461.88
310.949	473.88
311.179	489.88
311.409	500.88
311.639	477.88
311.868	461.88
312.098	489.88
312.328	502.88
312.557	480.88
312.787	482.88
313.017	504.88
313.246	481.88
313.476	470.88
313.706	498.88
313.935	527.88
314.165	521.88
314.394	512.88
314.624	490.88
314.853	518.88
315.083	499.88
315.312	484.88
315.542	480.88
315.771	520.88
316.001	514.88
316.23	493.88
316.46	476.88
316.689	500.88
316.919	493.88
317.148	502.88
317.377	522.88
317.607	479.88
317.836	471.88
318.065	506.88
318.295	493.88
318.524	487.88
318.753	499.88
318.983	488.88
319.212	492.88
319.441	483.88
319.67	476.88
319.9	479.88
320.129	485.88
320.358	481.88
320.587	492.88
320.816	488.88
321.046	484.88
321.275	516.88
321.504	504.88
321.733	489.88
321.962	484.88
322.191	506.88
322.42	508.88
322.649	484.88
322.878	505.88
323.108	489.88
323.337	498.88
323.566	496.88
323.795	520.88
324.024	528.88
324.253	518.88
324.482	517.88
324.71	510.88
324.939	522.88
325.168	527.88
325.397	527.88
325.626	533.88
325.855	516.88
326.084	552.88
326.313	554.88
326.542	524.88
326.77	574.88
326.999	546.88
327.228	549.88
327.457	541.88
327.686	562.88
327.914	546.88
328.143	559.88
328.372	535.88
328.6	546.88
328.829	546.88
329.058	529.88
329.287	548.88
329.515	568.88
329.744	541.88
329.972	534.88
330.201	538.88
330.43	554.88
330.658	566.88
330.887	570.88
331.115	556.88
331.344	548.88
331.572	572.88
331.801	577.88
332.03	601.88
332.258	615.88
332.486	612.88
332.715	634.88
332.943	664.88
333.172	701.88
333.4	700.88
333.629	740.88
333.857	736.88
334.085	739.88
334.314	732.88
334.542	708.88
334.771	706.88
334.999	672.88
335.227	666.88
335.455	653.88
335.684	676.88
335.912	652.88
336.14	666.88
336.369	633.88
336.597	668.88
336.825	658.88
337.053	667.88
337.281	654.88
337.51	651.88
337.738	642.88
337.966	621.88
338.194	625.88
338.422	601.88
338.65	598.88
338.878	577.88
339.106	600.88
339.334	608.88
339.562	573.88
339.79	575.88
340.018	549.88
340.246	548.88
340.474	561.88
340.702	578.88
340.93	569.88
341.158	572.88
341.386	564.88
341.614	554.88
341.842	576.88
342.07	564.88
342.298	582.88
342.526	565.88
342.754	568.88
342.981	551.88
343.209	585.88
343.437	590.88
343.665	625.88
343.893	680.88
344.12	715.88
344.348	665.88
344.576	641.88
344.804	596.88
345.031	610.88
345.259	586.88
345.487	581.88
345.714	584.88
345.942	574.88
346.17	575.88
346.397	580.88
346.625	558.88
346.853	547.88
347.08	562.88
347.308	571.88
347.535	574.88
347.763	571.88
347.99	568.88
348.218	558.88
348.445	579.88
348.673	574.88
348.9	569.88
349.128	558.88
349.355	558.88
349.583	543.88
349.81	551.88
350.037	544.88
350.265	528.88
350.492	540.88
350.72	539.88
350.947	564.88
351.174	538.88
351.402	533.88
351.629	537.88
351.856	525.88
352.083	540.88
352.311	551.88
352.538	543.88
352.765	520.88
352.992	530.88
353.22	533.88
353.447	515.88
353.674	535.88
353.901	526.88
354.128	529.88
354.355	535.88
354.583	537.88
354.81	535.88
355.037	548.88
355.264	548.88
355.491	531.88
355.718	542.88
355.945	549.88
356.172	531.88
356.399	550.88
356.626	527.88
356.853	534.88
357.08	541.88
357.307	522.88
357.534	519.88
357.761	542.88
357.988	554.88
358.215	542.88
358.441	531.88
358.668	545.88
358.895	526.88
359.122	544.88
359.349	513.88
359.576	502.88
359.802	521.88
360.029	520.88
360.256	549.88
360.483	535.88
360.709	540.88
360.936	555.88
361.163	530.88
361.39	538.88
361.616	518.88
361.843	519.88
362.07	537.88
362.296	548.88
362.523	534.88
362.749	525.88
362.976	550.88
363.203	506.88
363.429	514.88
363.656	533.88
363.882	526.88
364.109	534.88
364.335	535.88
364.562	523.88
364.788	542.88
365.015	545.88
365.241	538.88
365.468	534.88
365.694	518.88
365.92	525.88
366.147	516.88
366.373	537.88
366.599	530.88
366.826	529.88
367.052	521.88
367.278	539.88
367.505	529.88
367.731	519.88
367.957	545.88
368.184	538.88
368.41	540.88
368.636	545.88
368.862	534.88
369.089	540.88
369.315	569.88
369.541	542.88
369.767	527.88
369.993	559.88
370.219	522.88
370.445	545.88
370.672	566.88
370.898	575.88
371.124	544.88
371.35	582.88
371.576	590.88
371.802	565.88
372.028	592.88
372.254	580.88
372.48	594.88
372.706	605.88
372.932	601.88
373.158	630.88
373.384	569.88
373.61	599.88
373.835	562.88
374.061	585.88
374.287	593.88
374.513	589.88
374.739	605.88
374.965	607.88
375.191	628.88
375.416	639.88
375.642	619.88
375.868	640.88
376.094	611.88
376.319	591.88
376.545	578.88
376.771	577.88
376.997	584.88
377.222	603.88
377.448	589.88
377.674	570.88
377.899	566.88
378.125	551.88
378.35	572.88
378.576	586.88
378.802	597.88
379.027	554.88
379.253	566.88
379.478	574.88
379.704	570.88
379.929	573.88
380.155	571.88
380.38	556.88
380.606	572.88
380.831	599.88
381.057	566.88
381.282	571.88
381.507	581.88
381.733	577.88
381.958	572.88
382.184	606.88
382.409	584.88
382.634	603.88
382.86	596.88
383.085	595.88
383.31	621.88
383.535	619.88
383.761	644.88
383.986	648.88
384.211	654.88
384.436	700.88
384.662	682.88
384.887	689.88
385.112	677.88
385.337	695.88
385.562	700.88
385.787	700.88
386.013	698.88
386.238	708.88
386.463	676.88
386.688	657.88
386.913	652.88
387.138	666.88
387.363	674.88
387.588	681.88
387.813	687.88
388.038	644.88
388.263	672.88
388.488	685.88
388.713	669.88
388.938	668.88
389.163	658.88
389.387	687.88
389.612	662.88
389.837	690.88
390.062	679.88
390.287	673.88
390.512	648.88
390.736	659.88
390.961	700.88
391.186	696.88
391.411	715.88
391.636	707.88
391.86	758.88
392.085	789.88
392.31	781.88
392.534	737.88
392.759	735.88
392.984	697.88
393.208	724.88
393.433	740.88
393.658	751.88
393.882	759.88
394.107	749.88
394.331	729.88
394.556	727.88
394.78	759.88
395.005	753.88
395.229	728.88
395.454	744.88
395.678	772.88
395.903	756.88
396.127	757.88
396.352	738.88
396.576	707.88
396.801	713.88
397.025	741.88
397.249	744.88
397.474	772.88
397.698	738.88
397.922	761.88
398.147	726.88
398.371	782.88
398.595	781.88
398.82	813.88
399.044	900.88
399.268	1010.88
399.492	1115.88
399.717	1298.88
399.941	1320.88
400.165	1117.88
400.389	1015.88
400.613	933.88
400.837	889.88
401.062	855.88
401.286	873.88
401.51	856.88
401.734	859.88
401.958	834.88
402.182	843.88
402.406	864.88
402.63	908.88
402.854	900.88
403.078	938.88
403.302	942.88
403.526	956.88
403.75	945.88
403.974	1020.88
404.198	1015.88
404.422	995.88
404.645	972.88
404.869	986.88
405.093	998.88
405.317	986.88
405.541	924.88
405.765	955.88
405.988	941.88
406.212	939.88
406.436	934.88
406.66	971.88
406.883	957.88
407.107	1052.88
407.331	1089.88
407.555	1135.88
407.778	1115.88
408.002	1079.88
408.226	1051.88
408.449	1039.88
408.673	985.88
408.896	960.88
409.12	981.88
409.344	974.88
409.567	977.88
409.791	984.88
410.014	993.88
410.238	974.88
410.461	999.88
410.685	967.88
410.908	921.88
411.132	914.88
411.355	904.88
411.578	923.88
411.802	902.88
412.025	895.88
412.249	917.88
412.472	920.88
412.695	893.88
412.919	842.88
413.142	875.88
413.365	848.88
413.589	864.88
413.812	842.88
414.035	836.88
414.258	867.88
414.482	885.88
414.705	884.88
414.928	857.88
415.151	866.88
415.374	830.88
415.597	847.88
415.821	841.88
416.044	842.88
416.267	844.88
416.49	847.88
416.713	830.88
416.936	879.88
417.159	830.88
417.382	865.88
417.605	840.88
417.828	840.88
418.051	848.88
418.274	865.88
418.497	861.88
418.72	851.88
418.943	875.88
419.166	936.88
419.389	992.88
419.611	984.88
419.834	932.88
420.057	877.88
420.28	876.88
420.503	838.88
420.726	837.88
420.948	822.88
421.171	834.88
421.394	839.88
421.617	840.88
421.839	871.88
422.062	865.88
422.285	842.88
422.507	888.88
422.73	878.88
422.953	908.88
423.175	924.88
423.398	903.88
423.621	888.88
423.843	917.88
424.066	933.88
424.288	922.88
424.511	897.88
424.733	908.88
424.956	881.88
425.178	844.88
425.401	855.88
425.623	860.88
425.846	834.88
426.068	838.88
426.291	840.88
426.513	837.88
426.735	779.88
426.958	812.88
427.18	800.88
427.402	789.88
427.625	787.88
427.847	760.88
428.069	766.88
428.292	787.88
428.514	760.88
428.736	784.88
428.958	763.88
429.181	736.88
429.403	748.88
429.625	745.88
429.847	738.88
430.069	745.88
430.292	751.88
430.514	754.88
430.736	749.88
430.958	756.88
431.18	758.88
431.402	737.88
431.624	739.88
431.846	744.88
432.068	794.88
432.29	801.88
432.512	739.88
432.734	751.88
432.956	777.88
433.178	757.88
433.4	765.88
433.622	771.88
433.844	803.88
434.066	791.88
434.287	785.88
434.509	813.88
434.731	810.88
434.953	864.88
435.175	878.88
435.397	864.88
435.618	846.88
435.84	793.88
436.062	788.88
436.284	790.88
436.505	769.88
436.727	759.88
436.949	816.88
437.17	786.88
437.392	738.88
437.614	751.88
437.835	737.88
438.057	744.88
438.278	714.88
438.5	741.88
438.721	738.88
438.943	752.88
439.165	742.88
439.386	772.88
439.608	790.88
439.829	764.88
440.05	781.88
440.272	798.88
440.493	796.88
440.715	786.88
440.936	796.88
441.158	806.88
441.379	812.88
441.6	896.88
441.822	900.88
442.043	890.88
442.264	865.88
442.486	850.88
442.707	844.88
442.928	844.88
443.149	867.88
443.371	880.88
443.592	873.88
443.813	865.88
444.034	888.88
444.255	895.88
444.476	962.88
444.698	1006.88
444.919	1052.88
445.14	1119.88
445.361	1005.88
445.582	914.88
445.803	863.88
446.024	820.88
446.245	810.88
446.466	808.88
446.687	801.88
446.908	793.88
447.129	783.88
447.35	780.88
447.571	752.88
447.792	719.88
448.013	737.88
448.234	729.88
448.455	730.88
448.675	711.88
448.896	720.88
449.117	728.88
449.338	721.88
449.559	707.88
449.779	734.88
450	705.88
450.221	717.88
450.442	725.88
450.662	726.88
450.883	736.88
451.104	734.88
451.324	760.88
451.545	744.88
451.766	732.88
451.986	730.88
452.207	710.88
452.428	707.88
452.648	725.88
452.869	720.88
453.089	717.88
453.31	721.88
453.53	699.88
453.751	718.88
453.971	692.88
454.192	706.88
454.412	696.88
454.633	697.88
454.853	688.88
455.073	669.88
455.294	671.88
455.514	657.88
455.734	677.88
455.955	676.88
456.175	620.88
456.395	644.88
456.616	660.88
456.836	677.88
457.056	679.88
457.276	659.88
457.497	686.88
457.717	673.88
457.937	665.88
458.157	685.88
458.377	672.88
458.598	693.88
458.818	702.88
459.038	724.88
459.258	737.88
459.478	762.88
459.698	800.88
459.918	832.88
460.138	856.88
460.358	902.88
460.578	921.88
460.798	940.88
461.018	926.88
461.238	904.88
461.458	879.88
461.678	905.88
461.898	932.88
462.118	901.88
462.338	959.88
462.558	989.88
462.777	1035.88
462.997	1102.88
463.217	1207.88
463.437	1244.88
463.657	1137.88
463.876	1107.88
464.096	1068.88
464.316	1090.88
464.536	1086.88
464.755	1032.88
464.975	998.88
465.195	967.88
465.414	904.88
465.634	839.88
465.854	800.88
466.073	779.88
466.293	764.88
466.512	747.88
466.732	759.88
466.951	742.88
467.171	768.88
467.391	758.88
467.61	767.88
467.829	736.88
468.049	743.88
468.268	729.88
468.488	716.88
468.707	690.88
468.927	732.88
469.146	733.88
469.365	715.88
469.585	687.88
469.804	742.88
470.023	761.88
470.243	784.88
470.462	779.88
470.681	775.88
470.901	799.88
471.12	773.88
471.339	761.88
471.558	740.88
471.777	747.88
471.997	729.88
472.216	729.88
472.435	694.88
472.654	706.88
472.873	671.88
473.092	690.88
473.311	693.88
473.53	690.88
473.749	696.88
473.968	688.88
474.187	666.88
474.406	689.88
474.625	702.88
474.844	716.88
475.063	715.88
475.282	710.88
475.501	712.88
475.72	702.88
475.939	709.88
476.158	718.88
476.377	714.88
476.596	736.88
476.814	724.88
477.033	710.88
477.252	761.88
477.471	758.88
477.69	774.88
477.908	789.88
478.127	800.88
478.346	820.88
478.564	852.88
478.783	858.88
479.002	880.88
479.22	915.88
479.439	850.88
479.658	856.88
479.876	871.88
480.095	864.88
480.313	922.88
480.532	935.88
480.751	948.88
480.969	881.88
481.188	868.88
481.406	816.88
481.624	828.88
481.843	810.88
482.061	812.88
482.28	766.88
482.498	806.88
482.717	780.88
482.935	809.88
483.153	805.88
483.372	778.88
483.59	796.88
483.808	798.88
484.027	767.88
484.245	836.88
484.463	796.88
484.681	827.88
484.9	833.88
485.118	867.88
485.336	837.88
485.554	865.88
485.772	855.88
485.99	870.88
486.209	827.88
486.427	848.88
486.645	881.88
486.863	859.88
487.081	860.88
487.299	842.88
487.517	845.88
487.735	826.88
487.953	844.88
488.171	836.88
488.389	822.88
488.607	832.88
488.825	828.88
489.043	808.88
489.261	826.88
489.479	844.88
489.696	820.88
489.914	850.88
490.132	845.88
490.35	837.88
490.568	834.88
490.786	844.88
491.003	837.88
491.221	873.88
491.439	847.88
491.657	851.88
491.874	854.88
492.092	848.88
492.31	863.88
492.527	856.88
492.745	864.88
492.963	864.88
493.18	863.88
493.398	862.88
493.615	888.88
493.833	863.88
494.05	889.88
494.268	897.88
494.485	898.88
494.703	897.88
494.92	880.88
495.138	882.88
495.355	900.88
495.573	874.88
495.79	856.88
496.008	868.88
496.225	882.88
496.442	911.88
496.66	902.88
496.877	875.88
497.094	925.88
497.312	956.88
497.529	977.88
497.746	989.88
497.963	1006.88
498.181	1068.88
498.398	1073.88
498.615	1159.88
498.832	1204.88
499.049	1306.88
499.267	1408.88
499.484	1600.88
499.701	1728.88
499.918	1933.88
500.135	2237.88
500.352	2597.88
500.569	2814.88
500.786	2770.88
501.003	2510.88
501.22	2188.88
501.437	1935.88
501.654	1724.88
501.871	1505.88
502.088	1363.88
502.305	1294.88
502.522	1254.88
502.739	1210.88
502.956	1146.88
503.172	1068.88
503.389	991.88
503.606	993.88
503.823	994.88
504.04	959.88
504.256	1020.88
504.473	1020.88
504.69	1060.88
504.907	1041.88
505.123	956.88
505.34	917.88
505.557	897.88
505.773	865.88
505.99	860.88
506.207	815.88
506.423	808.88
506.64	838.88
506.856	806.88
507.073	781.88
507.289	774.88
507.506	793.88
507.722	782.88
507.939	768.88
508.155	777.88
508.372	740.88
508.588	745.88
508.805	754.88
509.021	740.88
509.238	727.88
509.454	719.88
509.67	715.88
509.887	729.88
510.103	730.88
510.319	711.88
510.536	722.88
510.752	726.88
510.968	745.88
511.184	699.88
511.401	721.88
511.617	729.88
511.833	712.88
512.049	707.88
512.265	733.88
512.481	733.88
512.698	744.88
512.914	721.88
513.13	714.88
513.346	716.88
513.562	697.88
513.778	688.88
513.994	707.88
514.21	725.88
514.426	729.88
514.642	696.88
514.858	692.88
515.074	731.88
515.29	730.88
515.506	743.88
515.721	741.88
515.937	733.88
516.153	784.88
516.369	801.88
516.585	817.88
516.801	833.88
517.016	860.88
517.232	941.88
517.448	970.88
517.664	1016.88
517.879	1042.88
518.095	1038.88
518.311	1007.88
518.527	961.88
518.742	896.88
518.958	844.88
519.173	828.88
519.389	797.88
519.605	785.88
519.82	773.88
520.036	753.88
520.251	746.88
520.467	730.88
520.682	725.88
520.898	700.88
521.113	714.88
521.329	706.88
521.544	692.88
521.76	694.88
521.975	677.88
522.19	703.88
522.406	702.88
522.621	658.88
522.836	668.88
523.052	685.88
523.267	685.88
523.482	667.88
523.698	673.88
523.913	684.88
524.128	670.88
524.343	662.88
524.559	677.88
524.774	684.88
524.989	654.88
525.204	660.88
525.419	654.88
525.634	644.88
525.849	644.88
526.064	645.88
526.28	640.88
526.495	652.88
526.71	655.88
526.925	635.88
527.14	644.88
527.355	656.88
527.57	649.88
527.785	665.88
527.999	648.88
528.214	667.88
528.429	658.88
528.644	661.88
528.859	642.88
529.074	660.88
529.289	677.88
529.503	644.88
529.718	651.88
529.933	668.88
530.148	653.88
530.363	636.88
530.577	659.88
530.792	667.88
531.007	651.88
531.221	659.88
531.436	659.88
531.651	643.88
531.865	639.88
532.08	648.88
532.295	670.88
532.509	632.88
532.724	668.88
532.938	673.88
533.153	658.88
533.367	639.88
533.582	640.88
533.796	650.88
534.011	671.88
534.225	638.88
534.44	652.88
534.654	649.88
534.868	644.88
535.083	638.88
535.297	623.88
535.511	650.88
535.726	640.88
535.94	614.88
536.154	617.88
536.369	615.88
536.583	616.88
536.797	616.88
537.011	629.88
537.225	623.88
537.44	609.88
537.654	598.88
537.868	592.88
538.082	606.88
538.296	616.88
538.51	574.88
538.724	594.88
538.938	592.88
539.153	587.88
539.367	633.88
539.581	606.88
539.795	619.88
540.009	612.88
540.222	589.88
540.436	592.88
540.65	586.88
540.864	604.88
541.078	588.88
541.292	579.88
541.506	589.88
541.72	589.88
541.934	595.88
542.147	589.88
542.361	596.88
542.575	589.88
542.789	577.88
543.002	584.88
543.216	597.88
543.43	564.88
543.644	565.88
543.857	557.88
544.071	584.88
544.285	570.88
544.498	582.88
544.712	604.88
544.925	580.88
545.139	597.88
545.352	598.88
545.566	603.88
545.779	620.88
545.993	608.88
546.206	610.88
546.42	598.88
546.633	584.88
546.847	602.88
547.06	597.88
547.274	606.88
547.487	592.88
547.7	577.88
547.914	594.88
548.127	617.88
548.34	618.88
548.554	611.88
548.767	608.88
548.98	600.88
549.193	645.88
549.407	620.88
549.62	628.88
549.833	626.88
550.046	630.88
550.259	590.88
550.473	574.88
550.686	599.88
550.899	581.88
551.112	582.88
551.325	590.88
551.538	589.88
551.751	604.88
551.964	589.88
552.177	586.88
552.39	591.88
552.603	617.88
552.816	633.88
553.029	653.88
553.242	662.88
553.455	657.88
553.667	680.88
553.88	659.88
554.093	649.88
554.306	634.88
554.519	621.88
554.732	617.88
554.944	581.88
555.157	585.88
555.37	570.88
555.583	579.88
555.795	556.88
556.008	531.88
556.221	540.88
556.433	530.88
556.646	540.88
556.859	520.88
557.071	501.88
557.284	523.88
557.496	514.88
557.709	524.88
557.921	548.88
558.134	508.88
558.346	514.88
558.559	508.88
558.771	484.88
558.984	520.88
559.196	508.88
559.409	497.88
559.621	501.88
559.833	510.88
560.046	519.88
560.258	498.88
560.47	497.88
560.683	499.88
560.895	494.88
561.107	508.88
561.32	489.88
561.532	513.88
561.744	498.88
561.956	496.88
562.168	501.88
562.381	493.88
562.593	500.88
562.805	507.88
563.017	488.88
563.229	486.88
563.441	521.88
563.653	502.88
563.865	510.88
564.077	508.88
564.289	523.88
564.501	524.88
564.713	514.88
564.925	553.88
565.137	536.88
565.349	545.88
565.561	561.88
565.773	586.88
565.985	605.88
566.197	637.88
566.408	688.88
566.62	743.88
566.832	815.88
567.044	820.88
567.255	826.88
567.467	836.88
567.679	868.88
567.891	957.88
568.102	997.88
568.314	938.88
568.526	855.88
568.737	749.88
568.949	676.88
569.161	630.88
569.372	611.88
569.584	551.88
569.795	548.88
570.007	529.88
570.218	528.88
570.43	528.88
570.641	516.88
570.853	498.88
571.064	523.88
571.276	520.88
571.487	508.88
571.698	491.88
571.91	466.88
572.121	458.88
572.333	455.88
572.544	453.88
572.755	413.88
572.966	408.88
573.178	446.88
573.389	428.88
573.6	428.88
573.811	425.88
574.023	449.88
574.234	438.88
574.445	417.88
574.656	412.88
574.867	408.88
575.078	445.88
575.289	423.88
575.501	405.88
575.712	401.88
575.923	389.88
576.134	402.88
576.345	406.88
576.556	408.88
576.767	414.88
576.978	395.88
577.188	401.88
577.399	384.88
577.61	406.88
577.821	370.88
578.032	384.88
578.243	396.88
578.454	385.88
578.665	392.88
578.875	393.88
579.086	374.88
579.297	362.88
579.508	400.88
579.718	377.88
579.929	382.88
580.14	374.88
580.35	379.88
580.561	358.88
580.772	380.88
580.982	372.88
581.193	351.88
581.403	343.88
581.614	359.88
581.825	368.88
582.035	349.88
582.246	366.88
582.456	346.88
582.667	359.88
582.877	351.88
583.087	367.88
583.298	349.88
583.508	359.88
583.719	329.88
583.929	368.88
584.139	358.88
584.35	361.88
584.56	365.88
584.77	363.88
584.981	348.88
585.191	361.88
585.401	358.88
585.611	350.88
585.821	334.88
586.032	370.88
586.242	343.88
586.452	329.88
586.662	344.88
586.872	347.88
587.082	362.88
587.292	347.88
587.502	322.88
587.713	342.88
587.923	341.88
588.133	336.88
588.343	333.88
588.553	338.88
588.762	349.88
588.972	333.88
589.182	346.88
589.392	351.88
589.602	337.88
589.812	337.88
590.022	343.88
590.232	335.88
590.441	353.88
590.651	337.88
590.861	365.88
591.071	360.88
591.281	352.88
591.49	337.88
591.7	350.88
591.91	356.88
592.119	374.88
592.329	370.88
592.539	380.88
592.748	402.88
592.958	405.88
593.167	452.88
593.377	408.88
593.587	456.88
593.796	440.88
594.006	444.88
594.215	458.88
594.424	466.88
594.634	445.88
594.843	422.88
595.053	388.88
595.262	394.88
595.472	370.88
595.681	370.88
595.89	362.88
596.1	359.88
596.309	348.88
596.518	324.88
596.727	333.88
596.937	318.88
597.146	326.88
597.355	318.88
597.564	329.88
597.774	324.88
597.983	300.88
598.192	300.88
598.401	312.88
598.61	314.88
598.819	304.88
599.028	312.88
599.237	313.88
599.446	296.88
599.655	294.88
599.864	286.88
600.073	305.88
600.282	294.88
600.491	296.88
600.7	292.88
600.909	297.88
601.118	297.88
601.327	301.88
601.536	282.88
601.745	290.88
601.953	290.88
602.162	272.88
602.371	295.88
602.58	289.88
602.789	280.88
602.997	286.88
603.206	287.88
603.415	300.88
603.623	283.88
603.832	301.88
604.041	268.88
604.249	273.88
604.458	281.88
604.666	285.88
604.875	282.88
605.084	287.88
605.292	270.88
605.501	279.88
605.709	288.88
605.918	277.88
606.126	266.88
606.334	282.88
606.543	271.88
606.751	282.88
606.96	288.88
607.168	261.88
607.376	266.88
607.585	269.88
607.793	270.88
608.001	238.88
608.21	276.88
608.418	249.88
608.626	258.88
608.834	280.88
609.043	274.88
609.251	253.88
609.459	268.88
609.667	250.88
609.875	262.88
610.083	272.88
610.291	251.88
610.499	264.88
610.707	275.88
610.916	277.88
611.124	271.88
611.332	270.88
611.54	262.88
611.748	261.88
611.955	259.88
612.163	269.88
612.371	259.88
612.579	250.88
612.787	252.88
612.995	268.88
613.203	252.88
613.411	253.88
613.618	260.88
613.826	261.88
614.034	248.88
614.242	244.88
614.449	244.88
614.657	241.88
614.865	254.88
615.072	252.88
615.28	263.88
615.488	278.88
615.695	264.88
615.903	250.88
616.111	266.88
616.318	272.88
616.526	269.88
616.733	265.88
616.941	264.88
617.148	248.88
617.356	263.88
617.563	264.88
617.771	274.88
617.978	248.88
618.185	247.88
618.393	240.88
618.6	252.88
618.807	267.88
619.015	272.88
619.222	263.88
619.429	265.88
619.637	249.88
619.844	246.88
620.051	244.88
620.258	251.88
620.466	248.88
620.673	248.88
620.88	235.88
621.087	244.88
621.294	233.88
621.501	239.88
621.708	259.88
621.915	242.88
622.122	218.88
622.329	250.88
622.536	254.88
622.743	223.88
622.95	225.88
623.157	218.88
623.364	248.88
623.571	215.88
623.778	248.88
623.985	255.88
624.192	226.88
624.399	227.88
624.606	226.88
624.812	214.88
625.019	223.88
625.226	220.88
625.433	224.88
625.639	237.88
625.846	222.88
626.053	216.88
626.259	224.88
626.466	234.88
626.673	229.88
626.879	203.88
627.086	218.88
627.293	232.88
627.499	229.88
627.706	213.88
627.912	216.88
628.119	209.88
628.325	215.88
628.532	233.88
628.738	222.88
628.945	201.88
629.151	209.88
629.357	220.88
629.564	199.88
629.77	184.88
629.976	219.88
630.183	203.88
630.389	188.88
630.595	225.88
630.802	202.88
631.008	189.88
631.214	217.88
631.42	208.88
631.627	198.88
631.833	198.88
632.039	191.88
632.245	200.88
632.451	204.88
632.657	212.88
632.863	202.88
633.069	205.88
633.275	188.88
633.481	184.88
633.688	199.88
633.893	194.88
634.099	201.88
634.305	206.88
634.511	189.88
634.717	192.88
634.923	185.88
635.129	196.88
635.335	191.88
635.541	186.88
635.747	186.88
635.952	185.88
636.158	193.88
636.364	199.88
636.57	183.88
636.775	195.88
636.981	197.88
637.187	196.88
637.392	197.88
637.598	196.88
637.804	185.88
638.009	197.88
638.215	178.88
638.421	182.88
638.626	189.88
638.832	175.88
639.037	190.88
639.243	184.88
639.448	185.88
639.654	184.88
639.859	178.88
640.065	177.88
640.27	182.88
640.475	182.88
640.681	180.88
640.886	191.88
641.091	190.88
641.297	183.88
641.502	176.88
641.707	193.88
641.913	180.88
642.118	178.88
642.323	186.88
642.528	176.88
642.733	180.88
642.939	152.88
643.144	185.88
643.349	167.88
643.554	177.88
643.759	160.88
643.964	162.88
644.169	174.88
644.374	175.88
644.579	171.88
644.784	167.88
644.989	162.88
645.194	175.88
645.399	181.88
645.604	158.88
645.809	179.88
646.014	162.88
646.219	158.88
646.423	180.88
646.628	168.88
646.833	178.88
647.038	172.88
647.243	177.88
647.447	185.88
647.652	172.88
647.857	180.88
648.062	189.88
648.266	187.88
648.471	189.88
648.676	182.88
648.88	170.88
649.085	202.88
649.289	168.88
649.494	168.88
649.698	187.88
649.903	176.88
650.107	164.88
650.312	190.88
650.516	170.88
650.721	175.88
650.925	168.88
651.13	177.88
651.334	142.88
651.539	163.88
651.743	165.88
651.947	162.88
652.152	147.88
652.356	152.88
652.56	147.88
652.764	144.88
652.969	149.88
653.173	148.88
653.377	142.88
653.581	142.88
653.785	142.88
653.99	149.88
654.194	138.88
654.398	126.88
654.602	136.88
654.806	138.88
655.01	145.88
655.214	133.88
655.418	136.88
655.622	129.88
655.826	125.88
656.03	142.88
656.234	125.88
656.438	142.88
656.642	147.88
656.846	123.88
657.049	135.88
657.253	141.88
657.457	132.88
657.661	124.88
657.865	126.88
658.068	120.88
658.272	113.88
658.476	112.88
658.68	103.88
658.883	113.88
659.087	95.88
659.291	99.88
659.494	107.88
659.698	109.88
659.901	104.88
660.105	117.88
660.309	98.88
660.512	90.88
660.716	97.88
660.919	87.88
661.123	103.88
661.326	103.88
661.53	98.88
661.733	87.88
661.936	89.88
662.14	77.88
662.343	83.88
662.546	92.88
662.75	70.88
662.953	104.88
663.156	100.88
663.36	91.88
663.563	87.88
663.766	78.88
663.969	100.88
664.173	86.88
664.376	90.88
664.579	87.88
664.782	73.88
664.985	79.88
665.188	93.88
665.391	84.88
665.594	69.88
665.797	88.88
666	77.88
666.203	85.88
666.406	91.88
666.609	88.88
666.812	99.88
667.015	84.88
667.218	108.88
667.421	95.88
667.624	96.88
667.827	78.88
668.03	96.88
668.232	84.88
668.435	92.88
668.638	101.88
668.841	97.88
669.043	86.88
669.246	81.88
669.449	91.88
669.651	91.88
669.854	95.88
670.057	82.88
670.259	81.88
670.462	109.88
670.665	81.88
670.867	89.88
671.07	87.88
671.272	87.88
671.475	89.88
671.677	91.88
671.88	93.88
672.082	80.88
672.284	94.88
672.487	99.88
672.689	86.88
672.892	84.88
