Data from Ni(NO3)2@0.25M.TitratingCurve.Agarose3%dH2O.NegLispCup.LampEnergy10.LIBS07252019_HRD10591_18-04-16-565.txt Node
Date: Thu Jul 25 18:04:16 EDT 2019
User: cochatt
Spectrometer: HR+D1059
Trigger mode: 1
Integration Time (sec): 1.000000E-1
Scans to average: 1
Electric dark correction enabled: true
Nonlinearity correction enabled: false
Boxcar width: 0
XAxis mode: Wavelengths
Number of Pixels in Spectrum: 2048
>>>>>Begin Spectral Data<<<<<
223.165	3.69
223.4	3.69
223.635	3.69
223.869	-9.31
224.104	-16.31
224.338	-12.31
224.573	-8.31
224.808	-13.31
225.042	-10.31
225.277	-22.31
225.511	4.69
225.746	2.69
225.98	3.69
226.215	6.69
226.449	9.69
226.683	32.69
226.918	12.69
227.152	15.69
227.387	29.69
227.621	37.69
227.856	38.69
228.09	36.69
228.324	50.69
228.559	46.69
228.793	64.69
229.027	89.69
229.262	92.69
229.496	101.69
229.73	106.69
229.964	102.69
230.199	112.69
230.433	108.69
230.667	108.69
230.901	106.69
231.136	120.69
231.37	113.69
231.604	110.69
231.838	121.69
232.072	118.69
232.306	128.69
232.541	136.69
232.775	116.69
233.009	106.69
233.243	114.69
233.477	126.69
233.711	133.69
233.945	116.69
234.179	131.69
234.413	108.69
234.647	136.69
234.881	125.69
235.115	116.69
235.349	121.69
235.583	132.69
235.817	111.69
236.051	115.69
236.285	132.69
236.519	122.69
236.753	131.69
236.987	130.69
237.221	121.69
237.455	139.69
237.689	118.69
237.922	126.69
238.156	138.69
238.39	130.69
238.624	122.69
238.858	130.69
239.091	146.69
239.325	126.69
239.559	135.69
239.793	127.69
240.027	140.69
240.26	140.69
240.494	117.69
240.728	118.69
240.961	160.69
241.195	136.69
241.429	138.69
241.662	134.69
241.896	152.69
242.13	144.69
242.363	142.69
242.597	148.69
242.83	155.69
243.064	146.69
243.298	143.69
243.531	158.69
243.765	156.69
243.998	138.69
244.232	148.69
244.465	161.69
244.699	151.69
244.932	157.69
245.166	154.69
245.399	169.69
245.633	153.69
245.866	158.69
246.099	175.69
246.333	163.69
246.566	166.69
246.8	164.69
247.033	162.69
247.266	175.69
247.5	177.69
247.733	181.69
247.966	167.69
248.2	168.69
248.433	179.69
248.666	176.69
248.899	172.69
249.133	185.69
249.366	183.69
249.599	183.69
249.832	181.69
250.066	197.69
250.299	202.69
250.532	182.69
250.765	203.69
250.998	195.69
251.231	207.69
251.465	195.69
251.698	195.69
251.931	192.69
252.164	198.69
252.397	218.69
252.63	217.69
252.863	211.69
253.096	212.69
253.329	214.69
253.562	220.69
253.795	212.69
254.028	224.69
254.261	221.69
254.494	225.69
254.727	223.69
254.96	223.69
255.193	228.69
255.426	253.69
255.659	217.69
255.892	243.69
256.124	234.69
256.357	228.69
256.59	228.69
256.823	237.69
257.056	236.69
257.289	231.69
257.521	233.69
257.754	245.69
257.987	234.69
258.22	236.69
258.452	258.69
258.685	246.69
258.918	260.69
259.151	265.69
259.383	252.69
259.616	252.69
259.849	255.69
260.081	271.69
260.314	260.69
260.547	266.69
260.779	264.69
261.012	275.69
261.244	273.69
261.477	277.69
261.71	264.69
261.942	261.69
262.175	263.69
262.407	253.69
262.64	273.69
262.872	292.69
263.105	273.69
263.337	276.69
263.57	282.69
263.802	299.69
264.035	306.69
264.267	268.69
264.499	295.69
264.732	284.69
264.964	270.69
265.197	281.69
265.429	282.69
265.661	293.69
265.894	290.69
266.126	310.69
266.358	305.69
266.591	286.69
266.823	322.69
267.055	280.69
267.287	298.69
267.52	297.69
267.752	288.69
267.984	294.69
268.216	289.69
268.448	305.69
268.681	302.69
268.913	315.69
269.145	301.69
269.377	299.69
269.609	288.69
269.841	319.69
270.073	311.69
270.306	319.69
270.538	303.69
270.77	301.69
271.002	317.69
271.234	319.69
271.466	320.69
271.698	308.69
271.93	315.69
272.162	305.69
272.394	314.69
272.626	320.69
272.858	311.69
273.09	317.69
273.322	336.69
273.553	306.69
273.785	318.69
274.017	303.69
274.249	334.69
274.481	328.69
274.713	340.69
274.945	332.69
275.176	342.69
275.408	316.69
275.64	324.69
275.872	335.69
276.104	334.69
276.335	344.69
276.567	311.69
276.799	335.69
277.031	337.69
277.262	337.69
277.494	344.69
277.726	332.69
277.957	345.69
278.189	334.69
278.421	334.69
278.652	359.69
278.884	336.69
279.115	342.69
279.347	370.69
279.579	351.69
279.81	356.69
280.042	378.69
280.273	349.69
280.505	341.69
280.736	347.69
280.968	364.69
281.199	352.69
281.431	363.69
281.662	359.69
281.894	373.69
282.125	365.69
282.356	367.69
282.588	372.69
282.819	370.69
283.051	355.69
283.282	358.69
283.513	372.69
283.745	375.69
283.976	369.69
284.207	379.69
284.439	380.69
284.67	403.69
284.901	377.69
285.132	389.69
285.364	372.69
285.595	377.69
285.826	392.69
286.057	373.69
286.288	379.69
286.52	392.69
286.751	386.69
286.982	389.69
287.213	372.69
287.444	384.69
287.675	378.69
287.906	382.69
288.138	375.69
288.369	384.69
288.6	393.69
288.831	396.69
289.062	376.69
289.293	377.69
289.524	375.69
289.755	400.69
289.986	370.69
290.217	382.69
290.448	399.69
290.679	422.69
290.91	400.69
291.141	417.69
291.371	410.69
291.602	407.69
291.833	392.69
292.064	413.69
292.295	400.69
292.526	411.69
292.757	396.69
292.987	407.69
293.218	387.69
293.449	405.69
293.68	397.69
293.91	404.69
294.141	402.69
294.372	396.69
294.603	395.69
294.833	406.69
295.064	402.69
295.295	399.69
295.525	392.69
295.756	404.69
295.987	399.69
296.217	402.69
296.448	428.69
296.679	415.69
296.909	414.69
297.14	421.69
297.37	421.69
297.601	419.69
297.831	397.69
298.062	418.69
298.292	426.69
298.523	441.69
298.753	433.69
298.984	431.69
299.214	426.69
299.445	424.69
299.675	425.69
299.905	435.69
300.136	432.69
300.366	442.69
300.597	425.69
300.827	460.69
301.057	454.69
301.288	466.69
301.518	446.69
301.748	457.69
301.979	449.69
302.209	454.69
302.439	457.69
302.669	441.69
302.9	450.69
303.13	462.69
303.36	458.69
303.59	441.69
303.82	458.69
304.051	457.69
304.281	472.69
304.511	457.69
304.741	459.69
304.971	447.69
305.201	473.69
305.431	466.69
305.661	474.69
305.891	471.69
306.121	446.69
306.352	460.69
306.582	441.69
306.812	442.69
307.042	446.69
307.272	450.69
307.502	447.69
307.731	420.69
307.961	452.69
308.191	435.69
308.421	448.69
308.651	466.69
308.881	437.69
309.111	450.69
309.341	451.69
309.571	473.69
309.8	442.69
310.03	459.69
310.26	472.69
310.49	491.69
310.72	468.69
310.949	481.69
311.179	450.69
311.409	464.69
311.639	465.69
311.868	499.69
312.098	473.69
312.328	485.69
312.557	471.69
312.787	475.69
313.017	482.69
313.246	495.69
313.476	512.69
313.706	504.69
313.935	523.69
314.165	486.69
314.394	496.69
314.624	493.69
314.853	502.69
315.083	504.69
315.312	494.69
315.542	515.69
315.771	526.69
316.001	487.69
316.23	500.69
316.46	498.69
316.689	515.69
316.919	520.69
317.148	512.69
317.377	514.69
317.607	490.69
317.836	511.69
318.065	506.69
318.295	515.69
318.524	520.69
318.753	495.69
318.983	530.69
319.212	547.69
319.441	508.69
319.67	513.69
319.9	530.69
320.129	521.69
320.358	536.69
320.587	537.69
320.816	540.69
321.046	540.69
321.275	544.69
321.504	536.69
321.733	551.69
321.962	538.69
322.191	544.69
322.42	543.69
322.649	553.69
322.878	549.69
323.108	554.69
323.337	580.69
323.566	556.69
323.795	574.69
324.024	587.69
324.253	551.69
324.482	570.69
324.71	590.69
324.939	594.69
325.168	606.69
325.397	577.69
325.626	578.69
325.855	591.69
326.084	612.69
326.313	625.69
326.542	608.69
326.77	630.69
326.999	631.69
327.228	626.69
327.457	610.69
327.686	631.69
327.914	612.69
328.143	640.69
328.372	615.69
328.6	640.69
328.829	649.69
329.058	617.69
329.287	649.69
329.515	639.69
329.744	666.69
329.972	634.69
330.201	652.69
330.43	658.69
330.658	669.69
330.887	672.69
331.115	660.69
331.344	681.69
331.572	680.69
331.801	706.69
332.03	718.69
332.258	720.69
332.486	696.69
332.715	732.69
332.943	748.69
333.172	767.69
333.4	794.69
333.629	805.69
333.857	813.69
334.085	806.69
334.314	803.69
334.542	818.69
334.771	812.69
334.999	795.69
335.227	808.69
335.455	794.69
335.684	828.69
335.912	795.69
336.14	798.69
336.369	812.69
336.597	830.69
336.825	817.69
337.053	803.69
337.281	807.69
337.51	778.69
337.738	757.69
337.966	764.69
338.194	756.69
338.422	766.69
338.65	733.69
338.878	745.69
339.106	750.69
339.334	739.69
339.562	735.69
339.79	723.69
340.018	725.69
340.246	682.69
340.474	684.69
340.702	708.69
340.93	720.69
341.158	691.69
341.386	738.69
341.614	743.69
341.842	709.69
342.07	711.69
342.298	723.69
342.526	708.69
342.754	711.69
342.981	727.69
343.209	722.69
343.437	768.69
343.665	766.69
343.893	806.69
344.12	832.69
344.348	796.69
344.576	787.69
344.804	794.69
345.031	775.69
345.259	724.69
345.487	741.69
345.714	701.69
345.942	721.69
346.17	709.69
346.397	712.69
346.625	710.69
346.853	697.69
347.08	700.69
347.308	697.69
347.535	664.69
347.763	676.69
347.99	700.69
348.218	707.69
348.445	702.69
348.673	690.69
348.9	694.69
349.128	671.69
349.355	689.69
349.583	718.69
349.81	691.69
350.037	646.69
350.265	672.69
350.492	669.69
350.72	682.69
350.947	674.69
351.174	704.69
351.402	683.69
351.629	692.69
351.856	684.69
352.083	682.69
352.311	701.69
352.538	697.69
352.765	707.69
352.992	672.69
353.22	641.69
353.447	652.69
353.674	632.69
353.901	648.69
354.128	651.69
354.355	646.69
354.583	647.69
354.81	664.69
355.037	660.69
355.264	657.69
355.491	656.69
355.718	662.69
355.945	665.69
356.172	670.69
356.399	667.69
356.626	661.69
356.853	680.69
357.08	706.69
357.307	672.69
357.534	666.69
357.761	657.69
357.988	684.69
358.215	652.69
358.441	665.69
358.668	648.69
358.895	654.69
359.122	659.69
359.349	638.69
359.576	650.69
359.802	673.69
360.029	686.69
360.256	649.69
360.483	682.69
360.709	672.69
360.936	669.69
361.163	663.69
361.39	684.69
361.616	673.69
361.843	688.69
362.07	669.69
362.296	674.69
362.523	669.69
362.749	661.69
362.976	654.69
363.203	654.69
363.429	657.69
363.656	651.69
363.882	648.69
364.109	632.69
364.335	655.69
364.562	643.69
364.788	653.69
365.015	639.69
365.241	636.69
365.468	649.69
365.694	651.69
365.92	656.69
366.147	659.69
366.373	654.69
366.599	651.69
366.826	643.69
367.052	644.69
367.278	671.69
367.505	651.69
367.731	644.69
367.957	640.69
368.184	643.69
368.41	632.69
368.636	673.69
368.862	674.69
369.089	673.69
369.315	653.69
369.541	684.69
369.767	682.69
369.993	660.69
370.219	656.69
370.445	694.69
370.672	691.69
370.898	689.69
371.124	691.69
371.35	689.69
371.576	670.69
371.802	690.69
372.028	680.69
372.254	690.69
372.48	676.69
372.706	712.69
372.932	732.69
373.158	693.69
373.384	694.69
373.61	702.69
373.835	705.69
374.061	695.69
374.287	699.69
374.513	693.69
374.739	701.69
374.965	713.69
375.191	731.69
375.416	737.69
375.642	711.69
375.868	694.69
376.094	706.69
376.319	724.69
376.545	693.69
376.771	697.69
376.997	688.69
377.222	671.69
377.448	675.69
377.674	676.69
377.899	670.69
378.125	670.69
378.35	659.69
378.576	649.69
378.802	652.69
379.027	665.69
379.253	656.69
379.478	691.69
379.704	707.69
379.929	691.69
380.155	698.69
380.38	680.69
380.606	670.69
380.831	649.69
381.057	671.69
381.282	669.69
381.507	659.69
381.733	666.69
381.958	708.69
382.184	687.69
382.409	665.69
382.634	680.69
382.86	686.69
383.085	704.69
383.31	732.69
383.535	688.69
383.761	696.69
383.986	726.69
384.211	718.69
384.436	746.69
384.662	763.69
384.887	755.69
385.112	745.69
385.337	782.69
385.562	780.69
385.787	786.69
386.013	810.69
386.238	784.69
386.463	778.69
386.688	792.69
386.913	788.69
387.138	777.69
387.363	796.69
387.588	784.69
387.813	788.69
388.038	792.69
388.263	779.69
388.488	782.69
388.713	798.69
388.938	760.69
389.163	766.69
389.387	804.69
389.612	771.69
389.837	776.69
390.062	784.69
390.287	781.69
390.512	795.69
390.736	826.69
390.961	784.69
391.186	801.69
391.411	821.69
391.636	831.69
391.86	849.69
392.085	874.69
392.31	866.69
392.534	837.69
392.759	831.69
392.984	870.69
393.208	838.69
393.433	849.69
393.658	845.69
393.882	809.69
394.107	862.69
394.331	821.69
394.556	836.69
394.78	820.69
395.005	841.69
395.229	865.69
395.454	871.69
395.678	841.69
395.903	856.69
396.127	848.69
396.352	848.69
396.576	841.69
396.801	855.69
397.025	858.69
397.249	881.69
397.474	892.69
397.698	880.69
397.922	881.69
398.147	902.69
398.371	929.69
398.595	920.69
398.82	983.69
399.044	1023.69
399.268	1115.69
399.492	1200.69
399.717	1302.69
399.941	1281.69
400.165	1217.69
400.389	1112.69
400.613	1056.69
400.837	1058.69
401.062	1059.69
401.286	1010.69
401.51	992.69
401.734	985.69
401.958	1001.69
402.182	1001.69
402.406	998.69
402.63	1004.69
402.854	1006.69
403.078	1034.69
403.302	1078.69
403.526	1061.69
403.75	1066.69
403.974	1065.69
404.198	1054.69
404.422	1049.69
404.645	1073.69
404.869	1040.69
405.093	1088.69
405.317	1057.69
405.541	1072.69
405.765	1087.69
405.988	1061.69
406.212	1090.69
406.436	1059.69
406.66	1105.69
406.883	1121.69
407.107	1149.69
407.331	1161.69
407.555	1205.69
407.778	1226.69
408.002	1196.69
408.226	1178.69
408.449	1207.69
408.673	1146.69
408.896	1136.69
409.12	1112.69
409.344	1116.69
409.567	1127.69
409.791	1102.69
410.014	1110.69
410.238	1073.69
410.461	1081.69
410.685	1089.69
410.908	1027.69
411.132	1055.69
411.355	1031.69
411.578	1039.69
411.802	1059.69
412.025	1039.69
412.249	1075.69
412.472	1046.69
412.695	1041.69
412.919	1041.69
413.142	1012.69
413.365	1029.69
413.589	1034.69
413.812	1031.69
414.035	1011.69
414.258	1012.69
414.482	991.69
414.705	1020.69
414.928	994.69
415.151	1004.69
415.374	1028.69
415.597	991.69
415.821	991.69
416.044	981.69
416.267	986.69
416.49	994.69
416.713	966.69
416.936	995.69
417.159	962.69
417.382	987.69
417.605	974.69
417.828	1001.69
418.051	1016.69
418.274	1036.69
418.497	963.69
418.72	1027.69
418.943	1041.69
419.166	1067.69
419.389	1141.69
419.611	1101.69
419.834	1081.69
420.057	1068.69
420.28	1022.69
420.503	993.69
420.726	997.69
420.948	1018.69
421.171	998.69
421.394	1022.69
421.617	1012.69
421.839	1025.69
422.062	1012.69
422.285	1009.69
422.507	994.69
422.73	1028.69
422.953	1008.69
423.175	994.69
423.398	1035.69
423.621	1031.69
423.843	1056.69
424.066	1029.69
424.288	1081.69
424.511	1033.69
424.733	1047.69
424.956	1025.69
425.178	1031.69
425.401	995.69
425.623	1023.69
425.846	1022.69
426.068	978.69
426.291	992.69
426.513	985.69
426.735	976.69
426.958	979.69
427.18	942.69
427.402	957.69
427.625	965.69
427.847	938.69
428.069	948.69
428.292	1004.69
428.514	939.69
428.736	942.69
428.958	943.69
429.181	943.69
429.403	917.69
429.625	947.69
429.847	945.69
430.069	934.69
430.292	936.69
430.514	915.69
430.736	969.69
430.958	946.69
431.18	917.69
431.402	976.69
431.624	942.69
431.846	948.69
432.068	946.69
432.29	974.69
432.512	967.69
432.734	968.69
432.956	961.69
433.178	986.69
433.4	964.69
433.622	969.69
433.844	976.69
434.066	982.69
434.287	955.69
434.509	965.69
434.731	994.69
434.953	1043.69
435.175	1046.69
435.397	1055.69
435.618	995.69
435.84	1012.69
436.062	976.69
436.284	979.69
436.505	948.69
436.727	956.69
436.949	972.69
437.17	953.69
437.392	969.69
437.614	938.69
437.835	916.69
438.057	921.69
438.278	918.69
438.5	938.69
438.721	945.69
438.943	947.69
439.165	923.69
439.386	942.69
439.608	956.69
439.829	934.69
440.05	963.69
440.272	963.69
440.493	978.69
440.715	967.69
440.936	995.69
441.158	1031.69
441.379	1013.69
441.6	1057.69
441.822	1072.69
442.043	1035.69
442.264	1040.69
442.486	998.69
442.707	1056.69
442.928	1036.69
443.149	1041.69
443.371	1064.69
443.592	1076.69
443.813	1057.69
444.034	1088.69
444.255	1109.69
444.476	1126.69
444.698	1161.69
444.919	1182.69
445.14	1255.69
445.361	1137.69
445.582	1097.69
445.803	1040.69
446.024	1006.69
446.245	1025.69
446.466	994.69
446.687	997.69
446.908	958.69
447.129	938.69
447.35	968.69
447.571	937.69
447.792	922.69
448.013	893.69
448.234	909.69
448.455	940.69
448.675	912.69
448.896	910.69
449.117	884.69
449.338	893.69
449.559	886.69
449.779	902.69
450	875.69
450.221	864.69
450.442	924.69
450.662	887.69
450.883	901.69
451.104	894.69
451.324	885.69
451.545	914.69
451.766	914.69
451.986	879.69
452.207	866.69
452.428	865.69
452.648	890.69
452.869	848.69
453.089	879.69
453.31	884.69
453.53	874.69
453.751	854.69
453.971	829.69
454.192	872.69
454.412	836.69
454.633	840.69
454.853	861.69
455.073	884.69
455.294	863.69
455.514	837.69
455.734	852.69
455.955	849.69
456.175	833.69
456.395	822.69
456.616	850.69
456.836	814.69
457.056	818.69
457.276	820.69
457.497	831.69
457.717	845.69
457.937	842.69
458.157	864.69
458.377	864.69
458.598	905.69
458.818	894.69
459.038	904.69
459.258	920.69
459.478	967.69
459.698	968.69
459.918	1001.69
460.138	1036.69
460.358	1087.69
460.578	1057.69
460.798	1099.69
461.018	1121.69
461.238	1082.69
461.458	1075.69
461.678	1112.69
461.898	1129.69
462.118	1121.69
462.338	1178.69
462.558	1160.69
462.777	1205.69
462.997	1304.69
463.217	1316.69
463.437	1335.69
463.657	1321.69
463.876	1271.69
464.096	1226.69
464.316	1267.69
464.536	1239.69
464.755	1230.69
464.975	1201.69
465.195	1115.69
465.414	1084.69
465.634	1021.69
465.854	1004.69
466.073	1004.69
466.293	971.69
466.512	985.69
466.732	938.69
466.951	966.69
467.171	926.69
467.391	941.69
467.61	913.69
467.829	929.69
468.049	914.69
468.268	904.69
468.488	910.69
468.707	926.69
468.927	943.69
469.146	911.69
469.365	953.69
469.585	957.69
469.804	928.69
470.023	963.69
470.243	945.69
470.462	956.69
470.681	981.69
470.901	978.69
471.12	944.69
471.339	929.69
471.558	926.69
471.777	924.69
471.997	898.69
472.216	904.69
472.435	904.69
472.654	865.69
472.873	867.69
473.092	878.69
473.311	892.69
473.53	905.69
473.749	918.69
473.968	884.69
474.187	912.69
474.406	878.69
474.625	892.69
474.844	886.69
475.063	907.69
475.282	931.69
475.501	926.69
475.72	929.69
475.939	893.69
476.158	919.69
476.377	952.69
476.596	896.69
476.814	946.69
477.033	943.69
477.252	976.69
477.471	999.69
477.69	978.69
477.908	997.69
478.127	1031.69
478.346	1052.69
478.564	1048.69
478.783	1061.69
479.002	1081.69
479.22	1114.69
479.439	1084.69
479.658	1080.69
479.876	1090.69
480.095	1121.69
480.313	1126.69
480.532	1134.69
480.751	1112.69
480.969	1073.69
481.188	1052.69
481.406	1072.69
481.624	1015.69
481.843	1036.69
482.061	1033.69
482.28	1046.69
482.498	1025.69
482.717	1006.69
482.935	1036.69
483.153	1037.69
483.372	1047.69
483.59	1031.69
483.808	1042.69
484.027	1043.69
484.245	1063.69
484.463	1015.69
484.681	1058.69
484.9	1034.69
485.118	1072.69
485.336	1045.69
485.554	1046.69
485.772	1025.69
485.99	1082.69
486.209	1061.69
486.427	1064.69
486.645	1049.69
486.863	1053.69
487.081	1090.69
487.299	1057.69
487.517	1049.69
487.735	1072.69
487.953	1076.69
488.171	1093.69
488.389	1072.69
488.607	1060.69
488.825	1051.69
489.043	1016.69
489.261	1077.69
489.479	1057.69
489.696	1076.69
489.914	1060.69
490.132	1081.69
490.35	1054.69
490.568	1093.69
490.786	1104.69
491.003	1095.69
491.221	1130.69
491.439	1146.69
491.657	1104.69
491.874	1127.69
492.092	1113.69
492.31	1133.69
492.527	1148.69
492.745	1144.69
492.963	1149.69
493.18	1138.69
493.398	1140.69
493.615	1110.69
493.833	1137.69
494.05	1138.69
494.268	1168.69
494.485	1174.69
494.703	1188.69
494.92	1137.69
495.138	1165.69
495.355	1167.69
495.573	1169.69
495.79	1205.69
496.008	1203.69
496.225	1178.69
496.442	1220.69
496.66	1230.69
496.877	1255.69
497.094	1294.69
497.312	1294.69
497.529	1302.69
497.746	1341.69
497.963	1365.69
498.181	1394.69
498.398	1465.69
498.615	1538.69
498.832	1617.69
499.049	1685.69
499.267	1774.69
499.484	1904.69
499.701	2065.69
499.918	2196.69
500.135	2394.69
500.352	2591.69
500.569	2694.69
500.786	2640.69
501.003	2544.69
501.22	2362.69
501.437	2228.69
501.654	2036.69
501.871	1908.69
502.088	1728.69
502.305	1688.69
502.522	1610.69
502.739	1569.69
502.956	1496.69
503.172	1430.69
503.389	1401.69
503.606	1348.69
503.823	1304.69
504.04	1323.69
504.256	1280.69
504.473	1314.69
504.69	1291.69
504.907	1256.69
505.123	1247.69
505.34	1177.69
505.557	1168.69
505.773	1132.69
505.99	1141.69
506.207	1102.69
506.423	1065.69
506.64	1071.69
506.856	1040.69
507.073	1053.69
507.289	1054.69
507.506	1015.69
507.722	1022.69
507.939	1019.69
508.155	1016.69
508.372	977.69
508.588	995.69
508.805	973.69
509.021	970.69
509.238	963.69
509.454	961.69
509.67	926.69
509.887	956.69
510.103	934.69
510.319	918.69
510.536	922.69
510.752	934.69
510.968	932.69
511.184	926.69
511.401	936.69
511.617	939.69
511.833	916.69
512.049	940.69
512.265	909.69
512.481	966.69
512.698	929.69
512.914	920.69
513.13	936.69
513.346	906.69
513.562	934.69
513.778	920.69
513.994	940.69
514.21	960.69
514.426	961.69
514.642	925.69
514.858	974.69
515.074	961.69
515.29	968.69
515.506	952.69
515.721	1001.69
515.937	1035.69
516.153	1016.69
516.369	1011.69
516.585	1042.69
516.801	1068.69
517.016	1108.69
517.232	1118.69
517.448	1181.69
517.664	1177.69
517.879	1167.69
518.095	1177.69
518.311	1169.69
518.527	1132.69
518.742	1112.69
518.958	1064.69
519.173	1046.69
519.389	1027.69
519.605	1016.69
519.82	981.69
520.036	972.69
520.251	959.69
520.467	952.69
520.682	935.69
520.898	933.69
521.113	910.69
521.329	919.69
521.544	911.69
521.76	885.69
521.975	917.69
522.19	902.69
522.406	894.69
522.621	889.69
522.836	869.69
523.052	877.69
523.267	865.69
523.482	864.69
523.698	868.69
523.913	867.69
524.128	870.69
524.343	866.69
524.559	830.69
524.774	866.69
524.989	851.69
525.204	864.69
525.419	848.69
525.634	857.69
525.849	849.69
526.064	849.69
526.28	835.69
526.495	840.69
526.71	836.69
526.925	850.69
527.14	820.69
527.355	828.69
527.57	813.69
527.785	840.69
527.999	842.69
528.214	850.69
528.429	808.69
528.644	833.69
528.859	822.69
529.074	836.69
529.289	841.69
529.503	817.69
529.718	840.69
529.933	812.69
530.148	840.69
530.363	830.69
530.577	824.69
530.792	819.69
531.007	831.69
531.221	790.69
531.436	831.69
531.651	841.69
531.865	832.69
532.08	823.69
532.295	831.69
532.509	789.69
532.724	848.69
532.938	811.69
533.153	824.69
533.367	828.69
533.582	813.69
533.796	812.69
534.011	831.69
534.225	818.69
534.44	813.69
534.654	808.69
534.868	792.69
535.083	806.69
535.297	801.69
535.511	805.69
535.726	808.69
535.94	792.69
536.154	799.69
536.369	774.69
536.583	768.69
536.797	778.69
537.011	764.69
537.225	748.69
537.44	755.69
537.654	780.69
537.868	769.69
538.082	758.69
538.296	751.69
538.51	744.69
538.724	787.69
538.938	786.69
539.153	768.69
539.367	757.69
539.581	750.69
539.795	756.69
540.009	775.69
540.222	740.69
540.436	717.69
540.65	752.69
540.864	758.69
541.078	758.69
541.292	779.69
541.506	792.69
541.72	776.69
541.934	773.69
542.147	786.69
542.361	755.69
542.575	748.69
542.789	760.69
543.002	751.69
543.216	732.69
543.43	755.69
543.644	727.69
543.857	769.69
544.071	788.69
544.285	788.69
544.498	785.69
544.712	778.69
544.925	777.69
545.139	779.69
545.352	768.69
545.566	762.69
545.779	774.69
545.993	797.69
546.206	788.69
546.42	738.69
546.633	800.69
546.847	776.69
547.06	768.69
547.274	758.69
547.487	766.69
547.7	760.69
547.914	768.69
548.127	803.69
548.34	768.69
548.554	784.69
548.767	777.69
548.98	775.69
549.193	757.69
549.407	770.69
549.62	780.69
549.833	768.69
550.046	774.69
550.259	782.69
550.473	757.69
550.686	798.69
550.899	768.69
551.112	744.69
551.325	749.69
551.538	738.69
551.751	745.69
551.964	759.69
552.177	762.69
552.39	755.69
552.603	794.69
552.816	796.69
553.029	796.69
553.242	817.69
553.455	808.69
553.667	805.69
553.88	786.69
554.093	792.69
554.306	778.69
554.519	780.69
554.732	754.69
554.944	749.69
555.157	712.69
555.37	726.69
555.583	727.69
555.795	690.69
556.008	694.69
556.221	713.69
556.433	684.69
556.646	666.69
556.859	686.69
557.071	649.69
557.284	677.69
557.496	675.69
557.709	690.69
557.921	654.69
558.134	640.69
558.346	638.69
558.559	665.69
558.771	657.69
558.984	658.69
559.196	613.69
559.409	647.69
559.621	646.69
559.833	642.69
560.046	632.69
560.258	625.69
560.47	632.69
560.683	633.69
560.895	647.69
561.107	637.69
561.32	640.69
561.532	632.69
561.744	633.69
561.956	634.69
562.168	631.69
562.381	676.69
562.593	633.69
562.805	633.69
563.017	652.69
563.229	629.69
563.441	654.69
563.653	642.69
563.865	651.69
564.077	654.69
564.289	659.69
564.501	662.69
564.713	685.69
564.925	685.69
565.137	699.69
565.349	680.69
565.561	705.69
565.773	739.69
565.985	746.69
566.197	798.69
566.408	833.69
566.62	855.69
566.832	891.69
567.044	903.69
567.255	935.69
567.467	917.69
567.679	915.69
567.891	979.69
568.102	977.69
568.314	925.69
568.526	896.69
568.737	856.69
568.949	806.69
569.161	770.69
569.372	714.69
569.584	707.69
569.795	686.69
570.007	646.69
570.218	671.69
570.43	609.69
570.641	633.69
570.853	625.69
571.064	625.69
571.276	618.69
571.487	610.69
571.698	606.69
571.91	588.69
572.121	560.69
572.333	558.69
572.544	559.69
572.755	555.69
572.966	545.69
573.178	540.69
573.389	529.69
573.6	544.69
573.811	509.69
574.023	507.69
574.234	529.69
574.445	512.69
574.656	505.69
574.867	500.69
575.078	506.69
575.289	515.69
575.501	497.69
575.712	488.69
575.923	488.69
576.134	484.69
576.345	475.69
576.556	503.69
576.767	495.69
576.978	475.69
577.188	477.69
577.399	486.69
577.61	481.69
577.821	480.69
578.032	485.69
578.243	477.69
578.454	476.69
578.665	463.69
578.875	453.69
579.086	481.69
579.297	457.69
579.508	449.69
579.718	453.69
579.929	440.69
580.14	442.69
580.35	442.69
580.561	451.69
580.772	423.69
580.982	449.69
581.193	434.69
581.403	445.69
581.614	453.69
581.825	449.69
582.035	424.69
582.246	440.69
582.456	431.69
582.667	432.69
582.877	425.69
583.087	448.69
583.298	416.69
583.508	453.69
583.719	405.69
583.929	424.69
584.139	424.69
584.35	421.69
584.56	440.69
584.77	415.69
584.981	429.69
585.191	409.69
585.401	420.69
585.611	435.69
585.821	408.69
586.032	403.69
586.242	397.69
586.452	414.69
586.662	417.69
586.872	407.69
587.082	430.69
587.292	422.69
587.502	440.69
587.713	402.69
587.923	407.69
588.133	416.69
588.343	388.69
588.553	420.69
588.762	395.69
588.972	411.69
589.182	417.69
589.392	412.69
589.602	402.69
589.812	425.69
590.022	423.69
590.232	420.69
590.441	416.69
590.651	411.69
590.861	413.69
591.071	405.69
591.281	414.69
591.49	416.69
591.7	440.69
591.91	437.69
592.119	431.69
592.329	432.69
592.539	432.69
592.748	472.69
592.958	461.69
593.167	469.69
593.377	471.69
593.587	458.69
593.796	482.69
594.006	470.69
594.215	490.69
594.424	446.69
594.634	470.69
594.843	457.69
595.053	420.69
595.262	452.69
595.472	410.69
595.681	420.69
595.89	418.69
596.1	381.69
596.309	384.69
596.518	387.69
596.727	369.69
596.937	378.69
597.146	377.69
597.355	380.69
597.564	406.69
597.774	379.69
597.983	385.69
598.192	358.69
598.401	348.69
598.61	344.69
598.819	341.69
599.028	347.69
599.237	358.69
599.446	357.69
599.655	368.69
599.864	361.69
600.073	357.69
600.282	349.69
600.491	349.69
600.7	325.69
600.909	333.69
601.118	333.69
601.327	341.69
601.536	342.69
601.745	353.69
601.953	342.69
602.162	315.69
602.371	341.69
602.58	336.69
602.789	348.69
602.997	329.69
603.206	322.69
603.415	338.69
603.623	325.69
603.832	318.69
604.041	334.69
604.249	320.69
604.458	321.69
604.666	305.69
604.875	320.69
605.084	311.69
605.292	305.69
605.501	320.69
605.709	334.69
605.918	329.69
606.126	311.69
606.334	322.69
606.543	346.69
606.751	325.69
606.96	308.69
607.168	331.69
607.376	308.69
607.585	313.69
607.793	325.69
608.001	293.69
608.21	301.69
608.418	318.69
608.626	318.69
608.834	318.69
609.043	319.69
609.251	308.69
609.459	312.69
609.667	304.69
609.875	312.69
610.083	305.69
610.291	306.69
610.499	316.69
610.707	302.69
610.916	314.69
611.124	300.69
611.332	304.69
611.54	319.69
611.748	297.69
611.955	302.69
612.163	296.69
612.371	295.69
612.579	281.69
612.787	296.69
612.995	298.69
613.203	279.69
613.411	298.69
613.618	304.69
613.826	303.69
614.034	293.69
614.242	300.69
614.449	292.69
614.657	291.69
614.865	298.69
615.072	279.69
615.28	292.69
615.488	289.69
615.695	284.69
615.903	276.69
616.111	293.69
616.318	305.69
616.526	308.69
616.733	301.69
616.941	289.69
617.148	294.69
617.356	282.69
617.563	289.69
617.771	301.69
617.978	290.69
618.185	283.69
618.393	289.69
618.6	282.69
618.807	281.69
619.015	284.69
619.222	290.69
619.429	276.69
619.637	284.69
619.844	289.69
620.051	278.69
620.258	275.69
620.466	270.69
620.673	277.69
620.88	253.69
621.087	272.69
621.294	269.69
621.501	278.69
621.708	256.69
621.915	279.69
622.122	261.69
622.329	272.69
622.536	260.69
622.743	273.69
622.95	283.69
623.157	282.69
623.364	272.69
623.571	243.69
623.778	266.69
623.985	259.69
624.192	268.69
624.399	256.69
624.606	276.69
624.812	262.69
625.019	232.69
625.226	264.69
625.433	261.69
625.639	243.69
625.846	253.69
626.053	256.69
626.259	259.69
626.466	258.69
626.673	243.69
626.879	246.69
627.086	252.69
627.293	255.69
627.499	255.69
627.706	260.69
627.912	230.69
628.119	234.69
628.325	238.69
628.532	224.69
628.738	235.69
628.945	238.69
629.151	265.69
629.357	237.69
629.564	229.69
629.77	234.69
629.976	233.69
630.183	233.69
630.389	237.69
630.595	239.69
630.802	226.69
631.008	236.69
631.214	231.69
631.42	232.69
631.627	237.69
631.833	214.69
632.039	211.69
632.245	236.69
632.451	240.69
632.657	221.69
632.863	246.69
633.069	230.69
633.275	208.69
633.481	225.69
633.688	222.69
633.893	216.69
634.099	222.69
634.305	226.69
634.511	229.69
634.717	228.69
634.923	226.69
635.129	222.69
635.335	236.69
635.541	206.69
635.747	197.69
635.952	222.69
636.158	213.69
636.364	217.69
636.57	217.69
636.775	210.69
636.981	225.69
637.187	212.69
637.392	198.69
637.598	197.69
637.804	209.69
638.009	222.69
638.215	208.69
638.421	211.69
638.626	223.69
638.832	205.69
639.037	204.69
639.243	212.69
639.448	192.69
639.654	200.69
639.859	187.69
640.065	198.69
640.27	197.69
640.475	217.69
640.681	189.69
640.886	204.69
641.091	190.69
641.297	193.69
641.502	191.69
641.707	194.69
641.913	201.69
642.118	206.69
642.323	183.69
642.528	188.69
642.733	203.69
642.939	188.69
643.144	193.69
643.349	203.69
643.554	205.69
643.759	208.69
643.964	192.69
644.169	189.69
644.374	195.69
644.579	178.69
644.784	182.69
644.989	178.69
645.194	209.69
645.399	173.69
645.604	192.69
645.809	191.69
646.014	187.69
646.219	201.69
646.423	196.69
646.628	198.69
646.833	195.69
647.038	209.69
647.243	200.69
647.447	191.69
647.652	179.69
647.857	183.69
648.062	203.69
648.266	208.69
648.471	197.69
648.676	199.69
648.88	192.69
649.085	189.69
649.289	178.69
649.494	185.69
649.698	177.69
649.903	195.69
650.107	189.69
650.312	195.69
650.516	176.69
650.721	180.69
650.925	162.69
651.13	160.69
651.334	173.69
651.539	174.69
651.743	165.69
651.947	172.69
652.152	168.69
652.356	160.69
652.56	189.69
652.764	170.69
652.969	157.69
653.173	151.69
653.377	150.69
653.581	155.69
653.785	148.69
653.99	152.69
654.194	161.69
654.398	138.69
654.602	157.69
654.806	146.69
655.01	138.69
655.214	153.69
655.418	131.69
655.622	136.69
655.826	147.69
656.03	137.69
656.234	120.69
656.438	128.69
656.642	138.69
656.846	148.69
657.049	145.69
657.253	136.69
657.457	117.69
657.661	133.69
657.865	127.69
658.068	110.69
658.272	117.69
658.476	120.69
658.68	116.69
658.883	116.69
659.087	109.69
659.291	104.69
659.494	103.69
659.698	89.69
659.901	105.69
660.105	83.69
660.309	84.69
660.512	87.69
660.716	98.69
660.919	94.69
661.123	76.69
661.326	95.69
661.53	98.69
661.733	104.69
661.936	79.69
662.14	81.69
662.343	76.69
662.546	103.69
662.75	86.69
662.953	84.69
663.156	92.69
663.36	93.69
663.563	78.69
663.766	77.69
663.969	76.69
664.173	74.69
664.376	84.69
664.579	83.69
664.782	71.69
664.985	82.69
665.188	80.69
665.391	91.69
665.594	85.69
665.797	82.69
666	73.69
666.203	89.69
666.406	68.69
666.609	71.69
666.812	63.69
667.015	67.69
667.218	80.69
667.421	84.69
667.624	65.69
667.827	78.69
668.03	80.69
668.232	53.69
668.435	77.69
668.638	81.69
668.841	76.69
669.043	82.69
669.246	80.69
669.449	68.69
669.651	84.69
669.854	84.69
670.057	78.69
670.259	65.69
670.462	84.69
670.665	71.69
670.867	72.69
671.07	80.69
671.272	84.69
671.475	86.69
671.677	89.69
671.88	80.69
672.082	83.69
672.284	84.69
672.487	82.69
672.689	72.69
672.892	79.69
