Data from Ni(NO3)2@0.25M.TitratingCurve.Agarose3%dH2O.NegLispCup.LampEnergy10.LIBS07252019_HRD10591_18-03-12-566.txt Node
Date: Thu Jul 25 18:03:12 EDT 2019
User: cochatt
Spectrometer: HR+D1059
Trigger mode: 1
Integration Time (sec): 1.000000E-1
Scans to average: 1
Electric dark correction enabled: true
Nonlinearity correction enabled: false
Boxcar width: 0
XAxis mode: Wavelengths
Number of Pixels in Spectrum: 2048
>>>>>Begin Spectral Data<<<<<
223.165	-10.38
223.4	-10.38
223.635	-10.38
223.869	-16.38
224.104	-18.38
224.338	-8.38
224.573	-8.38
224.808	-19.38
225.042	-6.38
225.277	-12.38
225.511	2.62
225.746	3.62
225.98	1.62
226.215	18.62
226.449	0.62
226.683	17.62
226.918	16.62
227.152	38.62
227.387	28.62
227.621	49.62
227.856	33.62
228.09	48.62
228.324	50.62
228.559	49.62
228.793	79.62
229.027	72.62
229.262	92.62
229.496	87.62
229.73	92.62
229.964	99.62
230.199	95.62
230.433	97.62
230.667	102.62
230.901	95.62
231.136	111.62
231.37	114.62
231.604	102.62
231.838	121.62
232.072	106.62
232.306	115.62
232.541	110.62
232.775	110.62
233.009	101.62
233.243	120.62
233.477	114.62
233.711	125.62
233.945	126.62
234.179	124.62
234.413	123.62
234.647	118.62
234.881	106.62
235.115	107.62
235.349	119.62
235.583	110.62
235.817	108.62
236.051	120.62
236.285	118.62
236.519	114.62
236.753	103.62
236.987	106.62
237.221	103.62
237.455	105.62
237.689	119.62
237.922	120.62
238.156	115.62
238.39	107.62
238.624	123.62
238.858	106.62
239.091	119.62
239.325	126.62
239.559	116.62
239.793	125.62
240.027	132.62
240.26	126.62
240.494	127.62
240.728	117.62
240.961	123.62
241.195	135.62
241.429	109.62
241.662	132.62
241.896	141.62
242.13	126.62
242.363	131.62
242.597	122.62
242.83	135.62
243.064	125.62
243.298	126.62
243.531	127.62
243.765	135.62
243.998	150.62
244.232	129.62
244.465	152.62
244.699	131.62
244.932	152.62
245.166	147.62
245.399	142.62
245.633	129.62
245.866	130.62
246.099	158.62
246.333	144.62
246.566	156.62
246.8	143.62
247.033	152.62
247.266	158.62
247.5	147.62
247.733	163.62
247.966	174.62
248.2	161.62
248.433	167.62
248.666	164.62
248.899	174.62
249.133	188.62
249.366	187.62
249.599	179.62
249.832	173.62
250.066	177.62
250.299	197.62
250.532	189.62
250.765	196.62
250.998	191.62
251.231	191.62
251.465	190.62
251.698	210.62
251.931	213.62
252.164	217.62
252.397	213.62
252.63	205.62
252.863	221.62
253.096	232.62
253.329	225.62
253.562	250.62
253.795	248.62
254.028	225.62
254.261	235.62
254.494	243.62
254.727	275.62
254.96	242.62
255.193	250.62
255.426	249.62
255.659	264.62
255.892	261.62
256.124	263.62
256.357	283.62
256.59	277.62
256.823	265.62
257.056	272.62
257.289	284.62
257.521	288.62
257.754	297.62
257.987	294.62
258.22	286.62
258.452	290.62
258.685	291.62
258.918	277.62
259.151	298.62
259.383	300.62
259.616	303.62
259.849	301.62
260.081	319.62
260.314	324.62
260.547	310.62
260.779	330.62
261.012	327.62
261.244	327.62
261.477	329.62
261.71	301.62
261.942	310.62
262.175	321.62
262.407	317.62
262.64	339.62
262.872	333.62
263.105	326.62
263.337	329.62
263.57	326.62
263.802	324.62
264.035	347.62
264.267	350.62
264.499	339.62
264.732	344.62
264.964	339.62
265.197	335.62
265.429	354.62
265.661	340.62
265.894	319.62
266.126	356.62
266.358	338.62
266.591	350.62
266.823	349.62
267.055	370.62
267.287	348.62
267.52	358.62
267.752	356.62
267.984	370.62
268.216	369.62
268.448	363.62
268.681	375.62
268.913	355.62
269.145	371.62
269.377	365.62
269.609	356.62
269.841	359.62
270.073	360.62
270.306	346.62
270.538	371.62
270.77	384.62
271.002	369.62
271.234	359.62
271.466	349.62
271.698	379.62
271.93	361.62
272.162	373.62
272.394	381.62
272.626	348.62
272.858	376.62
273.09	376.62
273.322	363.62
273.553	363.62
273.785	373.62
274.017	370.62
274.249	401.62
274.481	377.62
274.713	390.62
274.945	382.62
275.176	370.62
275.408	401.62
275.64	381.62
275.872	363.62
276.104	374.62
276.335	373.62
276.567	375.62
276.799	387.62
277.031	401.62
277.262	380.62
277.494	386.62
277.726	394.62
277.957	377.62
278.189	387.62
278.421	382.62
278.652	386.62
278.884	410.62
279.115	385.62
279.347	414.62
279.579	399.62
279.81	377.62
280.042	386.62
280.273	395.62
280.505	384.62
280.736	385.62
280.968	408.62
281.199	398.62
281.431	401.62
281.662	410.62
281.894	405.62
282.125	387.62
282.356	392.62
282.588	413.62
282.819	391.62
283.051	409.62
283.282	396.62
283.513	389.62
283.745	401.62
283.976	393.62
284.207	429.62
284.439	378.62
284.67	409.62
284.901	402.62
285.132	399.62
285.364	413.62
285.595	408.62
285.826	400.62
286.057	394.62
286.288	372.62
286.52	413.62
286.751	402.62
286.982	403.62
287.213	396.62
287.444	413.62
287.675	397.62
287.906	411.62
288.138	436.62
288.369	415.62
288.6	398.62
288.831	408.62
289.062	406.62
289.293	411.62
289.524	415.62
289.755	392.62
289.986	394.62
290.217	392.62
290.448	418.62
290.679	397.62
290.91	396.62
291.141	426.62
291.371	413.62
291.602	403.62
291.833	405.62
292.064	400.62
292.295	423.62
292.526	403.62
292.757	405.62
292.987	395.62
293.218	374.62
293.449	407.62
293.68	416.62
293.91	416.62
294.141	403.62
294.372	381.62
294.603	394.62
294.833	409.62
295.064	417.62
295.295	400.62
295.525	399.62
295.756	399.62
295.987	421.62
296.217	414.62
296.448	410.62
296.679	394.62
296.909	407.62
297.14	407.62
297.37	423.62
297.601	407.62
297.831	410.62
298.062	428.62
298.292	421.62
298.523	426.62
298.753	418.62
298.984	403.62
299.214	446.62
299.445	430.62
299.675	439.62
299.905	431.62
300.136	438.62
300.366	429.62
300.597	447.62
300.827	439.62
301.057	435.62
301.288	445.62
301.518	450.62
301.748	469.62
301.979	435.62
302.209	443.62
302.439	424.62
302.669	439.62
302.9	440.62
303.13	448.62
303.36	476.62
303.59	468.62
303.82	459.62
304.051	468.62
304.281	451.62
304.511	461.62
304.741	456.62
304.971	461.62
305.201	473.62
305.431	480.62
305.661	470.62
305.891	467.62
306.121	461.62
306.352	458.62
306.582	474.62
306.812	459.62
307.042	470.62
307.272	462.62
307.502	458.62
307.731	467.62
307.961	473.62
308.191	463.62
308.421	466.62
308.651	466.62
308.881	458.62
309.111	472.62
309.341	480.62
309.571	476.62
309.8	467.62
310.03	488.62
310.26	513.62
310.49	523.62
310.72	493.62
310.949	477.62
311.179	500.62
311.409	499.62
311.639	508.62
311.868	506.62
312.098	525.62
312.328	504.62
312.557	534.62
312.787	523.62
313.017	537.62
313.246	541.62
313.476	533.62
313.706	565.62
313.935	545.62
314.165	557.62
314.394	533.62
314.624	538.62
314.853	541.62
315.083	541.62
315.312	583.62
315.542	590.62
315.771	563.62
316.001	586.62
316.23	582.62
316.46	612.62
316.689	567.62
316.919	597.62
317.148	590.62
317.377	597.62
317.607	609.62
317.836	595.62
318.065	603.62
318.295	630.62
318.524	621.62
318.753	602.62
318.983	625.62
319.212	637.62
319.441	635.62
319.67	640.62
319.9	643.62
320.129	644.62
320.358	649.62
320.587	639.62
320.816	643.62
321.046	654.62
321.275	659.62
321.504	667.62
321.733	694.62
321.962	686.62
322.191	696.62
322.42	705.62
322.649	710.62
322.878	725.62
323.108	684.62
323.337	705.62
323.566	732.62
323.795	713.62
324.024	740.62
324.253	725.62
324.482	739.62
324.71	733.62
324.939	761.62
325.168	719.62
325.397	781.62
325.626	779.62
325.855	782.62
326.084	774.62
326.313	771.62
326.542	806.62
326.77	800.62
326.999	789.62
327.228	811.62
327.457	795.62
327.686	784.62
327.914	825.62
328.143	823.62
328.372	830.62
328.6	823.62
328.829	829.62
329.058	851.62
329.287	830.62
329.515	843.62
329.744	854.62
329.972	858.62
330.201	866.62
330.43	858.62
330.658	857.62
330.887	860.62
331.115	865.62
331.344	879.62
331.572	909.62
331.801	921.62
332.03	901.62
332.258	926.62
332.486	913.62
332.715	932.62
332.943	933.62
333.172	957.62
333.4	963.62
333.629	992.62
333.857	958.62
334.085	1020.62
334.314	1018.62
334.542	1020.62
334.771	1011.62
334.999	1017.62
335.227	1023.62
335.455	1025.62
335.684	1044.62
335.912	1029.62
336.14	1030.62
336.369	1026.62
336.597	1039.62
336.825	994.62
337.053	1054.62
337.281	1043.62
337.51	1012.62
337.738	1011.62
337.966	998.62
338.194	1010.62
338.422	1001.62
338.65	982.62
338.878	993.62
339.106	990.62
339.334	1019.62
339.562	986.62
339.79	969.62
340.018	1004.62
340.246	987.62
340.474	1007.62
340.702	977.62
340.93	970.62
341.158	995.62
341.386	956.62
341.614	989.62
341.842	978.62
342.07	993.62
342.298	982.62
342.526	996.62
342.754	974.62
342.981	972.62
343.209	1023.62
343.437	1018.62
343.665	1026.62
343.893	1012.62
344.12	1070.62
344.348	1057.62
344.576	1057.62
344.804	1057.62
345.031	1058.62
345.259	1008.62
345.487	1006.62
345.714	1023.62
345.942	987.62
346.17	984.62
346.397	989.62
346.625	932.62
346.853	934.62
347.08	969.62
347.308	995.62
347.535	994.62
347.763	947.62
347.99	957.62
348.218	929.62
348.445	959.62
348.673	929.62
348.9	986.62
349.128	972.62
349.355	967.62
349.583	973.62
349.81	947.62
350.037	950.62
350.265	943.62
350.492	932.62
350.72	929.62
350.947	930.62
351.174	935.62
351.402	979.62
351.629	987.62
351.856	942.62
352.083	939.62
352.311	940.62
352.538	975.62
352.765	919.62
352.992	897.62
353.22	912.62
353.447	901.62
353.674	911.62
353.901	918.62
354.128	916.62
354.355	915.62
354.583	920.62
354.81	917.62
355.037	959.62
355.264	952.62
355.491	893.62
355.718	923.62
355.945	939.62
356.172	930.62
356.399	942.62
356.626	939.62
356.853	922.62
357.08	903.62
357.307	940.62
357.534	909.62
357.761	918.62
357.988	905.62
358.215	913.62
358.441	906.62
358.668	908.62
358.895	888.62
359.122	911.62
359.349	916.62
359.576	900.62
359.802	904.62
360.029	899.62
360.256	922.62
360.483	921.62
360.709	922.62
360.936	908.62
361.163	935.62
361.39	919.62
361.616	922.62
361.843	925.62
362.07	938.62
362.296	919.62
362.523	906.62
362.749	933.62
362.976	943.62
363.203	911.62
363.429	920.62
363.656	904.62
363.882	901.62
364.109	889.62
364.335	924.62
364.562	897.62
364.788	909.62
365.015	904.62
365.241	919.62
365.468	911.62
365.694	917.62
365.92	920.62
366.147	915.62
366.373	917.62
366.599	912.62
366.826	905.62
367.052	901.62
367.278	917.62
367.505	893.62
367.731	886.62
367.957	876.62
368.184	901.62
368.41	923.62
368.636	903.62
368.862	895.62
369.089	902.62
369.315	924.62
369.541	932.62
369.767	945.62
369.993	889.62
370.219	932.62
370.445	902.62
370.672	907.62
370.898	907.62
371.124	913.62
371.35	907.62
371.576	926.62
371.802	948.62
372.028	942.62
372.254	901.62
372.48	933.62
372.706	933.62
372.932	915.62
373.158	943.62
373.384	925.62
373.61	920.62
373.835	894.62
374.061	909.62
374.287	909.62
374.513	928.62
374.739	925.62
374.965	943.62
375.191	917.62
375.416	929.62
375.642	908.62
375.868	919.62
376.094	927.62
376.319	906.62
376.545	861.62
376.771	899.62
376.997	857.62
377.222	870.62
377.448	869.62
377.674	869.62
377.899	854.62
378.125	876.62
378.35	863.62
378.576	866.62
378.802	883.62
379.027	860.62
379.253	860.62
379.478	865.62
379.704	871.62
379.929	863.62
380.155	849.62
380.38	854.62
380.606	865.62
380.831	853.62
381.057	875.62
381.282	843.62
381.507	837.62
381.733	835.62
381.958	858.62
382.184	873.62
382.409	915.62
382.634	892.62
382.86	850.62
383.085	879.62
383.31	892.62
383.535	897.62
383.761	881.62
383.986	894.62
384.211	898.62
384.436	905.62
384.662	906.62
384.887	938.62
385.112	920.62
385.337	946.62
385.562	954.62
385.787	939.62
386.013	940.62
386.238	955.62
386.463	987.62
386.688	955.62
386.913	963.62
387.138	938.62
387.363	938.62
387.588	940.62
387.813	967.62
388.038	957.62
388.263	949.62
388.488	944.62
388.713	952.62
388.938	943.62
389.163	961.62
389.387	982.62
389.612	938.62
389.837	940.62
390.062	929.62
390.287	931.62
390.512	947.62
390.736	965.62
390.961	960.62
391.186	965.62
391.411	990.62
391.636	994.62
391.86	1016.62
392.085	994.62
392.31	986.62
392.534	1006.62
392.759	962.62
392.984	955.62
393.208	994.62
393.433	989.62
393.658	994.62
393.882	971.62
394.107	985.62
394.331	979.62
394.556	963.62
394.78	994.62
395.005	1003.62
395.229	995.62
395.454	1047.62
395.678	1031.62
395.903	1032.62
396.127	995.62
396.352	1011.62
396.576	1028.62
396.801	1014.62
397.025	1022.62
397.249	1082.62
397.474	1047.62
397.698	1029.62
397.922	1049.62
398.147	1092.62
398.371	1073.62
398.595	1094.62
398.82	1132.62
399.044	1161.62
399.268	1193.62
399.492	1253.62
399.717	1299.62
399.941	1326.62
400.165	1262.62
400.389	1244.62
400.613	1227.62
400.837	1211.62
401.062	1169.62
401.286	1153.62
401.51	1135.62
401.734	1138.62
401.958	1171.62
402.182	1142.62
402.406	1143.62
402.63	1133.62
402.854	1121.62
403.078	1162.62
403.302	1145.62
403.526	1165.62
403.75	1167.62
403.974	1179.62
404.198	1163.62
404.422	1174.62
404.645	1185.62
404.869	1187.62
405.093	1201.62
405.317	1179.62
405.541	1225.62
405.765	1213.62
405.988	1199.62
406.212	1171.62
406.436	1236.62
406.66	1230.62
406.883	1267.62
407.107	1303.62
407.331	1275.62
407.555	1329.62
407.778	1346.62
408.002	1290.62
408.226	1298.62
408.449	1279.62
408.673	1287.62
408.896	1253.62
409.12	1246.62
409.344	1268.62
409.567	1260.62
409.791	1281.62
410.014	1256.62
410.238	1248.62
410.461	1250.62
410.685	1246.62
410.908	1217.62
411.132	1244.62
411.355	1196.62
411.578	1225.62
411.802	1218.62
412.025	1219.62
412.249	1231.62
412.472	1238.62
412.695	1197.62
412.919	1215.62
413.142	1237.62
413.365	1197.62
413.589	1212.62
413.812	1203.62
414.035	1235.62
414.258	1199.62
414.482	1227.62
414.705	1225.62
414.928	1223.62
415.151	1213.62
415.374	1222.62
415.597	1168.62
415.821	1167.62
416.044	1164.62
416.267	1192.62
416.49	1188.62
416.713	1198.62
416.936	1215.62
417.159	1179.62
417.382	1180.62
417.605	1154.62
417.828	1212.62
418.051	1193.62
418.274	1179.62
418.497	1166.62
418.72	1201.62
418.943	1193.62
419.166	1238.62
419.389	1321.62
419.611	1306.62
419.834	1258.62
420.057	1243.62
420.28	1175.62
420.503	1207.62
420.726	1182.62
420.948	1191.62
421.171	1212.62
421.394	1171.62
421.617	1200.62
421.839	1210.62
422.062	1226.62
422.285	1188.62
422.507	1217.62
422.73	1233.62
422.953	1207.62
423.175	1201.62
423.398	1245.62
423.621	1225.62
423.843	1221.62
424.066	1241.62
424.288	1241.62
424.511	1221.62
424.733	1222.62
424.956	1214.62
425.178	1230.62
425.401	1224.62
425.623	1235.62
425.846	1220.62
426.068	1250.62
426.291	1223.62
426.513	1205.62
426.735	1228.62
426.958	1205.62
427.18	1183.62
427.402	1165.62
427.625	1185.62
427.847	1196.62
428.069	1237.62
428.292	1217.62
428.514	1190.62
428.736	1194.62
428.958	1203.62
429.181	1173.62
429.403	1181.62
429.625	1169.62
429.847	1205.62
430.069	1192.62
430.292	1205.62
430.514	1217.62
430.736	1195.62
430.958	1198.62
431.18	1203.62
431.402	1252.62
431.624	1191.62
431.846	1183.62
432.068	1157.62
432.29	1188.62
432.512	1177.62
432.734	1246.62
432.956	1238.62
433.178	1220.62
433.4	1221.62
433.622	1235.62
433.844	1267.62
434.066	1243.62
434.287	1220.62
434.509	1240.62
434.731	1233.62
434.953	1235.62
435.175	1245.62
435.397	1293.62
435.618	1253.62
435.84	1244.62
436.062	1193.62
436.284	1244.62
436.505	1266.62
436.727	1223.62
436.949	1228.62
437.17	1222.62
437.392	1165.62
437.614	1195.62
437.835	1145.62
438.057	1178.62
438.278	1174.62
438.5	1186.62
438.721	1229.62
438.943	1205.62
439.165	1211.62
439.386	1187.62
439.608	1237.62
439.829	1244.62
440.05	1198.62
440.272	1216.62
440.493	1189.62
440.715	1232.62
440.936	1256.62
441.158	1255.62
441.379	1254.62
441.6	1305.62
441.822	1272.62
442.043	1300.62
442.264	1283.62
442.486	1246.62
442.707	1308.62
442.928	1266.62
443.149	1281.62
443.371	1295.62
443.592	1296.62
443.813	1304.62
444.034	1294.62
444.255	1317.62
444.476	1303.62
444.698	1354.62
444.919	1351.62
445.14	1459.62
445.361	1361.62
445.582	1305.62
445.803	1300.62
446.024	1255.62
446.245	1279.62
446.466	1258.62
446.687	1246.62
446.908	1252.62
447.129	1228.62
447.35	1207.62
447.571	1214.62
447.792	1210.62
448.013	1212.62
448.234	1176.62
448.455	1143.62
448.675	1148.62
448.896	1147.62
449.117	1143.62
449.338	1133.62
449.559	1139.62
449.779	1146.62
450	1141.62
450.221	1151.62
450.442	1137.62
450.662	1130.62
450.883	1149.62
451.104	1177.62
451.324	1122.62
451.545	1147.62
451.766	1125.62
451.986	1147.62
452.207	1127.62
452.428	1136.62
452.648	1153.62
452.869	1100.62
453.089	1095.62
453.31	1123.62
453.53	1126.62
453.751	1095.62
453.971	1114.62
454.192	1081.62
454.412	1090.62
454.633	1104.62
454.853	1083.62
455.073	1066.62
455.294	1107.62
455.514	1062.62
455.734	1094.62
455.955	1079.62
456.175	1096.62
456.395	1079.62
456.616	1073.62
456.836	1076.62
457.056	1087.62
457.276	1100.62
457.497	1095.62
457.717	1082.62
457.937	1080.62
458.157	1107.62
458.377	1094.62
458.598	1125.62
458.818	1160.62
459.038	1146.62
459.258	1174.62
459.478	1186.62
459.698	1221.62
459.918	1241.62
460.138	1254.62
460.358	1267.62
460.578	1266.62
460.798	1310.62
461.018	1323.62
461.238	1331.62
461.458	1349.62
461.678	1319.62
461.898	1361.62
462.118	1323.62
462.338	1345.62
462.558	1424.62
462.777	1413.62
462.997	1463.62
463.217	1469.62
463.437	1470.62
463.657	1473.62
463.876	1428.62
464.096	1425.62
464.316	1395.62
464.536	1405.62
464.755	1400.62
464.975	1397.62
465.195	1346.62
465.414	1297.62
465.634	1291.62
465.854	1214.62
466.073	1246.62
466.293	1208.62
466.512	1213.62
466.732	1215.62
466.951	1221.62
467.171	1180.62
467.391	1229.62
467.61	1189.62
467.829	1206.62
468.049	1202.62
468.268	1179.62
468.488	1196.62
468.707	1158.62
468.927	1226.62
469.146	1218.62
469.365	1191.62
469.585	1205.62
469.804	1243.62
470.023	1204.62
470.243	1226.62
470.462	1228.62
470.681	1206.62
470.901	1226.62
471.12	1225.62
471.339	1225.62
471.558	1212.62
471.777	1257.62
471.997	1220.62
472.216	1229.62
472.435	1195.62
472.654	1179.62
472.873	1158.62
473.092	1195.62
473.311	1206.62
473.53	1216.62
473.749	1172.62
473.968	1199.62
474.187	1167.62
474.406	1188.62
474.625	1214.62
474.844	1197.62
475.063	1242.62
475.282	1235.62
475.501	1203.62
475.72	1229.62
475.939	1219.62
476.158	1251.62
476.377	1255.62
476.596	1246.62
476.814	1271.62
477.033	1209.62
477.252	1285.62
477.471	1317.62
477.69	1317.62
477.908	1318.62
478.127	1358.62
478.346	1363.62
478.564	1389.62
478.783	1389.62
479.002	1387.62
479.22	1382.62
479.439	1461.62
479.658	1439.62
479.876	1407.62
480.095	1382.62
480.313	1468.62
480.532	1419.62
480.751	1438.62
480.969	1425.62
481.188	1407.62
481.406	1411.62
481.624	1390.62
481.843	1355.62
482.061	1398.62
482.28	1385.62
482.498	1414.62
482.717	1349.62
482.935	1419.62
483.153	1435.62
483.372	1414.62
483.59	1417.62
483.808	1430.62
484.027	1396.62
484.245	1428.62
484.463	1439.62
484.681	1466.62
484.9	1443.62
485.118	1451.62
485.336	1450.62
485.554	1410.62
485.772	1472.62
485.99	1413.62
486.209	1464.62
486.427	1467.62
486.645	1429.62
486.863	1421.62
487.081	1435.62
487.299	1463.62
487.517	1469.62
487.735	1466.62
487.953	1499.62
488.171	1474.62
488.389	1502.62
488.607	1486.62
488.825	1465.62
489.043	1462.62
489.261	1451.62
489.479	1445.62
489.696	1493.62
489.914	1470.62
490.132	1493.62
490.35	1479.62
490.568	1466.62
490.786	1517.62
491.003	1524.62
491.221	1574.62
491.439	1549.62
491.657	1500.62
491.874	1506.62
492.092	1552.62
492.31	1585.62
492.527	1567.62
492.745	1516.62
492.963	1575.62
493.18	1543.62
493.398	1523.62
493.615	1537.62
493.833	1568.62
494.05	1552.62
494.268	1560.62
494.485	1555.62
494.703	1593.62
494.92	1590.62
495.138	1559.62
495.355	1598.62
495.573	1633.62
495.79	1613.62
496.008	1612.62
496.225	1643.62
496.442	1635.62
496.66	1666.62
496.877	1654.62
497.094	1709.62
497.312	1718.62
497.529	1733.62
497.746	1769.62
497.963	1802.62
498.181	1840.62
498.398	1847.62
498.615	1901.62
498.832	1996.62
499.049	2012.62
499.267	2090.62
499.484	2190.62
499.701	2248.62
499.918	2367.62
500.135	2456.62
500.352	2534.62
500.569	2553.62
500.786	2533.62
501.003	2521.62
501.22	2445.62
501.437	2371.62
501.654	2275.62
501.871	2176.62
502.088	2111.62
502.305	2024.62
502.522	1999.62
502.739	1939.62
502.956	1905.62
503.172	1874.62
503.389	1807.62
503.606	1785.62
503.823	1724.62
504.04	1749.62
504.256	1701.62
504.473	1719.62
504.69	1726.62
504.907	1706.62
505.123	1627.62
505.34	1596.62
505.557	1574.62
505.773	1547.62
505.99	1580.62
506.207	1520.62
506.423	1506.62
506.64	1463.62
506.856	1495.62
507.073	1494.62
507.289	1428.62
507.506	1409.62
507.722	1445.62
507.939	1417.62
508.155	1390.62
508.372	1396.62
508.588	1403.62
508.805	1359.62
509.021	1345.62
509.238	1377.62
509.454	1357.62
509.67	1319.62
509.887	1353.62
510.103	1333.62
510.319	1355.62
510.536	1355.62
510.752	1303.62
510.968	1337.62
511.184	1330.62
511.401	1329.62
511.617	1325.62
511.833	1322.62
512.049	1321.62
512.265	1298.62
512.481	1304.62
512.698	1307.62
512.914	1321.62
513.13	1315.62
513.346	1308.62
513.562	1333.62
513.778	1303.62
513.994	1329.62
514.21	1328.62
514.426	1303.62
514.642	1329.62
514.858	1349.62
515.074	1339.62
515.29	1342.62
515.506	1329.62
515.721	1317.62
515.937	1337.62
516.153	1349.62
516.369	1370.62
516.585	1374.62
516.801	1386.62
517.016	1393.62
517.232	1433.62
517.448	1459.62
517.664	1482.62
517.879	1452.62
518.095	1439.62
518.311	1429.62
518.527	1415.62
518.742	1402.62
518.958	1390.62
519.173	1371.62
519.389	1386.62
519.605	1370.62
519.82	1354.62
520.036	1324.62
520.251	1275.62
520.467	1329.62
520.682	1283.62
520.898	1278.62
521.113	1253.62
521.329	1245.62
521.544	1269.62
521.76	1277.62
521.975	1257.62
522.19	1255.62
522.406	1240.62
522.621	1243.62
522.836	1233.62
523.052	1227.62
523.267	1196.62
523.482	1237.62
523.698	1235.62
523.913	1227.62
524.128	1195.62
524.343	1226.62
524.559	1203.62
524.774	1177.62
524.989	1234.62
525.204	1218.62
525.419	1224.62
525.634	1197.62
525.849	1194.62
526.064	1209.62
526.28	1186.62
526.495	1163.62
526.71	1191.62
526.925	1176.62
527.14	1151.62
527.355	1182.62
527.57	1144.62
527.785	1150.62
527.999	1178.62
528.214	1198.62
528.429	1171.62
528.644	1187.62
528.859	1186.62
529.074	1201.62
529.289	1171.62
529.503	1194.62
529.718	1162.62
529.933	1172.62
530.148	1173.62
530.363	1141.62
530.577	1161.62
530.792	1140.62
531.007	1151.62
531.221	1131.62
531.436	1131.62
531.651	1127.62
531.865	1125.62
532.08	1122.62
532.295	1130.62
532.509	1131.62
532.724	1108.62
532.938	1154.62
533.153	1131.62
533.367	1148.62
533.582	1127.62
533.796	1142.62
534.011	1139.62
534.225	1117.62
534.44	1118.62
534.654	1126.62
534.868	1102.62
535.083	1130.62
535.297	1124.62
535.511	1089.62
535.726	1098.62
535.94	1084.62
536.154	1082.62
536.369	1073.62
536.583	1091.62
536.797	1076.62
537.011	1039.62
537.225	1061.62
537.44	1052.62
537.654	1083.62
537.868	1073.62
538.082	1024.62
538.296	1084.62
538.51	1089.62
538.724	1055.62
538.938	1084.62
539.153	1044.62
539.367	1069.62
539.581	1050.62
539.795	1056.62
540.009	1034.62
540.222	1034.62
540.436	1052.62
540.65	1063.62
540.864	1030.62
541.078	1013.62
541.292	1055.62
541.506	1022.62
541.72	1056.62
541.934	1075.62
542.147	1091.62
542.361	1058.62
542.575	1047.62
542.789	1030.62
543.002	1048.62
543.216	1050.62
543.43	1025.62
543.644	995.62
543.857	1049.62
544.071	1022.62
544.285	1045.62
544.498	1057.62
544.712	1036.62
544.925	1034.62
545.139	1038.62
545.352	1046.62
545.566	1029.62
545.779	1027.62
545.993	1045.62
546.206	1057.62
546.42	1051.62
546.633	1067.62
546.847	1068.62
547.06	1078.62
547.274	1023.62
547.487	1038.62
547.7	1049.62
547.914	1077.62
548.127	1045.62
548.34	1031.62
548.554	1033.62
548.767	1061.62
548.98	1045.62
549.193	1040.62
549.407	1025.62
549.62	1025.62
549.833	1005.62
550.046	1043.62
550.259	1022.62
550.473	1003.62
550.686	1037.62
550.899	1006.62
551.112	1006.62
551.325	1018.62
551.538	1018.62
551.751	977.62
551.964	979.62
552.177	1010.62
552.39	1006.62
552.603	1013.62
552.816	1032.62
553.029	1050.62
553.242	1057.62
553.455	1011.62
553.667	1003.62
553.88	1011.62
554.093	968.62
554.306	1009.62
554.519	1010.62
554.732	973.62
554.944	962.62
555.157	969.62
555.37	955.62
555.583	963.62
555.795	945.62
556.008	954.62
556.221	939.62
556.433	909.62
556.646	922.62
556.859	917.62
557.071	897.62
557.284	917.62
557.496	901.62
557.709	905.62
557.921	894.62
558.134	915.62
558.346	912.62
558.559	900.62
558.771	893.62
558.984	898.62
559.196	858.62
559.409	911.62
559.621	886.62
559.833	881.62
560.046	888.62
560.258	867.62
560.47	876.62
560.683	864.62
560.895	874.62
561.107	872.62
561.32	881.62
561.532	870.62
561.744	876.62
561.956	879.62
562.168	887.62
562.381	869.62
562.593	901.62
562.805	874.62
563.017	849.62
563.229	862.62
563.441	887.62
563.653	903.62
563.865	880.62
564.077	873.62
564.289	901.62
564.501	916.62
564.713	886.62
564.925	885.62
565.137	899.62
565.349	908.62
565.561	936.62
565.773	940.62
565.985	967.62
566.197	957.62
566.408	984.62
566.62	1004.62
566.832	985.62
567.044	1033.62
567.255	1014.62
567.467	1033.62
567.679	1026.62
567.891	1051.62
568.102	1028.62
568.314	1023.62
568.526	988.62
568.737	939.62
568.949	933.62
569.161	893.62
569.372	885.62
569.584	869.62
569.795	887.62
570.007	837.62
570.218	821.62
570.43	811.62
570.641	813.62
570.853	813.62
571.064	797.62
571.276	824.62
571.487	775.62
571.698	792.62
571.91	780.62
572.121	764.62
572.333	742.62
572.544	712.62
572.755	723.62
572.966	735.62
573.178	705.62
573.389	717.62
573.6	705.62
573.811	694.62
574.023	696.62
574.234	685.62
574.445	676.62
574.656	699.62
574.867	686.62
575.078	701.62
575.289	693.62
575.501	677.62
575.712	664.62
575.923	683.62
576.134	650.62
576.345	666.62
576.556	653.62
576.767	656.62
576.978	642.62
577.188	656.62
577.399	655.62
577.61	641.62
577.821	645.62
578.032	635.62
578.243	635.62
578.454	634.62
578.665	625.62
578.875	636.62
579.086	642.62
579.297	631.62
579.508	620.62
579.718	576.62
579.929	592.62
580.14	608.62
580.35	613.62
580.561	607.62
580.772	637.62
580.982	626.62
581.193	600.62
581.403	605.62
581.614	574.62
581.825	596.62
582.035	587.62
582.246	588.62
582.456	572.62
582.667	575.62
582.877	585.62
583.087	572.62
583.298	566.62
583.508	569.62
583.719	583.62
583.929	567.62
584.139	581.62
584.35	598.62
584.56	559.62
584.77	569.62
584.981	568.62
585.191	571.62
585.401	552.62
585.611	566.62
585.821	567.62
586.032	562.62
586.242	581.62
586.452	570.62
586.662	566.62
586.872	540.62
587.082	541.62
587.292	553.62
587.502	545.62
587.713	559.62
587.923	546.62
588.133	557.62
588.343	527.62
588.553	553.62
588.762	530.62
588.972	555.62
589.182	558.62
589.392	581.62
589.602	545.62
589.812	540.62
590.022	535.62
590.232	541.62
590.441	526.62
590.651	546.62
590.861	529.62
591.071	561.62
591.281	561.62
591.49	527.62
591.7	546.62
591.91	556.62
592.119	539.62
592.329	553.62
592.539	557.62
592.748	531.62
592.958	558.62
593.167	550.62
593.377	564.62
593.587	557.62
593.796	564.62
594.006	570.62
594.215	537.62
594.424	557.62
594.634	539.62
594.843	547.62
595.053	539.62
595.262	516.62
595.472	541.62
595.681	523.62
595.89	532.62
596.1	509.62
596.309	509.62
596.518	495.62
596.727	501.62
596.937	517.62
597.146	500.62
597.355	498.62
597.564	493.62
597.774	459.62
597.983	469.62
598.192	483.62
598.401	495.62
598.61	480.62
598.819	452.62
599.028	493.62
599.237	474.62
599.446	455.62
599.655	471.62
599.864	461.62
600.073	449.62
600.282	448.62
600.491	435.62
600.7	458.62
600.909	455.62
601.118	455.62
601.327	448.62
601.536	430.62
601.745	451.62
601.953	460.62
602.162	440.62
602.371	433.62
602.58	431.62
602.789	447.62
602.997	452.62
603.206	432.62
603.415	446.62
603.623	445.62
603.832	411.62
604.041	435.62
604.249	423.62
604.458	436.62
604.666	410.62
604.875	411.62
605.084	433.62
605.292	436.62
605.501	433.62
605.709	409.62
605.918	400.62
606.126	413.62
606.334	408.62
606.543	414.62
606.751	426.62
606.96	419.62
607.168	414.62
607.376	404.62
607.585	418.62
607.793	415.62
608.001	417.62
608.21	389.62
608.418	426.62
608.626	405.62
608.834	405.62
609.043	419.62
609.251	408.62
609.459	398.62
609.667	392.62
609.875	365.62
610.083	409.62
610.291	409.62
610.499	388.62
610.707	397.62
610.916	397.62
611.124	377.62
611.332	383.62
611.54	379.62
611.748	382.62
611.955	394.62
612.163	377.62
612.371	391.62
612.579	396.62
612.787	377.62
612.995	377.62
613.203	384.62
613.411	394.62
613.618	396.62
613.826	387.62
614.034	384.62
614.242	391.62
614.449	362.62
614.657	373.62
614.865	380.62
615.072	382.62
615.28	371.62
615.488	366.62
615.695	383.62
615.903	378.62
616.111	375.62
616.318	410.62
616.526	398.62
616.733	387.62
616.941	364.62
617.148	391.62
617.356	371.62
617.563	383.62
617.771	375.62
617.978	370.62
618.185	350.62
618.393	365.62
618.6	366.62
618.807	373.62
619.015	377.62
619.222	361.62
619.429	355.62
619.637	365.62
619.844	361.62
620.051	335.62
620.258	341.62
620.466	345.62
620.673	332.62
620.88	334.62
621.087	350.62
621.294	363.62
621.501	345.62
621.708	358.62
621.915	345.62
622.122	337.62
622.329	333.62
622.536	342.62
622.743	364.62
622.95	348.62
623.157	333.62
623.364	331.62
623.571	324.62
623.778	345.62
623.985	329.62
624.192	327.62
624.399	328.62
624.606	340.62
624.812	326.62
625.019	321.62
625.226	315.62
625.433	330.62
625.639	325.62
625.846	337.62
626.053	303.62
626.259	309.62
626.466	324.62
626.673	325.62
626.879	312.62
627.086	305.62
627.293	326.62
627.499	303.62
627.706	310.62
627.912	305.62
628.119	310.62
628.325	322.62
628.532	301.62
628.738	318.62
628.945	310.62
629.151	313.62
629.357	311.62
629.564	314.62
629.77	294.62
629.976	306.62
630.183	295.62
630.389	309.62
630.595	312.62
630.802	303.62
631.008	295.62
631.214	305.62
631.42	298.62
631.627	259.62
631.833	291.62
632.039	282.62
632.245	289.62
632.451	285.62
632.657	276.62
632.863	271.62
633.069	278.62
633.275	291.62
633.481	275.62
633.688	277.62
633.893	283.62
634.099	286.62
634.305	293.62
634.511	276.62
634.717	281.62
634.923	275.62
635.129	270.62
635.335	276.62
635.541	284.62
635.747	264.62
635.952	254.62
636.158	283.62
636.364	265.62
636.57	283.62
636.775	280.62
636.981	263.62
637.187	271.62
637.392	271.62
637.598	267.62
637.804	259.62
638.009	265.62
638.215	277.62
638.421	267.62
638.626	279.62
638.832	267.62
639.037	258.62
639.243	272.62
639.448	252.62
639.654	267.62
639.859	262.62
640.065	264.62
640.27	268.62
640.475	252.62
640.681	264.62
640.886	276.62
641.091	242.62
641.297	261.62
641.502	242.62
641.707	252.62
641.913	265.62
642.118	241.62
642.323	238.62
642.528	261.62
642.733	269.62
642.939	263.62
643.144	260.62
643.349	249.62
643.554	253.62
643.759	236.62
643.964	249.62
644.169	238.62
644.374	254.62
644.579	245.62
644.784	242.62
644.989	255.62
645.194	239.62
645.399	246.62
645.604	243.62
645.809	252.62
646.014	259.62
646.219	259.62
646.423	241.62
646.628	241.62
646.833	247.62
647.038	259.62
647.243	231.62
647.447	239.62
647.652	233.62
647.857	243.62
648.062	237.62
648.266	259.62
648.471	261.62
648.676	238.62
648.88	250.62
649.085	242.62
649.289	244.62
649.494	239.62
649.698	243.62
649.903	235.62
650.107	215.62
650.312	242.62
650.516	220.62
650.721	230.62
650.925	238.62
651.13	232.62
651.334	217.62
651.539	206.62
651.743	220.62
651.947	225.62
652.152	213.62
652.356	209.62
652.56	197.62
652.764	203.62
652.969	191.62
653.173	205.62
653.377	206.62
653.581	182.62
653.785	188.62
653.99	206.62
654.194	197.62
654.398	201.62
654.602	186.62
654.806	190.62
655.01	184.62
655.214	164.62
655.418	158.62
655.622	178.62
655.826	170.62
656.03	195.62
656.234	179.62
656.438	169.62
656.642	169.62
656.846	161.62
657.049	162.62
657.253	167.62
657.457	162.62
657.661	155.62
657.865	157.62
658.068	138.62
658.272	135.62
658.476	143.62
658.68	130.62
658.883	123.62
659.087	123.62
659.291	126.62
659.494	119.62
659.698	110.62
659.901	114.62
660.105	111.62
660.309	119.62
660.512	101.62
660.716	111.62
660.919	96.62
661.123	114.62
661.326	95.62
661.53	103.62
661.733	102.62
661.936	100.62
662.14	93.62
662.343	92.62
662.546	88.62
662.75	102.62
662.953	86.62
663.156	98.62
663.36	90.62
663.563	102.62
663.766	92.62
663.969	88.62
664.173	80.62
664.376	83.62
664.579	84.62
664.782	81.62
664.985	86.62
665.188	66.62
665.391	92.62
665.594	93.62
665.797	85.62
666	79.62
666.203	93.62
666.406	80.62
666.609	72.62
666.812	88.62
667.015	89.62
667.218	78.62
667.421	82.62
667.624	87.62
667.827	77.62
668.03	80.62
668.232	80.62
668.435	94.62
668.638	90.62
668.841	77.62
669.043	87.62
669.246	85.62
669.449	78.62
669.651	87.62
669.854	80.62
670.057	78.62
670.259	83.62
670.462	97.62
670.665	79.62
670.867	88.62
671.07	96.62
671.272	86.62
671.475	92.62
671.677	77.62
671.88	71.62
672.082	85.62
672.284	88.62
672.487	72.62
672.689	82.62
672.892	85.62
