Data from Ni(NO3)2@0.125M.TitratingCurve.Agarose3%dH2O.NegLispCup.LampEnergy10.LIBS07252019_HRD10591_18-09-23-567.txt Node
Date: Thu Jul 25 18:09:23 EDT 2019
User: cochatt
Spectrometer: HR+D1059
Trigger mode: 1
Integration Time (sec): 1.000000E-1
Scans to average: 1
Electric dark correction enabled: true
Nonlinearity correction enabled: false
Boxcar width: 0
XAxis mode: Wavelengths
Number of Pixels in Spectrum: 2048
>>>>>Begin Spectral Data<<<<<
223.165	-15.19
223.4	-15.19
223.635	-15.19
223.869	-14.19
224.104	-20.19
224.338	-25.19
224.573	-24.19
224.808	-10.19
225.042	-4.19
225.277	1.81
225.511	-9.19
225.746	5.81
225.98	17.81
226.215	6.81
226.449	21.81
226.683	19.81
226.918	22.81
227.152	25.81
227.387	31.81
227.621	25.81
227.856	43.81
228.09	45.81
228.324	46.81
228.559	66.81
228.793	61.81
229.027	103.81
229.262	114.81
229.496	104.81
229.73	113.81
229.964	122.81
230.199	123.81
230.433	134.81
230.667	125.81
230.901	135.81
231.136	136.81
231.37	138.81
231.604	138.81
231.838	126.81
232.072	136.81
232.306	149.81
232.541	148.81
232.775	147.81
233.009	130.81
233.243	141.81
233.477	138.81
233.711	141.81
233.945	144.81
234.179	161.81
234.413	147.81
234.647	152.81
234.881	135.81
235.115	151.81
235.349	150.81
235.583	158.81
235.817	165.81
236.051	147.81
236.285	153.81
236.519	154.81
236.753	155.81
236.987	144.81
237.221	143.81
237.455	152.81
237.689	148.81
237.922	143.81
238.156	151.81
238.39	168.81
238.624	149.81
238.858	170.81
239.091	159.81
239.325	161.81
239.559	180.81
239.793	165.81
240.027	181.81
240.26	163.81
240.494	179.81
240.728	163.81
240.961	178.81
241.195	181.81
241.429	198.81
241.662	188.81
241.896	195.81
242.13	204.81
242.363	185.81
242.597	181.81
242.83	194.81
243.064	189.81
243.298	177.81
243.531	194.81
243.765	193.81
243.998	203.81
244.232	206.81
244.465	204.81
244.699	198.81
244.932	206.81
245.166	200.81
245.399	216.81
245.633	197.81
245.866	209.81
246.099	203.81
246.333	216.81
246.566	214.81
246.8	213.81
247.033	214.81
247.266	223.81
247.5	215.81
247.733	231.81
247.966	217.81
248.2	220.81
248.433	212.81
248.666	226.81
248.899	232.81
249.133	234.81
249.366	235.81
249.599	246.81
249.832	233.81
250.066	259.81
250.299	230.81
250.532	260.81
250.765	244.81
250.998	247.81
251.231	244.81
251.465	267.81
251.698	276.81
251.931	257.81
252.164	261.81
252.397	254.81
252.63	282.81
252.863	262.81
253.096	250.81
253.329	270.81
253.562	264.81
253.795	257.81
254.028	268.81
254.261	279.81
254.494	270.81
254.727	278.81
254.96	255.81
255.193	268.81
255.426	269.81
255.659	281.81
255.892	282.81
256.124	258.81
256.357	289.81
256.59	300.81
256.823	299.81
257.056	267.81
257.289	281.81
257.521	281.81
257.754	296.81
257.987	297.81
258.22	310.81
258.452	314.81
258.685	303.81
258.918	305.81
259.151	312.81
259.383	309.81
259.616	312.81
259.849	314.81
260.081	300.81
260.314	323.81
260.547	311.81
260.779	314.81
261.012	328.81
261.244	330.81
261.477	317.81
261.71	327.81
261.942	328.81
262.175	327.81
262.407	321.81
262.64	338.81
262.872	332.81
263.105	302.81
263.337	313.81
263.57	330.81
263.802	332.81
264.035	313.81
264.267	331.81
264.499	332.81
264.732	333.81
264.964	339.81
265.197	354.81
265.429	332.81
265.661	346.81
265.894	363.81
266.126	351.81
266.358	370.81
266.591	357.81
266.823	357.81
267.055	362.81
267.287	362.81
267.52	365.81
267.752	375.81
267.984	358.81
268.216	354.81
268.448	347.81
268.681	365.81
268.913	356.81
269.145	382.81
269.377	375.81
269.609	384.81
269.841	348.81
270.073	347.81
270.306	370.81
270.538	371.81
270.77	370.81
271.002	371.81
271.234	384.81
271.466	391.81
271.698	379.81
271.93	391.81
272.162	394.81
272.394	390.81
272.626	407.81
272.858	393.81
273.09	387.81
273.322	383.81
273.553	395.81
273.785	388.81
274.017	394.81
274.249	400.81
274.481	400.81
274.713	408.81
274.945	418.81
275.176	403.81
275.408	408.81
275.64	417.81
275.872	417.81
276.104	415.81
276.335	387.81
276.567	419.81
276.799	420.81
277.031	415.81
277.262	419.81
277.494	407.81
277.726	420.81
277.957	424.81
278.189	436.81
278.421	424.81
278.652	409.81
278.884	435.81
279.115	439.81
279.347	450.81
279.579	441.81
279.81	422.81
280.042	415.81
280.273	434.81
280.505	445.81
280.736	464.81
280.968	450.81
281.199	426.81
281.431	455.81
281.662	461.81
281.894	443.81
282.125	450.81
282.356	468.81
282.588	473.81
282.819	471.81
283.051	461.81
283.282	456.81
283.513	474.81
283.745	467.81
283.976	458.81
284.207	454.81
284.439	466.81
284.67	480.81
284.901	457.81
285.132	479.81
285.364	469.81
285.595	450.81
285.826	499.81
286.057	477.81
286.288	486.81
286.52	507.81
286.751	495.81
286.982	485.81
287.213	474.81
287.444	489.81
287.675	506.81
287.906	503.81
288.138	522.81
288.369	490.81
288.6	499.81
288.831	498.81
289.062	491.81
289.293	490.81
289.524	491.81
289.755	513.81
289.986	499.81
290.217	493.81
290.448	503.81
290.679	508.81
290.91	509.81
291.141	508.81
291.371	509.81
291.602	491.81
291.833	505.81
292.064	515.81
292.295	512.81
292.526	515.81
292.757	499.81
292.987	502.81
293.218	515.81
293.449	509.81
293.68	526.81
293.91	509.81
294.141	511.81
294.372	513.81
294.603	504.81
294.833	520.81
295.064	526.81
295.295	515.81
295.525	545.81
295.756	528.81
295.987	505.81
296.217	517.81
296.448	539.81
296.679	515.81
296.909	531.81
297.14	549.81
297.37	577.81
297.601	559.81
297.831	549.81
298.062	545.81
298.292	551.81
298.523	554.81
298.753	561.81
298.984	564.81
299.214	545.81
299.445	559.81
299.675	556.81
299.905	568.81
300.136	563.81
300.366	562.81
300.597	572.81
300.827	601.81
301.057	542.81
301.288	584.81
301.518	589.81
301.748	576.81
301.979	579.81
302.209	596.81
302.439	584.81
302.669	556.81
302.9	583.81
303.13	573.81
303.36	583.81
303.59	579.81
303.82	565.81
304.051	561.81
304.281	564.81
304.511	578.81
304.741	588.81
304.971	565.81
305.201	563.81
305.431	569.81
305.661	565.81
305.891	586.81
306.121	585.81
306.352	581.81
306.582	583.81
306.812	550.81
307.042	564.81
307.272	564.81
307.502	587.81
307.731	578.81
307.961	587.81
308.191	574.81
308.421	571.81
308.651	566.81
308.881	562.81
309.111	586.81
309.341	565.81
309.571	575.81
309.8	578.81
310.03	570.81
310.26	563.81
310.49	584.81
310.72	570.81
310.949	576.81
311.179	579.81
311.409	588.81
311.639	593.81
311.868	599.81
312.098	575.81
312.328	593.81
312.557	603.81
312.787	607.81
313.017	607.81
313.246	620.81
313.476	610.81
313.706	611.81
313.935	629.81
314.165	611.81
314.394	599.81
314.624	626.81
314.853	597.81
315.083	612.81
315.312	605.81
315.542	582.81
315.771	597.81
316.001	600.81
316.23	625.81
316.46	612.81
316.689	626.81
316.919	618.81
317.148	615.81
317.377	596.81
317.607	620.81
317.836	609.81
318.065	603.81
318.295	617.81
318.524	610.81
318.753	591.81
318.983	597.81
319.212	607.81
319.441	606.81
319.67	611.81
319.9	618.81
320.129	610.81
320.358	613.81
320.587	605.81
320.816	606.81
321.046	636.81
321.275	611.81
321.504	632.81
321.733	631.81
321.962	603.81
322.191	639.81
322.42	635.81
322.649	619.81
322.878	614.81
323.108	623.81
323.337	629.81
323.566	646.81
323.795	648.81
324.024	639.81
324.253	636.81
324.482	633.81
324.71	651.81
324.939	646.81
325.168	662.81
325.397	629.81
325.626	653.81
325.855	644.81
326.084	689.81
326.313	683.81
326.542	672.81
326.77	704.81
326.999	677.81
327.228	681.81
327.457	692.81
327.686	689.81
327.914	689.81
328.143	686.81
328.372	680.81
328.6	680.81
328.829	675.81
329.058	690.81
329.287	685.81
329.515	696.81
329.744	691.81
329.972	694.81
330.201	712.81
330.43	713.81
330.658	693.81
330.887	729.81
331.115	727.81
331.344	728.81
331.572	723.81
331.801	741.81
332.03	776.81
332.258	796.81
332.486	799.81
332.715	836.81
332.943	853.81
333.172	870.81
333.4	935.81
333.629	951.81
333.857	940.81
334.085	933.81
334.314	939.81
334.542	900.81
334.771	878.81
334.999	863.81
335.227	866.81
335.455	900.81
335.684	872.81
335.912	857.81
336.14	827.81
336.369	835.81
336.597	850.81
336.825	809.81
337.053	827.81
337.281	825.81
337.51	799.81
337.738	797.81
337.966	758.81
338.194	777.81
338.422	761.81
338.65	733.81
338.878	753.81
339.106	769.81
339.334	774.81
339.562	747.81
339.79	730.81
340.018	724.81
340.246	746.81
340.474	739.81
340.702	702.81
340.93	747.81
341.158	761.81
341.386	713.81
341.614	713.81
341.842	725.81
342.07	723.81
342.298	716.81
342.526	704.81
342.754	735.81
342.981	734.81
343.209	759.81
343.437	783.81
343.665	825.81
343.893	907.81
344.12	912.81
344.348	863.81
344.576	809.81
344.804	778.81
345.031	763.81
345.259	726.81
345.487	753.81
345.714	718.81
345.942	716.81
346.17	726.81
346.397	730.81
346.625	715.81
346.853	696.81
347.08	719.81
347.308	701.81
347.535	720.81
347.763	723.81
347.99	706.81
348.218	710.81
348.445	726.81
348.673	701.81
348.9	717.81
349.128	697.81
349.355	711.81
349.583	703.81
349.81	691.81
350.037	701.81
350.265	693.81
350.492	693.81
350.72	654.81
350.947	677.81
351.174	675.81
351.402	685.81
351.629	682.81
351.856	663.81
352.083	688.81
352.311	655.81
352.538	665.81
352.765	687.81
352.992	666.81
353.22	662.81
353.447	695.81
353.674	678.81
353.901	676.81
354.128	661.81
354.355	671.81
354.583	669.81
354.81	691.81
355.037	683.81
355.264	653.81
355.491	673.81
355.718	682.81
355.945	669.81
356.172	682.81
356.399	691.81
356.626	667.81
356.853	699.81
357.08	673.81
357.307	650.81
357.534	663.81
357.761	678.81
357.988	713.81
358.215	673.81
358.441	646.81
358.668	653.81
358.895	661.81
359.122	702.81
359.349	678.81
359.576	681.81
359.802	691.81
360.029	667.81
360.256	675.81
360.483	659.81
360.709	626.81
360.936	656.81
361.163	682.81
361.39	663.81
361.616	675.81
361.843	682.81
362.07	690.81
362.296	679.81
362.523	661.81
362.749	663.81
362.976	644.81
363.203	641.81
363.429	663.81
363.656	673.81
363.882	679.81
364.109	671.81
364.335	637.81
364.562	684.81
364.788	675.81
365.015	655.81
365.241	655.81
365.468	653.81
365.694	661.81
365.92	649.81
366.147	673.81
366.373	658.81
366.599	672.81
366.826	666.81
367.052	669.81
367.278	696.81
367.505	676.81
367.731	666.81
367.957	672.81
368.184	690.81
368.41	690.81
368.636	678.81
368.862	690.81
369.089	723.81
369.315	682.81
369.541	679.81
369.767	662.81
369.993	715.81
370.219	693.81
370.445	712.81
370.672	723.81
370.898	686.81
371.124	715.81
371.35	724.81
371.576	753.81
371.802	756.81
372.028	730.81
372.254	738.81
372.48	732.81
372.706	742.81
372.932	774.81
373.158	742.81
373.384	742.81
373.61	727.81
373.835	741.81
374.061	732.81
374.287	747.81
374.513	741.81
374.739	778.81
374.965	807.81
375.191	799.81
375.416	829.81
375.642	755.81
375.868	769.81
376.094	771.81
376.319	729.81
376.545	775.81
376.771	762.81
376.997	712.81
377.222	712.81
377.448	731.81
377.674	724.81
377.899	716.81
378.125	729.81
378.35	713.81
378.576	708.81
378.802	711.81
379.027	740.81
379.253	711.81
379.478	717.81
379.704	707.81
379.929	719.81
380.155	735.81
380.38	710.81
380.606	720.81
380.831	724.81
381.057	739.81
381.282	729.81
381.507	749.81
381.733	734.81
381.958	732.81
382.184	753.81
382.409	760.81
382.634	775.81
382.86	753.81
383.085	758.81
383.31	775.81
383.535	801.81
383.761	816.81
383.986	811.81
384.211	829.81
384.436	862.81
384.662	870.81
384.887	889.81
385.112	889.81
385.337	882.81
385.562	899.81
385.787	889.81
386.013	914.81
386.238	891.81
386.463	876.81
386.688	897.81
386.913	860.81
387.138	868.81
387.363	862.81
387.588	868.81
387.813	854.81
388.038	829.81
388.263	871.81
388.488	878.81
388.713	859.81
388.938	857.81
389.163	824.81
389.387	835.81
389.612	845.81
389.837	845.81
390.062	847.81
390.287	845.81
390.512	841.81
390.736	861.81
390.961	870.81
391.186	893.81
391.411	927.81
391.636	953.81
391.86	961.81
392.085	1000.81
392.31	966.81
392.534	958.81
392.759	953.81
392.984	922.81
393.208	919.81
393.433	909.81
393.658	937.81
393.882	937.81
394.107	916.81
394.331	961.81
394.556	922.81
394.78	962.81
395.005	934.81
395.229	952.81
395.454	980.81
395.678	1004.81
395.903	964.81
396.127	950.81
396.352	943.81
396.576	935.81
396.801	922.81
397.025	918.81
397.249	960.81
397.474	989.81
397.698	984.81
397.922	942.81
398.147	968.81
398.371	992.81
398.595	1052.81
398.82	1069.81
399.044	1158.81
399.268	1253.81
399.492	1480.81
399.717	1702.81
399.941	1656.81
400.165	1449.81
400.389	1303.81
400.613	1185.81
400.837	1113.81
401.062	1128.81
401.286	1092.81
401.51	1107.81
401.734	1073.81
401.958	1113.81
402.182	1137.81
402.406	1133.81
402.63	1161.81
402.854	1173.81
403.078	1194.81
403.302	1235.81
403.526	1241.81
403.75	1265.81
403.974	1268.81
404.198	1323.81
404.422	1291.81
404.645	1271.81
404.869	1251.81
405.093	1239.81
405.317	1189.81
405.541	1221.81
405.765	1210.81
405.988	1207.81
406.212	1212.81
406.436	1194.81
406.66	1256.81
406.883	1248.81
407.107	1311.81
407.331	1365.81
407.555	1438.81
407.778	1431.81
408.002	1398.81
408.226	1304.81
408.449	1322.81
408.673	1235.81
408.896	1248.81
409.12	1249.81
409.344	1243.81
409.567	1226.81
409.791	1234.81
410.014	1236.81
410.238	1231.81
410.461	1270.81
410.685	1208.81
410.908	1185.81
411.132	1145.81
411.355	1140.81
411.578	1124.81
411.802	1127.81
412.025	1125.81
412.249	1149.81
412.472	1166.81
412.695	1135.81
412.919	1109.81
413.142	1097.81
413.365	1072.81
413.589	1088.81
413.812	1103.81
414.035	1056.81
414.258	1090.81
414.482	1099.81
414.705	1134.81
414.928	1109.81
415.151	1106.81
415.374	1102.81
415.597	1093.81
415.821	1084.81
416.044	1051.81
416.267	1053.81
416.49	1091.81
416.713	1051.81
416.936	1091.81
417.159	1093.81
417.382	1082.81
417.605	1063.81
417.828	1094.81
418.051	1087.81
418.274	1093.81
418.497	1114.81
418.72	1131.81
418.943	1123.81
419.166	1168.81
419.389	1277.81
419.611	1203.81
419.834	1163.81
420.057	1168.81
420.28	1124.81
420.503	1073.81
420.726	1053.81
420.948	1098.81
421.171	1069.81
421.394	1070.81
421.617	1084.81
421.839	1077.81
422.062	1085.81
422.285	1077.81
422.507	1130.81
422.73	1107.81
422.953	1165.81
423.175	1145.81
423.398	1193.81
423.621	1174.81
423.843	1185.81
424.066	1182.81
424.288	1170.81
424.511	1154.81
424.733	1132.81
424.956	1137.81
425.178	1098.81
425.401	1099.81
425.623	1127.81
425.846	1031.81
426.068	1069.81
426.291	1031.81
426.513	1049.81
426.735	1032.81
426.958	1017.81
427.18	995.81
427.402	1012.81
427.625	991.81
427.847	978.81
428.069	956.81
428.292	981.81
428.514	957.81
428.736	963.81
428.958	987.81
429.181	952.81
429.403	952.81
429.625	941.81
429.847	947.81
430.069	954.81
430.292	958.81
430.514	926.81
430.736	929.81
430.958	967.81
431.18	953.81
431.402	969.81
431.624	961.81
431.846	982.81
432.068	983.81
432.29	1007.81
432.512	973.81
432.734	986.81
432.956	966.81
433.178	953.81
433.4	970.81
433.622	960.81
433.844	1020.81
434.066	985.81
434.287	986.81
434.509	1038.81
434.731	1065.81
434.953	1122.81
435.175	1091.81
435.397	1080.81
435.618	1027.81
435.84	993.81
436.062	965.81
436.284	1001.81
436.505	952.81
436.727	945.81
436.949	974.81
437.17	987.81
437.392	1001.81
437.614	961.81
437.835	914.81
438.057	957.81
438.278	919.81
438.5	942.81
438.721	929.81
438.943	934.81
439.165	939.81
439.386	947.81
439.608	964.81
439.829	989.81
440.05	959.81
440.272	1013.81
440.493	996.81
440.715	1002.81
440.936	1038.81
441.158	1005.81
441.379	1075.81
441.6	1134.81
441.822	1114.81
442.043	1115.81
442.264	1094.81
442.486	1059.81
442.707	1069.81
442.928	1080.81
443.149	1108.81
443.371	1091.81
443.592	1114.81
443.813	1121.81
444.034	1126.81
444.255	1166.81
444.476	1207.81
444.698	1290.81
444.919	1337.81
445.14	1396.81
445.361	1229.81
445.582	1120.81
445.803	1053.81
446.024	1030.81
446.245	1005.81
446.466	1004.81
446.687	988.81
446.908	1002.81
447.129	1001.81
447.35	932.81
447.571	961.81
447.792	923.81
448.013	917.81
448.234	921.81
448.455	892.81
448.675	902.81
448.896	912.81
449.117	903.81
449.338	899.81
449.559	891.81
449.779	883.81
450	907.81
450.221	896.81
450.442	882.81
450.662	901.81
450.883	925.81
451.104	886.81
451.324	918.81
451.545	929.81
451.766	899.81
451.986	903.81
452.207	890.81
452.428	890.81
452.648	897.81
452.869	871.81
453.089	862.81
453.31	883.81
453.53	863.81
453.751	876.81
453.971	846.81
454.192	856.81
454.412	851.81
454.633	842.81
454.853	883.81
455.073	862.81
455.294	828.81
455.514	832.81
455.734	838.81
455.955	821.81
456.175	823.81
456.395	826.81
456.616	825.81
456.836	837.81
457.056	835.81
457.276	827.81
457.497	843.81
457.717	845.81
457.937	843.81
458.157	854.81
458.377	848.81
458.598	872.81
458.818	916.81
459.038	941.81
459.258	949.81
459.478	989.81
459.698	1013.81
459.918	1051.81
460.138	1101.81
460.358	1130.81
460.578	1142.81
460.798	1174.81
461.018	1161.81
461.238	1138.81
461.458	1125.81
461.678	1115.81
461.898	1158.81
462.118	1150.81
462.338	1237.81
462.558	1253.81
462.777	1286.81
462.997	1443.81
463.217	1583.81
463.437	1583.81
463.657	1394.81
463.876	1363.81
464.096	1303.81
464.316	1337.81
464.536	1354.81
464.755	1311.81
464.975	1268.81
465.195	1189.81
465.414	1123.81
465.634	1026.81
465.854	1015.81
466.073	998.81
466.293	987.81
466.512	956.81
466.732	916.81
466.951	958.81
467.171	956.81
467.391	938.81
467.61	946.81
467.829	919.81
468.049	912.81
468.268	917.81
468.488	875.81
468.707	868.81
468.927	889.81
469.146	892.81
469.365	912.81
469.585	913.81
469.804	921.81
470.023	908.81
470.243	989.81
470.462	985.81
470.681	1004.81
470.901	958.81
471.12	949.81
471.339	935.81
471.558	923.81
471.777	927.81
471.997	884.81
472.216	888.81
472.435	872.81
472.654	909.81
472.873	896.81
473.092	895.81
473.311	866.81
473.53	871.81
473.749	878.81
473.968	882.81
474.187	894.81
474.406	850.81
474.625	856.81
474.844	869.81
475.063	866.81
475.282	874.81
475.501	887.81
475.72	869.81
475.939	877.81
476.158	890.81
476.377	897.81
476.596	909.81
476.814	925.81
477.033	944.81
477.252	926.81
477.471	954.81
477.69	976.81
477.908	1007.81
478.127	1069.81
478.346	1045.81
478.564	1046.81
478.783	1068.81
479.002	1125.81
479.22	1136.81
479.439	1091.81
479.658	1085.81
479.876	1075.81
480.095	1085.81
480.313	1167.81
480.532	1185.81
480.751	1150.81
480.969	1137.81
481.188	1072.81
481.406	1029.81
481.624	1047.81
481.843	1008.81
482.061	1003.81
482.28	993.81
482.498	991.81
482.717	1006.81
482.935	969.81
483.153	994.81
483.372	991.81
483.59	1039.81
483.808	1017.81
484.027	989.81
484.245	1000.81
484.463	1023.81
484.681	1053.81
484.9	1039.81
485.118	1044.81
485.336	1046.81
485.554	1047.81
485.772	1066.81
485.99	1035.81
486.209	1073.81
486.427	1068.81
486.645	1073.81
486.863	1056.81
487.081	1053.81
487.299	1051.81
487.517	1039.81
487.735	1046.81
487.953	1085.81
488.171	1069.81
488.389	1059.81
488.607	1013.81
488.825	1039.81
489.043	1022.81
489.261	1042.81
489.479	1023.81
489.696	1076.81
489.914	1037.81
490.132	1048.81
490.35	1058.81
490.568	1037.81
490.786	1023.81
491.003	1065.81
491.221	1075.81
491.439	1066.81
491.657	1063.81
491.874	1074.81
492.092	1092.81
492.31	1078.81
492.527	1083.81
492.745	1077.81
492.963	1068.81
493.18	1074.81
493.398	1097.81
493.615	1101.81
493.833	1107.81
494.05	1085.81
494.268	1133.81
494.485	1109.81
494.703	1093.81
494.92	1150.81
495.138	1123.81
495.355	1123.81
495.573	1129.81
495.79	1100.81
496.008	1163.81
496.225	1102.81
496.442	1161.81
496.66	1146.81
496.877	1139.81
497.094	1144.81
497.312	1205.81
497.529	1231.81
497.746	1273.81
497.963	1279.81
498.181	1362.81
498.398	1418.81
498.615	1484.81
498.832	1572.81
499.049	1692.81
499.267	1830.81
499.484	2077.81
499.701	2237.81
499.918	2515.81
500.135	2847.81
500.352	3316.81
500.569	3463.81
500.786	3442.81
501.003	3158.81
501.22	2737.81
501.437	2412.81
501.654	2172.81
501.871	1965.81
502.088	1808.81
502.305	1646.81
502.522	1545.81
502.739	1505.81
502.956	1420.81
503.172	1341.81
503.389	1302.81
503.606	1276.81
503.823	1254.81
504.04	1254.81
504.256	1290.81
504.473	1292.81
504.69	1326.81
504.907	1337.81
505.123	1235.81
505.34	1157.81
505.557	1091.81
505.773	1065.81
505.99	1050.81
506.207	1013.81
506.423	1014.81
506.64	1006.81
506.856	979.81
507.073	985.81
507.289	986.81
507.506	997.81
507.722	969.81
507.939	958.81
508.155	959.81
508.372	961.81
508.588	924.81
508.805	937.81
509.021	915.81
509.238	917.81
509.454	885.81
509.67	899.81
509.887	912.81
510.103	875.81
510.319	878.81
510.536	905.81
510.752	882.81
510.968	873.81
511.184	868.81
511.401	877.81
511.617	910.81
511.833	885.81
512.049	891.81
512.265	878.81
512.481	911.81
512.698	856.81
512.914	903.81
513.13	878.81
513.346	899.81
513.562	880.81
513.778	869.81
513.994	871.81
514.21	882.81
514.426	891.81
514.642	886.81
514.858	891.81
515.074	878.81
515.29	917.81
515.506	925.81
515.721	924.81
515.937	953.81
516.153	972.81
516.369	997.81
516.585	998.81
516.801	1049.81
517.016	1093.81
517.232	1151.81
517.448	1207.81
517.664	1262.81
517.879	1270.81
518.095	1260.81
518.311	1235.81
518.527	1156.81
518.742	1108.81
518.958	1069.81
519.173	1045.81
519.389	990.81
519.605	963.81
519.82	927.81
520.036	954.81
520.251	922.81
520.467	897.81
520.682	934.81
520.898	886.81
521.113	860.81
521.329	874.81
521.544	855.81
521.76	864.81
521.975	836.81
522.19	835.81
522.406	824.81
522.621	827.81
522.836	839.81
523.052	843.81
523.267	842.81
523.482	854.81
523.698	813.81
523.913	825.81
524.128	819.81
524.343	801.81
524.559	821.81
524.774	833.81
524.989	823.81
525.204	802.81
525.419	801.81
525.634	783.81
525.849	779.81
526.064	806.81
526.28	793.81
526.495	773.81
526.71	776.81
526.925	795.81
527.14	789.81
527.355	793.81
527.57	791.81
527.785	813.81
527.999	828.81
528.214	801.81
528.429	798.81
528.644	804.81
528.859	781.81
529.074	793.81
529.289	798.81
529.503	805.81
529.718	805.81
529.933	820.81
530.148	804.81
530.363	795.81
530.577	776.81
530.792	785.81
531.007	774.81
531.221	769.81
531.436	753.81
531.651	769.81
531.865	805.81
532.08	795.81
532.295	825.81
532.509	794.81
532.724	796.81
532.938	805.81
533.153	798.81
533.367	808.81
533.582	798.81
533.796	773.81
534.011	795.81
534.225	790.81
534.44	783.81
534.654	783.81
534.868	754.81
535.083	779.81
535.297	787.81
535.511	792.81
535.726	769.81
535.94	755.81
536.154	748.81
536.369	753.81
536.583	722.81
536.797	729.81
537.011	752.81
537.225	756.81
537.44	734.81
537.654	718.81
537.868	718.81
538.082	735.81
538.296	726.81
538.51	718.81
538.724	761.81
538.938	738.81
539.153	726.81
539.367	717.81
539.581	697.81
539.795	697.81
540.009	711.81
540.222	697.81
540.436	737.81
540.65	732.81
540.864	700.81
541.078	726.81
541.292	717.81
541.506	699.81
541.72	746.81
541.934	709.81
542.147	722.81
542.361	717.81
542.575	711.81
542.789	717.81
543.002	706.81
543.216	681.81
543.43	714.81
543.644	697.81
543.857	722.81
544.071	706.81
544.285	760.81
544.498	703.81
544.712	701.81
544.925	708.81
545.139	729.81
545.352	730.81
545.566	712.81
545.779	741.81
545.993	730.81
546.206	749.81
546.42	751.81
546.633	733.81
546.847	735.81
547.06	746.81
547.274	718.81
547.487	739.81
547.7	740.81
547.914	714.81
548.127	733.81
548.34	735.81
548.554	742.81
548.767	739.81
548.98	733.81
549.193	762.81
549.407	736.81
549.62	757.81
549.833	774.81
550.046	766.81
550.259	758.81
550.473	690.81
550.686	718.81
550.899	726.81
551.112	715.81
551.325	707.81
551.538	708.81
551.751	711.81
551.964	710.81
552.177	708.81
552.39	726.81
552.603	766.81
552.816	776.81
553.029	782.81
553.242	804.81
553.455	817.81
553.667	838.81
553.88	790.81
554.093	773.81
554.306	757.81
554.519	758.81
554.732	731.81
554.944	701.81
555.157	719.81
555.37	690.81
555.583	685.81
555.795	692.81
556.008	667.81
556.221	642.81
556.433	644.81
556.646	631.81
556.859	643.81
557.071	648.81
557.284	641.81
557.496	639.81
557.709	649.81
557.921	617.81
558.134	639.81
558.346	619.81
558.559	612.81
558.771	619.81
558.984	627.81
559.196	611.81
559.409	627.81
559.621	599.81
559.833	627.81
560.046	593.81
560.258	611.81
560.47	607.81
560.683	589.81
560.895	605.81
561.107	588.81
561.32	606.81
561.532	602.81
561.744	572.81
561.956	588.81
562.168	594.81
562.381	597.81
562.593	605.81
562.805	611.81
563.017	595.81
563.229	626.81
563.441	573.81
563.653	611.81
563.865	624.81
564.077	613.81
564.289	623.81
564.501	629.81
564.713	633.81
564.925	645.81
565.137	663.81
565.349	674.81
565.561	682.81
565.773	717.81
565.985	753.81
566.197	785.81
566.408	846.81
566.62	912.81
566.832	997.81
567.044	1012.81
567.255	991.81
567.467	1001.81
567.679	1086.81
567.891	1195.81
568.102	1208.81
568.314	1150.81
568.526	1018.81
568.737	907.81
568.949	855.81
569.161	747.81
569.372	731.81
569.584	673.81
569.795	647.81
570.007	655.81
570.218	614.81
570.43	600.81
570.641	598.81
570.853	618.81
571.064	638.81
571.276	625.81
571.487	595.81
571.698	578.81
571.91	583.81
572.121	526.81
572.333	533.81
572.544	510.81
572.755	508.81
572.966	527.81
573.178	513.81
573.389	521.81
573.6	493.81
573.811	518.81
574.023	514.81
574.234	503.81
574.445	494.81
574.656	519.81
574.867	478.81
575.078	497.81
575.289	485.81
575.501	479.81
575.712	485.81
575.923	461.81
576.134	483.81
576.345	458.81
576.556	454.81
576.767	451.81
576.978	479.81
577.188	452.81
577.399	483.81
577.61	464.81
577.821	445.81
578.032	439.81
578.243	459.81
578.454	453.81
578.665	430.81
578.875	431.81
579.086	440.81
579.297	423.81
579.508	437.81
579.718	415.81
579.929	448.81
580.14	430.81
580.35	425.81
580.561	417.81
580.772	413.81
580.982	432.81
581.193	412.81
581.403	415.81
581.614	417.81
581.825	415.81
582.035	413.81
582.246	415.81
582.456	420.81
582.667	420.81
582.877	431.81
583.087	419.81
583.298	406.81
583.508	422.81
583.719	404.81
583.929	422.81
584.139	400.81
584.35	402.81
584.56	402.81
584.77	407.81
584.981	405.81
585.191	410.81
585.401	407.81
585.611	402.81
585.821	403.81
586.032	389.81
586.242	398.81
586.452	407.81
586.662	413.81
586.872	386.81
587.082	399.81
587.292	399.81
587.502	370.81
587.713	389.81
587.923	394.81
588.133	395.81
588.343	420.81
588.553	399.81
588.762	390.81
588.972	394.81
589.182	370.81
589.392	390.81
589.602	421.81
589.812	382.81
590.022	397.81
590.232	395.81
590.441	405.81
590.651	428.81
590.861	398.81
591.071	400.81
591.281	406.81
591.49	413.81
591.7	426.81
591.91	410.81
592.119	408.81
592.329	424.81
592.539	463.81
592.748	476.81
592.958	466.81
593.167	494.81
593.377	495.81
593.587	516.81
593.796	501.81
594.006	503.81
594.215	549.81
594.424	533.81
594.634	502.81
594.843	489.81
595.053	455.81
595.262	441.81
595.472	417.81
595.681	435.81
595.89	428.81
596.1	388.81
596.309	373.81
596.518	385.81
596.727	373.81
596.937	386.81
597.146	379.81
597.355	380.81
597.564	364.81
597.774	362.81
597.983	349.81
598.192	372.81
598.401	328.81
598.61	355.81
598.819	360.81
599.028	343.81
599.237	359.81
599.446	342.81
599.655	348.81
599.864	335.81
600.073	314.81
600.282	329.81
600.491	353.81
600.7	330.81
600.909	345.81
601.118	340.81
601.327	330.81
601.536	326.81
601.745	338.81
601.953	326.81
602.162	323.81
602.371	347.81
602.58	337.81
602.789	343.81
602.997	327.81
603.206	335.81
603.415	316.81
603.623	315.81
603.832	319.81
604.041	328.81
604.249	324.81
604.458	319.81
604.666	311.81
604.875	318.81
605.084	307.81
605.292	309.81
605.501	322.81
605.709	315.81
605.918	310.81
606.126	333.81
606.334	328.81
606.543	329.81
606.751	302.81
606.96	291.81
607.168	307.81
607.376	293.81
607.585	306.81
607.793	305.81
608.001	303.81
608.21	311.81
608.418	302.81
608.626	305.81
608.834	291.81
609.043	297.81
609.251	291.81
609.459	313.81
609.667	298.81
609.875	308.81
610.083	291.81
610.291	294.81
610.499	309.81
610.707	290.81
610.916	298.81
611.124	319.81
611.332	308.81
611.54	286.81
611.748	305.81
611.955	289.81
612.163	286.81
612.371	292.81
612.579	275.81
612.787	302.81
612.995	285.81
613.203	281.81
613.411	298.81
613.618	288.81
613.826	268.81
614.034	284.81
614.242	292.81
614.449	294.81
614.657	299.81
614.865	292.81
615.072	273.81
615.28	285.81
615.488	294.81
615.695	286.81
615.903	296.81
616.111	294.81
616.318	278.81
616.526	276.81
616.733	286.81
616.941	295.81
617.148	299.81
617.356	305.81
617.563	300.81
617.771	306.81
617.978	300.81
618.185	283.81
618.393	301.81
618.6	308.81
618.807	289.81
619.015	298.81
619.222	287.81
619.429	293.81
619.637	283.81
619.844	295.81
620.051	268.81
620.258	267.81
620.466	260.81
620.673	271.81
620.88	282.81
621.087	263.81
621.294	251.81
621.501	280.81
621.708	268.81
621.915	268.81
622.122	260.81
622.329	279.81
622.536	269.81
622.743	245.81
622.95	256.81
623.157	248.81
623.364	273.81
623.571	262.81
623.778	263.81
623.985	269.81
624.192	267.81
624.399	269.81
624.606	257.81
624.812	269.81
625.019	240.81
625.226	247.81
625.433	233.81
625.639	226.81
625.846	243.81
626.053	270.81
626.259	246.81
626.466	237.81
626.673	236.81
626.879	238.81
627.086	258.81
627.293	248.81
627.499	249.81
627.706	237.81
627.912	223.81
628.119	250.81
628.325	261.81
628.532	223.81
628.738	233.81
628.945	214.81
629.151	238.81
629.357	229.81
629.564	234.81
629.77	212.81
629.976	222.81
630.183	225.81
630.389	242.81
630.595	241.81
630.802	233.81
631.008	230.81
631.214	209.81
631.42	220.81
631.627	218.81
631.833	227.81
632.039	225.81
632.245	228.81
632.451	219.81
632.657	215.81
632.863	220.81
633.069	226.81
633.275	217.81
633.481	235.81
633.688	204.81
633.893	211.81
634.099	224.81
634.305	200.81
634.511	212.81
634.717	220.81
634.923	215.81
635.129	204.81
635.335	219.81
635.541	209.81
635.747	219.81
635.952	215.81
636.158	208.81
636.364	205.81
636.57	201.81
636.775	204.81
636.981	213.81
637.187	220.81
637.392	205.81
637.598	203.81
637.804	217.81
638.009	192.81
638.215	198.81
638.421	212.81
638.626	201.81
638.832	183.81
639.037	213.81
639.243	210.81
639.448	198.81
639.654	205.81
639.859	205.81
640.065	191.81
640.27	204.81
640.475	205.81
640.681	191.81
640.886	195.81
641.091	199.81
641.297	188.81
641.502	195.81
641.707	204.81
641.913	195.81
642.118	191.81
642.323	199.81
642.528	182.81
642.733	173.81
642.939	179.81
643.144	202.81
643.349	179.81
643.554	207.81
643.759	187.81
643.964	189.81
644.169	201.81
644.374	174.81
644.579	196.81
644.784	179.81
644.989	181.81
645.194	211.81
645.399	191.81
645.604	183.81
645.809	186.81
646.014	200.81
646.219	205.81
646.423	190.81
646.628	176.81
646.833	183.81
647.038	197.81
647.243	198.81
647.447	199.81
647.652	212.81
647.857	208.81
648.062	203.81
648.266	226.81
648.471	211.81
648.676	208.81
648.88	206.81
649.085	200.81
649.289	194.81
649.494	197.81
649.698	190.81
649.903	187.81
650.107	178.81
650.312	186.81
650.516	196.81
650.721	178.81
650.925	180.81
651.13	171.81
651.334	167.81
651.539	160.81
651.743	184.81
651.947	179.81
652.152	180.81
652.356	167.81
652.56	175.81
652.764	172.81
652.969	161.81
653.173	156.81
653.377	165.81
653.581	162.81
653.785	162.81
653.99	163.81
654.194	136.81
654.398	139.81
654.602	149.81
654.806	140.81
655.01	155.81
655.214	166.81
655.418	144.81
655.622	136.81
655.826	158.81
656.03	157.81
656.234	164.81
656.438	161.81
656.642	150.81
656.846	149.81
657.049	154.81
657.253	144.81
657.457	151.81
657.661	126.81
657.865	133.81
658.068	133.81
658.272	122.81
658.476	114.81
658.68	110.81
658.883	116.81
659.087	116.81
659.291	101.81
659.494	92.81
659.698	102.81
659.901	88.81
660.105	90.81
660.309	101.81
660.512	92.81
660.716	95.81
660.919	93.81
661.123	106.81
661.326	97.81
661.53	88.81
661.733	101.81
661.936	95.81
662.14	101.81
662.343	87.81
662.546	88.81
662.75	92.81
662.953	90.81
663.156	86.81
663.36	72.81
663.563	86.81
663.766	88.81
663.969	81.81
664.173	77.81
664.376	81.81
664.579	76.81
664.782	79.81
664.985	90.81
665.188	91.81
665.391	89.81
665.594	66.81
665.797	94.81
666	93.81
666.203	83.81
666.406	85.81
666.609	97.81
666.812	88.81
667.015	77.81
667.218	61.81
667.421	87.81
667.624	89.81
667.827	93.81
668.03	81.81
668.232	77.81
668.435	86.81
668.638	73.81
668.841	81.81
669.043	92.81
669.246	100.81
669.449	83.81
669.651	88.81
669.854	87.81
670.057	87.81
670.259	84.81
670.462	94.81
670.665	87.81
670.867	63.81
671.07	84.81
671.272	85.81
671.475	95.81
671.677	68.81
671.88	82.81
672.082	78.81
672.284	86.81
672.487	90.81
672.689	86.81
672.892	83.81
