Data from Ni(NO3)2@0.25M.TitratingCurve.Agarose3%dH2O.NegLispCup.LampEnergy10.LIBS07252019_HRD10591_18-04-09-566.txt Node
Date: Thu Jul 25 18:04:09 EDT 2019
User: cochatt
Spectrometer: HR+D1059
Trigger mode: 1
Integration Time (sec): 1.000000E-1
Scans to average: 1
Electric dark correction enabled: true
Nonlinearity correction enabled: false
Boxcar width: 0
XAxis mode: Wavelengths
Number of Pixels in Spectrum: 2048
>>>>>Begin Spectral Data<<<<<
223.165	-5.75
223.4	-5.75
223.635	-5.75
223.869	-10.75
224.104	-5.75
224.338	-23.75
224.573	-14.75
224.808	-18.75
225.042	-19.75
225.277	-10.75
225.511	9.25
225.746	-3.75
225.98	-4.75
226.215	9.25
226.449	9.25
226.683	25.25
226.918	33.25
227.152	32.25
227.387	33.25
227.621	41.25
227.856	44.25
228.09	59.25
228.324	56.25
228.559	62.25
228.793	74.25
229.027	103.25
229.262	121.25
229.496	129.25
229.73	146.25
229.964	134.25
230.199	132.25
230.433	154.25
230.667	152.25
230.901	147.25
231.136	153.25
231.37	155.25
231.604	162.25
231.838	169.25
232.072	161.25
232.306	164.25
232.541	182.25
232.775	163.25
233.009	170.25
233.243	166.25
233.477	166.25
233.711	162.25
233.945	170.25
234.179	173.25
234.413	167.25
234.647	174.25
234.881	174.25
235.115	177.25
235.349	169.25
235.583	168.25
235.817	168.25
236.051	168.25
236.285	167.25
236.519	179.25
236.753	190.25
236.987	170.25
237.221	185.25
237.455	181.25
237.689	179.25
237.922	179.25
238.156	198.25
238.39	181.25
238.624	194.25
238.858	188.25
239.091	191.25
239.325	177.25
239.559	198.25
239.793	204.25
240.027	198.25
240.26	200.25
240.494	203.25
240.728	201.25
240.961	212.25
241.195	220.25
241.429	209.25
241.662	214.25
241.896	200.25
242.13	231.25
242.363	225.25
242.597	227.25
242.83	223.25
243.064	230.25
243.298	226.25
243.531	220.25
243.765	246.25
243.998	256.25
244.232	263.25
244.465	244.25
244.699	236.25
244.932	241.25
245.166	259.25
245.399	253.25
245.633	273.25
245.866	253.25
246.099	248.25
246.333	255.25
246.566	263.25
246.8	257.25
247.033	267.25
247.266	270.25
247.5	266.25
247.733	281.25
247.966	269.25
248.2	275.25
248.433	290.25
248.666	277.25
248.899	280.25
249.133	291.25
249.366	303.25
249.599	294.25
249.832	325.25
250.066	306.25
250.299	320.25
250.532	299.25
250.765	303.25
250.998	310.25
251.231	314.25
251.465	331.25
251.698	330.25
251.931	345.25
252.164	345.25
252.397	338.25
252.63	331.25
252.863	333.25
253.096	329.25
253.329	319.25
253.562	342.25
253.795	339.25
254.028	347.25
254.261	374.25
254.494	347.25
254.727	371.25
254.96	359.25
255.193	360.25
255.426	355.25
255.659	368.25
255.892	379.25
256.124	357.25
256.357	389.25
256.59	367.25
256.823	393.25
257.056	387.25
257.289	382.25
257.521	367.25
257.754	405.25
257.987	381.25
258.22	405.25
258.452	392.25
258.685	400.25
258.918	404.25
259.151	399.25
259.383	412.25
259.616	407.25
259.849	419.25
260.081	393.25
260.314	424.25
260.547	423.25
260.779	410.25
261.012	418.25
261.244	429.25
261.477	426.25
261.71	418.25
261.942	447.25
262.175	437.25
262.407	432.25
262.64	439.25
262.872	438.25
263.105	437.25
263.337	455.25
263.57	449.25
263.802	453.25
264.035	457.25
264.267	457.25
264.499	456.25
264.732	463.25
264.964	472.25
265.197	463.25
265.429	471.25
265.661	458.25
265.894	467.25
266.126	448.25
266.358	491.25
266.591	460.25
266.823	474.25
267.055	477.25
267.287	494.25
267.52	479.25
267.752	496.25
267.984	490.25
268.216	504.25
268.448	507.25
268.681	511.25
268.913	482.25
269.145	516.25
269.377	509.25
269.609	475.25
269.841	503.25
270.073	487.25
270.306	495.25
270.538	525.25
270.77	503.25
271.002	510.25
271.234	518.25
271.466	495.25
271.698	506.25
271.93	531.25
272.162	529.25
272.394	517.25
272.626	529.25
272.858	523.25
273.09	526.25
273.322	533.25
273.553	531.25
273.785	538.25
274.017	527.25
274.249	532.25
274.481	554.25
274.713	538.25
274.945	521.25
275.176	535.25
275.408	554.25
275.64	533.25
275.872	558.25
276.104	550.25
276.335	556.25
276.567	564.25
276.799	567.25
277.031	579.25
277.262	553.25
277.494	569.25
277.726	558.25
277.957	560.25
278.189	574.25
278.421	589.25
278.652	575.25
278.884	580.25
279.115	577.25
279.347	593.25
279.579	582.25
279.81	584.25
280.042	600.25
280.273	593.25
280.505	615.25
280.736	602.25
280.968	594.25
281.199	609.25
281.431	622.25
281.662	635.25
281.894	622.25
282.125	596.25
282.356	626.25
282.588	609.25
282.819	619.25
283.051	586.25
283.282	627.25
283.513	625.25
283.745	626.25
283.976	635.25
284.207	607.25
284.439	638.25
284.67	624.25
284.901	635.25
285.132	631.25
285.364	621.25
285.595	638.25
285.826	640.25
286.057	640.25
286.288	635.25
286.52	649.25
286.751	648.25
286.982	665.25
287.213	663.25
287.444	649.25
287.675	634.25
287.906	673.25
288.138	641.25
288.369	632.25
288.6	669.25
288.831	646.25
289.062	655.25
289.293	672.25
289.524	655.25
289.755	658.25
289.986	666.25
290.217	680.25
290.448	665.25
290.679	671.25
290.91	657.25
291.141	671.25
291.371	685.25
291.602	689.25
291.833	667.25
292.064	699.25
292.295	657.25
292.526	662.25
292.757	669.25
292.987	677.25
293.218	658.25
293.449	683.25
293.68	706.25
293.91	683.25
294.141	693.25
294.372	669.25
294.603	686.25
294.833	697.25
295.064	679.25
295.295	712.25
295.525	696.25
295.756	680.25
295.987	675.25
296.217	698.25
296.448	690.25
296.679	700.25
296.909	693.25
297.14	704.25
297.37	709.25
297.601	724.25
297.831	720.25
298.062	703.25
298.292	728.25
298.523	750.25
298.753	729.25
298.984	739.25
299.214	749.25
299.445	714.25
299.675	713.25
299.905	732.25
300.136	731.25
300.366	760.25
300.597	746.25
300.827	746.25
301.057	736.25
301.288	762.25
301.518	767.25
301.748	763.25
301.979	757.25
302.209	763.25
302.439	759.25
302.669	769.25
302.9	771.25
303.13	791.25
303.36	777.25
303.59	763.25
303.82	758.25
304.051	792.25
304.281	808.25
304.511	785.25
304.741	769.25
304.971	787.25
305.201	796.25
305.431	809.25
305.661	805.25
305.891	778.25
306.121	781.25
306.352	789.25
306.582	788.25
306.812	769.25
307.042	763.25
307.272	767.25
307.502	746.25
307.731	787.25
307.961	770.25
308.191	794.25
308.421	761.25
308.651	780.25
308.881	766.25
309.111	781.25
309.341	762.25
309.571	777.25
309.8	795.25
310.03	786.25
310.26	819.25
310.49	808.25
310.72	811.25
310.949	800.25
311.179	825.25
311.409	817.25
311.639	783.25
311.868	785.25
312.098	799.25
312.328	817.25
312.557	814.25
312.787	822.25
313.017	810.25
313.246	845.25
313.476	817.25
313.706	855.25
313.935	834.25
314.165	835.25
314.394	861.25
314.624	849.25
314.853	839.25
315.083	864.25
315.312	849.25
315.542	846.25
315.771	866.25
316.001	866.25
316.23	863.25
316.46	872.25
316.689	842.25
316.919	865.25
317.148	865.25
317.377	838.25
317.607	851.25
317.836	855.25
318.065	869.25
318.295	895.25
318.524	880.25
318.753	849.25
318.983	862.25
319.212	853.25
319.441	859.25
319.67	882.25
319.9	878.25
320.129	879.25
320.358	904.25
320.587	869.25
320.816	889.25
321.046	913.25
321.275	889.25
321.504	907.25
321.733	877.25
321.962	912.25
322.191	904.25
322.42	890.25
322.649	902.25
322.878	913.25
323.108	914.25
323.337	929.25
323.566	948.25
323.795	939.25
324.024	933.25
324.253	965.25
324.482	953.25
324.71	963.25
324.939	939.25
325.168	976.25
325.397	966.25
325.626	966.25
325.855	974.25
326.084	995.25
326.313	1006.25
326.542	974.25
326.77	1009.25
326.999	969.25
327.228	993.25
327.457	1014.25
327.686	1015.25
327.914	1011.25
328.143	1019.25
328.372	1022.25
328.6	994.25
328.829	1011.25
329.058	1018.25
329.287	1040.25
329.515	1056.25
329.744	1049.25
329.972	1041.25
330.201	1077.25
330.43	1063.25
330.658	1095.25
330.887	1093.25
331.115	1086.25
331.344	1096.25
331.572	1118.25
331.801	1118.25
332.03	1160.25
332.258	1154.25
332.486	1139.25
332.715	1183.25
332.943	1210.25
333.172	1216.25
333.4	1271.25
333.629	1299.25
333.857	1285.25
334.085	1327.25
334.314	1321.25
334.542	1323.25
334.771	1355.25
334.999	1286.25
335.227	1319.25
335.455	1312.25
335.684	1288.25
335.912	1316.25
336.14	1306.25
336.369	1295.25
336.597	1307.25
336.825	1258.25
337.053	1281.25
337.281	1269.25
337.51	1245.25
337.738	1220.25
337.966	1198.25
338.194	1229.25
338.422	1212.25
338.65	1164.25
338.878	1195.25
339.106	1198.25
339.334	1209.25
339.562	1162.25
339.79	1143.25
340.018	1134.25
340.246	1121.25
340.474	1107.25
340.702	1136.25
340.93	1117.25
341.158	1154.25
341.386	1175.25
341.614	1155.25
341.842	1182.25
342.07	1129.25
342.298	1120.25
342.526	1127.25
342.754	1118.25
342.981	1133.25
343.209	1161.25
343.437	1170.25
343.665	1239.25
343.893	1307.25
344.12	1305.25
344.348	1251.25
344.576	1297.25
344.804	1269.25
345.031	1208.25
345.259	1180.25
345.487	1183.25
345.714	1181.25
345.942	1157.25
346.17	1141.25
346.397	1146.25
346.625	1111.25
346.853	1092.25
347.08	1128.25
347.308	1112.25
347.535	1106.25
347.763	1113.25
347.99	1081.25
348.218	1104.25
348.445	1087.25
348.673	1075.25
348.9	1087.25
349.128	1105.25
349.355	1110.25
349.583	1101.25
349.81	1074.25
350.037	1071.25
350.265	1066.25
350.492	1070.25
350.72	1054.25
350.947	1094.25
351.174	1074.25
351.402	1083.25
351.629	1102.25
351.856	1068.25
352.083	1065.25
352.311	1099.25
352.538	1091.25
352.765	1098.25
352.992	1040.25
353.22	1033.25
353.447	1026.25
353.674	1040.25
353.901	1053.25
354.128	1025.25
354.355	1004.25
354.583	1033.25
354.81	1021.25
355.037	1043.25
355.264	1042.25
355.491	1036.25
355.718	1040.25
355.945	1049.25
356.172	1045.25
356.399	1067.25
356.626	1085.25
356.853	1114.25
357.08	1065.25
357.307	1039.25
357.534	1035.25
357.761	1057.25
357.988	1063.25
358.215	1031.25
358.441	1041.25
358.668	1027.25
358.895	1032.25
359.122	1055.25
359.349	1064.25
359.576	1038.25
359.802	1057.25
360.029	1056.25
360.256	1040.25
360.483	1041.25
360.709	1041.25
360.936	1085.25
361.163	1030.25
361.39	1049.25
361.616	1055.25
361.843	1073.25
362.07	1096.25
362.296	1067.25
362.523	1062.25
362.749	1046.25
362.976	1057.25
363.203	1040.25
363.429	1016.25
363.656	1042.25
363.882	1055.25
364.109	1006.25
364.335	1018.25
364.562	1051.25
364.788	1049.25
365.015	1025.25
365.241	1061.25
365.468	1018.25
365.694	1017.25
365.92	1032.25
366.147	1038.25
366.373	1049.25
366.599	1044.25
366.826	1038.25
367.052	1049.25
367.278	1067.25
367.505	1049.25
367.731	1059.25
367.957	1060.25
368.184	1055.25
368.41	1072.25
368.636	1068.25
368.862	1074.25
369.089	1057.25
369.315	1083.25
369.541	1070.25
369.767	1056.25
369.993	1059.25
370.219	1089.25
370.445	1083.25
370.672	1069.25
370.898	1101.25
371.124	1103.25
371.35	1098.25
371.576	1102.25
371.802	1131.25
372.028	1087.25
372.254	1115.25
372.48	1128.25
372.706	1152.25
372.932	1142.25
373.158	1123.25
373.384	1127.25
373.61	1130.25
373.835	1097.25
374.061	1090.25
374.287	1133.25
374.513	1176.25
374.739	1149.25
374.965	1175.25
375.191	1183.25
375.416	1217.25
375.642	1175.25
375.868	1139.25
376.094	1153.25
376.319	1138.25
376.545	1115.25
376.771	1099.25
376.997	1109.25
377.222	1114.25
377.448	1075.25
377.674	1116.25
377.899	1085.25
378.125	1090.25
378.35	1072.25
378.576	1092.25
378.802	1075.25
379.027	1123.25
379.253	1094.25
379.478	1081.25
379.704	1097.25
379.929	1082.25
380.155	1075.25
380.38	1113.25
380.606	1091.25
380.831	1051.25
381.057	1106.25
381.282	1102.25
381.507	1088.25
381.733	1127.25
381.958	1088.25
382.184	1085.25
382.409	1091.25
382.634	1085.25
382.86	1113.25
383.085	1146.25
383.31	1135.25
383.535	1143.25
383.761	1170.25
383.986	1189.25
384.211	1205.25
384.436	1201.25
384.662	1223.25
384.887	1241.25
385.112	1247.25
385.337	1254.25
385.562	1303.25
385.787	1269.25
386.013	1315.25
386.238	1280.25
386.463	1290.25
386.688	1316.25
386.913	1315.25
387.138	1277.25
387.363	1293.25
387.588	1278.25
387.813	1293.25
388.038	1285.25
388.263	1318.25
388.488	1322.25
388.713	1274.25
388.938	1291.25
389.163	1286.25
389.387	1286.25
389.612	1279.25
389.837	1277.25
390.062	1246.25
390.287	1295.25
390.512	1298.25
390.736	1315.25
390.961	1319.25
391.186	1356.25
391.411	1361.25
391.636	1394.25
391.86	1414.25
392.085	1381.25
392.31	1427.25
392.534	1420.25
392.759	1411.25
392.984	1395.25
393.208	1391.25
393.433	1378.25
393.658	1346.25
393.882	1334.25
394.107	1376.25
394.331	1375.25
394.556	1363.25
394.78	1380.25
395.005	1383.25
395.229	1385.25
395.454	1390.25
395.678	1435.25
395.903	1450.25
396.127	1434.25
396.352	1412.25
396.576	1401.25
396.801	1426.25
397.025	1437.25
397.249	1448.25
397.474	1515.25
397.698	1527.25
397.922	1515.25
398.147	1493.25
398.371	1504.25
398.595	1595.25
398.82	1673.25
399.044	1729.25
399.268	1811.25
399.492	1997.25
399.717	2112.25
399.941	2128.25
400.165	2015.25
400.389	1933.25
400.613	1866.25
400.837	1752.25
401.062	1711.25
401.286	1639.25
401.51	1669.25
401.734	1650.25
401.958	1673.25
402.182	1618.25
402.406	1681.25
402.63	1657.25
402.854	1663.25
403.078	1702.25
403.302	1703.25
403.526	1709.25
403.75	1682.25
403.974	1761.25
404.198	1720.25
404.422	1736.25
404.645	1752.25
404.869	1706.25
405.093	1756.25
405.317	1725.25
405.541	1768.25
405.765	1750.25
405.988	1749.25
406.212	1787.25
406.436	1763.25
406.66	1794.25
406.883	1845.25
407.107	1914.25
407.331	1945.25
407.555	2024.25
407.778	1969.25
408.002	1984.25
408.226	1960.25
408.449	1933.25
408.673	1861.25
408.896	1862.25
409.12	1769.25
409.344	1830.25
409.567	1806.25
409.791	1824.25
410.014	1792.25
410.238	1760.25
410.461	1754.25
410.685	1773.25
410.908	1740.25
411.132	1750.25
411.355	1709.25
411.578	1721.25
411.802	1671.25
412.025	1673.25
412.249	1705.25
412.472	1713.25
412.695	1670.25
412.919	1698.25
413.142	1657.25
413.365	1640.25
413.589	1673.25
413.812	1663.25
414.035	1662.25
414.258	1638.25
414.482	1625.25
414.705	1693.25
414.928	1659.25
415.151	1657.25
415.374	1661.25
415.597	1633.25
415.821	1609.25
416.044	1585.25
416.267	1587.25
416.49	1625.25
416.713	1584.25
416.936	1610.25
417.159	1571.25
417.382	1601.25
417.605	1555.25
417.828	1587.25
418.051	1611.25
418.274	1587.25
418.497	1604.25
418.72	1669.25
418.943	1651.25
419.166	1765.25
419.389	1827.25
419.611	1838.25
419.834	1717.25
420.057	1691.25
420.28	1647.25
420.503	1602.25
420.726	1645.25
420.948	1595.25
421.171	1645.25
421.394	1643.25
421.617	1608.25
421.839	1604.25
422.062	1608.25
422.285	1619.25
422.507	1640.25
422.73	1597.25
422.953	1605.25
423.175	1646.25
423.398	1654.25
423.621	1608.25
423.843	1622.25
424.066	1649.25
424.288	1653.25
424.511	1647.25
424.733	1621.25
424.956	1611.25
425.178	1587.25
425.401	1600.25
425.623	1645.25
425.846	1610.25
426.068	1558.25
426.291	1559.25
426.513	1544.25
426.735	1547.25
426.958	1585.25
427.18	1541.25
427.402	1574.25
427.625	1532.25
427.847	1497.25
428.069	1497.25
428.292	1525.25
428.514	1492.25
428.736	1488.25
428.958	1479.25
429.181	1486.25
429.403	1480.25
429.625	1485.25
429.847	1464.25
430.069	1481.25
430.292	1492.25
430.514	1465.25
430.736	1490.25
430.958	1514.25
431.18	1491.25
431.402	1497.25
431.624	1495.25
431.846	1503.25
432.068	1504.25
432.29	1528.25
432.512	1482.25
432.734	1488.25
432.956	1516.25
433.178	1533.25
433.4	1503.25
433.622	1560.25
433.844	1553.25
434.066	1580.25
434.287	1552.25
434.509	1585.25
434.731	1593.25
434.953	1627.25
435.175	1637.25
435.397	1637.25
435.618	1566.25
435.84	1546.25
436.062	1524.25
436.284	1517.25
436.505	1516.25
436.727	1515.25
436.949	1489.25
437.17	1474.25
437.392	1500.25
437.614	1467.25
437.835	1441.25
438.057	1458.25
438.278	1466.25
438.5	1475.25
438.721	1449.25
438.943	1448.25
439.165	1461.25
439.386	1470.25
439.608	1480.25
439.829	1490.25
440.05	1531.25
440.272	1524.25
440.493	1499.25
440.715	1545.25
440.936	1541.25
441.158	1578.25
441.379	1593.25
441.6	1647.25
441.822	1616.25
442.043	1609.25
442.264	1621.25
442.486	1595.25
442.707	1610.25
442.928	1624.25
443.149	1657.25
443.371	1615.25
443.592	1671.25
443.813	1640.25
444.034	1684.25
444.255	1710.25
444.476	1746.25
444.698	1822.25
444.919	1805.25
445.14	1883.25
445.361	1793.25
445.582	1707.25
445.803	1654.25
446.024	1634.25
446.245	1613.25
446.466	1577.25
446.687	1507.25
446.908	1544.25
447.129	1493.25
447.35	1470.25
447.571	1440.25
447.792	1451.25
448.013	1417.25
448.234	1460.25
448.455	1416.25
448.675	1412.25
448.896	1412.25
449.117	1387.25
449.338	1386.25
449.559	1325.25
449.779	1379.25
450	1378.25
450.221	1409.25
450.442	1407.25
450.662	1388.25
450.883	1397.25
451.104	1391.25
451.324	1403.25
451.545	1419.25
451.766	1363.25
451.986	1385.25
452.207	1381.25
452.428	1359.25
452.648	1331.25
452.869	1321.25
453.089	1344.25
453.31	1366.25
453.53	1337.25
453.751	1296.25
453.971	1311.25
454.192	1345.25
454.412	1305.25
454.633	1337.25
454.853	1307.25
455.073	1301.25
455.294	1312.25
455.514	1297.25
455.734	1315.25
455.955	1289.25
456.175	1303.25
456.395	1297.25
456.616	1306.25
456.836	1301.25
457.056	1296.25
457.276	1319.25
457.497	1303.25
457.717	1320.25
457.937	1369.25
458.157	1333.25
458.377	1393.25
458.598	1386.25
458.818	1367.25
459.038	1416.25
459.258	1479.25
459.478	1491.25
459.698	1560.25
459.918	1585.25
460.138	1599.25
460.358	1655.25
460.578	1720.25
460.798	1724.25
461.018	1741.25
461.238	1689.25
461.458	1746.25
461.678	1725.25
461.898	1731.25
462.118	1758.25
462.338	1867.25
462.558	1890.25
462.777	1925.25
462.997	2027.25
463.217	2073.25
463.437	2127.25
463.657	2042.25
463.876	1978.25
464.096	1940.25
464.316	1911.25
464.536	1916.25
464.755	1878.25
464.975	1861.25
465.195	1753.25
465.414	1694.25
465.634	1603.25
465.854	1591.25
466.073	1542.25
466.293	1500.25
466.512	1506.25
466.732	1497.25
466.951	1445.25
467.171	1432.25
467.391	1471.25
467.61	1442.25
467.829	1442.25
468.049	1421.25
468.268	1388.25
468.488	1381.25
468.707	1376.25
468.927	1431.25
469.146	1354.25
469.365	1439.25
469.585	1427.25
469.804	1427.25
470.023	1430.25
470.243	1451.25
470.462	1452.25
470.681	1438.25
470.901	1491.25
471.12	1471.25
471.339	1452.25
471.558	1441.25
471.777	1455.25
471.997	1437.25
472.216	1437.25
472.435	1399.25
472.654	1406.25
472.873	1377.25
473.092	1401.25
473.311	1378.25
473.53	1372.25
473.749	1385.25
473.968	1400.25
474.187	1382.25
474.406	1377.25
474.625	1363.25
474.844	1380.25
475.063	1367.25
475.282	1424.25
475.501	1387.25
475.72	1430.25
475.939	1407.25
476.158	1416.25
476.377	1465.25
476.596	1443.25
476.814	1428.25
477.033	1462.25
477.252	1493.25
477.471	1547.25
477.69	1569.25
477.908	1532.25
478.127	1601.25
478.346	1633.25
478.564	1610.25
478.783	1587.25
479.002	1723.25
479.22	1719.25
479.439	1723.25
479.658	1709.25
479.876	1694.25
480.095	1700.25
480.313	1749.25
480.532	1752.25
480.751	1733.25
480.969	1707.25
481.188	1686.25
481.406	1637.25
481.624	1642.25
481.843	1630.25
482.061	1613.25
482.28	1586.25
482.498	1605.25
482.717	1561.25
482.935	1551.25
483.153	1591.25
483.372	1596.25
483.59	1628.25
483.808	1592.25
484.027	1550.25
484.245	1588.25
484.463	1615.25
484.681	1634.25
484.9	1643.25
485.118	1643.25
485.336	1619.25
485.554	1605.25
485.772	1646.25
485.99	1628.25
486.209	1631.25
486.427	1616.25
486.645	1619.25
486.863	1661.25
487.081	1629.25
487.299	1632.25
487.517	1613.25
487.735	1647.25
487.953	1687.25
488.171	1649.25
488.389	1649.25
488.607	1646.25
488.825	1633.25
489.043	1650.25
489.261	1602.25
489.479	1648.25
489.696	1653.25
489.914	1642.25
490.132	1639.25
490.35	1657.25
490.568	1649.25
490.786	1700.25
491.003	1669.25
491.221	1672.25
491.439	1694.25
491.657	1691.25
491.874	1700.25
492.092	1743.25
492.31	1737.25
492.527	1743.25
492.745	1758.25
492.963	1774.25
493.18	1737.25
493.398	1701.25
493.615	1712.25
493.833	1748.25
494.05	1766.25
494.268	1804.25
494.485	1767.25
494.703	1775.25
494.92	1773.25
495.138	1806.25
495.355	1805.25
495.573	1782.25
495.79	1869.25
496.008	1823.25
496.225	1889.25
496.442	1874.25
496.66	1892.25
496.877	1921.25
497.094	1989.25
497.312	1970.25
497.529	2028.25
497.746	2091.25
497.963	2179.25
498.181	2273.25
498.398	2327.25
498.615	2457.25
498.832	2569.25
499.049	2686.25
499.267	2899.25
499.484	3023.25
499.701	3310.25
499.918	3503.25
500.135	3781.25
500.352	4034.25
500.569	4205.25
500.786	4091.25
501.003	3952.25
501.22	3833.25
501.437	3497.25
501.654	3217.25
501.871	3009.25
502.088	2853.25
502.305	2730.25
502.522	2573.25
502.739	2453.25
502.956	2403.25
503.172	2237.25
503.389	2209.25
503.606	2159.25
503.823	2141.25
504.04	2089.25
504.256	2027.25
504.473	2061.25
504.69	2039.25
504.907	2000.25
505.123	1915.25
505.34	1871.25
505.557	1825.25
505.773	1755.25
505.99	1731.25
506.207	1678.25
506.423	1651.25
506.64	1637.25
506.856	1637.25
507.073	1634.25
507.289	1626.25
507.506	1584.25
507.722	1576.25
507.939	1561.25
508.155	1529.25
508.372	1534.25
508.588	1510.25
508.805	1529.25
509.021	1498.25
509.238	1497.25
509.454	1429.25
509.67	1484.25
509.887	1446.25
510.103	1448.25
510.319	1426.25
510.536	1418.25
510.752	1438.25
510.968	1463.25
511.184	1415.25
511.401	1425.25
511.617	1424.25
511.833	1447.25
512.049	1449.25
512.265	1430.25
512.481	1424.25
512.698	1418.25
512.914	1427.25
513.13	1449.25
513.346	1399.25
513.562	1420.25
513.778	1409.25
513.994	1414.25
514.21	1464.25
514.426	1441.25
514.642	1456.25
514.858	1472.25
515.074	1472.25
515.29	1499.25
515.506	1456.25
515.721	1498.25
515.937	1517.25
516.153	1563.25
516.369	1595.25
516.585	1657.25
516.801	1666.25
517.016	1722.25
517.232	1757.25
517.448	1769.25
517.664	1800.25
517.879	1832.25
518.095	1818.25
518.311	1768.25
518.527	1719.25
518.742	1697.25
518.958	1624.25
519.173	1606.25
519.389	1633.25
519.605	1593.25
519.82	1524.25
520.036	1489.25
520.251	1455.25
520.467	1471.25
520.682	1422.25
520.898	1424.25
521.113	1414.25
521.329	1406.25
521.544	1384.25
521.76	1374.25
521.975	1393.25
522.19	1327.25
522.406	1362.25
522.621	1354.25
522.836	1310.25
523.052	1357.25
523.267	1297.25
523.482	1329.25
523.698	1314.25
523.913	1305.25
524.128	1304.25
524.343	1344.25
524.559	1309.25
524.774	1308.25
524.989	1270.25
525.204	1291.25
525.419	1303.25
525.634	1272.25
525.849	1292.25
526.064	1299.25
526.28	1310.25
526.495	1279.25
526.71	1235.25
526.925	1284.25
527.14	1249.25
527.355	1240.25
527.57	1260.25
527.785	1256.25
527.999	1258.25
528.214	1275.25
528.429	1272.25
528.644	1263.25
528.859	1286.25
529.074	1240.25
529.289	1295.25
529.503	1285.25
529.718	1280.25
529.933	1242.25
530.148	1266.25
530.363	1277.25
530.577	1234.25
530.792	1234.25
531.007	1245.25
531.221	1254.25
531.436	1275.25
531.651	1249.25
531.865	1284.25
532.08	1221.25
532.295	1245.25
532.509	1225.25
532.724	1225.25
532.938	1224.25
533.153	1245.25
533.367	1247.25
533.582	1223.25
533.796	1219.25
534.011	1226.25
534.225	1238.25
534.44	1215.25
534.654	1217.25
534.868	1218.25
535.083	1227.25
535.297	1226.25
535.511	1187.25
535.726	1176.25
535.94	1184.25
536.154	1180.25
536.369	1157.25
536.583	1163.25
536.797	1151.25
537.011	1167.25
537.225	1169.25
537.44	1146.25
537.654	1187.25
537.868	1169.25
538.082	1135.25
538.296	1161.25
538.51	1154.25
538.724	1143.25
538.938	1133.25
539.153	1129.25
539.367	1129.25
539.581	1113.25
539.795	1121.25
540.009	1106.25
540.222	1114.25
540.436	1122.25
540.65	1111.25
540.864	1131.25
541.078	1157.25
541.292	1134.25
541.506	1119.25
541.72	1104.25
541.934	1141.25
542.147	1159.25
542.361	1138.25
542.575	1128.25
542.789	1137.25
543.002	1111.25
543.216	1077.25
543.43	1094.25
543.644	1088.25
543.857	1131.25
544.071	1113.25
544.285	1154.25
544.498	1121.25
544.712	1120.25
544.925	1160.25
545.139	1112.25
545.352	1146.25
545.566	1145.25
545.779	1145.25
545.993	1148.25
546.206	1161.25
546.42	1142.25
546.633	1124.25
546.847	1153.25
547.06	1125.25
547.274	1155.25
547.487	1160.25
547.7	1161.25
547.914	1166.25
548.127	1165.25
548.34	1191.25
548.554	1181.25
548.767	1147.25
548.98	1165.25
549.193	1149.25
549.407	1166.25
549.62	1171.25
549.833	1166.25
550.046	1176.25
550.259	1145.25
550.473	1153.25
550.686	1157.25
550.899	1162.25
551.112	1138.25
551.325	1121.25
551.538	1145.25
551.751	1144.25
551.964	1151.25
552.177	1137.25
552.39	1157.25
552.603	1155.25
552.816	1202.25
553.029	1222.25
553.242	1177.25
553.455	1222.25
553.667	1204.25
553.88	1215.25
554.093	1175.25
554.306	1154.25
554.519	1153.25
554.732	1142.25
554.944	1078.25
555.157	1063.25
555.37	1084.25
555.583	1083.25
555.795	1030.25
556.008	1053.25
556.221	1058.25
556.433	1017.25
556.646	1009.25
556.859	1011.25
557.071	988.25
557.284	993.25
557.496	1000.25
557.709	976.25
557.921	982.25
558.134	974.25
558.346	964.25
558.559	990.25
558.771	979.25
558.984	951.25
559.196	993.25
559.409	957.25
559.621	974.25
559.833	983.25
560.046	935.25
560.258	930.25
560.47	950.25
560.683	944.25
560.895	958.25
561.107	928.25
561.32	935.25
561.532	968.25
561.744	967.25
561.956	950.25
562.168	975.25
562.381	955.25
562.593	936.25
562.805	963.25
563.017	936.25
563.229	957.25
563.441	976.25
563.653	947.25
563.865	981.25
564.077	990.25
564.289	982.25
564.501	1024.25
564.713	1002.25
564.925	1046.25
565.137	1058.25
565.349	1068.25
565.561	1134.25
565.773	1135.25
565.985	1166.25
566.197	1188.25
566.408	1258.25
566.62	1325.25
566.832	1367.25
567.044	1381.25
567.255	1369.25
567.467	1429.25
567.679	1480.25
567.891	1535.25
568.102	1489.25
568.314	1403.25
568.526	1369.25
568.737	1288.25
568.949	1198.25
569.161	1161.25
569.372	1104.25
569.584	1046.25
569.795	1037.25
570.007	1014.25
570.218	1016.25
570.43	967.25
570.641	968.25
570.853	973.25
571.064	936.25
571.276	931.25
571.487	908.25
571.698	881.25
571.91	886.25
572.121	853.25
572.333	858.25
572.544	861.25
572.755	829.25
572.966	811.25
573.178	793.25
573.389	803.25
573.6	773.25
573.811	778.25
574.023	784.25
574.234	777.25
574.445	757.25
574.656	749.25
574.867	751.25
575.078	759.25
575.289	748.25
575.501	730.25
575.712	744.25
575.923	728.25
576.134	740.25
576.345	730.25
576.556	740.25
576.767	710.25
576.978	707.25
577.188	683.25
577.399	701.25
577.61	675.25
577.821	711.25
578.032	715.25
578.243	682.25
578.454	720.25
578.665	691.25
578.875	674.25
579.086	682.25
579.297	673.25
579.508	666.25
579.718	658.25
579.929	635.25
580.14	659.25
580.35	635.25
580.561	634.25
580.772	652.25
580.982	655.25
581.193	639.25
581.403	632.25
581.614	644.25
581.825	655.25
582.035	628.25
582.246	639.25
582.456	630.25
582.667	629.25
582.877	625.25
583.087	635.25
583.298	625.25
583.508	620.25
583.719	638.25
583.929	633.25
584.139	624.25
584.35	602.25
584.56	610.25
584.77	617.25
584.981	601.25
585.191	599.25
585.401	621.25
585.611	605.25
585.821	615.25
586.032	616.25
586.242	587.25
586.452	627.25
586.662	629.25
586.872	596.25
587.082	601.25
587.292	621.25
587.502	602.25
587.713	610.25
587.923	616.25
588.133	599.25
588.343	610.25
588.553	602.25
588.762	591.25
588.972	619.25
589.182	632.25
589.392	642.25
589.602	626.25
589.812	618.25
590.022	620.25
590.232	594.25
590.441	626.25
590.651	624.25
590.861	605.25
591.071	631.25
591.281	636.25
591.49	625.25
591.7	635.25
591.91	645.25
592.119	645.25
592.329	664.25
592.539	670.25
592.748	663.25
592.958	674.25
593.167	695.25
593.377	686.25
593.587	707.25
593.796	701.25
594.006	686.25
594.215	679.25
594.424	686.25
594.634	686.25
594.843	676.25
595.053	640.25
595.262	655.25
595.472	617.25
595.681	617.25
595.89	610.25
596.1	599.25
596.309	598.25
596.518	580.25
596.727	587.25
596.937	573.25
597.146	568.25
597.355	555.25
597.564	531.25
597.774	523.25
597.983	526.25
598.192	559.25
598.401	521.25
598.61	524.25
598.819	542.25
599.028	523.25
599.237	508.25
599.446	492.25
599.655	482.25
599.864	498.25
600.073	497.25
600.282	510.25
600.491	495.25
600.7	490.25
600.909	493.25
601.118	498.25
601.327	488.25
601.536	476.25
601.745	477.25
601.953	480.25
602.162	478.25
602.371	476.25
602.58	498.25
602.789	477.25
602.997	483.25
603.206	480.25
603.415	468.25
603.623	461.25
603.832	485.25
604.041	473.25
604.249	447.25
604.458	466.25
604.666	455.25
604.875	438.25
605.084	454.25
605.292	435.25
605.501	453.25
605.709	474.25
605.918	462.25
606.126	482.25
606.334	455.25
606.543	438.25
606.751	443.25
606.96	448.25
607.168	461.25
607.376	451.25
607.585	450.25
607.793	441.25
608.001	443.25
608.21	440.25
608.418	448.25
608.626	446.25
608.834	446.25
609.043	453.25
609.251	431.25
609.459	423.25
609.667	438.25
609.875	429.25
610.083	426.25
610.291	434.25
610.499	437.25
610.707	426.25
610.916	399.25
611.124	398.25
611.332	416.25
611.54	429.25
611.748	424.25
611.955	420.25
612.163	427.25
612.371	410.25
612.579	407.25
612.787	412.25
612.995	411.25
613.203	425.25
613.411	417.25
613.618	407.25
613.826	405.25
614.034	415.25
614.242	438.25
614.449	397.25
614.657	382.25
614.865	409.25
615.072	431.25
615.28	415.25
615.488	417.25
615.695	409.25
615.903	418.25
616.111	415.25
616.318	415.25
616.526	403.25
616.733	421.25
616.941	393.25
617.148	401.25
617.356	408.25
617.563	425.25
617.771	393.25
617.978	393.25
618.185	406.25
618.393	398.25
618.6	417.25
618.807	405.25
619.015	414.25
619.222	385.25
619.429	401.25
619.637	391.25
619.844	395.25
620.051	387.25
620.258	390.25
620.466	385.25
620.673	367.25
620.88	377.25
621.087	395.25
621.294	410.25
621.501	373.25
621.708	384.25
621.915	379.25
622.122	358.25
622.329	379.25
622.536	383.25
622.743	380.25
622.95	353.25
623.157	371.25
623.364	360.25
623.571	370.25
623.778	370.25
623.985	386.25
624.192	367.25
624.399	354.25
624.606	365.25
624.812	351.25
625.019	366.25
625.226	374.25
625.433	374.25
625.639	364.25
625.846	379.25
626.053	349.25
626.259	345.25
626.466	342.25
626.673	353.25
626.879	336.25
627.086	353.25
627.293	349.25
627.499	352.25
627.706	349.25
627.912	354.25
628.119	347.25
628.325	350.25
628.532	351.25
628.738	332.25
628.945	321.25
629.151	336.25
629.357	333.25
629.564	327.25
629.77	320.25
629.976	325.25
630.183	326.25
630.389	316.25
630.595	312.25
630.802	306.25
631.008	335.25
631.214	315.25
631.42	331.25
631.627	316.25
631.833	303.25
632.039	313.25
632.245	295.25
632.451	309.25
632.657	327.25
632.863	312.25
633.069	303.25
633.275	313.25
633.481	300.25
633.688	310.25
633.893	303.25
634.099	305.25
634.305	299.25
634.511	322.25
634.717	311.25
634.923	296.25
635.129	302.25
635.335	304.25
635.541	303.25
635.747	296.25
635.952	296.25
636.158	303.25
636.364	284.25
636.57	293.25
636.775	294.25
636.981	283.25
637.187	297.25
637.392	282.25
637.598	275.25
637.804	287.25
638.009	310.25
638.215	288.25
638.421	288.25
638.626	288.25
638.832	264.25
639.037	279.25
639.243	305.25
639.448	277.25
639.654	293.25
639.859	264.25
640.065	273.25
640.27	277.25
640.475	274.25
640.681	288.25
640.886	264.25
641.091	278.25
641.297	265.25
641.502	243.25
641.707	242.25
641.913	272.25
642.118	258.25
642.323	240.25
642.528	277.25
642.733	267.25
642.939	263.25
643.144	262.25
643.349	253.25
643.554	263.25
643.759	258.25
643.964	251.25
644.169	268.25
644.374	263.25
644.579	295.25
644.784	274.25
644.989	277.25
645.194	249.25
645.399	280.25
645.604	283.25
645.809	272.25
646.014	253.25
646.219	270.25
646.423	239.25
646.628	251.25
646.833	273.25
647.038	259.25
647.243	265.25
647.447	248.25
647.652	270.25
647.857	269.25
648.062	256.25
648.266	258.25
648.471	277.25
648.676	273.25
648.88	271.25
649.085	273.25
649.289	268.25
649.494	240.25
649.698	241.25
649.903	242.25
650.107	254.25
650.312	255.25
650.516	249.25
650.721	252.25
650.925	230.25
651.13	241.25
651.334	232.25
651.539	217.25
651.743	241.25
651.947	237.25
652.152	220.25
652.356	221.25
652.56	205.25
652.764	210.25
652.969	226.25
653.173	209.25
653.377	198.25
653.581	207.25
653.785	209.25
653.99	174.25
654.194	209.25
654.398	190.25
654.602	192.25
654.806	208.25
655.01	185.25
655.214	172.25
655.418	185.25
655.622	198.25
655.826	194.25
656.03	211.25
656.234	174.25
656.438	170.25
656.642	171.25
656.846	163.25
657.049	165.25
657.253	171.25
657.457	159.25
657.661	149.25
657.865	155.25
658.068	147.25
658.272	141.25
658.476	151.25
658.68	139.25
658.883	144.25
659.087	127.25
659.291	137.25
659.494	128.25
659.698	119.25
659.901	126.25
660.105	120.25
660.309	119.25
660.512	130.25
660.716	130.25
660.919	115.25
661.123	114.25
661.326	123.25
661.53	107.25
661.733	105.25
661.936	106.25
662.14	90.25
662.343	93.25
662.546	90.25
662.75	107.25
662.953	89.25
663.156	87.25
663.36	91.25
663.563	89.25
663.766	83.25
663.969	88.25
664.173	104.25
664.376	97.25
664.579	93.25
664.782	89.25
664.985	84.25
665.188	82.25
665.391	102.25
665.594	73.25
665.797	78.25
666	96.25
666.203	83.25
666.406	90.25
666.609	87.25
666.812	89.25
667.015	92.25
667.218	88.25
667.421	67.25
667.624	82.25
667.827	96.25
668.03	82.25
668.232	77.25
668.435	87.25
668.638	84.25
668.841	93.25
669.043	100.25
669.246	92.25
669.449	94.25
669.651	99.25
669.854	72.25
670.057	99.25
670.259	91.25
670.462	94.25
670.665	89.25
670.867	89.25
671.07	82.25
671.272	97.25
671.475	94.25
671.677	100.25
671.88	85.25
672.082	83.25
672.284	94.25
672.487	82.25
672.689	87.25
672.892	83.25
