Data from Ni(NO3)2@0.0625M.TitratingCurve.Agarose3%dH2O.NegLispCup.LampEnergy10.LIBS07252019_HRD10591_18-13-50-569.txt Node
Date: Thu Jul 25 18:13:50 EDT 2019
User: cochatt
Spectrometer: HR+D1059
Trigger mode: 1
Integration Time (sec): 1.000000E-1
Scans to average: 1
Electric dark correction enabled: true
Nonlinearity correction enabled: false
Boxcar width: 0
XAxis mode: Wavelengths
Number of Pixels in Spectrum: 2048
>>>>>Begin Spectral Data<<<<<
223.165	-19.88
223.4	-19.88
223.635	-19.88
223.869	-22.88
224.104	-19.88
224.338	-17.88
224.573	-13.88
224.808	-9.88
225.042	-6.88
225.277	-8.88
225.511	10.12
225.746	14.12
225.98	6.12
226.215	-1.88
226.449	17.12
226.683	16.12
226.918	31.12
227.152	27.12
227.387	36.12
227.621	55.12
227.856	46.12
228.09	55.12
228.324	56.12
228.559	56.12
228.793	73.12
229.027	113.12
229.262	110.12
229.496	113.12
229.73	114.12
229.964	143.12
230.199	139.12
230.433	137.12
230.667	142.12
230.901	132.12
231.136	144.12
231.37	151.12
231.604	147.12
231.838	155.12
232.072	154.12
232.306	159.12
232.541	174.12
232.775	161.12
233.009	143.12
233.243	169.12
233.477	156.12
233.711	165.12
233.945	159.12
234.179	144.12
234.413	147.12
234.647	159.12
234.881	171.12
235.115	163.12
235.349	149.12
235.583	161.12
235.817	159.12
236.051	167.12
236.285	168.12
236.519	156.12
236.753	172.12
236.987	180.12
237.221	175.12
237.455	187.12
237.689	176.12
237.922	187.12
238.156	155.12
238.39	164.12
238.624	191.12
238.858	195.12
239.091	206.12
239.325	191.12
239.559	191.12
239.793	175.12
240.027	210.12
240.26	204.12
240.494	200.12
240.728	203.12
240.961	181.12
241.195	207.12
241.429	189.12
241.662	195.12
241.896	186.12
242.13	198.12
242.363	194.12
242.597	220.12
242.83	227.12
243.064	212.12
243.298	216.12
243.531	217.12
243.765	210.12
243.998	205.12
244.232	213.12
244.465	227.12
244.699	225.12
244.932	228.12
245.166	246.12
245.399	242.12
245.633	236.12
245.866	237.12
246.099	222.12
246.333	248.12
246.566	220.12
246.8	245.12
247.033	243.12
247.266	243.12
247.5	248.12
247.733	260.12
247.966	246.12
248.2	255.12
248.433	252.12
248.666	275.12
248.899	251.12
249.133	262.12
249.366	258.12
249.599	262.12
249.832	264.12
250.066	258.12
250.299	263.12
250.532	278.12
250.765	257.12
250.998	269.12
251.231	291.12
251.465	291.12
251.698	296.12
251.931	283.12
252.164	284.12
252.397	288.12
252.63	312.12
252.863	297.12
253.096	301.12
253.329	309.12
253.562	301.12
253.795	302.12
254.028	304.12
254.261	319.12
254.494	289.12
254.727	298.12
254.96	305.12
255.193	301.12
255.426	308.12
255.659	311.12
255.892	311.12
256.124	320.12
256.357	318.12
256.59	335.12
256.823	317.12
257.056	308.12
257.289	317.12
257.521	340.12
257.754	340.12
257.987	311.12
258.22	315.12
258.452	325.12
258.685	314.12
258.918	321.12
259.151	331.12
259.383	333.12
259.616	341.12
259.849	329.12
260.081	347.12
260.314	336.12
260.547	334.12
260.779	343.12
261.012	343.12
261.244	336.12
261.477	352.12
261.71	349.12
261.942	374.12
262.175	355.12
262.407	355.12
262.64	345.12
262.872	362.12
263.105	367.12
263.337	354.12
263.57	378.12
263.802	372.12
264.035	350.12
264.267	357.12
264.499	375.12
264.732	385.12
264.964	360.12
265.197	378.12
265.429	359.12
265.661	377.12
265.894	399.12
266.126	380.12
266.358	387.12
266.591	367.12
266.823	371.12
267.055	371.12
267.287	400.12
267.52	378.12
267.752	379.12
267.984	381.12
268.216	385.12
268.448	412.12
268.681	406.12
268.913	391.12
269.145	392.12
269.377	419.12
269.609	409.12
269.841	405.12
270.073	387.12
270.306	396.12
270.538	419.12
270.77	415.12
271.002	397.12
271.234	407.12
271.466	415.12
271.698	416.12
271.93	403.12
272.162	391.12
272.394	436.12
272.626	406.12
272.858	428.12
273.09	432.12
273.322	423.12
273.553	410.12
273.785	424.12
274.017	427.12
274.249	420.12
274.481	435.12
274.713	437.12
274.945	446.12
275.176	430.12
275.408	448.12
275.64	452.12
275.872	442.12
276.104	429.12
276.335	461.12
276.567	453.12
276.799	467.12
277.031	473.12
277.262	448.12
277.494	493.12
277.726	470.12
277.957	457.12
278.189	466.12
278.421	471.12
278.652	488.12
278.884	457.12
279.115	481.12
279.347	493.12
279.579	474.12
279.81	478.12
280.042	489.12
280.273	496.12
280.505	490.12
280.736	490.12
280.968	508.12
281.199	503.12
281.431	509.12
281.662	476.12
281.894	492.12
282.125	488.12
282.356	522.12
282.588	504.12
282.819	506.12
283.051	506.12
283.282	505.12
283.513	534.12
283.745	510.12
283.976	539.12
284.207	504.12
284.439	528.12
284.67	504.12
284.901	532.12
285.132	522.12
285.364	551.12
285.595	543.12
285.826	522.12
286.057	549.12
286.288	527.12
286.52	529.12
286.751	528.12
286.982	549.12
287.213	537.12
287.444	546.12
287.675	523.12
287.906	535.12
288.138	575.12
288.369	535.12
288.6	538.12
288.831	543.12
289.062	557.12
289.293	567.12
289.524	559.12
289.755	556.12
289.986	565.12
290.217	557.12
290.448	551.12
290.679	540.12
290.91	563.12
291.141	567.12
291.371	571.12
291.602	591.12
291.833	574.12
292.064	565.12
292.295	558.12
292.526	565.12
292.757	556.12
292.987	548.12
293.218	563.12
293.449	580.12
293.68	583.12
293.91	562.12
294.141	557.12
294.372	565.12
294.603	587.12
294.833	585.12
295.064	603.12
295.295	579.12
295.525	575.12
295.756	583.12
295.987	587.12
296.217	595.12
296.448	571.12
296.679	598.12
296.909	588.12
297.14	594.12
297.37	588.12
297.601	637.12
297.831	635.12
298.062	613.12
298.292	645.12
298.523	638.12
298.753	658.12
298.984	638.12
299.214	631.12
299.445	620.12
299.675	608.12
299.905	616.12
300.136	604.12
300.366	623.12
300.597	641.12
300.827	626.12
301.057	648.12
301.288	645.12
301.518	636.12
301.748	641.12
301.979	658.12
302.209	665.12
302.439	644.12
302.669	632.12
302.9	653.12
303.13	632.12
303.36	629.12
303.59	604.12
303.82	625.12
304.051	622.12
304.281	641.12
304.511	610.12
304.741	663.12
304.971	635.12
305.201	637.12
305.431	650.12
305.661	657.12
305.891	620.12
306.121	600.12
306.352	633.12
306.582	631.12
306.812	614.12
307.042	627.12
307.272	609.12
307.502	614.12
307.731	616.12
307.961	621.12
308.191	639.12
308.421	611.12
308.651	624.12
308.881	619.12
309.111	618.12
309.341	635.12
309.571	652.12
309.8	637.12
310.03	641.12
310.26	628.12
310.49	632.12
310.72	648.12
310.949	630.12
311.179	647.12
311.409	640.12
311.639	624.12
311.868	650.12
312.098	647.12
312.328	669.12
312.557	640.12
312.787	651.12
313.017	648.12
313.246	658.12
313.476	664.12
313.706	669.12
313.935	692.12
314.165	706.12
314.394	681.12
314.624	647.12
314.853	653.12
315.083	688.12
315.312	681.12
315.542	681.12
315.771	666.12
316.001	670.12
316.23	651.12
316.46	658.12
316.689	663.12
316.919	661.12
317.148	671.12
317.377	656.12
317.607	652.12
317.836	648.12
318.065	663.12
318.295	655.12
318.524	658.12
318.753	643.12
318.983	663.12
319.212	628.12
319.441	685.12
319.67	662.12
319.9	643.12
320.129	638.12
320.358	655.12
320.587	645.12
320.816	675.12
321.046	663.12
321.275	681.12
321.504	692.12
321.733	680.12
321.962	654.12
322.191	667.12
322.42	653.12
322.649	651.12
322.878	688.12
323.108	669.12
323.337	681.12
323.566	663.12
323.795	674.12
324.024	662.12
324.253	696.12
324.482	704.12
324.71	697.12
324.939	685.12
325.168	706.12
325.397	653.12
325.626	719.12
325.855	725.12
326.084	716.12
326.313	723.12
326.542	745.12
326.77	730.12
326.999	718.12
327.228	734.12
327.457	740.12
327.686	730.12
327.914	719.12
328.143	725.12
328.372	735.12
328.6	704.12
328.829	722.12
329.058	708.12
329.287	723.12
329.515	733.12
329.744	758.12
329.972	712.12
330.201	727.12
330.43	731.12
330.658	739.12
330.887	747.12
331.115	748.12
331.344	775.12
331.572	771.12
331.801	797.12
332.03	808.12
332.258	800.12
332.486	850.12
332.715	861.12
332.943	917.12
333.172	976.12
333.4	985.12
333.629	1024.12
333.857	1025.12
334.085	971.12
334.314	934.12
334.542	940.12
334.771	950.12
334.999	936.12
335.227	911.12
335.455	912.12
335.684	918.12
335.912	913.12
336.14	892.12
336.369	857.12
336.597	874.12
336.825	875.12
337.053	854.12
337.281	868.12
337.51	821.12
337.738	816.12
337.966	815.12
338.194	798.12
338.422	791.12
338.65	783.12
338.878	811.12
339.106	770.12
339.334	807.12
339.562	763.12
339.79	758.12
340.018	760.12
340.246	738.12
340.474	770.12
340.702	745.12
340.93	769.12
341.158	752.12
341.386	761.12
341.614	748.12
341.842	753.12
342.07	755.12
342.298	739.12
342.526	759.12
342.754	744.12
342.981	731.12
343.209	773.12
343.437	819.12
343.665	852.12
343.893	956.12
344.12	952.12
344.348	913.12
344.576	859.12
344.804	825.12
345.031	787.12
345.259	798.12
345.487	775.12
345.714	725.12
345.942	742.12
346.17	759.12
346.397	736.12
346.625	752.12
346.853	744.12
347.08	755.12
347.308	724.12
347.535	755.12
347.763	745.12
347.99	759.12
348.218	776.12
348.445	744.12
348.673	726.12
348.9	717.12
349.128	775.12
349.355	738.12
349.583	739.12
349.81	722.12
350.037	723.12
350.265	736.12
350.492	700.12
350.72	692.12
350.947	701.12
351.174	707.12
351.402	715.12
351.629	688.12
351.856	703.12
352.083	686.12
352.311	720.12
352.538	712.12
352.765	696.12
352.992	687.12
353.22	695.12
353.447	680.12
353.674	681.12
353.901	689.12
354.128	694.12
354.355	691.12
354.583	693.12
354.81	725.12
355.037	714.12
355.264	726.12
355.491	709.12
355.718	725.12
355.945	719.12
356.172	718.12
356.399	720.12
356.626	727.12
356.853	717.12
357.08	725.12
357.307	721.12
357.534	707.12
357.761	693.12
357.988	716.12
358.215	730.12
358.441	707.12
358.668	674.12
358.895	693.12
359.122	717.12
359.349	723.12
359.576	708.12
359.802	702.12
360.029	726.12
360.256	721.12
360.483	688.12
360.709	692.12
360.936	715.12
361.163	713.12
361.39	691.12
361.616	699.12
361.843	705.12
362.07	703.12
362.296	721.12
362.523	693.12
362.749	677.12
362.976	714.12
363.203	697.12
363.429	697.12
363.656	699.12
363.882	691.12
364.109	721.12
364.335	710.12
364.562	708.12
364.788	701.12
365.015	704.12
365.241	695.12
365.468	716.12
365.694	694.12
365.92	707.12
366.147	720.12
366.373	704.12
366.599	683.12
366.826	697.12
367.052	682.12
367.278	701.12
367.505	713.12
367.731	716.12
367.957	697.12
368.184	709.12
368.41	709.12
368.636	719.12
368.862	713.12
369.089	709.12
369.315	711.12
369.541	727.12
369.767	761.12
369.993	726.12
370.219	735.12
370.445	737.12
370.672	743.12
370.898	746.12
371.124	758.12
371.35	768.12
371.576	774.12
371.802	760.12
372.028	761.12
372.254	782.12
372.48	794.12
372.706	790.12
372.932	769.12
373.158	795.12
373.384	788.12
373.61	773.12
373.835	753.12
374.061	780.12
374.287	781.12
374.513	812.12
374.739	802.12
374.965	861.12
375.191	888.12
375.416	862.12
375.642	808.12
375.868	811.12
376.094	826.12
376.319	798.12
376.545	815.12
376.771	768.12
376.997	759.12
377.222	771.12
377.448	780.12
377.674	763.12
377.899	773.12
378.125	777.12
378.35	764.12
378.576	746.12
378.802	772.12
379.027	786.12
379.253	747.12
379.478	764.12
379.704	777.12
379.929	777.12
380.155	789.12
380.38	752.12
380.606	757.12
380.831	757.12
381.057	781.12
381.282	750.12
381.507	791.12
381.733	793.12
381.958	780.12
382.184	776.12
382.409	783.12
382.634	813.12
382.86	815.12
383.085	832.12
383.31	823.12
383.535	844.12
383.761	873.12
383.986	887.12
384.211	856.12
384.436	897.12
384.662	963.12
384.887	941.12
385.112	931.12
385.337	947.12
385.562	951.12
385.787	965.12
386.013	967.12
386.238	935.12
386.463	935.12
386.688	932.12
386.913	933.12
387.138	897.12
387.363	927.12
387.588	917.12
387.813	932.12
388.038	921.12
388.263	918.12
388.488	918.12
388.713	935.12
388.938	917.12
389.163	912.12
389.387	915.12
389.612	911.12
389.837	893.12
390.062	885.12
390.287	870.12
390.512	899.12
390.736	926.12
390.961	937.12
391.186	936.12
391.411	984.12
391.636	1008.12
391.86	1033.12
392.085	1043.12
392.31	993.12
392.534	1015.12
392.759	988.12
392.984	995.12
393.208	946.12
393.433	974.12
393.658	1000.12
393.882	976.12
394.107	983.12
394.331	984.12
394.556	981.12
394.78	1010.12
395.005	1011.12
395.229	1031.12
395.454	1023.12
395.678	1057.12
395.903	1038.12
396.127	1024.12
396.352	1007.12
396.576	977.12
396.801	950.12
397.025	986.12
397.249	1011.12
397.474	1006.12
397.698	1031.12
397.922	1003.12
398.147	1004.12
398.371	1073.12
398.595	1080.12
398.82	1145.12
399.044	1218.12
399.268	1345.12
399.492	1610.12
399.717	1823.12
399.941	1829.12
400.165	1584.12
400.389	1406.12
400.613	1303.12
400.837	1232.12
401.062	1227.12
401.286	1198.12
401.51	1133.12
401.734	1135.12
401.958	1158.12
402.182	1181.12
402.406	1170.12
402.63	1203.12
402.854	1258.12
403.078	1256.12
403.302	1312.12
403.526	1318.12
403.75	1390.12
403.974	1371.12
404.198	1385.12
404.422	1359.12
404.645	1361.12
404.869	1365.12
405.093	1331.12
405.317	1298.12
405.541	1262.12
405.765	1267.12
405.988	1258.12
406.212	1293.12
406.436	1262.12
406.66	1309.12
406.883	1296.12
407.107	1400.12
407.331	1478.12
407.555	1548.12
407.778	1501.12
408.002	1444.12
408.226	1456.12
408.449	1402.12
408.673	1340.12
408.896	1331.12
409.12	1289.12
409.344	1312.12
409.567	1287.12
409.791	1354.12
410.014	1356.12
410.238	1354.12
410.461	1311.12
410.685	1300.12
410.908	1313.12
411.132	1262.12
411.355	1237.12
411.578	1208.12
411.802	1186.12
412.025	1227.12
412.249	1229.12
412.472	1204.12
412.695	1161.12
412.919	1159.12
413.142	1165.12
413.365	1165.12
413.589	1169.12
413.812	1157.12
414.035	1151.12
414.258	1153.12
414.482	1172.12
414.705	1174.12
414.928	1190.12
415.151	1154.12
415.374	1156.12
415.597	1158.12
415.821	1142.12
416.044	1137.12
416.267	1112.12
416.49	1121.12
416.713	1180.12
416.936	1159.12
417.159	1135.12
417.382	1144.12
417.605	1165.12
417.828	1157.12
418.051	1151.12
418.274	1165.12
418.497	1143.12
418.72	1201.12
418.943	1155.12
419.166	1261.12
419.389	1341.12
419.611	1300.12
419.834	1246.12
420.057	1190.12
420.28	1180.12
420.503	1127.12
420.726	1118.12
420.948	1116.12
421.171	1124.12
421.394	1157.12
421.617	1145.12
421.839	1171.12
422.062	1153.12
422.285	1149.12
422.507	1186.12
422.73	1180.12
422.953	1189.12
423.175	1236.12
423.398	1252.12
423.621	1231.12
423.843	1261.12
424.066	1231.12
424.288	1197.12
424.511	1233.12
424.733	1219.12
424.956	1207.12
425.178	1182.12
425.401	1180.12
425.623	1164.12
425.846	1120.12
426.068	1109.12
426.291	1105.12
426.513	1097.12
426.735	1052.12
426.958	1084.12
427.18	1022.12
427.402	1061.12
427.625	1047.12
427.847	1004.12
428.069	1010.12
428.292	1026.12
428.514	996.12
428.736	974.12
428.958	996.12
429.181	997.12
429.403	979.12
429.625	981.12
429.847	991.12
430.069	975.12
430.292	1015.12
430.514	958.12
430.736	1007.12
430.958	1015.12
431.18	1004.12
431.402	1005.12
431.624	991.12
431.846	1004.12
432.068	1041.12
432.29	1044.12
432.512	998.12
432.734	1038.12
432.956	1009.12
433.178	1013.12
433.4	1029.12
433.622	1047.12
433.844	1065.12
434.066	1058.12
434.287	1050.12
434.509	1114.12
434.731	1141.12
434.953	1178.12
435.175	1183.12
435.397	1169.12
435.618	1087.12
435.84	1053.12
436.062	1032.12
436.284	1017.12
436.505	1009.12
436.727	1013.12
436.949	1029.12
437.17	1036.12
437.392	1012.12
437.614	1006.12
437.835	973.12
438.057	986.12
438.278	975.12
438.5	972.12
438.721	977.12
438.943	997.12
439.165	984.12
439.386	1004.12
439.608	1049.12
439.829	1033.12
440.05	1023.12
440.272	1016.12
440.493	1028.12
440.715	1060.12
440.936	1066.12
441.158	1078.12
441.379	1059.12
441.6	1133.12
441.822	1159.12
442.043	1144.12
442.264	1147.12
442.486	1120.12
442.707	1133.12
442.928	1140.12
443.149	1143.12
443.371	1132.12
443.592	1161.12
443.813	1144.12
444.034	1166.12
444.255	1214.12
444.476	1270.12
444.698	1354.12
444.919	1436.12
445.14	1438.12
445.361	1321.12
445.582	1187.12
445.803	1127.12
446.024	1079.12
446.245	1065.12
446.466	1036.12
446.687	1049.12
446.908	1037.12
447.129	985.12
447.35	992.12
447.571	978.12
447.792	976.12
448.013	978.12
448.234	972.12
448.455	929.12
448.675	940.12
448.896	931.12
449.117	941.12
449.338	952.12
449.559	912.12
449.779	912.12
450	910.12
450.221	927.12
450.442	928.12
450.662	910.12
450.883	980.12
451.104	977.12
451.324	955.12
451.545	980.12
451.766	976.12
451.986	945.12
452.207	946.12
452.428	939.12
452.648	931.12
452.869	949.12
453.089	909.12
453.31	940.12
453.53	911.12
453.751	914.12
453.971	942.12
454.192	913.12
454.412	898.12
454.633	887.12
454.853	877.12
455.073	907.12
455.294	901.12
455.514	878.12
455.734	910.12
455.955	847.12
456.175	904.12
456.395	877.12
456.616	845.12
456.836	889.12
457.056	868.12
457.276	860.12
457.497	869.12
457.717	883.12
457.937	887.12
458.157	901.12
458.377	896.12
458.598	924.12
458.818	952.12
459.038	951.12
459.258	1015.12
459.478	1041.12
459.698	1070.12
459.918	1100.12
460.138	1151.12
460.358	1240.12
460.578	1216.12
460.798	1219.12
461.018	1230.12
461.238	1217.12
461.458	1203.12
461.678	1215.12
461.898	1182.12
462.118	1246.12
462.338	1292.12
462.558	1353.12
462.777	1375.12
462.997	1484.12
463.217	1687.12
463.437	1717.12
463.657	1571.12
463.876	1422.12
464.096	1469.12
464.316	1436.12
464.536	1455.12
464.755	1415.12
464.975	1342.12
465.195	1294.12
465.414	1193.12
465.634	1115.12
465.854	1083.12
466.073	1057.12
466.293	1031.12
466.512	1038.12
466.732	1047.12
466.951	995.12
467.171	1006.12
467.391	1017.12
467.61	1007.12
467.829	971.12
468.049	976.12
468.268	943.12
468.488	943.12
468.707	960.12
468.927	949.12
469.146	963.12
469.365	945.12
469.585	949.12
469.804	982.12
470.023	1008.12
470.243	1018.12
470.462	1020.12
470.681	1015.12
470.901	1015.12
471.12	1031.12
471.339	1000.12
471.558	961.12
471.777	972.12
471.997	958.12
472.216	943.12
472.435	928.12
472.654	931.12
472.873	919.12
473.092	900.12
473.311	906.12
473.53	919.12
473.749	928.12
473.968	932.12
474.187	892.12
474.406	934.12
474.625	951.12
474.844	923.12
475.063	947.12
475.282	936.12
475.501	910.12
475.72	953.12
475.939	945.12
476.158	923.12
476.377	947.12
476.596	952.12
476.814	977.12
477.033	950.12
477.252	987.12
477.471	1032.12
477.69	1042.12
477.908	1062.12
478.127	1067.12
478.346	1126.12
478.564	1132.12
478.783	1104.12
479.002	1163.12
479.22	1199.12
479.439	1134.12
479.658	1133.12
479.876	1141.12
480.095	1157.12
480.313	1238.12
480.532	1271.12
480.751	1276.12
480.969	1184.12
481.188	1151.12
481.406	1117.12
481.624	1077.12
481.843	1094.12
482.061	1071.12
482.28	1054.12
482.498	1031.12
482.717	1032.12
482.935	1031.12
483.153	1056.12
483.372	1025.12
483.59	1080.12
483.808	1053.12
484.027	1069.12
484.245	1068.12
484.463	1062.12
484.681	1075.12
484.9	1077.12
485.118	1098.12
485.336	1101.12
485.554	1124.12
485.772	1137.12
485.99	1109.12
486.209	1144.12
486.427	1116.12
486.645	1121.12
486.863	1125.12
487.081	1115.12
487.299	1117.12
487.517	1134.12
487.735	1099.12
487.953	1104.12
488.171	1107.12
488.389	1099.12
488.607	1086.12
488.825	1069.12
489.043	1088.12
489.261	1077.12
489.479	1104.12
489.696	1081.12
489.914	1063.12
490.132	1116.12
490.35	1117.12
490.568	1115.12
490.786	1145.12
491.003	1149.12
491.221	1125.12
491.439	1115.12
491.657	1098.12
491.874	1113.12
492.092	1101.12
492.31	1126.12
492.527	1128.12
492.745	1143.12
492.963	1130.12
493.18	1130.12
493.398	1136.12
493.615	1158.12
493.833	1185.12
494.05	1171.12
494.268	1155.12
494.485	1160.12
494.703	1180.12
494.92	1160.12
495.138	1139.12
495.355	1163.12
495.573	1167.12
495.79	1188.12
496.008	1190.12
496.225	1167.12
496.442	1203.12
496.66	1255.12
496.877	1217.12
497.094	1245.12
497.312	1258.12
497.529	1261.12
497.746	1280.12
497.963	1330.12
498.181	1405.12
498.398	1446.12
498.615	1545.12
498.832	1627.12
499.049	1794.12
499.267	1952.12
499.484	2119.12
499.701	2358.12
499.918	2628.12
500.135	3056.12
500.352	3639.12
500.569	3815.12
500.786	3735.12
501.003	3439.12
501.22	3045.12
501.437	2719.12
501.654	2319.12
501.871	2097.12
502.088	1911.12
502.305	1766.12
502.522	1666.12
502.739	1632.12
502.956	1551.12
503.172	1475.12
503.389	1399.12
503.606	1333.12
503.823	1349.12
504.04	1363.12
504.256	1326.12
504.473	1409.12
504.69	1465.12
504.907	1426.12
505.123	1345.12
505.34	1267.12
505.557	1193.12
505.773	1159.12
505.99	1115.12
506.207	1109.12
506.423	1084.12
506.64	1066.12
506.856	1054.12
507.073	1089.12
507.289	1041.12
507.506	1050.12
507.722	1022.12
507.939	1031.12
508.155	1031.12
508.372	985.12
508.588	988.12
508.805	969.12
509.021	1015.12
509.238	994.12
509.454	968.12
509.67	969.12
509.887	961.12
510.103	969.12
510.319	955.12
510.536	948.12
510.752	925.12
510.968	939.12
511.184	929.12
511.401	935.12
511.617	949.12
511.833	964.12
512.049	960.12
512.265	936.12
512.481	929.12
512.698	924.12
512.914	957.12
513.13	942.12
513.346	950.12
513.562	953.12
513.778	979.12
513.994	929.12
514.21	984.12
514.426	984.12
514.642	994.12
514.858	975.12
515.074	979.12
515.29	1005.12
515.506	976.12
515.721	988.12
515.937	1000.12
516.153	997.12
516.369	1072.12
516.585	1096.12
516.801	1115.12
517.016	1193.12
517.232	1243.12
517.448	1300.12
517.664	1359.12
517.879	1371.12
518.095	1393.12
518.311	1353.12
518.527	1291.12
518.742	1201.12
518.958	1159.12
519.173	1105.12
519.389	1095.12
519.605	1049.12
519.82	1017.12
520.036	1001.12
520.251	989.12
520.467	961.12
520.682	955.12
520.898	956.12
521.113	942.12
521.329	955.12
521.544	910.12
521.76	907.12
521.975	923.12
522.19	912.12
522.406	906.12
522.621	887.12
522.836	891.12
523.052	905.12
523.267	879.12
523.482	884.12
523.698	907.12
523.913	905.12
524.128	896.12
524.343	874.12
524.559	849.12
524.774	874.12
524.989	903.12
525.204	868.12
525.419	875.12
525.634	875.12
525.849	872.12
526.064	871.12
526.28	876.12
526.495	864.12
526.71	860.12
526.925	844.12
527.14	850.12
527.355	859.12
527.57	849.12
527.785	851.12
527.999	849.12
528.214	892.12
528.429	887.12
528.644	865.12
528.859	885.12
529.074	877.12
529.289	873.12
529.503	869.12
529.718	865.12
529.933	871.12
530.148	874.12
530.363	866.12
530.577	857.12
530.792	865.12
531.007	846.12
531.221	883.12
531.436	849.12
531.651	857.12
531.865	873.12
532.08	841.12
532.295	862.12
532.509	857.12
532.724	860.12
532.938	867.12
533.153	862.12
533.367	904.12
533.582	888.12
533.796	859.12
534.011	849.12
534.225	873.12
534.44	848.12
534.654	843.12
534.868	861.12
535.083	870.12
535.297	846.12
535.511	853.12
535.726	855.12
535.94	839.12
536.154	829.12
536.369	816.12
536.583	804.12
536.797	847.12
537.011	815.12
537.225	801.12
537.44	813.12
537.654	816.12
537.868	819.12
538.082	786.12
538.296	785.12
538.51	767.12
538.724	779.12
538.938	813.12
539.153	786.12
539.367	767.12
539.581	772.12
539.795	768.12
540.009	762.12
540.222	755.12
540.436	785.12
540.65	757.12
540.864	756.12
541.078	747.12
541.292	761.12
541.506	787.12
541.72	745.12
541.934	734.12
542.147	785.12
542.361	773.12
542.575	732.12
542.789	775.12
543.002	735.12
543.216	765.12
543.43	760.12
543.644	762.12
543.857	759.12
544.071	770.12
544.285	774.12
544.498	768.12
544.712	730.12
544.925	750.12
545.139	781.12
545.352	794.12
545.566	787.12
545.779	809.12
545.993	782.12
546.206	798.12
546.42	776.12
546.633	782.12
546.847	795.12
547.06	777.12
547.274	773.12
547.487	797.12
547.7	762.12
547.914	799.12
548.127	808.12
548.34	809.12
548.554	773.12
548.767	790.12
548.98	787.12
549.193	801.12
549.407	801.12
549.62	796.12
549.833	830.12
550.046	807.12
550.259	820.12
550.473	786.12
550.686	777.12
550.899	774.12
551.112	742.12
551.325	744.12
551.538	771.12
551.751	775.12
551.964	749.12
552.177	799.12
552.39	773.12
552.603	821.12
552.816	828.12
553.029	823.12
553.242	853.12
553.455	873.12
553.667	890.12
553.88	893.12
554.093	856.12
554.306	825.12
554.519	800.12
554.732	791.12
554.944	748.12
555.157	745.12
555.37	741.12
555.583	728.12
555.795	743.12
556.008	716.12
556.221	709.12
556.433	702.12
556.646	702.12
556.859	663.12
557.071	665.12
557.284	679.12
557.496	675.12
557.709	691.12
557.921	664.12
558.134	657.12
558.346	663.12
558.559	647.12
558.771	645.12
558.984	665.12
559.196	668.12
559.409	644.12
559.621	645.12
559.833	666.12
560.046	637.12
560.258	638.12
560.47	646.12
560.683	645.12
560.895	640.12
561.107	658.12
561.32	631.12
561.532	622.12
561.744	652.12
561.956	661.12
562.168	645.12
562.381	634.12
562.593	641.12
562.805	650.12
563.017	656.12
563.229	653.12
563.441	638.12
563.653	689.12
563.865	658.12
564.077	651.12
564.289	651.12
564.501	651.12
564.713	684.12
564.925	713.12
565.137	719.12
565.349	729.12
565.561	732.12
565.773	761.12
565.985	794.12
566.197	851.12
566.408	920.12
566.62	963.12
566.832	1100.12
567.044	1116.12
567.255	1091.12
567.467	1129.12
567.679	1224.12
567.891	1320.12
568.102	1372.12
568.314	1289.12
568.526	1125.12
568.737	1012.12
568.949	936.12
569.161	829.12
569.372	764.12
569.584	758.12
569.795	715.12
570.007	682.12
570.218	676.12
570.43	693.12
570.641	646.12
570.853	668.12
571.064	683.12
571.276	702.12
571.487	673.12
571.698	669.12
571.91	627.12
572.121	603.12
572.333	609.12
572.544	587.12
572.755	571.12
572.966	565.12
573.178	565.12
573.389	560.12
573.6	567.12
573.811	519.12
574.023	543.12
574.234	547.12
574.445	555.12
574.656	552.12
574.867	569.12
575.078	547.12
575.289	543.12
575.501	539.12
575.712	511.12
575.923	501.12
576.134	520.12
576.345	513.12
576.556	537.12
576.767	499.12
576.978	505.12
577.188	509.12
577.399	493.12
577.61	493.12
577.821	506.12
578.032	477.12
578.243	495.12
578.454	500.12
578.665	486.12
578.875	471.12
579.086	478.12
579.297	485.12
579.508	479.12
579.718	460.12
579.929	475.12
580.14	470.12
580.35	465.12
580.561	471.12
580.772	481.12
580.982	459.12
581.193	458.12
581.403	450.12
581.614	468.12
581.825	479.12
582.035	456.12
582.246	436.12
582.456	470.12
582.667	441.12
582.877	470.12
583.087	466.12
583.298	469.12
583.508	456.12
583.719	443.12
583.929	459.12
584.139	421.12
584.35	456.12
584.56	452.12
584.77	422.12
584.981	431.12
585.191	442.12
585.401	452.12
585.611	451.12
585.821	443.12
586.032	439.12
586.242	440.12
586.452	425.12
586.662	445.12
586.872	452.12
587.082	423.12
587.292	438.12
587.502	443.12
587.713	417.12
587.923	416.12
588.133	420.12
588.343	425.12
588.553	429.12
588.762	427.12
588.972	444.12
589.182	433.12
589.392	439.12
589.602	430.12
589.812	441.12
590.022	446.12
590.232	467.12
590.441	447.12
590.651	426.12
590.861	443.12
591.071	421.12
591.281	442.12
591.49	445.12
591.7	460.12
591.91	470.12
592.119	481.12
592.329	479.12
592.539	486.12
592.748	499.12
592.958	527.12
593.167	535.12
593.377	535.12
593.587	553.12
593.796	551.12
594.006	564.12
594.215	584.12
594.424	589.12
594.634	547.12
594.843	540.12
595.053	531.12
595.262	503.12
595.472	490.12
595.681	463.12
595.89	458.12
596.1	442.12
596.309	417.12
596.518	433.12
596.727	421.12
596.937	401.12
597.146	432.12
597.355	398.12
597.564	409.12
597.774	392.12
597.983	401.12
598.192	402.12
598.401	391.12
598.61	377.12
598.819	388.12
599.028	379.12
599.237	375.12
599.446	384.12
599.655	397.12
599.864	362.12
600.073	359.12
600.282	353.12
600.491	364.12
600.7	371.12
600.909	369.12
601.118	365.12
601.327	375.12
601.536	359.12
601.745	347.12
601.953	377.12
602.162	368.12
602.371	353.12
602.58	352.12
602.789	376.12
602.997	347.12
603.206	357.12
603.415	350.12
603.623	355.12
603.832	356.12
604.041	349.12
604.249	336.12
604.458	343.12
604.666	342.12
604.875	368.12
605.084	339.12
605.292	342.12
605.501	340.12
605.709	360.12
605.918	350.12
606.126	321.12
606.334	331.12
606.543	344.12
606.751	328.12
606.96	322.12
607.168	316.12
607.376	322.12
607.585	336.12
607.793	347.12
608.001	335.12
608.21	328.12
608.418	329.12
608.626	324.12
608.834	327.12
609.043	346.12
609.251	327.12
609.459	329.12
609.667	327.12
609.875	310.12
610.083	324.12
610.291	326.12
610.499	331.12
610.707	321.12
610.916	343.12
611.124	311.12
611.332	313.12
611.54	319.12
611.748	313.12
611.955	324.12
612.163	320.12
612.371	324.12
612.579	312.12
612.787	312.12
612.995	317.12
613.203	332.12
613.411	333.12
613.618	324.12
613.826	326.12
614.034	329.12
614.242	316.12
614.449	317.12
614.657	310.12
614.865	310.12
615.072	318.12
615.28	319.12
615.488	319.12
615.695	318.12
615.903	324.12
616.111	343.12
616.318	318.12
616.526	331.12
616.733	314.12
616.941	336.12
617.148	318.12
617.356	326.12
617.563	324.12
617.771	330.12
617.978	324.12
618.185	339.12
618.393	330.12
618.6	327.12
618.807	319.12
619.015	335.12
619.222	311.12
619.429	297.12
619.637	309.12
619.844	317.12
620.051	277.12
620.258	302.12
620.466	291.12
620.673	298.12
620.88	299.12
621.087	286.12
621.294	294.12
621.501	294.12
621.708	293.12
621.915	287.12
622.122	268.12
622.329	293.12
622.536	293.12
622.743	285.12
622.95	284.12
623.157	270.12
623.364	271.12
623.571	271.12
623.778	286.12
623.985	287.12
624.192	279.12
624.399	284.12
624.606	264.12
624.812	284.12
625.019	265.12
625.226	263.12
625.433	285.12
625.639	277.12
625.846	269.12
626.053	257.12
626.259	252.12
626.466	264.12
626.673	275.12
626.879	272.12
627.086	271.12
627.293	260.12
627.499	255.12
627.706	256.12
627.912	268.12
628.119	268.12
628.325	261.12
628.532	265.12
628.738	249.12
628.945	265.12
629.151	253.12
629.357	240.12
629.564	251.12
629.77	250.12
629.976	241.12
630.183	257.12
630.389	262.12
630.595	254.12
630.802	235.12
631.008	243.12
631.214	249.12
631.42	240.12
631.627	247.12
631.833	245.12
632.039	254.12
632.245	232.12
632.451	246.12
632.657	231.12
632.863	246.12
633.069	222.12
633.275	223.12
633.481	251.12
633.688	243.12
633.893	221.12
634.099	227.12
634.305	235.12
634.511	244.12
634.717	224.12
634.923	236.12
635.129	228.12
635.335	243.12
635.541	219.12
635.747	229.12
635.952	247.12
636.158	215.12
636.364	231.12
636.57	231.12
636.775	214.12
636.981	219.12
637.187	227.12
637.392	241.12
637.598	229.12
637.804	208.12
638.009	229.12
638.215	228.12
638.421	233.12
638.626	243.12
638.832	231.12
639.037	227.12
639.243	232.12
639.448	221.12
639.654	225.12
639.859	190.12
640.065	192.12
640.27	209.12
640.475	218.12
640.681	221.12
640.886	226.12
641.091	208.12
641.297	215.12
641.502	202.12
641.707	212.12
641.913	224.12
642.118	199.12
642.323	204.12
642.528	213.12
642.733	202.12
642.939	201.12
643.144	191.12
643.349	201.12
643.554	205.12
643.759	201.12
643.964	201.12
644.169	201.12
644.374	213.12
644.579	205.12
644.784	212.12
644.989	217.12
645.194	206.12
645.399	208.12
645.604	207.12
645.809	206.12
646.014	200.12
646.219	220.12
646.423	194.12
646.628	209.12
646.833	191.12
647.038	211.12
647.243	202.12
647.447	216.12
647.652	204.12
647.857	209.12
648.062	218.12
648.266	210.12
648.471	219.12
648.676	217.12
648.88	221.12
649.085	217.12
649.289	201.12
649.494	217.12
649.698	205.12
649.903	194.12
650.107	201.12
650.312	197.12
650.516	185.12
650.721	196.12
650.925	208.12
651.13	168.12
651.334	187.12
651.539	195.12
651.743	183.12
651.947	172.12
652.152	197.12
652.356	159.12
652.56	169.12
652.764	183.12
652.969	168.12
653.173	161.12
653.377	167.12
653.581	170.12
653.785	156.12
653.99	164.12
654.194	144.12
654.398	167.12
654.602	145.12
654.806	149.12
655.01	153.12
655.214	157.12
655.418	147.12
655.622	150.12
655.826	140.12
656.03	135.12
656.234	133.12
656.438	148.12
656.642	154.12
656.846	143.12
657.049	143.12
657.253	128.12
657.457	130.12
657.661	131.12
657.865	128.12
658.068	112.12
658.272	121.12
658.476	100.12
658.68	118.12
658.883	103.12
659.087	121.12
659.291	112.12
659.494	108.12
659.698	111.12
659.901	104.12
660.105	106.12
660.309	105.12
660.512	115.12
660.716	101.12
660.919	87.12
661.123	99.12
661.326	89.12
661.53	99.12
661.733	102.12
661.936	100.12
662.14	97.12
662.343	83.12
662.546	79.12
662.75	85.12
662.953	81.12
663.156	93.12
663.36	83.12
663.563	85.12
663.766	81.12
663.969	76.12
664.173	84.12
664.376	92.12
664.579	96.12
664.782	91.12
664.985	91.12
665.188	86.12
665.391	85.12
665.594	99.12
665.797	94.12
666	85.12
666.203	78.12
666.406	79.12
666.609	88.12
666.812	75.12
667.015	87.12
667.218	91.12
667.421	93.12
667.624	81.12
667.827	80.12
668.03	94.12
668.232	81.12
668.435	77.12
668.638	99.12
668.841	94.12
669.043	85.12
669.246	81.12
669.449	92.12
669.651	79.12
669.854	85.12
670.057	83.12
670.259	76.12
670.462	88.12
670.665	91.12
670.867	81.12
671.07	87.12
671.272	79.12
671.475	84.12
671.677	84.12
671.88	77.12
672.082	77.12
672.284	86.12
672.487	95.12
672.689	81.12
672.892	77.12
