Data from Ni(NO3)2@0.125M.TitratingCurve.Agarose3%dH2O.NegLispCup.LampEnergy10.LIBS07252019_HRD10591_18-09-51-568.txt Node
Date: Thu Jul 25 18:09:51 EDT 2019
User: cochatt
Spectrometer: HR+D1059
Trigger mode: 1
Integration Time (sec): 1.000000E-1
Scans to average: 1
Electric dark correction enabled: true
Nonlinearity correction enabled: false
Boxcar width: 0
XAxis mode: Wavelengths
Number of Pixels in Spectrum: 2048
>>>>>Begin Spectral Data<<<<<
223.165	-18.06
223.4	-18.06
223.635	-18.06
223.869	-10.06
224.104	-13.06
224.338	-23.06
224.573	0.94
224.808	-12.06
225.042	2.94
225.277	-17.06
225.511	-5.06
225.746	-5.06
225.98	8.94
226.215	14.94
226.449	18.94
226.683	12.94
226.918	28.94
227.152	14.94
227.387	31.94
227.621	37.94
227.856	20.94
228.09	54.94
228.324	44.94
228.559	52.94
228.793	76.94
229.027	126.94
229.262	112.94
229.496	128.94
229.73	134.94
229.964	132.94
230.199	124.94
230.433	145.94
230.667	139.94
230.901	143.94
231.136	148.94
231.37	146.94
231.604	150.94
231.838	158.94
232.072	155.94
232.306	148.94
232.541	159.94
232.775	151.94
233.009	163.94
233.243	145.94
233.477	165.94
233.711	168.94
233.945	174.94
234.179	155.94
234.413	167.94
234.647	170.94
234.881	182.94
235.115	183.94
235.349	161.94
235.583	162.94
235.817	158.94
236.051	174.94
236.285	163.94
236.519	168.94
236.753	176.94
236.987	156.94
237.221	184.94
237.455	190.94
237.689	188.94
237.922	185.94
238.156	182.94
238.39	169.94
238.624	177.94
238.858	185.94
239.091	182.94
239.325	184.94
239.559	203.94
239.793	185.94
240.027	195.94
240.26	206.94
240.494	192.94
240.728	208.94
240.961	216.94
241.195	204.94
241.429	204.94
241.662	218.94
241.896	211.94
242.13	211.94
242.363	218.94
242.597	220.94
242.83	210.94
243.064	223.94
243.298	226.94
243.531	235.94
243.765	236.94
243.998	223.94
244.232	219.94
244.465	235.94
244.699	240.94
244.932	235.94
245.166	238.94
245.399	235.94
245.633	243.94
245.866	267.94
246.099	260.94
246.333	253.94
246.566	261.94
246.8	250.94
247.033	247.94
247.266	251.94
247.5	270.94
247.733	252.94
247.966	275.94
248.2	263.94
248.433	283.94
248.666	267.94
248.899	283.94
249.133	262.94
249.366	288.94
249.599	294.94
249.832	280.94
250.066	308.94
250.299	290.94
250.532	273.94
250.765	300.94
250.998	309.94
251.231	310.94
251.465	314.94
251.698	313.94
251.931	305.94
252.164	324.94
252.397	304.94
252.63	295.94
252.863	328.94
253.096	312.94
253.329	321.94
253.562	326.94
253.795	331.94
254.028	313.94
254.261	357.94
254.494	342.94
254.727	331.94
254.96	338.94
255.193	354.94
255.426	336.94
255.659	322.94
255.892	322.94
256.124	347.94
256.357	338.94
256.59	362.94
256.823	339.94
257.056	346.94
257.289	362.94
257.521	340.94
257.754	347.94
257.987	352.94
258.22	327.94
258.452	364.94
258.685	376.94
258.918	352.94
259.151	359.94
259.383	374.94
259.616	378.94
259.849	374.94
260.081	354.94
260.314	382.94
260.547	368.94
260.779	381.94
261.012	362.94
261.244	388.94
261.477	394.94
261.71	362.94
261.942	382.94
262.175	386.94
262.407	385.94
262.64	396.94
262.872	414.94
263.105	390.94
263.337	376.94
263.57	396.94
263.802	389.94
264.035	402.94
264.267	417.94
264.499	396.94
264.732	425.94
264.964	423.94
265.197	419.94
265.429	402.94
265.661	410.94
265.894	425.94
266.126	435.94
266.358	434.94
266.591	418.94
266.823	440.94
267.055	432.94
267.287	448.94
267.52	428.94
267.752	435.94
267.984	439.94
268.216	417.94
268.448	450.94
268.681	446.94
268.913	421.94
269.145	452.94
269.377	450.94
269.609	441.94
269.841	454.94
270.073	454.94
270.306	462.94
270.538	480.94
270.77	451.94
271.002	454.94
271.234	446.94
271.466	457.94
271.698	459.94
271.93	471.94
272.162	490.94
272.394	454.94
272.626	471.94
272.858	440.94
273.09	461.94
273.322	470.94
273.553	488.94
273.785	455.94
274.017	499.94
274.249	485.94
274.481	468.94
274.713	471.94
274.945	479.94
275.176	494.94
275.408	495.94
275.64	505.94
275.872	499.94
276.104	498.94
276.335	510.94
276.567	478.94
276.799	480.94
277.031	506.94
277.262	490.94
277.494	510.94
277.726	507.94
277.957	505.94
278.189	530.94
278.421	497.94
278.652	494.94
278.884	543.94
279.115	556.94
279.347	527.94
279.579	524.94
279.81	523.94
280.042	533.94
280.273	521.94
280.505	535.94
280.736	547.94
280.968	547.94
281.199	554.94
281.431	533.94
281.662	554.94
281.894	583.94
282.125	564.94
282.356	570.94
282.588	571.94
282.819	550.94
283.051	543.94
283.282	577.94
283.513	594.94
283.745	585.94
283.976	538.94
284.207	599.94
284.439	547.94
284.67	576.94
284.901	572.94
285.132	584.94
285.364	571.94
285.595	587.94
285.826	592.94
286.057	580.94
286.288	599.94
286.52	579.94
286.751	605.94
286.982	615.94
287.213	601.94
287.444	636.94
287.675	611.94
287.906	595.94
288.138	599.94
288.369	627.94
288.6	661.94
288.831	588.94
289.062	612.94
289.293	633.94
289.524	614.94
289.755	608.94
289.986	633.94
290.217	624.94
290.448	631.94
290.679	618.94
290.91	656.94
291.141	624.94
291.371	632.94
291.602	611.94
291.833	635.94
292.064	649.94
292.295	651.94
292.526	658.94
292.757	635.94
292.987	625.94
293.218	635.94
293.449	628.94
293.68	634.94
293.91	643.94
294.141	614.94
294.372	642.94
294.603	660.94
294.833	647.94
295.064	678.94
295.295	668.94
295.525	654.94
295.756	671.94
295.987	665.94
296.217	671.94
296.448	676.94
296.679	673.94
296.909	668.94
297.14	651.94
297.37	680.94
297.601	680.94
297.831	661.94
298.062	694.94
298.292	692.94
298.523	705.94
298.753	694.94
298.984	686.94
299.214	684.94
299.445	704.94
299.675	693.94
299.905	683.94
300.136	692.94
300.366	694.94
300.597	707.94
300.827	696.94
301.057	717.94
301.288	708.94
301.518	718.94
301.748	716.94
301.979	726.94
302.209	734.94
302.439	700.94
302.669	718.94
302.9	712.94
303.13	703.94
303.36	707.94
303.59	699.94
303.82	703.94
304.051	703.94
304.281	704.94
304.511	721.94
304.741	703.94
304.971	706.94
305.201	717.94
305.431	701.94
305.661	732.94
305.891	705.94
306.121	686.94
306.352	682.94
306.582	694.94
306.812	710.94
307.042	709.94
307.272	713.94
307.502	724.94
307.731	710.94
307.961	686.94
308.191	721.94
308.421	704.94
308.651	718.94
308.881	691.94
309.111	697.94
309.341	693.94
309.571	694.94
309.8	699.94
310.03	702.94
310.26	693.94
310.49	692.94
310.72	699.94
310.949	701.94
311.179	729.94
311.409	743.94
311.639	723.94
311.868	736.94
312.098	734.94
312.328	736.94
312.557	766.94
312.787	755.94
313.017	746.94
313.246	722.94
313.476	756.94
313.706	763.94
313.935	772.94
314.165	767.94
314.394	770.94
314.624	752.94
314.853	761.94
315.083	757.94
315.312	774.94
315.542	773.94
315.771	733.94
316.001	744.94
316.23	747.94
316.46	741.94
316.689	743.94
316.919	751.94
317.148	735.94
317.377	748.94
317.607	741.94
317.836	730.94
318.065	750.94
318.295	736.94
318.524	745.94
318.753	753.94
318.983	713.94
319.212	744.94
319.441	748.94
319.67	744.94
319.9	743.94
320.129	744.94
320.358	725.94
320.587	750.94
320.816	760.94
321.046	738.94
321.275	745.94
321.504	738.94
321.733	751.94
321.962	760.94
322.191	779.94
322.42	765.94
322.649	763.94
322.878	768.94
323.108	733.94
323.337	748.94
323.566	750.94
323.795	803.94
324.024	754.94
324.253	746.94
324.482	780.94
324.71	786.94
324.939	794.94
325.168	809.94
325.397	798.94
325.626	772.94
325.855	802.94
326.084	836.94
326.313	826.94
326.542	843.94
326.77	851.94
326.999	814.94
327.228	809.94
327.457	814.94
327.686	818.94
327.914	836.94
328.143	808.94
328.372	820.94
328.6	824.94
328.829	843.94
329.058	831.94
329.287	835.94
329.515	855.94
329.744	841.94
329.972	838.94
330.201	844.94
330.43	844.94
330.658	859.94
330.887	851.94
331.115	871.94
331.344	863.94
331.572	883.94
331.801	912.94
332.03	918.94
332.258	933.94
332.486	955.94
332.715	998.94
332.943	1039.94
333.172	1088.94
333.4	1121.94
333.629	1157.94
333.857	1162.94
334.085	1136.94
334.314	1096.94
334.542	1104.94
334.771	1085.94
334.999	1057.94
335.227	1059.94
335.455	1082.94
335.684	1036.94
335.912	1040.94
336.14	992.94
336.369	976.94
336.597	1035.94
336.825	1007.94
337.053	1009.94
337.281	962.94
337.51	981.94
337.738	978.94
337.966	923.94
338.194	921.94
338.422	914.94
338.65	930.94
338.878	881.94
339.106	891.94
339.334	930.94
339.562	894.94
339.79	896.94
340.018	882.94
340.246	866.94
340.474	834.94
340.702	871.94
340.93	884.94
341.158	898.94
341.386	879.94
341.614	876.94
341.842	843.94
342.07	842.94
342.298	836.94
342.526	852.94
342.754	864.94
342.981	873.94
343.209	891.94
343.437	935.94
343.665	998.94
343.893	1067.94
344.12	1098.94
344.348	1059.94
344.576	986.94
344.804	940.94
345.031	906.94
345.259	905.94
345.487	897.94
345.714	881.94
345.942	880.94
346.17	843.94
346.397	840.94
346.625	828.94
346.853	850.94
347.08	837.94
347.308	863.94
347.535	864.94
347.763	879.94
347.99	859.94
348.218	846.94
348.445	851.94
348.673	856.94
348.9	873.94
349.128	841.94
349.355	834.94
349.583	828.94
349.81	839.94
350.037	828.94
350.265	814.94
350.492	814.94
350.72	824.94
350.947	807.94
351.174	819.94
351.402	814.94
351.629	796.94
351.856	831.94
352.083	818.94
352.311	809.94
352.538	809.94
352.765	822.94
352.992	790.94
353.22	808.94
353.447	815.94
353.674	841.94
353.901	804.94
354.128	811.94
354.355	799.94
354.583	821.94
354.81	819.94
355.037	819.94
355.264	820.94
355.491	814.94
355.718	826.94
355.945	800.94
356.172	799.94
356.399	834.94
356.626	823.94
356.853	839.94
357.08	803.94
357.307	838.94
357.534	830.94
357.761	849.94
357.988	828.94
358.215	812.94
358.441	791.94
358.668	790.94
358.895	791.94
359.122	815.94
359.349	826.94
359.576	832.94
359.802	821.94
360.029	807.94
360.256	815.94
360.483	848.94
360.709	840.94
360.936	834.94
361.163	834.94
361.39	820.94
361.616	810.94
361.843	816.94
362.07	821.94
362.296	828.94
362.523	800.94
362.749	830.94
362.976	777.94
363.203	799.94
363.429	786.94
363.656	806.94
363.882	817.94
364.109	828.94
364.335	784.94
364.562	804.94
364.788	826.94
365.015	802.94
365.241	796.94
365.468	811.94
365.694	809.94
365.92	818.94
366.147	805.94
366.373	815.94
366.599	802.94
366.826	827.94
367.052	832.94
367.278	828.94
367.505	795.94
367.731	800.94
367.957	809.94
368.184	841.94
368.41	830.94
368.636	788.94
368.862	849.94
369.089	844.94
369.315	843.94
369.541	828.94
369.767	862.94
369.993	830.94
370.219	812.94
370.445	877.94
370.672	890.94
370.898	857.94
371.124	875.94
371.35	870.94
371.576	882.94
371.802	891.94
372.028	872.94
372.254	872.94
372.48	896.94
372.706	913.94
372.932	917.94
373.158	907.94
373.384	904.94
373.61	880.94
373.835	876.94
374.061	880.94
374.287	899.94
374.513	915.94
374.739	937.94
374.965	962.94
375.191	1005.94
375.416	995.94
375.642	949.94
375.868	932.94
376.094	910.94
376.319	902.94
376.545	930.94
376.771	893.94
376.997	902.94
377.222	903.94
377.448	875.94
377.674	870.94
377.899	859.94
378.125	871.94
378.35	876.94
378.576	850.94
378.802	868.94
379.027	859.94
379.253	852.94
379.478	891.94
379.704	852.94
379.929	855.94
380.155	883.94
380.38	880.94
380.606	890.94
380.831	868.94
381.057	910.94
381.282	870.94
381.507	870.94
381.733	878.94
381.958	881.94
382.184	893.94
382.409	912.94
382.634	914.94
382.86	950.94
383.085	966.94
383.31	968.94
383.535	952.94
383.761	980.94
383.986	1010.94
384.211	1046.94
384.436	1043.94
384.662	1028.94
384.887	1091.94
385.112	1072.94
385.337	1084.94
385.562	1052.94
385.787	1047.94
386.013	1107.94
386.238	1074.94
386.463	1109.94
386.688	1079.94
386.913	1076.94
387.138	1025.94
387.363	1054.94
387.588	1036.94
387.813	1060.94
388.038	1033.94
388.263	1048.94
388.488	1046.94
388.713	1050.94
388.938	1043.94
389.163	1023.94
389.387	1039.94
389.612	1030.94
389.837	1050.94
390.062	1049.94
390.287	1036.94
390.512	1042.94
390.736	1058.94
390.961	1069.94
391.186	1073.94
391.411	1096.94
391.636	1171.94
391.86	1177.94
392.085	1224.94
392.31	1224.94
392.534	1196.94
392.759	1167.94
392.984	1139.94
393.208	1112.94
393.433	1098.94
393.658	1116.94
393.882	1121.94
394.107	1152.94
394.331	1132.94
394.556	1145.94
394.78	1129.94
395.005	1137.94
395.229	1141.94
395.454	1200.94
395.678	1209.94
395.903	1184.94
396.127	1156.94
396.352	1126.94
396.576	1107.94
396.801	1091.94
397.025	1140.94
397.249	1156.94
397.474	1186.94
397.698	1217.94
397.922	1171.94
398.147	1197.94
398.371	1243.94
398.595	1246.94
398.82	1288.94
399.044	1395.94
399.268	1586.94
399.492	1868.94
399.717	2118.94
399.941	2098.94
400.165	1829.94
400.389	1630.94
400.613	1492.94
400.837	1403.94
401.062	1382.94
401.286	1353.94
401.51	1311.94
401.734	1360.94
401.958	1390.94
402.182	1397.94
402.406	1376.94
402.63	1402.94
402.854	1417.94
403.078	1493.94
403.302	1528.94
403.526	1539.94
403.75	1614.94
403.974	1596.94
404.198	1590.94
404.422	1630.94
404.645	1586.94
404.869	1539.94
405.093	1560.94
405.317	1495.94
405.541	1497.94
405.765	1480.94
405.988	1454.94
406.212	1427.94
406.436	1448.94
406.66	1482.94
406.883	1524.94
407.107	1653.94
407.331	1717.94
407.555	1767.94
407.778	1730.94
408.002	1704.94
408.226	1642.94
408.449	1618.94
408.673	1561.94
408.896	1545.94
409.12	1519.94
409.344	1540.94
409.567	1504.94
409.791	1512.94
410.014	1518.94
410.238	1486.94
410.461	1520.94
410.685	1494.94
410.908	1454.94
411.132	1422.94
411.355	1379.94
411.578	1426.94
411.802	1384.94
412.025	1383.94
412.249	1408.94
412.472	1418.94
412.695	1363.94
412.919	1321.94
413.142	1346.94
413.365	1343.94
413.589	1311.94
413.812	1319.94
414.035	1320.94
414.258	1344.94
414.482	1348.94
414.705	1389.94
414.928	1385.94
415.151	1359.94
415.374	1344.94
415.597	1351.94
415.821	1305.94
416.044	1258.94
416.267	1290.94
416.49	1293.94
416.713	1293.94
416.936	1296.94
417.159	1291.94
417.382	1328.94
417.605	1323.94
417.828	1329.94
418.051	1337.94
418.274	1346.94
418.497	1319.94
418.72	1380.94
418.943	1348.94
419.166	1436.94
419.389	1581.94
419.611	1504.94
419.834	1448.94
420.057	1395.94
420.28	1338.94
420.503	1292.94
420.726	1308.94
420.948	1299.94
421.171	1305.94
421.394	1317.94
421.617	1300.94
421.839	1349.94
422.062	1342.94
422.285	1337.94
422.507	1372.94
422.73	1371.94
422.953	1380.94
423.175	1384.94
423.398	1402.94
423.621	1378.94
423.843	1467.94
424.066	1440.94
424.288	1434.94
424.511	1383.94
424.733	1400.94
424.956	1375.94
425.178	1310.94
425.401	1346.94
425.623	1362.94
425.846	1298.94
426.068	1307.94
426.291	1231.94
426.513	1263.94
426.735	1253.94
426.958	1238.94
427.18	1194.94
427.402	1202.94
427.625	1187.94
427.847	1164.94
428.069	1198.94
428.292	1186.94
428.514	1186.94
428.736	1153.94
428.958	1176.94
429.181	1143.94
429.403	1147.94
429.625	1174.94
429.847	1156.94
430.069	1142.94
430.292	1146.94
430.514	1137.94
430.736	1160.94
430.958	1154.94
431.18	1128.94
431.402	1135.94
431.624	1158.94
431.846	1171.94
432.068	1171.94
432.29	1205.94
432.512	1140.94
432.734	1197.94
432.956	1169.94
433.178	1157.94
433.4	1164.94
433.622	1187.94
433.844	1216.94
434.066	1208.94
434.287	1182.94
434.509	1244.94
434.731	1302.94
434.953	1371.94
435.175	1346.94
435.397	1299.94
435.618	1266.94
435.84	1227.94
436.062	1211.94
436.284	1199.94
436.505	1182.94
436.727	1168.94
436.949	1156.94
437.17	1155.94
437.392	1182.94
437.614	1126.94
437.835	1126.94
438.057	1159.94
438.278	1123.94
438.5	1142.94
438.721	1124.94
438.943	1150.94
439.165	1131.94
439.386	1145.94
439.608	1184.94
439.829	1170.94
440.05	1163.94
440.272	1162.94
440.493	1172.94
440.715	1188.94
440.936	1202.94
441.158	1228.94
441.379	1262.94
441.6	1367.94
441.822	1351.94
442.043	1340.94
442.264	1336.94
442.486	1303.94
442.707	1313.94
442.928	1313.94
443.149	1289.94
443.371	1345.94
443.592	1332.94
443.813	1348.94
444.034	1354.94
444.255	1430.94
444.476	1472.94
444.698	1542.94
444.919	1644.94
445.14	1657.94
445.361	1543.94
445.582	1364.94
445.803	1306.94
446.024	1255.94
446.245	1218.94
446.466	1238.94
446.687	1187.94
446.908	1212.94
447.129	1168.94
447.35	1175.94
447.571	1140.94
447.792	1092.94
448.013	1154.94
448.234	1094.94
448.455	1126.94
448.675	1067.94
448.896	1058.94
449.117	1056.94
449.338	1060.94
449.559	1057.94
449.779	1086.94
450	1070.94
450.221	1084.94
450.442	1082.94
450.662	1107.94
450.883	1102.94
451.104	1089.94
451.324	1122.94
451.545	1112.94
451.766	1084.94
451.986	1096.94
452.207	1094.94
452.428	1102.94
452.648	1081.94
452.869	1088.94
453.089	1043.94
453.31	1060.94
453.53	1071.94
453.751	1051.94
453.971	1050.94
454.192	1055.94
454.412	1010.94
454.633	1047.94
454.853	1020.94
455.073	1022.94
455.294	1034.94
455.514	1018.94
455.734	1013.94
455.955	987.94
456.175	995.94
456.395	979.94
456.616	1001.94
456.836	993.94
457.056	979.94
457.276	948.94
457.497	1005.94
457.717	971.94
457.937	997.94
458.157	1037.94
458.377	1032.94
458.598	1036.94
458.818	1087.94
459.038	1106.94
459.258	1182.94
459.478	1186.94
459.698	1227.94
459.918	1238.94
460.138	1308.94
460.358	1370.94
460.578	1412.94
460.798	1438.94
461.018	1415.94
461.238	1391.94
461.458	1397.94
461.678	1396.94
461.898	1427.94
462.118	1426.94
462.338	1536.94
462.558	1544.94
462.777	1629.94
462.997	1754.94
463.217	1906.94
463.437	1941.94
463.657	1767.94
463.876	1678.94
464.096	1650.94
464.316	1647.94
464.536	1658.94
464.755	1571.94
464.975	1531.94
465.195	1459.94
465.414	1368.94
465.634	1242.94
465.854	1227.94
466.073	1220.94
466.293	1186.94
466.512	1194.94
466.732	1163.94
466.951	1145.94
467.171	1119.94
467.391	1117.94
467.61	1150.94
467.829	1151.94
468.049	1109.94
468.268	1076.94
468.488	1081.94
468.707	1072.94
468.927	1077.94
469.146	1072.94
469.365	1096.94
469.585	1106.94
469.804	1132.94
470.023	1153.94
470.243	1160.94
470.462	1186.94
470.681	1177.94
470.901	1164.94
471.12	1151.94
471.339	1134.94
471.558	1150.94
471.777	1101.94
471.997	1098.94
472.216	1078.94
472.435	1080.94
472.654	1055.94
472.873	1049.94
473.092	1022.94
473.311	1037.94
473.53	1036.94
473.749	1076.94
473.968	1035.94
474.187	1063.94
474.406	1054.94
474.625	1026.94
474.844	1065.94
475.063	1068.94
475.282	1046.94
475.501	1066.94
475.72	1042.94
475.939	1080.94
476.158	1099.94
476.377	1090.94
476.596	1115.94
476.814	1121.94
477.033	1115.94
477.252	1122.94
477.471	1156.94
477.69	1170.94
477.908	1198.94
478.127	1230.94
478.346	1298.94
478.564	1278.94
478.783	1310.94
479.002	1340.94
479.22	1353.94
479.439	1344.94
479.658	1305.94
479.876	1308.94
480.095	1356.94
480.313	1400.94
480.532	1446.94
480.751	1442.94
480.969	1366.94
481.188	1318.94
481.406	1264.94
481.624	1242.94
481.843	1198.94
482.061	1231.94
482.28	1199.94
482.498	1186.94
482.717	1193.94
482.935	1232.94
483.153	1211.94
483.372	1210.94
483.59	1203.94
483.808	1166.94
484.027	1182.94
484.245	1199.94
484.463	1209.94
484.681	1216.94
484.9	1224.94
485.118	1241.94
485.336	1233.94
485.554	1255.94
485.772	1287.94
485.99	1274.94
486.209	1276.94
486.427	1256.94
486.645	1282.94
486.863	1241.94
487.081	1250.94
487.299	1257.94
487.517	1232.94
487.735	1263.94
487.953	1272.94
488.171	1235.94
488.389	1243.94
488.607	1253.94
488.825	1237.94
489.043	1210.94
489.261	1227.94
489.479	1208.94
489.696	1228.94
489.914	1269.94
490.132	1253.94
490.35	1263.94
490.568	1257.94
490.786	1242.94
491.003	1284.94
491.221	1276.94
491.439	1293.94
491.657	1283.94
491.874	1257.94
492.092	1272.94
492.31	1287.94
492.527	1281.94
492.745	1319.94
492.963	1304.94
493.18	1288.94
493.398	1283.94
493.615	1337.94
493.833	1312.94
494.05	1330.94
494.268	1334.94
494.485	1344.94
494.703	1346.94
494.92	1337.94
495.138	1311.94
495.355	1300.94
495.573	1329.94
495.79	1336.94
496.008	1337.94
496.225	1370.94
496.442	1347.94
496.66	1406.94
496.877	1406.94
497.094	1441.94
497.312	1425.94
497.529	1456.94
497.746	1542.94
497.963	1590.94
498.181	1632.94
498.398	1690.94
498.615	1781.94
498.832	1910.94
499.049	2047.94
499.267	2292.94
499.484	2507.94
499.701	2751.94
499.918	3082.94
500.135	3571.94
500.352	4115.94
500.569	4339.94
500.786	4286.94
501.003	3990.94
501.22	3551.94
501.437	3032.94
501.654	2661.94
501.871	2350.94
502.088	2158.94
502.305	2024.94
502.522	1883.94
502.739	1877.94
502.956	1769.94
503.172	1655.94
503.389	1588.94
503.606	1560.94
503.823	1540.94
504.04	1536.94
504.256	1534.94
504.473	1605.94
504.69	1651.94
504.907	1631.94
505.123	1497.94
505.34	1410.94
505.557	1320.94
505.773	1318.94
505.99	1300.94
506.207	1271.94
506.423	1234.94
506.64	1247.94
506.856	1212.94
507.073	1169.94
507.289	1177.94
507.506	1214.94
507.722	1207.94
507.939	1170.94
508.155	1137.94
508.372	1126.94
508.588	1134.94
508.805	1090.94
509.021	1096.94
509.238	1122.94
509.454	1089.94
509.67	1108.94
509.887	1129.94
510.103	1091.94
510.319	1075.94
510.536	1105.94
510.752	1084.94
510.968	1110.94
511.184	1042.94
511.401	1099.94
511.617	1065.94
511.833	1070.94
512.049	1054.94
512.265	1064.94
512.481	1064.94
512.698	1048.94
512.914	1077.94
513.13	1081.94
513.346	1087.94
513.562	1067.94
513.778	1068.94
513.994	1105.94
514.21	1103.94
514.426	1084.94
514.642	1080.94
514.858	1103.94
515.074	1104.94
515.29	1134.94
515.506	1103.94
515.721	1145.94
515.937	1160.94
516.153	1182.94
516.369	1198.94
516.585	1223.94
516.801	1276.94
517.016	1332.94
517.232	1421.94
517.448	1473.94
517.664	1522.94
517.879	1552.94
518.095	1562.94
518.311	1512.94
518.527	1458.94
518.742	1368.94
518.958	1286.94
519.173	1227.94
519.389	1201.94
519.605	1159.94
519.82	1150.94
520.036	1157.94
520.251	1115.94
520.467	1118.94
520.682	1104.94
520.898	1082.94
521.113	1048.94
521.329	1055.94
521.544	1043.94
521.76	1041.94
521.975	1001.94
522.19	1027.94
522.406	1002.94
522.621	1046.94
522.836	1025.94
523.052	1011.94
523.267	1024.94
523.482	1004.94
523.698	1020.94
523.913	1011.94
524.128	1007.94
524.343	967.94
524.559	985.94
524.774	993.94
524.989	974.94
525.204	967.94
525.419	983.94
525.634	977.94
525.849	966.94
526.064	928.94
526.28	964.94
526.495	976.94
526.71	972.94
526.925	961.94
527.14	950.94
527.355	954.94
527.57	977.94
527.785	946.94
527.999	959.94
528.214	1002.94
528.429	998.94
528.644	964.94
528.859	986.94
529.074	973.94
529.289	980.94
529.503	988.94
529.718	978.94
529.933	958.94
530.148	973.94
530.363	938.94
530.577	967.94
530.792	954.94
531.007	963.94
531.221	952.94
531.436	990.94
531.651	980.94
531.865	958.94
532.08	957.94
532.295	965.94
532.509	946.94
532.724	987.94
532.938	973.94
533.153	956.94
533.367	974.94
533.582	980.94
533.796	950.94
534.011	988.94
534.225	989.94
534.44	988.94
534.654	935.94
534.868	936.94
535.083	953.94
535.297	920.94
535.511	952.94
535.726	920.94
535.94	918.94
536.154	921.94
536.369	908.94
536.583	875.94
536.797	880.94
537.011	916.94
537.225	906.94
537.44	895.94
537.654	901.94
537.868	898.94
538.082	876.94
538.296	884.94
538.51	874.94
538.724	891.94
538.938	875.94
539.153	914.94
539.367	875.94
539.581	889.94
539.795	855.94
540.009	872.94
540.222	850.94
540.436	864.94
540.65	834.94
540.864	891.94
541.078	864.94
541.292	840.94
541.506	862.94
541.72	851.94
541.934	837.94
542.147	881.94
542.361	889.94
542.575	841.94
542.789	861.94
543.002	858.94
543.216	869.94
543.43	864.94
543.644	829.94
543.857	822.94
544.071	854.94
544.285	867.94
544.498	873.94
544.712	853.94
544.925	869.94
545.139	887.94
545.352	891.94
545.566	884.94
545.779	887.94
545.993	894.94
546.206	891.94
546.42	902.94
546.633	866.94
546.847	890.94
547.06	904.94
547.274	869.94
547.487	881.94
547.7	864.94
547.914	890.94
548.127	909.94
548.34	888.94
548.554	909.94
548.767	906.94
548.98	896.94
549.193	885.94
549.407	914.94
549.62	907.94
549.833	918.94
550.046	885.94
550.259	895.94
550.473	881.94
550.686	889.94
550.899	847.94
551.112	851.94
551.325	867.94
551.538	871.94
551.751	865.94
551.964	875.94
552.177	854.94
552.39	902.94
552.603	920.94
552.816	941.94
553.029	948.94
553.242	959.94
553.455	975.94
553.667	1008.94
553.88	978.94
554.093	936.94
554.306	938.94
554.519	915.94
554.732	887.94
554.944	851.94
555.157	848.94
555.37	835.94
555.583	828.94
555.795	800.94
556.008	791.94
556.221	794.94
556.433	799.94
556.646	765.94
556.859	756.94
557.071	779.94
557.284	773.94
557.496	770.94
557.709	747.94
557.921	738.94
558.134	741.94
558.346	739.94
558.559	767.94
558.771	750.94
558.984	739.94
559.196	735.94
559.409	734.94
559.621	747.94
559.833	731.94
560.046	720.94
560.258	714.94
560.47	723.94
560.683	724.94
560.895	716.94
561.107	711.94
561.32	726.94
561.532	716.94
561.744	720.94
561.956	722.94
562.168	744.94
562.381	727.94
562.593	739.94
562.805	739.94
563.017	741.94
563.229	733.94
563.441	736.94
563.653	744.94
563.865	731.94
564.077	754.94
564.289	721.94
564.501	734.94
564.713	761.94
564.925	803.94
565.137	784.94
565.349	810.94
565.561	830.94
565.773	850.94
565.985	913.94
566.197	952.94
566.408	1009.94
566.62	1111.94
566.832	1237.94
567.044	1298.94
567.255	1236.94
567.467	1232.94
567.679	1336.94
567.891	1452.94
568.102	1523.94
568.314	1441.94
568.526	1272.94
568.737	1145.94
568.949	1000.94
569.161	916.94
569.372	887.94
569.584	836.94
569.795	784.94
570.007	764.94
570.218	742.94
570.43	739.94
570.641	744.94
570.853	754.94
571.064	752.94
571.276	755.94
571.487	737.94
571.698	695.94
571.91	674.94
572.121	649.94
572.333	648.94
572.544	624.94
572.755	615.94
572.966	615.94
573.178	632.94
573.389	595.94
573.6	596.94
573.811	596.94
574.023	598.94
574.234	595.94
574.445	590.94
574.656	594.94
574.867	607.94
575.078	627.94
575.289	606.94
575.501	604.94
575.712	571.94
575.923	568.94
576.134	562.94
576.345	571.94
576.556	573.94
576.767	590.94
576.978	566.94
577.188	544.94
577.399	566.94
577.61	551.94
577.821	546.94
578.032	539.94
578.243	550.94
578.454	544.94
578.665	550.94
578.875	499.94
579.086	502.94
579.297	510.94
579.508	534.94
579.718	530.94
579.929	522.94
580.14	498.94
580.35	513.94
580.561	492.94
580.772	509.94
580.982	493.94
581.193	524.94
581.403	488.94
581.614	498.94
581.825	495.94
582.035	502.94
582.246	509.94
582.456	502.94
582.667	523.94
582.877	522.94
583.087	499.94
583.298	519.94
583.508	481.94
583.719	479.94
583.929	491.94
584.139	487.94
584.35	484.94
584.56	482.94
584.77	481.94
584.981	490.94
585.191	487.94
585.401	466.94
585.611	475.94
585.821	465.94
586.032	472.94
586.242	474.94
586.452	483.94
586.662	455.94
586.872	465.94
587.082	474.94
587.292	459.94
587.502	475.94
587.713	486.94
587.923	470.94
588.133	448.94
588.343	450.94
588.553	465.94
588.762	463.94
588.972	450.94
589.182	475.94
589.392	460.94
589.602	464.94
589.812	464.94
590.022	457.94
590.232	487.94
590.441	479.94
590.651	490.94
590.861	456.94
591.071	478.94
591.281	475.94
591.49	489.94
591.7	500.94
591.91	518.94
592.119	495.94
592.329	527.94
592.539	546.94
592.748	571.94
592.958	563.94
593.167	622.94
593.377	584.94
593.587	606.94
593.796	626.94
594.006	628.94
594.215	628.94
594.424	630.94
594.634	623.94
594.843	592.94
595.053	551.94
595.262	546.94
595.472	517.94
595.681	508.94
595.89	504.94
596.1	507.94
596.309	479.94
596.518	459.94
596.727	454.94
596.937	454.94
597.146	450.94
597.355	441.94
597.564	425.94
597.774	420.94
597.983	428.94
598.192	408.94
598.401	426.94
598.61	417.94
598.819	394.94
599.028	409.94
599.237	411.94
599.446	406.94
599.655	394.94
599.864	387.94
600.073	393.94
600.282	376.94
600.491	381.94
600.7	420.94
600.909	423.94
601.118	386.94
601.327	390.94
601.536	412.94
601.745	387.94
601.953	378.94
602.162	397.94
602.371	381.94
602.58	377.94
602.789	388.94
602.997	378.94
603.206	387.94
603.415	378.94
603.623	360.94
603.832	374.94
604.041	375.94
604.249	370.94
604.458	375.94
604.666	378.94
604.875	358.94
605.084	374.94
605.292	366.94
605.501	379.94
605.709	377.94
605.918	376.94
606.126	361.94
606.334	361.94
606.543	356.94
606.751	362.94
606.96	360.94
607.168	379.94
607.376	354.94
607.585	346.94
607.793	369.94
608.001	351.94
608.21	359.94
608.418	351.94
608.626	342.94
608.834	363.94
609.043	353.94
609.251	351.94
609.459	366.94
609.667	366.94
609.875	337.94
610.083	348.94
610.291	330.94
610.499	344.94
610.707	352.94
610.916	359.94
611.124	343.94
611.332	350.94
611.54	363.94
611.748	344.94
611.955	337.94
612.163	335.94
612.371	346.94
612.579	334.94
612.787	353.94
612.995	338.94
613.203	329.94
613.411	315.94
613.618	342.94
613.826	325.94
614.034	346.94
614.242	338.94
614.449	320.94
614.657	331.94
614.865	334.94
615.072	348.94
615.28	347.94
615.488	370.94
615.695	322.94
615.903	332.94
616.111	347.94
616.318	355.94
616.526	354.94
616.733	344.94
616.941	326.94
617.148	347.94
617.356	355.94
617.563	365.94
617.771	336.94
617.978	356.94
618.185	338.94
618.393	332.94
618.6	340.94
618.807	340.94
619.015	320.94
619.222	336.94
619.429	348.94
619.637	336.94
619.844	330.94
620.051	343.94
620.258	316.94
620.466	327.94
620.673	294.94
620.88	294.94
621.087	310.94
621.294	300.94
621.501	312.94
621.708	319.94
621.915	298.94
622.122	316.94
622.329	320.94
622.536	326.94
622.743	322.94
622.95	313.94
623.157	320.94
623.364	312.94
623.571	305.94
623.778	284.94
623.985	300.94
624.192	298.94
624.399	276.94
624.606	308.94
624.812	284.94
625.019	280.94
625.226	284.94
625.433	277.94
625.639	277.94
625.846	285.94
626.053	269.94
626.259	291.94
626.466	304.94
626.673	291.94
626.879	280.94
627.086	266.94
627.293	272.94
627.499	299.94
627.706	274.94
627.912	279.94
628.119	278.94
628.325	281.94
628.532	268.94
628.738	291.94
628.945	276.94
629.151	260.94
629.357	259.94
629.564	261.94
629.77	261.94
629.976	261.94
630.183	278.94
630.389	269.94
630.595	267.94
630.802	260.94
631.008	253.94
631.214	282.94
631.42	272.94
631.627	252.94
631.833	243.94
632.039	265.94
632.245	259.94
632.451	254.94
632.657	254.94
632.863	241.94
633.069	260.94
633.275	241.94
633.481	234.94
633.688	225.94
633.893	236.94
634.099	235.94
634.305	249.94
634.511	254.94
634.717	247.94
634.923	238.94
635.129	230.94
635.335	228.94
635.541	239.94
635.747	252.94
635.952	245.94
636.158	248.94
636.364	258.94
636.57	238.94
636.775	258.94
636.981	246.94
637.187	211.94
637.392	217.94
637.598	234.94
637.804	245.94
638.009	234.94
638.215	244.94
638.421	232.94
638.626	234.94
638.832	226.94
639.037	225.94
639.243	224.94
639.448	230.94
639.654	225.94
639.859	217.94
640.065	219.94
640.27	212.94
640.475	205.94
640.681	215.94
640.886	212.94
641.091	209.94
641.297	226.94
641.502	215.94
641.707	211.94
641.913	205.94
642.118	212.94
642.323	216.94
642.528	212.94
642.733	208.94
642.939	203.94
643.144	215.94
643.349	212.94
643.554	225.94
643.759	225.94
643.964	220.94
644.169	216.94
644.374	223.94
644.579	213.94
644.784	216.94
644.989	217.94
645.194	212.94
645.399	204.94
645.604	218.94
645.809	213.94
646.014	227.94
646.219	222.94
646.423	194.94
646.628	224.94
646.833	222.94
647.038	222.94
647.243	226.94
647.447	232.94
647.652	234.94
647.857	232.94
648.062	215.94
648.266	217.94
648.471	238.94
648.676	236.94
648.88	225.94
649.085	217.94
649.289	225.94
649.494	235.94
649.698	205.94
649.903	212.94
650.107	207.94
650.312	210.94
650.516	203.94
650.721	197.94
650.925	185.94
651.13	188.94
651.334	178.94
651.539	176.94
651.743	186.94
651.947	181.94
652.152	184.94
652.356	178.94
652.56	169.94
652.764	174.94
652.969	172.94
653.173	186.94
653.377	168.94
653.581	157.94
653.785	159.94
653.99	163.94
654.194	168.94
654.398	163.94
654.602	144.94
654.806	169.94
655.01	153.94
655.214	159.94
655.418	146.94
655.622	136.94
655.826	160.94
656.03	142.94
656.234	145.94
656.438	156.94
656.642	155.94
656.846	144.94
657.049	152.94
657.253	123.94
657.457	143.94
657.661	136.94
657.865	128.94
658.068	120.94
658.272	122.94
658.476	126.94
658.68	116.94
658.883	122.94
659.087	124.94
659.291	116.94
659.494	107.94
659.698	94.94
659.901	95.94
660.105	95.94
660.309	103.94
660.512	105.94
660.716	110.94
660.919	94.94
661.123	87.94
661.326	99.94
661.53	84.94
661.733	94.94
661.936	91.94
662.14	96.94
662.343	81.94
662.546	87.94
662.75	86.94
662.953	95.94
663.156	78.94
663.36	88.94
663.563	74.94
663.766	90.94
663.969	92.94
664.173	73.94
664.376	81.94
664.579	75.94
664.782	87.94
664.985	64.94
665.188	84.94
665.391	87.94
665.594	82.94
665.797	78.94
666	74.94
666.203	75.94
666.406	78.94
666.609	87.94
666.812	73.94
667.015	82.94
667.218	90.94
667.421	91.94
667.624	85.94
667.827	95.94
668.03	80.94
668.232	85.94
668.435	76.94
668.638	72.94
668.841	88.94
669.043	72.94
669.246	72.94
669.449	93.94
669.651	82.94
669.854	78.94
670.057	89.94
670.259	81.94
670.462	79.94
670.665	84.94
670.867	72.94
671.07	71.94
671.272	78.94
671.475	73.94
671.677	74.94
671.88	74.94
672.082	75.94
672.284	79.94
672.487	86.94
672.689	65.94
672.892	75.94
