Data from Ni(NO3)2@0.125M.TitratingCurve.Agarose3%dH2O.NegLispCup.LampEnergy10.LIBS07252019_HRD10591_18-09-46-568.txt Node
Date: Thu Jul 25 18:09:46 EDT 2019
User: cochatt
Spectrometer: HR+D1059
Trigger mode: 1
Integration Time (sec): 1.000000E-1
Scans to average: 1
Electric dark correction enabled: true
Nonlinearity correction enabled: false
Boxcar width: 0
XAxis mode: Wavelengths
Number of Pixels in Spectrum: 2048
>>>>>Begin Spectral Data<<<<<
223.165	-15.12
223.4	-15.12
223.635	-15.12
223.869	-19.12
224.104	-20.12
224.338	-17.12
224.573	-12.12
224.808	-18.12
225.042	-16.12
225.277	-7.12
225.511	14.88
225.746	5.88
225.98	5.88
226.215	13.88
226.449	22.88
226.683	-1.12
226.918	28.88
227.152	33.88
227.387	33.88
227.621	39.88
227.856	55.88
228.09	52.88
228.324	56.88
228.559	71.88
228.793	83.88
229.027	117.88
229.262	126.88
229.496	135.88
229.73	136.88
229.964	126.88
230.199	137.88
230.433	142.88
230.667	156.88
230.901	144.88
231.136	147.88
231.37	153.88
231.604	147.88
231.838	170.88
232.072	156.88
232.306	168.88
232.541	162.88
232.775	157.88
233.009	152.88
233.243	153.88
233.477	166.88
233.711	156.88
233.945	155.88
234.179	172.88
234.413	167.88
234.647	158.88
234.881	162.88
235.115	166.88
235.349	156.88
235.583	170.88
235.817	160.88
236.051	182.88
236.285	171.88
236.519	168.88
236.753	175.88
236.987	170.88
237.221	165.88
237.455	170.88
237.689	174.88
237.922	180.88
238.156	172.88
238.39	184.88
238.624	198.88
238.858	192.88
239.091	194.88
239.325	184.88
239.559	203.88
239.793	194.88
240.027	198.88
240.26	204.88
240.494	212.88
240.728	199.88
240.961	213.88
241.195	212.88
241.429	191.88
241.662	231.88
241.896	207.88
242.13	210.88
242.363	208.88
242.597	205.88
242.83	223.88
243.064	216.88
243.298	218.88
243.531	202.88
243.765	225.88
243.998	224.88
244.232	237.88
244.465	244.88
244.699	223.88
244.932	242.88
245.166	253.88
245.399	249.88
245.633	230.88
245.866	265.88
246.099	266.88
246.333	252.88
246.566	245.88
246.8	259.88
247.033	272.88
247.266	231.88
247.5	267.88
247.733	267.88
247.966	271.88
248.2	274.88
248.433	271.88
248.666	284.88
248.899	285.88
249.133	270.88
249.366	272.88
249.599	284.88
249.832	269.88
250.066	268.88
250.299	286.88
250.532	279.88
250.765	304.88
250.998	294.88
251.231	308.88
251.465	296.88
251.698	293.88
251.931	288.88
252.164	317.88
252.397	308.88
252.63	304.88
252.863	310.88
253.096	314.88
253.329	324.88
253.562	299.88
253.795	334.88
254.028	308.88
254.261	297.88
254.494	317.88
254.727	311.88
254.96	316.88
255.193	322.88
255.426	323.88
255.659	332.88
255.892	341.88
256.124	344.88
256.357	348.88
256.59	350.88
256.823	347.88
257.056	341.88
257.289	332.88
257.521	336.88
257.754	340.88
257.987	348.88
258.22	330.88
258.452	348.88
258.685	359.88
258.918	365.88
259.151	360.88
259.383	364.88
259.616	344.88
259.849	359.88
260.081	363.88
260.314	378.88
260.547	368.88
260.779	356.88
261.012	365.88
261.244	379.88
261.477	377.88
261.71	354.88
261.942	345.88
262.175	373.88
262.407	361.88
262.64	366.88
262.872	372.88
263.105	382.88
263.337	392.88
263.57	387.88
263.802	384.88
264.035	396.88
264.267	392.88
264.499	411.88
264.732	418.88
264.964	406.88
265.197	400.88
265.429	403.88
265.661	402.88
265.894	407.88
266.126	393.88
266.358	413.88
266.591	396.88
266.823	416.88
267.055	419.88
267.287	415.88
267.52	420.88
267.752	446.88
267.984	441.88
268.216	419.88
268.448	439.88
268.681	435.88
268.913	447.88
269.145	444.88
269.377	441.88
269.609	408.88
269.841	420.88
270.073	421.88
270.306	431.88
270.538	446.88
270.77	438.88
271.002	453.88
271.234	451.88
271.466	436.88
271.698	437.88
271.93	445.88
272.162	455.88
272.394	468.88
272.626	434.88
272.858	460.88
273.09	453.88
273.322	470.88
273.553	452.88
273.785	461.88
274.017	452.88
274.249	475.88
274.481	469.88
274.713	484.88
274.945	480.88
275.176	488.88
275.408	492.88
275.64	482.88
275.872	474.88
276.104	483.88
276.335	491.88
276.567	496.88
276.799	498.88
277.031	494.88
277.262	479.88
277.494	504.88
277.726	495.88
277.957	496.88
278.189	492.88
278.421	509.88
278.652	509.88
278.884	503.88
279.115	540.88
279.347	532.88
279.579	532.88
279.81	528.88
280.042	502.88
280.273	541.88
280.505	521.88
280.736	531.88
280.968	533.88
281.199	525.88
281.431	525.88
281.662	533.88
281.894	541.88
282.125	542.88
282.356	574.88
282.588	543.88
282.819	540.88
283.051	564.88
283.282	558.88
283.513	557.88
283.745	555.88
283.976	540.88
284.207	570.88
284.439	576.88
284.67	555.88
284.901	565.88
285.132	539.88
285.364	591.88
285.595	572.88
285.826	582.88
286.057	596.88
286.288	564.88
286.52	570.88
286.751	579.88
286.982	602.88
287.213	567.88
287.444	583.88
287.675	598.88
287.906	630.88
288.138	605.88
288.369	588.88
288.6	624.88
288.831	632.88
289.062	596.88
289.293	590.88
289.524	599.88
289.755	610.88
289.986	619.88
290.217	602.88
290.448	606.88
290.679	622.88
290.91	621.88
291.141	615.88
291.371	628.88
291.602	638.88
291.833	622.88
292.064	616.88
292.295	610.88
292.526	631.88
292.757	614.88
292.987	600.88
293.218	587.88
293.449	632.88
293.68	612.88
293.91	615.88
294.141	638.88
294.372	630.88
294.603	621.88
294.833	622.88
295.064	597.88
295.295	637.88
295.525	625.88
295.756	650.88
295.987	638.88
296.217	629.88
296.448	656.88
296.679	640.88
296.909	650.88
297.14	667.88
297.37	655.88
297.601	668.88
297.831	642.88
298.062	667.88
298.292	671.88
298.523	676.88
298.753	686.88
298.984	669.88
299.214	671.88
299.445	655.88
299.675	657.88
299.905	673.88
300.136	666.88
300.366	671.88
300.597	669.88
300.827	684.88
301.057	676.88
301.288	716.88
301.518	690.88
301.748	700.88
301.979	727.88
302.209	754.88
302.439	710.88
302.669	708.88
302.9	700.88
303.13	671.88
303.36	715.88
303.59	688.88
303.82	705.88
304.051	699.88
304.281	700.88
304.511	695.88
304.741	699.88
304.971	708.88
305.201	697.88
305.431	697.88
305.661	692.88
305.891	686.88
306.121	704.88
306.352	695.88
306.582	682.88
306.812	672.88
307.042	682.88
307.272	684.88
307.502	699.88
307.731	688.88
307.961	706.88
308.191	692.88
308.421	689.88
308.651	707.88
308.881	668.88
309.111	715.88
309.341	666.88
309.571	691.88
309.8	699.88
310.03	699.88
310.26	712.88
310.49	702.88
310.72	687.88
310.949	717.88
311.179	692.88
311.409	711.88
311.639	701.88
311.868	701.88
312.098	720.88
312.328	724.88
312.557	724.88
312.787	731.88
313.017	721.88
313.246	746.88
313.476	732.88
313.706	727.88
313.935	758.88
314.165	770.88
314.394	753.88
314.624	779.88
314.853	747.88
315.083	744.88
315.312	745.88
315.542	751.88
315.771	735.88
316.001	729.88
316.23	735.88
316.46	737.88
316.689	728.88
316.919	774.88
317.148	735.88
317.377	709.88
317.607	740.88
317.836	722.88
318.065	732.88
318.295	746.88
318.524	741.88
318.753	719.88
318.983	711.88
319.212	717.88
319.441	733.88
319.67	730.88
319.9	727.88
320.129	712.88
320.358	740.88
320.587	738.88
320.816	749.88
321.046	748.88
321.275	768.88
321.504	770.88
321.733	733.88
321.962	770.88
322.191	774.88
322.42	772.88
322.649	755.88
322.878	765.88
323.108	750.88
323.337	736.88
323.566	756.88
323.795	775.88
324.024	743.88
324.253	756.88
324.482	758.88
324.71	776.88
324.939	800.88
325.168	766.88
325.397	780.88
325.626	796.88
325.855	803.88
326.084	841.88
326.313	838.88
326.542	828.88
326.77	839.88
326.999	806.88
327.228	813.88
327.457	820.88
327.686	830.88
327.914	827.88
328.143	804.88
328.372	835.88
328.6	840.88
328.829	816.88
329.058	838.88
329.287	843.88
329.515	838.88
329.744	844.88
329.972	825.88
330.201	842.88
330.43	840.88
330.658	821.88
330.887	866.88
331.115	858.88
331.344	891.88
331.572	863.88
331.801	882.88
332.03	928.88
332.258	943.88
332.486	987.88
332.715	988.88
332.943	1043.88
333.172	1078.88
333.4	1135.88
333.629	1162.88
333.857	1152.88
334.085	1149.88
334.314	1095.88
334.542	1074.88
334.771	1079.88
334.999	1052.88
335.227	1072.88
335.455	1050.88
335.684	1051.88
335.912	1011.88
336.14	1003.88
336.369	994.88
336.597	988.88
336.825	989.88
337.053	975.88
337.281	982.88
337.51	968.88
337.738	952.88
337.966	952.88
338.194	935.88
338.422	908.88
338.65	895.88
338.878	894.88
339.106	895.88
339.334	900.88
339.562	896.88
339.79	867.88
340.018	862.88
340.246	869.88
340.474	862.88
340.702	880.88
340.93	907.88
341.158	896.88
341.386	875.88
341.614	856.88
341.842	871.88
342.07	867.88
342.298	854.88
342.526	880.88
342.754	889.88
342.981	868.88
343.209	884.88
343.437	952.88
343.665	990.88
343.893	1099.88
344.12	1099.88
344.348	1047.88
344.576	1002.88
344.804	940.88
345.031	905.88
345.259	898.88
345.487	897.88
345.714	863.88
345.942	868.88
346.17	860.88
346.397	826.88
346.625	848.88
346.853	848.88
347.08	839.88
347.308	850.88
347.535	867.88
347.763	871.88
347.99	845.88
348.218	857.88
348.445	865.88
348.673	849.88
348.9	837.88
349.128	831.88
349.355	813.88
349.583	843.88
349.81	860.88
350.037	808.88
350.265	821.88
350.492	803.88
350.72	797.88
350.947	827.88
351.174	836.88
351.402	802.88
351.629	792.88
351.856	809.88
352.083	809.88
352.311	811.88
352.538	802.88
352.765	818.88
352.992	811.88
353.22	813.88
353.447	798.88
353.674	805.88
353.901	821.88
354.128	796.88
354.355	782.88
354.583	783.88
354.81	779.88
355.037	828.88
355.264	802.88
355.491	815.88
355.718	820.88
355.945	831.88
356.172	822.88
356.399	826.88
356.626	846.88
356.853	830.88
357.08	805.88
357.307	818.88
357.534	802.88
357.761	813.88
357.988	843.88
358.215	803.88
358.441	790.88
358.668	832.88
358.895	810.88
359.122	813.88
359.349	837.88
359.576	814.88
359.802	822.88
360.029	815.88
360.256	812.88
360.483	808.88
360.709	802.88
360.936	832.88
361.163	785.88
361.39	796.88
361.616	823.88
361.843	802.88
362.07	838.88
362.296	792.88
362.523	800.88
362.749	821.88
362.976	798.88
363.203	782.88
363.429	823.88
363.656	809.88
363.882	829.88
364.109	780.88
364.335	784.88
364.562	790.88
364.788	791.88
365.015	814.88
365.241	797.88
365.468	776.88
365.694	779.88
365.92	809.88
366.147	802.88
366.373	810.88
366.599	823.88
366.826	810.88
367.052	824.88
367.278	803.88
367.505	827.88
367.731	822.88
367.957	821.88
368.184	798.88
368.41	825.88
368.636	813.88
368.862	848.88
369.089	855.88
369.315	810.88
369.541	839.88
369.767	858.88
369.993	842.88
370.219	837.88
370.445	846.88
370.672	872.88
370.898	876.88
371.124	871.88
371.35	885.88
371.576	884.88
371.802	887.88
372.028	867.88
372.254	876.88
372.48	889.88
372.706	920.88
372.932	949.88
373.158	910.88
373.384	886.88
373.61	873.88
373.835	879.88
374.061	869.88
374.287	903.88
374.513	906.88
374.739	927.88
374.965	976.88
375.191	988.88
375.416	995.88
375.642	950.88
375.868	939.88
376.094	914.88
376.319	915.88
376.545	870.88
376.771	898.88
376.997	857.88
377.222	863.88
377.448	876.88
377.674	857.88
377.899	841.88
378.125	857.88
378.35	860.88
378.576	870.88
378.802	832.88
379.027	860.88
379.253	880.88
379.478	870.88
379.704	868.88
379.929	856.88
380.155	852.88
380.38	862.88
380.606	878.88
380.831	867.88
381.057	879.88
381.282	882.88
381.507	895.88
381.733	897.88
381.958	891.88
382.184	913.88
382.409	904.88
382.634	911.88
382.86	915.88
383.085	962.88
383.31	958.88
383.535	962.88
383.761	970.88
383.986	999.88
384.211	1016.88
384.436	1072.88
384.662	1052.88
384.887	1075.88
385.112	1084.88
385.337	1088.88
385.562	1085.88
385.787	1076.88
386.013	1075.88
386.238	1053.88
386.463	1070.88
386.688	1069.88
386.913	1040.88
387.138	1039.88
387.363	1034.88
387.588	1033.88
387.813	1031.88
388.038	1048.88
388.263	1048.88
388.488	1055.88
388.713	1023.88
388.938	1017.88
389.163	1056.88
389.387	1056.88
389.612	1030.88
389.837	1036.88
390.062	1043.88
390.287	1062.88
390.512	1062.88
390.736	1055.88
390.961	1070.88
391.186	1111.88
391.411	1105.88
391.636	1149.88
391.86	1193.88
392.085	1213.88
392.31	1196.88
392.534	1174.88
392.759	1156.88
392.984	1113.88
393.208	1127.88
393.433	1145.88
393.658	1116.88
393.882	1125.88
394.107	1144.88
394.331	1111.88
394.556	1140.88
394.78	1125.88
395.005	1163.88
395.229	1138.88
395.454	1153.88
395.678	1204.88
395.903	1205.88
396.127	1173.88
396.352	1102.88
396.576	1122.88
396.801	1141.88
397.025	1145.88
397.249	1164.88
397.474	1172.88
397.698	1175.88
397.922	1193.88
398.147	1170.88
398.371	1200.88
398.595	1222.88
398.82	1316.88
399.044	1404.88
399.268	1576.88
399.492	1853.88
399.717	2086.88
399.941	2036.88
400.165	1771.88
400.389	1554.88
400.613	1463.88
400.837	1383.88
401.062	1356.88
401.286	1308.88
401.51	1336.88
401.734	1308.88
401.958	1367.88
402.182	1387.88
402.406	1388.88
402.63	1366.88
402.854	1441.88
403.078	1455.88
403.302	1485.88
403.526	1548.88
403.75	1544.88
403.974	1588.88
404.198	1551.88
404.422	1599.88
404.645	1562.88
404.869	1521.88
405.093	1534.88
405.317	1458.88
405.541	1491.88
405.765	1477.88
405.988	1444.88
406.212	1444.88
406.436	1486.88
406.66	1504.88
406.883	1558.88
407.107	1628.88
407.331	1704.88
407.555	1749.88
407.778	1736.88
408.002	1690.88
408.226	1609.88
408.449	1602.88
408.673	1553.88
408.896	1519.88
409.12	1498.88
409.344	1521.88
409.567	1539.88
409.791	1533.88
410.014	1511.88
410.238	1494.88
410.461	1495.88
410.685	1467.88
410.908	1462.88
411.132	1417.88
411.355	1400.88
411.578	1382.88
411.802	1393.88
412.025	1395.88
412.249	1399.88
412.472	1414.88
412.695	1352.88
412.919	1315.88
413.142	1318.88
413.365	1327.88
413.589	1338.88
413.812	1333.88
414.035	1301.88
414.258	1271.88
414.482	1359.88
414.705	1368.88
414.928	1404.88
415.151	1357.88
415.374	1354.88
415.597	1347.88
415.821	1291.88
416.044	1237.88
416.267	1303.88
416.49	1271.88
416.713	1286.88
416.936	1310.88
417.159	1289.88
417.382	1302.88
417.605	1303.88
417.828	1301.88
418.051	1313.88
418.274	1350.88
418.497	1347.88
418.72	1372.88
418.943	1342.88
419.166	1452.88
419.389	1514.88
419.611	1522.88
419.834	1432.88
420.057	1337.88
420.28	1322.88
420.503	1288.88
420.726	1290.88
420.948	1315.88
421.171	1308.88
421.394	1308.88
421.617	1316.88
421.839	1320.88
422.062	1310.88
422.285	1326.88
422.507	1372.88
422.73	1363.88
422.953	1392.88
423.175	1418.88
423.398	1419.88
423.621	1373.88
423.843	1453.88
424.066	1431.88
424.288	1405.88
424.511	1381.88
424.733	1383.88
424.956	1334.88
425.178	1352.88
425.401	1349.88
425.623	1339.88
425.846	1284.88
426.068	1254.88
426.291	1230.88
426.513	1261.88
426.735	1227.88
426.958	1227.88
427.18	1237.88
427.402	1221.88
427.625	1190.88
427.847	1155.88
428.069	1195.88
428.292	1180.88
428.514	1163.88
428.736	1161.88
428.958	1160.88
429.181	1140.88
429.403	1141.88
429.625	1117.88
429.847	1158.88
430.069	1114.88
430.292	1144.88
430.514	1101.88
430.736	1137.88
430.958	1128.88
431.18	1130.88
431.402	1162.88
431.624	1163.88
431.846	1169.88
432.068	1179.88
432.29	1183.88
432.512	1140.88
432.734	1161.88
432.956	1172.88
433.178	1156.88
433.4	1198.88
433.622	1200.88
433.844	1183.88
434.066	1178.88
434.287	1190.88
434.509	1252.88
434.731	1279.88
434.953	1319.88
435.175	1358.88
435.397	1299.88
435.618	1240.88
435.84	1208.88
436.062	1200.88
436.284	1171.88
436.505	1172.88
436.727	1190.88
436.949	1157.88
437.17	1147.88
437.392	1134.88
437.614	1109.88
437.835	1055.88
438.057	1114.88
438.278	1108.88
438.5	1106.88
438.721	1129.88
438.943	1107.88
439.165	1077.88
439.386	1120.88
439.608	1150.88
439.829	1158.88
440.05	1164.88
440.272	1204.88
440.493	1195.88
440.715	1190.88
440.936	1172.88
441.158	1255.88
441.379	1283.88
441.6	1317.88
441.822	1374.88
442.043	1315.88
442.264	1298.88
442.486	1304.88
442.707	1304.88
442.928	1292.88
443.149	1316.88
443.371	1262.88
443.592	1299.88
443.813	1301.88
444.034	1375.88
444.255	1403.88
444.476	1450.88
444.698	1558.88
444.919	1596.88
445.14	1634.88
445.361	1470.88
445.582	1347.88
445.803	1298.88
446.024	1246.88
446.245	1242.88
446.466	1194.88
446.687	1182.88
446.908	1167.88
447.129	1151.88
447.35	1131.88
447.571	1100.88
447.792	1096.88
448.013	1083.88
448.234	1086.88
448.455	1057.88
448.675	1071.88
448.896	1089.88
449.117	1040.88
449.338	1056.88
449.559	1048.88
449.779	1045.88
450	1034.88
450.221	1065.88
450.442	1067.88
450.662	1099.88
450.883	1031.88
451.104	1113.88
451.324	1113.88
451.545	1099.88
451.766	1093.88
451.986	1099.88
452.207	1058.88
452.428	1060.88
452.648	1083.88
452.869	1016.88
453.089	1036.88
453.31	1044.88
453.53	1013.88
453.751	1039.88
453.971	1030.88
454.192	1040.88
454.412	1010.88
454.633	1022.88
454.853	993.88
455.073	998.88
455.294	1015.88
455.514	981.88
455.734	1016.88
455.955	992.88
456.175	994.88
456.395	980.88
456.616	968.88
456.836	980.88
457.056	980.88
457.276	966.88
457.497	989.88
457.717	1007.88
457.937	994.88
458.157	978.88
458.377	1040.88
458.598	1054.88
458.818	1055.88
459.038	1114.88
459.258	1142.88
459.478	1159.88
459.698	1177.88
459.918	1244.88
460.138	1287.88
460.358	1350.88
460.578	1402.88
460.798	1386.88
461.018	1404.88
461.238	1350.88
461.458	1352.88
461.678	1358.88
461.898	1369.88
462.118	1382.88
462.338	1474.88
462.558	1546.88
462.777	1549.88
462.997	1728.88
463.217	1933.88
463.437	1914.88
463.657	1725.88
463.876	1627.88
464.096	1642.88
464.316	1621.88
464.536	1659.88
464.755	1564.88
464.975	1502.88
465.195	1416.88
465.414	1338.88
465.634	1226.88
465.854	1203.88
466.073	1154.88
466.293	1162.88
466.512	1131.88
466.732	1136.88
466.951	1125.88
467.171	1142.88
467.391	1116.88
467.61	1111.88
467.829	1114.88
468.049	1099.88
468.268	1088.88
468.488	1028.88
468.707	1066.88
468.927	1074.88
469.146	1057.88
469.365	1094.88
469.585	1107.88
469.804	1119.88
470.023	1135.88
470.243	1142.88
470.462	1154.88
470.681	1168.88
470.901	1157.88
471.12	1126.88
471.339	1125.88
471.558	1108.88
471.777	1110.88
471.997	1091.88
472.216	1054.88
472.435	1052.88
472.654	1041.88
472.873	1053.88
473.092	1036.88
473.311	1012.88
473.53	1013.88
473.749	1038.88
473.968	1027.88
474.187	1022.88
474.406	1012.88
474.625	1036.88
474.844	1025.88
475.063	1063.88
475.282	1034.88
475.501	1036.88
475.72	1052.88
475.939	1066.88
476.158	1072.88
476.377	1074.88
476.596	1059.88
476.814	1081.88
477.033	1095.88
477.252	1132.88
477.471	1150.88
477.69	1170.88
477.908	1210.88
478.127	1252.88
478.346	1286.88
478.564	1255.88
478.783	1264.88
479.002	1322.88
479.22	1345.88
479.439	1282.88
479.658	1302.88
479.876	1254.88
480.095	1311.88
480.313	1361.88
480.532	1444.88
480.751	1410.88
480.969	1316.88
481.188	1277.88
481.406	1234.88
481.624	1227.88
481.843	1198.88
482.061	1185.88
482.28	1186.88
482.498	1143.88
482.717	1152.88
482.935	1222.88
483.153	1196.88
483.372	1162.88
483.59	1213.88
483.808	1197.88
484.027	1191.88
484.245	1193.88
484.463	1194.88
484.681	1217.88
484.9	1231.88
485.118	1252.88
485.336	1228.88
485.554	1213.88
485.772	1235.88
485.99	1261.88
486.209	1259.88
486.427	1261.88
486.645	1240.88
486.863	1248.88
487.081	1239.88
487.299	1261.88
487.517	1259.88
487.735	1236.88
487.953	1217.88
488.171	1257.88
488.389	1234.88
488.607	1200.88
488.825	1213.88
489.043	1212.88
489.261	1204.88
489.479	1243.88
489.696	1214.88
489.914	1286.88
490.132	1267.88
490.35	1283.88
490.568	1238.88
490.786	1242.88
491.003	1248.88
491.221	1263.88
491.439	1244.88
491.657	1238.88
491.874	1290.88
492.092	1292.88
492.31	1264.88
492.527	1260.88
492.745	1247.88
492.963	1243.88
493.18	1270.88
493.398	1289.88
493.615	1311.88
493.833	1316.88
494.05	1304.88
494.268	1321.88
494.485	1320.88
494.703	1286.88
494.92	1305.88
495.138	1324.88
495.355	1310.88
495.573	1326.88
495.79	1331.88
496.008	1355.88
496.225	1350.88
496.442	1302.88
496.66	1354.88
496.877	1370.88
497.094	1402.88
497.312	1414.88
497.529	1472.88
497.746	1489.88
497.963	1529.88
498.181	1592.88
498.398	1702.88
498.615	1806.88
498.832	1914.88
499.049	2059.88
499.267	2220.88
499.484	2411.88
499.701	2745.88
499.918	2959.88
500.135	3497.88
500.352	4100.88
500.569	4254.88
500.786	4243.88
501.003	3828.88
501.22	3335.88
501.437	2947.88
501.654	2616.88
501.871	2340.88
502.088	2143.88
502.305	1977.88
502.522	1889.88
502.739	1809.88
502.956	1740.88
503.172	1662.88
503.389	1592.88
503.606	1512.88
503.823	1494.88
504.04	1468.88
504.256	1567.88
504.473	1558.88
504.69	1607.88
504.907	1591.88
505.123	1460.88
505.34	1364.88
505.557	1335.88
505.773	1290.88
505.99	1233.88
506.207	1231.88
506.423	1229.88
506.64	1184.88
506.856	1160.88
507.073	1162.88
507.289	1178.88
507.506	1166.88
507.722	1155.88
507.939	1126.88
508.155	1087.88
508.372	1098.88
508.588	1120.88
508.805	1111.88
509.021	1081.88
509.238	1078.88
509.454	1086.88
509.67	1067.88
509.887	1036.88
510.103	1063.88
510.319	1053.88
510.536	1067.88
510.752	1031.88
510.968	1069.88
511.184	1048.88
511.401	1074.88
511.617	1058.88
511.833	1018.88
512.049	1025.88
512.265	1021.88
512.481	1045.88
512.698	1022.88
512.914	1051.88
513.13	1064.88
513.346	1066.88
513.562	1030.88
513.778	1060.88
513.994	1093.88
514.21	1069.88
514.426	1077.88
514.642	1064.88
514.858	1069.88
515.074	1095.88
515.29	1090.88
515.506	1093.88
515.721	1124.88
515.937	1104.88
516.153	1144.88
516.369	1190.88
516.585	1233.88
516.801	1235.88
517.016	1315.88
517.232	1403.88
517.448	1494.88
517.664	1525.88
517.879	1501.88
518.095	1493.88
518.311	1506.88
518.527	1418.88
518.742	1327.88
518.958	1264.88
519.173	1275.88
519.389	1214.88
519.605	1157.88
519.82	1112.88
520.036	1112.88
520.251	1100.88
520.467	1077.88
520.682	1096.88
520.898	1039.88
521.113	1030.88
521.329	1064.88
521.544	1033.88
521.76	1031.88
521.975	1023.88
522.19	1020.88
522.406	1011.88
522.621	995.88
522.836	994.88
523.052	982.88
523.267	976.88
523.482	973.88
523.698	965.88
523.913	961.88
524.128	970.88
524.343	965.88
524.559	963.88
524.774	968.88
524.989	972.88
525.204	961.88
525.419	961.88
525.634	955.88
525.849	944.88
526.064	940.88
526.28	966.88
526.495	957.88
526.71	928.88
526.925	950.88
527.14	921.88
527.355	933.88
527.57	938.88
527.785	955.88
527.999	951.88
528.214	921.88
528.429	946.88
528.644	966.88
528.859	933.88
529.074	959.88
529.289	947.88
529.503	954.88
529.718	954.88
529.933	921.88
530.148	949.88
530.363	921.88
530.577	938.88
530.792	936.88
531.007	950.88
531.221	951.88
531.436	937.88
531.651	947.88
531.865	972.88
532.08	979.88
532.295	908.88
532.509	919.88
532.724	954.88
532.938	960.88
533.153	970.88
533.367	940.88
533.582	941.88
533.796	939.88
534.011	944.88
534.225	953.88
534.44	928.88
534.654	943.88
534.868	910.88
535.083	912.88
535.297	941.88
535.511	922.88
535.726	907.88
535.94	919.88
536.154	906.88
536.369	886.88
536.583	882.88
536.797	877.88
537.011	876.88
537.225	885.88
537.44	867.88
537.654	894.88
537.868	882.88
538.082	869.88
538.296	858.88
538.51	839.88
538.724	858.88
538.938	860.88
539.153	861.88
539.367	835.88
539.581	836.88
539.795	875.88
540.009	820.88
540.222	835.88
540.436	852.88
540.65	829.88
540.864	828.88
541.078	869.88
541.292	846.88
541.506	868.88
541.72	829.88
541.934	849.88
542.147	825.88
542.361	867.88
542.575	836.88
542.789	834.88
543.002	839.88
543.216	838.88
543.43	844.88
543.644	823.88
543.857	857.88
544.071	806.88
544.285	874.88
544.498	847.88
544.712	842.88
544.925	854.88
545.139	858.88
545.352	891.88
545.566	878.88
545.779	880.88
545.993	920.88
546.206	891.88
546.42	873.88
546.633	853.88
546.847	872.88
547.06	877.88
547.274	865.88
547.487	869.88
547.7	863.88
547.914	874.88
548.127	877.88
548.34	886.88
548.554	884.88
548.767	877.88
548.98	875.88
549.193	863.88
549.407	887.88
549.62	884.88
549.833	916.88
550.046	887.88
550.259	867.88
550.473	844.88
550.686	854.88
550.899	863.88
551.112	837.88
551.325	837.88
551.538	839.88
551.751	851.88
551.964	794.88
552.177	868.88
552.39	847.88
552.603	894.88
552.816	948.88
553.029	963.88
553.242	970.88
553.455	975.88
553.667	973.88
553.88	943.88
554.093	956.88
554.306	883.88
554.519	866.88
554.732	867.88
554.944	866.88
555.157	856.88
555.37	831.88
555.583	788.88
555.795	789.88
556.008	780.88
556.221	778.88
556.433	777.88
556.646	748.88
556.859	738.88
557.071	741.88
557.284	731.88
557.496	737.88
557.709	722.88
557.921	728.88
558.134	708.88
558.346	732.88
558.559	728.88
558.771	722.88
558.984	731.88
559.196	718.88
559.409	720.88
559.621	716.88
559.833	717.88
560.046	710.88
560.258	726.88
560.47	724.88
560.683	709.88
560.895	707.88
561.107	702.88
561.32	710.88
561.532	707.88
561.744	711.88
561.956	710.88
562.168	703.88
562.381	723.88
562.593	721.88
562.805	732.88
563.017	686.88
563.229	687.88
563.441	698.88
563.653	708.88
563.865	714.88
564.077	708.88
564.289	735.88
564.501	764.88
564.713	754.88
564.925	742.88
565.137	771.88
565.349	805.88
565.561	823.88
565.773	852.88
565.985	873.88
566.197	935.88
566.408	994.88
566.62	1090.88
566.832	1205.88
567.044	1217.88
567.255	1183.88
567.467	1245.88
567.679	1323.88
567.891	1412.88
568.102	1448.88
568.314	1381.88
568.526	1222.88
568.737	1109.88
568.949	1001.88
569.161	941.88
569.372	860.88
569.584	808.88
569.795	784.88
570.007	781.88
570.218	756.88
570.43	732.88
570.641	712.88
570.853	703.88
571.064	740.88
571.276	741.88
571.487	712.88
571.698	675.88
571.91	633.88
572.121	649.88
572.333	617.88
572.544	608.88
572.755	607.88
572.966	633.88
573.178	610.88
573.389	615.88
573.6	586.88
573.811	605.88
574.023	588.88
574.234	583.88
574.445	585.88
574.656	592.88
574.867	602.88
575.078	605.88
575.289	584.88
575.501	566.88
575.712	560.88
575.923	549.88
576.134	545.88
576.345	551.88
576.556	543.88
576.767	550.88
576.978	550.88
577.188	551.88
577.399	551.88
577.61	554.88
577.821	532.88
578.032	535.88
578.243	516.88
578.454	535.88
578.665	522.88
578.875	498.88
579.086	488.88
579.297	504.88
579.508	500.88
579.718	518.88
579.929	520.88
580.14	502.88
580.35	518.88
580.561	512.88
580.772	496.88
580.982	519.88
581.193	493.88
581.403	480.88
581.614	501.88
581.825	486.88
582.035	497.88
582.246	481.88
582.456	502.88
582.667	487.88
582.877	476.88
583.087	498.88
583.298	487.88
583.508	469.88
583.719	485.88
583.929	464.88
584.139	488.88
584.35	476.88
584.56	481.88
584.77	468.88
584.981	462.88
585.191	461.88
585.401	464.88
585.611	462.88
585.821	475.88
586.032	482.88
586.242	492.88
586.452	455.88
586.662	460.88
586.872	442.88
587.082	440.88
587.292	455.88
587.502	441.88
587.713	473.88
587.923	453.88
588.133	443.88
588.343	442.88
588.553	450.88
588.762	462.88
588.972	454.88
589.182	453.88
589.392	474.88
589.602	476.88
589.812	447.88
590.022	467.88
590.232	458.88
590.441	485.88
590.651	471.88
590.861	476.88
591.071	472.88
591.281	478.88
591.49	473.88
591.7	498.88
591.91	491.88
592.119	502.88
592.329	484.88
592.539	534.88
592.748	535.88
592.958	581.88
593.167	580.88
593.377	595.88
593.587	590.88
593.796	613.88
594.006	626.88
594.215	638.88
594.424	632.88
594.634	626.88
594.843	568.88
595.053	542.88
595.262	525.88
595.472	505.88
595.681	472.88
595.89	482.88
596.1	483.88
596.309	455.88
596.518	441.88
596.727	446.88
596.937	429.88
597.146	431.88
597.355	420.88
597.564	431.88
597.774	415.88
597.983	400.88
598.192	399.88
598.401	396.88
598.61	414.88
598.819	400.88
599.028	410.88
599.237	389.88
599.446	389.88
599.655	408.88
599.864	398.88
600.073	389.88
600.282	375.88
600.491	374.88
600.7	370.88
600.909	388.88
601.118	386.88
601.327	392.88
601.536	366.88
601.745	367.88
601.953	390.88
602.162	375.88
602.371	395.88
602.58	373.88
602.789	376.88
602.997	376.88
603.206	380.88
603.415	358.88
603.623	362.88
603.832	368.88
604.041	366.88
604.249	363.88
604.458	367.88
604.666	341.88
604.875	353.88
605.084	364.88
605.292	350.88
605.501	383.88
605.709	329.88
605.918	359.88
606.126	356.88
606.334	357.88
606.543	345.88
606.751	364.88
606.96	344.88
607.168	348.88
607.376	331.88
607.585	367.88
607.793	337.88
608.001	347.88
608.21	342.88
608.418	336.88
608.626	335.88
608.834	327.88
609.043	328.88
609.251	339.88
609.459	361.88
609.667	366.88
609.875	343.88
610.083	352.88
610.291	334.88
610.499	336.88
610.707	339.88
610.916	339.88
611.124	336.88
611.332	345.88
611.54	316.88
611.748	333.88
611.955	326.88
612.163	339.88
612.371	374.88
612.579	333.88
612.787	369.88
612.995	332.88
613.203	342.88
613.411	332.88
613.618	325.88
613.826	327.88
614.034	326.88
614.242	334.88
614.449	330.88
614.657	328.88
614.865	320.88
615.072	337.88
615.28	345.88
615.488	348.88
615.695	322.88
615.903	341.88
616.111	331.88
616.318	347.88
616.526	352.88
616.733	350.88
616.941	325.88
617.148	336.88
617.356	343.88
617.563	350.88
617.771	334.88
617.978	333.88
618.185	323.88
618.393	320.88
618.6	314.88
618.807	330.88
619.015	337.88
619.222	327.88
619.429	320.88
619.637	332.88
619.844	337.88
620.051	336.88
620.258	306.88
620.466	312.88
620.673	317.88
620.88	297.88
621.087	301.88
621.294	294.88
621.501	310.88
621.708	319.88
621.915	324.88
622.122	297.88
622.329	317.88
622.536	310.88
622.743	289.88
622.95	281.88
623.157	307.88
623.364	292.88
623.571	289.88
623.778	288.88
623.985	306.88
624.192	290.88
624.399	276.88
624.606	279.88
624.812	283.88
625.019	286.88
625.226	284.88
625.433	287.88
625.639	290.88
625.846	298.88
626.053	291.88
626.259	287.88
626.466	263.88
626.673	275.88
626.879	283.88
627.086	285.88
627.293	279.88
627.499	277.88
627.706	276.88
627.912	275.88
628.119	272.88
628.325	262.88
628.532	261.88
628.738	261.88
628.945	267.88
629.151	271.88
629.357	259.88
629.564	261.88
629.77	262.88
629.976	247.88
630.183	275.88
630.389	264.88
630.595	266.88
630.802	263.88
631.008	252.88
631.214	251.88
631.42	266.88
631.627	276.88
631.833	244.88
632.039	259.88
632.245	238.88
632.451	239.88
632.657	250.88
632.863	250.88
633.069	254.88
633.275	259.88
633.481	244.88
633.688	250.88
633.893	245.88
634.099	244.88
634.305	233.88
634.511	246.88
634.717	258.88
634.923	246.88
635.129	258.88
635.335	226.88
635.541	228.88
635.747	237.88
635.952	247.88
636.158	234.88
636.364	228.88
636.57	223.88
636.775	237.88
636.981	239.88
637.187	240.88
637.392	228.88
637.598	220.88
637.804	238.88
638.009	237.88
638.215	241.88
638.421	238.88
638.626	248.88
638.832	223.88
639.037	212.88
639.243	227.88
639.448	231.88
639.654	236.88
639.859	236.88
640.065	220.88
640.27	215.88
640.475	235.88
640.681	213.88
640.886	213.88
641.091	231.88
641.297	232.88
641.502	208.88
641.707	207.88
641.913	219.88
642.118	223.88
642.323	197.88
642.528	203.88
642.733	195.88
642.939	229.88
643.144	235.88
643.349	218.88
643.554	216.88
643.759	216.88
643.964	207.88
644.169	203.88
644.374	213.88
644.579	194.88
644.784	202.88
644.989	214.88
645.194	211.88
645.399	212.88
645.604	203.88
645.809	213.88
646.014	190.88
646.219	208.88
646.423	209.88
646.628	214.88
646.833	216.88
647.038	215.88
647.243	208.88
647.447	224.88
647.652	234.88
647.857	219.88
648.062	231.88
648.266	225.88
648.471	236.88
648.676	244.88
648.88	218.88
649.085	229.88
649.289	226.88
649.494	209.88
649.698	204.88
649.903	198.88
650.107	198.88
650.312	200.88
650.516	206.88
650.721	200.88
650.925	197.88
651.13	190.88
651.334	189.88
651.539	180.88
651.743	192.88
651.947	187.88
652.152	172.88
652.356	182.88
652.56	188.88
652.764	180.88
652.969	177.88
653.173	174.88
653.377	182.88
653.581	169.88
653.785	159.88
653.99	161.88
654.194	160.88
654.398	158.88
654.602	179.88
654.806	175.88
655.01	170.88
655.214	157.88
655.418	164.88
655.622	164.88
655.826	160.88
656.03	171.88
656.234	173.88
656.438	153.88
656.642	164.88
656.846	156.88
657.049	162.88
657.253	170.88
657.457	143.88
657.661	129.88
657.865	133.88
658.068	128.88
658.272	120.88
658.476	123.88
658.68	119.88
658.883	115.88
659.087	110.88
659.291	103.88
659.494	117.88
659.698	107.88
659.901	104.88
660.105	116.88
660.309	114.88
660.512	87.88
660.716	103.88
660.919	97.88
661.123	105.88
661.326	106.88
661.53	88.88
661.733	90.88
661.936	91.88
662.14	102.88
662.343	88.88
662.546	99.88
662.75	72.88
662.953	93.88
663.156	91.88
663.36	92.88
663.563	89.88
663.766	95.88
663.969	89.88
664.173	87.88
664.376	86.88
664.579	81.88
664.782	90.88
664.985	78.88
665.188	85.88
665.391	87.88
665.594	89.88
665.797	82.88
666	86.88
666.203	70.88
666.406	81.88
666.609	94.88
666.812	83.88
667.015	92.88
667.218	93.88
667.421	79.88
667.624	99.88
667.827	90.88
668.03	71.88
668.232	63.88
668.435	91.88
668.638	85.88
668.841	92.88
669.043	83.88
669.246	89.88
669.449	90.88
669.651	92.88
669.854	73.88
670.057	77.88
670.259	91.88
670.462	86.88
670.665	88.88
670.867	86.88
671.07	87.88
671.272	78.88
671.475	84.88
671.677	73.88
671.88	92.88
672.082	90.88
672.284	90.88
672.487	77.88
672.689	79.88
672.892	80.88
