Data from Ni(NO3)2@0.5M.TitratingCurve.Agarose3%dH2O.NegLispCup.LampEnergy10.LIBS07252019_HRD10591_17-59-35-565.txt Node
Date: Thu Jul 25 17:59:35 EDT 2019
User: cochatt
Spectrometer: HR+D1059
Trigger mode: 1
Integration Time (sec): 1.000000E-1
Scans to average: 1
Electric dark correction enabled: true
Nonlinearity correction enabled: false
Boxcar width: 0
XAxis mode: Wavelengths
Number of Pixels in Spectrum: 2048
>>>>>Begin Spectral Data<<<<<
223.165	-22.31
223.4	-22.31
223.635	-22.31
223.869	-19.31
224.104	-8.31
224.338	-16.31
224.573	-25.31
224.808	-14.31
225.042	-10.31
225.277	-10.31
225.511	-4.31
225.746	-6.31
225.98	14.69
226.215	15.69
226.449	34.69
226.683	15.69
226.918	24.69
227.152	31.69
227.387	22.69
227.621	35.69
227.856	40.69
228.09	53.69
228.324	58.69
228.559	73.69
228.793	82.69
229.027	97.69
229.262	87.69
229.496	112.69
229.73	112.69
229.964	128.69
230.199	149.69
230.433	152.69
230.667	146.69
230.901	137.69
231.136	136.69
231.37	129.69
231.604	127.69
231.838	150.69
232.072	154.69
232.306	147.69
232.541	132.69
232.775	128.69
233.009	138.69
233.243	130.69
233.477	120.69
233.711	128.69
233.945	134.69
234.179	133.69
234.413	131.69
234.647	121.69
234.881	138.69
235.115	134.69
235.349	139.69
235.583	120.69
235.817	140.69
236.051	131.69
236.285	127.69
236.519	130.69
236.753	137.69
236.987	128.69
237.221	131.69
237.455	127.69
237.689	126.69
237.922	131.69
238.156	141.69
238.39	142.69
238.624	140.69
238.858	124.69
239.091	130.69
239.325	158.69
239.559	144.69
239.793	170.69
240.027	160.69
240.26	142.69
240.494	146.69
240.728	136.69
240.961	138.69
241.195	146.69
241.429	139.69
241.662	160.69
241.896	162.69
242.13	182.69
242.363	144.69
242.597	136.69
242.83	141.69
243.064	153.69
243.298	150.69
243.531	160.69
243.765	137.69
243.998	160.69
244.232	161.69
244.465	162.69
244.699	164.69
244.932	150.69
245.166	155.69
245.399	162.69
245.633	150.69
245.866	159.69
246.099	152.69
246.333	162.69
246.566	169.69
246.8	152.69
247.033	145.69
247.266	188.69
247.5	168.69
247.733	171.69
247.966	176.69
248.2	186.69
248.433	179.69
248.666	173.69
248.899	188.69
249.133	191.69
249.366	193.69
249.599	190.69
249.832	178.69
250.066	184.69
250.299	172.69
250.532	188.69
250.765	172.69
250.998	187.69
251.231	211.69
251.465	225.69
251.698	198.69
251.931	188.69
252.164	199.69
252.397	191.69
252.63	185.69
252.863	198.69
253.096	202.69
253.329	194.69
253.562	188.69
253.795	212.69
254.028	203.69
254.261	198.69
254.494	187.69
254.727	196.69
254.96	183.69
255.193	201.69
255.426	211.69
255.659	218.69
255.892	210.69
256.124	219.69
256.357	212.69
256.59	194.69
256.823	195.69
257.056	215.69
257.289	214.69
257.521	219.69
257.754	211.69
257.987	215.69
258.22	223.69
258.452	216.69
258.685	213.69
258.918	214.69
259.151	235.69
259.383	234.69
259.616	213.69
259.849	244.69
260.081	240.69
260.314	227.69
260.547	239.69
260.779	228.69
261.012	232.69
261.244	231.69
261.477	222.69
261.71	248.69
261.942	250.69
262.175	240.69
262.407	237.69
262.64	248.69
262.872	236.69
263.105	239.69
263.337	258.69
263.57	255.69
263.802	223.69
264.035	236.69
264.267	245.69
264.499	244.69
264.732	230.69
264.964	234.69
265.197	236.69
265.429	239.69
265.661	264.69
265.894	238.69
266.126	251.69
266.358	242.69
266.591	250.69
266.823	258.69
267.055	258.69
267.287	263.69
267.52	243.69
267.752	261.69
267.984	260.69
268.216	266.69
268.448	256.69
268.681	272.69
268.913	249.69
269.145	272.69
269.377	273.69
269.609	272.69
269.841	279.69
270.073	262.69
270.306	279.69
270.538	269.69
270.77	261.69
271.002	284.69
271.234	260.69
271.466	256.69
271.698	266.69
271.93	263.69
272.162	267.69
272.394	275.69
272.626	276.69
272.858	314.69
273.09	299.69
273.322	293.69
273.553	285.69
273.785	299.69
274.017	287.69
274.249	255.69
274.481	270.69
274.713	304.69
274.945	278.69
275.176	272.69
275.408	283.69
275.64	304.69
275.872	277.69
276.104	278.69
276.335	290.69
276.567	278.69
276.799	287.69
277.031	308.69
277.262	303.69
277.494	296.69
277.726	322.69
277.957	300.69
278.189	296.69
278.421	316.69
278.652	295.69
278.884	306.69
279.115	298.69
279.347	318.69
279.579	308.69
279.81	319.69
280.042	302.69
280.273	320.69
280.505	320.69
280.736	319.69
280.968	311.69
281.199	331.69
281.431	293.69
281.662	316.69
281.894	316.69
282.125	339.69
282.356	333.69
282.588	326.69
282.819	320.69
283.051	341.69
283.282	341.69
283.513	336.69
283.745	327.69
283.976	354.69
284.207	345.69
284.439	319.69
284.67	343.69
284.901	342.69
285.132	317.69
285.364	338.69
285.595	347.69
285.826	336.69
286.057	342.69
286.288	345.69
286.52	337.69
286.751	341.69
286.982	349.69
287.213	344.69
287.444	353.69
287.675	347.69
287.906	357.69
288.138	346.69
288.369	349.69
288.6	347.69
288.831	350.69
289.062	348.69
289.293	348.69
289.524	343.69
289.755	357.69
289.986	361.69
290.217	355.69
290.448	358.69
290.679	347.69
290.91	355.69
291.141	358.69
291.371	354.69
291.602	370.69
291.833	361.69
292.064	366.69
292.295	344.69
292.526	359.69
292.757	341.69
292.987	358.69
293.218	347.69
293.449	370.69
293.68	340.69
293.91	338.69
294.141	359.69
294.372	347.69
294.603	375.69
294.833	366.69
295.064	377.69
295.295	364.69
295.525	370.69
295.756	351.69
295.987	364.69
296.217	354.69
296.448	381.69
296.679	372.69
296.909	364.69
297.14	371.69
297.37	394.69
297.601	374.69
297.831	375.69
298.062	357.69
298.292	368.69
298.523	380.69
298.753	395.69
298.984	376.69
299.214	389.69
299.445	387.69
299.675	402.69
299.905	394.69
300.136	401.69
300.366	386.69
300.597	410.69
300.827	391.69
301.057	397.69
301.288	382.69
301.518	428.69
301.748	405.69
301.979	402.69
302.209	420.69
302.439	382.69
302.669	384.69
302.9	395.69
303.13	392.69
303.36	401.69
303.59	392.69
303.82	411.69
304.051	403.69
304.281	409.69
304.511	390.69
304.741	420.69
304.971	437.69
305.201	420.69
305.431	432.69
305.661	444.69
305.891	423.69
306.121	415.69
306.352	409.69
306.582	401.69
306.812	394.69
307.042	406.69
307.272	405.69
307.502	408.69
307.731	430.69
307.961	400.69
308.191	412.69
308.421	411.69
308.651	405.69
308.881	399.69
309.111	414.69
309.341	412.69
309.571	410.69
309.8	444.69
310.03	431.69
310.26	438.69
310.49	440.69
310.72	426.69
310.949	404.69
311.179	430.69
311.409	424.69
311.639	409.69
311.868	404.69
312.098	427.69
312.328	432.69
312.557	428.69
312.787	435.69
313.017	435.69
313.246	436.69
313.476	442.69
313.706	438.69
313.935	442.69
314.165	434.69
314.394	449.69
314.624	449.69
314.853	453.69
315.083	441.69
315.312	447.69
315.542	437.69
315.771	442.69
316.001	446.69
316.23	453.69
316.46	453.69
316.689	457.69
316.919	445.69
317.148	456.69
317.377	426.69
317.607	444.69
317.836	438.69
318.065	440.69
318.295	451.69
318.524	477.69
318.753	471.69
318.983	450.69
319.212	432.69
319.441	460.69
319.67	448.69
319.9	451.69
320.129	450.69
320.358	450.69
320.587	457.69
320.816	452.69
321.046	445.69
321.275	472.69
321.504	474.69
321.733	467.69
321.962	459.69
322.191	458.69
322.42	451.69
322.649	472.69
322.878	476.69
323.108	469.69
323.337	460.69
323.566	478.69
323.795	479.69
324.024	492.69
324.253	480.69
324.482	467.69
324.71	469.69
324.939	474.69
325.168	472.69
325.397	466.69
325.626	499.69
325.855	462.69
326.084	480.69
326.313	490.69
326.542	495.69
326.77	520.69
326.999	501.69
327.228	508.69
327.457	492.69
327.686	477.69
327.914	516.69
328.143	498.69
328.372	475.69
328.6	480.69
328.829	480.69
329.058	489.69
329.287	487.69
329.515	492.69
329.744	511.69
329.972	489.69
330.201	487.69
330.43	512.69
330.658	518.69
330.887	543.69
331.115	503.69
331.344	514.69
331.572	550.69
331.801	518.69
332.03	536.69
332.258	536.69
332.486	547.69
332.715	560.69
332.943	567.69
333.172	559.69
333.4	544.69
333.629	565.69
333.857	595.69
334.085	578.69
334.314	577.69
334.542	587.69
334.771	590.69
334.999	583.69
335.227	580.69
335.455	602.69
335.684	579.69
335.912	583.69
336.14	596.69
336.369	578.69
336.597	576.69
336.825	598.69
337.053	581.69
337.281	602.69
337.51	568.69
337.738	570.69
337.966	575.69
338.194	589.69
338.422	578.69
338.65	548.69
338.878	542.69
339.106	560.69
339.334	580.69
339.562	578.69
339.79	533.69
340.018	514.69
340.246	523.69
340.474	535.69
340.702	519.69
340.93	556.69
341.158	551.69
341.386	557.69
341.614	599.69
341.842	564.69
342.07	547.69
342.298	552.69
342.526	536.69
342.754	540.69
342.981	526.69
343.209	538.69
343.437	556.69
343.665	575.69
343.893	569.69
344.12	594.69
344.348	588.69
344.576	581.69
344.804	592.69
345.031	572.69
345.259	562.69
345.487	538.69
345.714	574.69
345.942	544.69
346.17	581.69
346.397	555.69
346.625	547.69
346.853	532.69
347.08	527.69
347.308	529.69
347.535	539.69
347.763	524.69
347.99	521.69
348.218	525.69
348.445	518.69
348.673	512.69
348.9	514.69
349.128	542.69
349.355	554.69
349.583	559.69
349.81	547.69
350.037	528.69
350.265	518.69
350.492	529.69
350.72	516.69
350.947	515.69
351.174	555.69
351.402	554.69
351.629	572.69
351.856	567.69
352.083	533.69
352.311	536.69
352.538	580.69
352.765	572.69
352.992	539.69
353.22	524.69
353.447	517.69
353.674	506.69
353.901	523.69
354.128	526.69
354.355	507.69
354.583	514.69
354.81	495.69
355.037	509.69
355.264	512.69
355.491	511.69
355.718	513.69
355.945	532.69
356.172	500.69
356.399	503.69
356.626	530.69
356.853	542.69
357.08	523.69
357.307	507.69
357.534	511.69
357.761	516.69
357.988	532.69
358.215	491.69
358.441	505.69
358.668	510.69
358.895	526.69
359.122	528.69
359.349	499.69
359.576	517.69
359.802	507.69
360.029	510.69
360.256	527.69
360.483	501.69
360.709	523.69
360.936	513.69
361.163	501.69
361.39	531.69
361.616	508.69
361.843	541.69
362.07	524.69
362.296	540.69
362.523	508.69
362.749	521.69
362.976	515.69
363.203	495.69
363.429	532.69
363.656	529.69
363.882	515.69
364.109	524.69
364.335	520.69
364.562	526.69
364.788	523.69
365.015	527.69
365.241	500.69
365.468	509.69
365.694	506.69
365.92	515.69
366.147	510.69
366.373	517.69
366.599	515.69
366.826	504.69
367.052	528.69
367.278	531.69
367.505	501.69
367.731	504.69
367.957	499.69
368.184	521.69
368.41	527.69
368.636	529.69
368.862	531.69
369.089	525.69
369.315	532.69
369.541	541.69
369.767	525.69
369.993	535.69
370.219	534.69
370.445	525.69
370.672	558.69
370.898	523.69
371.124	542.69
371.35	546.69
371.576	550.69
371.802	551.69
372.028	554.69
372.254	547.69
372.48	549.69
372.706	536.69
372.932	566.69
373.158	546.69
373.384	536.69
373.61	567.69
373.835	549.69
374.061	546.69
374.287	575.69
374.513	560.69
374.739	559.69
374.965	583.69
375.191	579.69
375.416	586.69
375.642	568.69
375.868	572.69
376.094	561.69
376.319	554.69
376.545	553.69
376.771	530.69
376.997	556.69
377.222	547.69
377.448	550.69
377.674	511.69
377.899	543.69
378.125	542.69
378.35	558.69
378.576	534.69
378.802	542.69
379.027	515.69
379.253	535.69
379.478	534.69
379.704	542.69
379.929	546.69
380.155	545.69
380.38	540.69
380.606	540.69
380.831	542.69
381.057	540.69
381.282	543.69
381.507	558.69
381.733	569.69
381.958	556.69
382.184	540.69
382.409	570.69
382.634	553.69
382.86	552.69
383.085	581.69
383.31	566.69
383.535	577.69
383.761	554.69
383.986	594.69
384.211	589.69
384.436	572.69
384.662	583.69
384.887	612.69
385.112	611.69
385.337	610.69
385.562	602.69
385.787	624.69
386.013	622.69
386.238	619.69
386.463	616.69
386.688	619.69
386.913	615.69
387.138	619.69
387.363	632.69
387.588	623.69
387.813	602.69
388.038	599.69
388.263	604.69
388.488	608.69
388.713	602.69
388.938	613.69
389.163	597.69
389.387	626.69
389.612	622.69
389.837	604.69
390.062	631.69
390.287	617.69
390.512	620.69
390.736	656.69
390.961	629.69
391.186	655.69
391.411	635.69
391.636	635.69
391.86	650.69
392.085	670.69
392.31	652.69
392.534	629.69
392.759	655.69
392.984	641.69
393.208	649.69
393.433	676.69
393.658	640.69
393.882	650.69
394.107	659.69
394.331	648.69
394.556	638.69
394.78	650.69
395.005	663.69
395.229	631.69
395.454	678.69
395.678	694.69
395.903	661.69
396.127	652.69
396.352	664.69
396.576	659.69
396.801	669.69
397.025	663.69
397.249	676.69
397.474	700.69
397.698	666.69
397.922	691.69
398.147	708.69
398.371	705.69
398.595	718.69
398.82	746.69
399.044	760.69
399.268	784.69
399.492	842.69
399.717	861.69
399.941	856.69
400.165	852.69
400.389	807.69
400.613	797.69
400.837	754.69
401.062	755.69
401.286	748.69
401.51	731.69
401.734	736.69
401.958	718.69
402.182	713.69
402.406	718.69
402.63	738.69
402.854	743.69
403.078	720.69
403.302	753.69
403.526	767.69
403.75	780.69
403.974	785.69
404.198	779.69
404.422	737.69
404.645	747.69
404.869	785.69
405.093	778.69
405.317	765.69
405.541	758.69
405.765	760.69
405.988	795.69
406.212	785.69
406.436	770.69
406.66	794.69
406.883	798.69
407.107	826.69
407.331	836.69
407.555	892.69
407.778	832.69
408.002	850.69
408.226	834.69
408.449	852.69
408.673	825.69
408.896	828.69
409.12	819.69
409.344	818.69
409.567	806.69
409.791	831.69
410.014	780.69
410.238	783.69
410.461	794.69
410.685	773.69
410.908	770.69
411.132	812.69
411.355	791.69
411.578	756.69
411.802	788.69
412.025	758.69
412.249	777.69
412.472	754.69
412.695	754.69
412.919	755.69
413.142	740.69
413.365	741.69
413.589	758.69
413.812	751.69
414.035	784.69
414.258	743.69
414.482	734.69
414.705	752.69
414.928	745.69
415.151	734.69
415.374	768.69
415.597	737.69
415.821	710.69
416.044	731.69
416.267	725.69
416.49	726.69
416.713	722.69
416.936	709.69
417.159	705.69
417.382	709.69
417.605	693.69
417.828	726.69
418.051	725.69
418.274	748.69
418.497	692.69
418.72	751.69
418.943	722.69
419.166	750.69
419.389	802.69
419.611	786.69
419.834	741.69
420.057	750.69
420.28	735.69
420.503	712.69
420.726	723.69
420.948	720.69
421.171	737.69
421.394	724.69
421.617	709.69
421.839	738.69
422.062	702.69
422.285	718.69
422.507	695.69
422.73	736.69
422.953	713.69
423.175	732.69
423.398	752.69
423.621	699.69
423.843	741.69
424.066	732.69
424.288	720.69
424.511	740.69
424.733	733.69
424.956	707.69
425.178	717.69
425.401	692.69
425.623	739.69
425.846	724.69
426.068	688.69
426.291	708.69
426.513	703.69
426.735	683.69
426.958	678.69
427.18	687.69
427.402	716.69
427.625	684.69
427.847	691.69
428.069	684.69
428.292	652.69
428.514	671.69
428.736	676.69
428.958	685.69
429.181	683.69
429.403	688.69
429.625	707.69
429.847	663.69
430.069	671.69
430.292	673.69
430.514	682.69
430.736	675.69
430.958	672.69
431.18	682.69
431.402	693.69
431.624	690.69
431.846	682.69
432.068	690.69
432.29	682.69
432.512	680.69
432.734	688.69
432.956	697.69
433.178	696.69
433.4	717.69
433.622	726.69
433.844	733.69
434.066	718.69
434.287	731.69
434.509	700.69
434.731	747.69
434.953	726.69
435.175	756.69
435.397	748.69
435.618	691.69
435.84	698.69
436.062	692.69
436.284	685.69
436.505	682.69
436.727	698.69
436.949	670.69
437.17	698.69
437.392	690.69
437.614	667.69
437.835	688.69
438.057	678.69
438.278	673.69
438.5	660.69
438.721	684.69
438.943	653.69
439.165	643.69
439.386	657.69
439.608	696.69
439.829	675.69
440.05	680.69
440.272	671.69
440.493	714.69
440.715	684.69
440.936	701.69
441.158	714.69
441.379	711.69
441.6	735.69
441.822	756.69
442.043	729.69
442.264	730.69
442.486	692.69
442.707	700.69
442.928	716.69
443.149	739.69
443.371	742.69
443.592	762.69
443.813	780.69
444.034	754.69
444.255	761.69
444.476	790.69
444.698	800.69
444.919	792.69
445.14	917.69
445.361	848.69
445.582	772.69
445.803	723.69
446.024	698.69
446.245	708.69
446.466	706.69
446.687	657.69
446.908	694.69
447.129	678.69
447.35	670.69
447.571	650.69
447.792	643.69
448.013	642.69
448.234	660.69
448.455	636.69
448.675	623.69
448.896	659.69
449.117	651.69
449.338	646.69
449.559	621.69
449.779	616.69
450	615.69
450.221	597.69
450.442	610.69
450.662	615.69
450.883	664.69
451.104	661.69
451.324	664.69
451.545	648.69
451.766	617.69
451.986	606.69
452.207	623.69
452.428	635.69
452.648	608.69
452.869	605.69
453.089	626.69
453.31	640.69
453.53	621.69
453.751	604.69
453.971	611.69
454.192	619.69
454.412	628.69
454.633	609.69
454.853	610.69
455.073	608.69
455.294	610.69
455.514	611.69
455.734	618.69
455.955	638.69
456.175	616.69
456.395	615.69
456.616	600.69
456.836	577.69
457.056	604.69
457.276	590.69
457.497	620.69
457.717	631.69
457.937	636.69
458.157	631.69
458.377	623.69
458.598	612.69
458.818	630.69
459.038	654.69
459.258	650.69
459.478	710.69
459.698	741.69
459.918	780.69
460.138	750.69
460.358	743.69
460.578	739.69
460.798	763.69
461.018	767.69
461.238	762.69
461.458	732.69
461.678	730.69
461.898	757.69
462.118	756.69
462.338	804.69
462.558	819.69
462.777	852.69
462.997	864.69
463.217	884.69
463.437	914.69
463.657	892.69
463.876	835.69
464.096	824.69
464.316	852.69
464.536	795.69
464.755	805.69
464.975	772.69
465.195	711.69
465.414	720.69
465.634	701.69
465.854	685.69
466.073	706.69
466.293	686.69
466.512	694.69
466.732	680.69
466.951	672.69
467.171	689.69
467.391	679.69
467.61	662.69
467.829	655.69
468.049	640.69
468.268	652.69
468.488	676.69
468.707	663.69
468.927	692.69
469.146	680.69
469.365	679.69
469.585	648.69
469.804	643.69
470.023	644.69
470.243	643.69
470.462	675.69
470.681	669.69
470.901	680.69
471.12	650.69
471.339	665.69
471.558	651.69
471.777	679.69
471.997	646.69
472.216	649.69
472.435	630.69
472.654	621.69
472.873	638.69
473.092	639.69
473.311	654.69
473.53	639.69
473.749	634.69
473.968	638.69
474.187	635.69
474.406	638.69
474.625	622.69
474.844	662.69
475.063	662.69
475.282	662.69
475.501	677.69
475.72	685.69
475.939	679.69
476.158	685.69
476.377	674.69
476.596	693.69
476.814	679.69
477.033	684.69
477.252	706.69
477.471	704.69
477.69	731.69
477.908	731.69
478.127	756.69
478.346	726.69
478.564	752.69
478.783	763.69
479.002	798.69
479.22	809.69
479.439	788.69
479.658	792.69
479.876	796.69
480.095	801.69
480.313	776.69
480.532	803.69
480.751	800.69
480.969	790.69
481.188	772.69
481.406	778.69
481.624	760.69
481.843	777.69
482.061	779.69
482.28	771.69
482.498	765.69
482.717	758.69
482.935	762.69
483.153	803.69
483.372	798.69
483.59	806.69
483.808	787.69
484.027	766.69
484.245	768.69
484.463	803.69
484.681	798.69
484.9	804.69
485.118	793.69
485.336	788.69
485.554	798.69
485.772	823.69
485.99	811.69
486.209	799.69
486.427	820.69
486.645	812.69
486.863	798.69
487.081	810.69
487.299	799.69
487.517	844.69
487.735	827.69
487.953	830.69
488.171	830.69
488.389	796.69
488.607	807.69
488.825	782.69
489.043	794.69
489.261	796.69
489.479	794.69
489.696	808.69
489.914	800.69
490.132	799.69
490.35	789.69
490.568	806.69
490.786	807.69
491.003	789.69
491.221	823.69
491.439	803.69
491.657	782.69
491.874	826.69
492.092	837.69
492.31	810.69
492.527	844.69
492.745	805.69
492.963	822.69
493.18	821.69
493.398	806.69
493.615	811.69
493.833	818.69
494.05	830.69
494.268	827.69
494.485	804.69
494.703	818.69
494.92	825.69
495.138	818.69
495.355	836.69
495.573	833.69
495.79	818.69
496.008	826.69
496.225	844.69
496.442	859.69
496.66	826.69
496.877	850.69
497.094	871.69
497.312	893.69
497.529	891.69
497.746	893.69
497.963	919.69
498.181	971.69
498.398	950.69
498.615	979.69
498.832	1036.69
499.049	1094.69
499.267	1132.69
499.484	1166.69
499.701	1248.69
499.918	1303.69
500.135	1428.69
500.352	1490.69
500.569	1517.69
500.786	1499.69
501.003	1434.69
501.22	1353.69
501.437	1303.69
501.654	1195.69
501.871	1147.69
502.088	1100.69
502.305	1076.69
502.522	1026.69
502.739	1013.69
502.956	971.69
503.172	918.69
503.389	903.69
503.606	897.69
503.823	885.69
504.04	889.69
504.256	896.69
504.473	849.69
504.69	867.69
504.907	852.69
505.123	834.69
505.34	790.69
505.557	795.69
505.773	757.69
505.99	732.69
506.207	749.69
506.423	732.69
506.64	726.69
506.856	728.69
507.073	723.69
507.289	700.69
507.506	724.69
507.722	706.69
507.939	701.69
508.155	699.69
508.372	718.69
508.588	706.69
508.805	680.69
509.021	666.69
509.238	669.69
509.454	650.69
509.67	674.69
509.887	648.69
510.103	641.69
510.319	658.69
510.536	652.69
510.752	638.69
510.968	650.69
511.184	648.69
511.401	648.69
511.617	631.69
511.833	642.69
512.049	665.69
512.265	649.69
512.481	634.69
512.698	660.69
512.914	644.69
513.13	637.69
513.346	642.69
513.562	646.69
513.778	633.69
513.994	653.69
514.21	642.69
514.426	638.69
514.642	638.69
514.858	656.69
515.074	663.69
515.29	653.69
515.506	655.69
515.721	689.69
515.937	667.69
516.153	670.69
516.369	684.69
516.585	678.69
516.801	731.69
517.016	732.69
517.232	732.69
517.448	715.69
517.664	731.69
517.879	750.69
518.095	772.69
518.311	747.69
518.527	738.69
518.742	732.69
518.958	694.69
519.173	675.69
519.389	678.69
519.605	666.69
519.82	663.69
520.036	655.69
520.251	659.69
520.467	640.69
520.682	621.69
520.898	656.69
521.113	632.69
521.329	600.69
521.544	591.69
521.76	606.69
521.975	599.69
522.19	607.69
522.406	616.69
522.621	619.69
522.836	600.69
523.052	619.69
523.267	588.69
523.482	571.69
523.698	615.69
523.913	590.69
524.128	594.69
524.343	566.69
524.559	593.69
524.774	604.69
524.989	595.69
525.204	589.69
525.419	599.69
525.634	588.69
525.849	581.69
526.064	566.69
526.28	579.69
526.495	599.69
526.71	567.69
526.925	538.69
527.14	551.69
527.355	580.69
527.57	568.69
527.785	564.69
527.999	545.69
528.214	548.69
528.429	562.69
528.644	559.69
528.859	597.69
529.074	577.69
529.289	589.69
529.503	580.69
529.718	562.69
529.933	554.69
530.148	553.69
530.363	556.69
530.577	558.69
530.792	535.69
531.007	563.69
531.221	553.69
531.436	552.69
531.651	574.69
531.865	540.69
532.08	545.69
532.295	561.69
532.509	549.69
532.724	551.69
532.938	579.69
533.153	555.69
533.367	565.69
533.582	548.69
533.796	557.69
534.011	558.69
534.225	540.69
534.44	553.69
534.654	550.69
534.868	547.69
535.083	521.69
535.297	546.69
535.511	552.69
535.726	544.69
535.94	562.69
536.154	552.69
536.369	560.69
536.583	539.69
536.797	532.69
537.011	522.69
537.225	525.69
537.44	515.69
537.654	519.69
537.868	535.69
538.082	538.69
538.296	529.69
538.51	514.69
538.724	547.69
538.938	522.69
539.153	516.69
539.367	485.69
539.581	510.69
539.795	505.69
540.009	500.69
540.222	493.69
540.436	479.69
540.65	523.69
540.864	514.69
541.078	522.69
541.292	510.69
541.506	525.69
541.72	538.69
541.934	527.69
542.147	551.69
542.361	515.69
542.575	524.69
542.789	518.69
543.002	485.69
543.216	493.69
543.43	508.69
543.644	515.69
543.857	490.69
544.071	515.69
544.285	523.69
544.498	527.69
544.712	518.69
544.925	502.69
545.139	525.69
545.352	532.69
545.566	527.69
545.779	499.69
545.993	540.69
546.206	509.69
546.42	516.69
546.633	528.69
546.847	519.69
547.06	529.69
547.274	511.69
547.487	538.69
547.7	527.69
547.914	493.69
548.127	519.69
548.34	505.69
548.554	525.69
548.767	525.69
548.98	521.69
549.193	495.69
549.407	516.69
549.62	528.69
549.833	519.69
550.046	517.69
550.259	504.69
550.473	523.69
550.686	532.69
550.899	494.69
551.112	504.69
551.325	486.69
551.538	516.69
551.751	505.69
551.964	494.69
552.177	514.69
552.39	505.69
552.603	514.69
552.816	520.69
553.029	535.69
553.242	536.69
553.455	489.69
553.667	544.69
553.88	522.69
554.093	530.69
554.306	494.69
554.519	480.69
554.732	490.69
554.944	473.69
555.157	486.69
555.37	484.69
555.583	479.69
555.795	466.69
556.008	458.69
556.221	463.69
556.433	437.69
556.646	452.69
556.859	464.69
557.071	455.69
557.284	458.69
557.496	439.69
557.709	430.69
557.921	450.69
558.134	450.69
558.346	430.69
558.559	463.69
558.771	430.69
558.984	430.69
559.196	446.69
559.409	439.69
559.621	422.69
559.833	442.69
560.046	431.69
560.258	435.69
560.47	432.69
560.683	418.69
560.895	442.69
561.107	422.69
561.32	428.69
561.532	429.69
561.744	438.69
561.956	451.69
562.168	429.69
562.381	441.69
562.593	432.69
562.805	448.69
563.017	413.69
563.229	447.69
563.441	438.69
563.653	438.69
563.865	426.69
564.077	443.69
564.289	454.69
564.501	436.69
564.713	437.69
564.925	463.69
565.137	458.69
565.349	467.69
565.561	466.69
565.773	488.69
565.985	477.69
566.197	511.69
566.408	547.69
566.62	523.69
566.832	546.69
567.044	558.69
567.255	583.69
567.467	556.69
567.679	585.69
567.891	593.69
568.102	586.69
568.314	564.69
568.526	534.69
568.737	493.69
568.949	494.69
569.161	473.69
569.372	445.69
569.584	445.69
569.795	450.69
570.007	430.69
570.218	426.69
570.43	421.69
570.641	438.69
570.853	428.69
571.064	434.69
571.276	410.69
571.487	407.69
571.698	394.69
571.91	386.69
572.121	370.69
572.333	378.69
572.544	361.69
572.755	405.69
572.966	362.69
573.178	380.69
573.389	363.69
573.6	365.69
573.811	358.69
574.023	379.69
574.234	370.69
574.445	354.69
574.656	360.69
574.867	356.69
575.078	367.69
575.289	347.69
575.501	345.69
575.712	333.69
575.923	336.69
576.134	335.69
576.345	350.69
576.556	348.69
576.767	359.69
576.978	337.69
577.188	345.69
577.399	370.69
577.61	341.69
577.821	326.69
578.032	333.69
578.243	328.69
578.454	322.69
578.665	326.69
578.875	343.69
579.086	322.69
579.297	321.69
579.508	316.69
579.718	328.69
579.929	322.69
580.14	328.69
580.35	320.69
580.561	312.69
580.772	324.69
580.982	314.69
581.193	312.69
581.403	318.69
581.614	299.69
581.825	318.69
582.035	297.69
582.246	308.69
582.456	304.69
582.667	318.69
582.877	310.69
583.087	299.69
583.298	318.69
583.508	312.69
583.719	281.69
583.929	302.69
584.139	307.69
584.35	301.69
584.56	318.69
584.77	292.69
584.981	296.69
585.191	299.69
585.401	293.69
585.611	293.69
585.821	312.69
586.032	290.69
586.242	298.69
586.452	299.69
586.662	286.69
586.872	298.69
587.082	298.69
587.292	289.69
587.502	294.69
587.713	308.69
587.923	297.69
588.133	287.69
588.343	290.69
588.553	295.69
588.762	296.69
588.972	305.69
589.182	321.69
589.392	311.69
589.602	290.69
589.812	311.69
590.022	293.69
590.232	290.69
590.441	304.69
590.651	296.69
590.861	300.69
591.071	277.69
591.281	301.69
591.49	290.69
591.7	294.69
591.91	313.69
592.119	298.69
592.329	293.69
592.539	314.69
592.748	318.69
592.958	303.69
593.167	313.69
593.377	314.69
593.587	313.69
593.796	311.69
594.006	334.69
594.215	339.69
594.424	330.69
594.634	312.69
594.843	315.69
595.053	300.69
595.262	285.69
595.472	298.69
595.681	310.69
595.89	303.69
596.1	279.69
596.309	273.69
596.518	285.69
596.727	280.69
596.937	280.69
597.146	267.69
597.355	272.69
597.564	267.69
597.774	273.69
597.983	270.69
598.192	274.69
598.401	271.69
598.61	269.69
598.819	254.69
599.028	247.69
599.237	256.69
599.446	254.69
599.655	233.69
599.864	269.69
600.073	255.69
600.282	255.69
600.491	237.69
600.7	264.69
600.909	257.69
601.118	260.69
601.327	261.69
601.536	255.69
601.745	235.69
601.953	266.69
602.162	242.69
602.371	242.69
602.58	255.69
602.789	242.69
602.997	253.69
603.206	238.69
603.415	246.69
603.623	241.69
603.832	228.69
604.041	236.69
604.249	247.69
604.458	262.69
604.666	243.69
604.875	238.69
605.084	246.69
605.292	237.69
605.501	242.69
605.709	249.69
605.918	234.69
606.126	248.69
606.334	235.69
606.543	221.69
606.751	238.69
606.96	222.69
607.168	235.69
607.376	226.69
607.585	236.69
607.793	223.69
608.001	238.69
608.21	231.69
608.418	244.69
608.626	231.69
608.834	242.69
609.043	232.69
609.251	238.69
609.459	217.69
609.667	228.69
609.875	228.69
610.083	210.69
610.291	233.69
610.499	215.69
610.707	231.69
610.916	227.69
611.124	230.69
611.332	232.69
611.54	230.69
611.748	225.69
611.955	223.69
612.163	223.69
612.371	230.69
612.579	224.69
612.787	234.69
612.995	223.69
613.203	206.69
613.411	217.69
613.618	228.69
613.826	234.69
614.034	225.69
614.242	215.69
614.449	206.69
614.657	216.69
614.865	237.69
615.072	230.69
615.28	227.69
615.488	211.69
615.695	223.69
615.903	221.69
616.111	237.69
616.318	227.69
616.526	211.69
616.733	212.69
616.941	200.69
617.148	221.69
617.356	226.69
617.563	221.69
617.771	220.69
617.978	217.69
618.185	218.69
618.393	204.69
618.6	217.69
618.807	212.69
619.015	213.69
619.222	219.69
619.429	218.69
619.637	221.69
619.844	214.69
620.051	215.69
620.258	231.69
620.466	219.69
620.673	209.69
620.88	216.69
621.087	203.69
621.294	212.69
621.501	213.69
621.708	207.69
621.915	206.69
622.122	199.69
622.329	192.69
622.536	220.69
622.743	222.69
622.95	207.69
623.157	204.69
623.364	202.69
623.571	211.69
623.778	215.69
623.985	216.69
624.192	212.69
624.399	192.69
624.606	185.69
624.812	194.69
625.019	203.69
625.226	190.69
625.433	198.69
625.639	208.69
625.846	208.69
626.053	193.69
626.259	212.69
626.466	209.69
626.673	178.69
626.879	199.69
627.086	199.69
627.293	196.69
627.499	202.69
627.706	199.69
627.912	191.69
628.119	204.69
628.325	192.69
628.532	182.69
628.738	179.69
628.945	190.69
629.151	198.69
629.357	200.69
629.564	188.69
629.77	195.69
629.976	194.69
630.183	173.69
630.389	206.69
630.595	192.69
630.802	205.69
631.008	198.69
631.214	182.69
631.42	188.69
631.627	186.69
631.833	174.69
632.039	184.69
632.245	192.69
632.451	175.69
632.657	196.69
632.863	187.69
633.069	179.69
633.275	179.69
633.481	166.69
633.688	185.69
633.893	182.69
634.099	171.69
634.305	188.69
634.511	191.69
634.717	191.69
634.923	172.69
635.129	183.69
635.335	188.69
635.541	183.69
635.747	170.69
635.952	178.69
636.158	183.69
636.364	184.69
636.57	180.69
636.775	174.69
636.981	190.69
637.187	166.69
637.392	167.69
637.598	181.69
637.804	172.69
638.009	183.69
638.215	170.69
638.421	177.69
638.626	166.69
638.832	169.69
639.037	175.69
639.243	181.69
639.448	165.69
639.654	173.69
639.859	162.69
640.065	163.69
640.27	173.69
640.475	160.69
640.681	167.69
640.886	186.69
641.091	172.69
641.297	202.69
641.502	176.69
641.707	179.69
641.913	167.69
642.118	160.69
642.323	154.69
642.528	179.69
642.733	171.69
642.939	175.69
643.144	173.69
643.349	185.69
643.554	165.69
643.759	186.69
643.964	163.69
644.169	169.69
644.374	177.69
644.579	164.69
644.784	161.69
644.989	176.69
645.194	173.69
645.399	178.69
645.604	168.69
645.809	176.69
646.014	159.69
646.219	175.69
646.423	162.69
646.628	172.69
646.833	185.69
647.038	191.69
647.243	175.69
647.447	188.69
647.652	192.69
647.857	194.69
648.062	191.69
648.266	186.69
648.471	190.69
648.676	199.69
648.88	189.69
649.085	182.69
649.289	197.69
649.494	195.69
649.698	173.69
649.903	182.69
650.107	171.69
650.312	184.69
650.516	190.69
650.721	174.69
650.925	176.69
651.13	182.69
651.334	181.69
651.539	170.69
651.743	173.69
651.947	174.69
652.152	187.69
652.356	185.69
652.56	183.69
652.764	173.69
652.969	192.69
653.173	194.69
653.377	179.69
653.581	187.69
653.785	181.69
653.99	179.69
654.194	183.69
654.398	193.69
654.602	174.69
654.806	182.69
655.01	192.69
655.214	178.69
655.418	192.69
655.622	186.69
655.826	203.69
656.03	198.69
656.234	186.69
656.438	200.69
656.642	223.69
656.846	187.69
657.049	203.69
657.253	185.69
657.457	163.69
657.661	156.69
657.865	156.69
658.068	154.69
658.272	138.69
658.476	147.69
658.68	139.69
658.883	130.69
659.087	118.69
659.291	140.69
659.494	117.69
659.698	127.69
659.901	114.69
660.105	107.69
660.309	122.69
660.512	104.69
660.716	111.69
660.919	93.69
661.123	111.69
661.326	104.69
661.53	118.69
661.733	104.69
661.936	99.69
662.14	89.69
662.343	98.69
662.546	75.69
662.75	96.69
662.953	101.69
663.156	87.69
663.36	105.69
663.563	85.69
663.766	98.69
663.969	95.69
664.173	87.69
664.376	83.69
664.579	70.69
664.782	80.69
664.985	80.69
665.188	74.69
665.391	77.69
665.594	79.69
665.797	89.69
666	84.69
666.203	101.69
666.406	82.69
666.609	92.69
666.812	81.69
667.015	84.69
667.218	94.69
667.421	87.69
667.624	85.69
667.827	91.69
668.03	70.69
668.232	85.69
668.435	79.69
668.638	77.69
668.841	81.69
669.043	72.69
669.246	72.69
669.449	79.69
669.651	88.69
669.854	84.69
670.057	85.69
670.259	83.69
670.462	95.69
670.665	85.69
670.867	71.69
671.07	89.69
671.272	94.69
671.475	99.69
671.677	70.69
671.88	77.69
672.082	82.69
672.284	89.69
672.487	85.69
672.689	83.69
672.892	97.69
