Data from Ni(NO3)2@0.25M.TitratingCurve.Agarose3%dH2O.NegLispCup.LampEnergy10.LIBS07252019_HRD10591_18-04-42-566.txt Node
Date: Thu Jul 25 18:04:42 EDT 2019
User: cochatt
Spectrometer: HR+D1059
Trigger mode: 1
Integration Time (sec): 1.000000E-1
Scans to average: 1
Electric dark correction enabled: true
Nonlinearity correction enabled: false
Boxcar width: 0
XAxis mode: Wavelengths
Number of Pixels in Spectrum: 2048
>>>>>Begin Spectral Data<<<<<
223.165	-10.94
223.4	-10.94
223.635	-10.94
223.869	-22.94
224.104	-21.94
224.338	-25.94
224.573	-18.94
224.808	-16.94
225.042	-3.94
225.277	-12.94
225.511	-2.94
225.746	11.06
225.98	10.06
226.215	1.06
226.449	20.06
226.683	25.06
226.918	33.06
227.152	37.06
227.387	28.06
227.621	30.06
227.856	34.06
228.09	58.06
228.324	47.06
228.559	50.06
228.793	81.06
229.027	107.06
229.262	125.06
229.496	104.06
229.73	134.06
229.964	146.06
230.199	124.06
230.433	132.06
230.667	142.06
230.901	150.06
231.136	152.06
231.37	154.06
231.604	138.06
231.838	136.06
232.072	152.06
232.306	148.06
232.541	151.06
232.775	150.06
233.009	144.06
233.243	159.06
233.477	154.06
233.711	158.06
233.945	160.06
234.179	164.06
234.413	154.06
234.647	169.06
234.881	160.06
235.115	174.06
235.349	164.06
235.583	148.06
235.817	154.06
236.051	167.06
236.285	170.06
236.519	178.06
236.753	161.06
236.987	167.06
237.221	166.06
237.455	166.06
237.689	161.06
237.922	169.06
238.156	168.06
238.39	189.06
238.624	174.06
238.858	178.06
239.091	180.06
239.325	160.06
239.559	181.06
239.793	180.06
240.027	193.06
240.26	195.06
240.494	191.06
240.728	197.06
240.961	202.06
241.195	183.06
241.429	183.06
241.662	192.06
241.896	182.06
242.13	195.06
242.363	202.06
242.597	218.06
242.83	205.06
243.064	219.06
243.298	217.06
243.531	218.06
243.765	223.06
243.998	221.06
244.232	221.06
244.465	218.06
244.699	237.06
244.932	220.06
245.166	234.06
245.399	250.06
245.633	232.06
245.866	246.06
246.099	244.06
246.333	250.06
246.566	237.06
246.8	231.06
247.033	245.06
247.266	226.06
247.5	272.06
247.733	250.06
247.966	251.06
248.2	259.06
248.433	262.06
248.666	245.06
248.899	271.06
249.133	264.06
249.366	270.06
249.599	270.06
249.832	283.06
250.066	282.06
250.299	293.06
250.532	278.06
250.765	288.06
250.998	281.06
251.231	285.06
251.465	278.06
251.698	303.06
251.931	285.06
252.164	298.06
252.397	309.06
252.63	299.06
252.863	308.06
253.096	300.06
253.329	301.06
253.562	317.06
253.795	322.06
254.028	324.06
254.261	322.06
254.494	320.06
254.727	316.06
254.96	322.06
255.193	318.06
255.426	339.06
255.659	343.06
255.892	322.06
256.124	345.06
256.357	333.06
256.59	342.06
256.823	330.06
257.056	353.06
257.289	355.06
257.521	354.06
257.754	348.06
257.987	367.06
258.22	350.06
258.452	361.06
258.685	366.06
258.918	368.06
259.151	367.06
259.383	372.06
259.616	372.06
259.849	362.06
260.081	375.06
260.314	376.06
260.547	376.06
260.779	383.06
261.012	381.06
261.244	382.06
261.477	386.06
261.71	379.06
261.942	386.06
262.175	392.06
262.407	411.06
262.64	382.06
262.872	383.06
263.105	376.06
263.337	413.06
263.57	400.06
263.802	422.06
264.035	424.06
264.267	410.06
264.499	388.06
264.732	425.06
264.964	427.06
265.197	434.06
265.429	436.06
265.661	411.06
265.894	421.06
266.126	414.06
266.358	431.06
266.591	426.06
266.823	429.06
267.055	420.06
267.287	438.06
267.52	439.06
267.752	430.06
267.984	428.06
268.216	436.06
268.448	438.06
268.681	432.06
268.913	434.06
269.145	447.06
269.377	450.06
269.609	439.06
269.841	451.06
270.073	451.06
270.306	464.06
270.538	443.06
270.77	463.06
271.002	465.06
271.234	468.06
271.466	468.06
271.698	463.06
271.93	458.06
272.162	464.06
272.394	447.06
272.626	458.06
272.858	460.06
273.09	483.06
273.322	480.06
273.553	469.06
273.785	503.06
274.017	490.06
274.249	509.06
274.481	504.06
274.713	502.06
274.945	483.06
275.176	497.06
275.408	527.06
275.64	510.06
275.872	481.06
276.104	504.06
276.335	491.06
276.567	492.06
276.799	489.06
277.031	521.06
277.262	503.06
277.494	504.06
277.726	500.06
277.957	539.06
278.189	526.06
278.421	530.06
278.652	537.06
278.884	541.06
279.115	517.06
279.347	517.06
279.579	510.06
279.81	529.06
280.042	559.06
280.273	549.06
280.505	516.06
280.736	540.06
280.968	544.06
281.199	528.06
281.431	562.06
281.662	562.06
281.894	552.06
282.125	532.06
282.356	567.06
282.588	551.06
282.819	548.06
283.051	574.06
283.282	540.06
283.513	557.06
283.745	553.06
283.976	556.06
284.207	563.06
284.439	586.06
284.67	592.06
284.901	585.06
285.132	588.06
285.364	571.06
285.595	581.06
285.826	576.06
286.057	574.06
286.288	582.06
286.52	591.06
286.751	579.06
286.982	623.06
287.213	613.06
287.444	584.06
287.675	569.06
287.906	585.06
288.138	587.06
288.369	601.06
288.6	619.06
288.831	596.06
289.062	584.06
289.293	611.06
289.524	617.06
289.755	619.06
289.986	595.06
290.217	612.06
290.448	612.06
290.679	608.06
290.91	618.06
291.141	615.06
291.371	618.06
291.602	605.06
291.833	594.06
292.064	627.06
292.295	595.06
292.526	615.06
292.757	594.06
292.987	627.06
293.218	595.06
293.449	602.06
293.68	639.06
293.91	615.06
294.141	611.06
294.372	636.06
294.603	644.06
294.833	621.06
295.064	623.06
295.295	627.06
295.525	606.06
295.756	619.06
295.987	637.06
296.217	640.06
296.448	645.06
296.679	649.06
296.909	653.06
297.14	620.06
297.37	660.06
297.601	663.06
297.831	660.06
298.062	656.06
298.292	664.06
298.523	656.06
298.753	667.06
298.984	666.06
299.214	675.06
299.445	660.06
299.675	656.06
299.905	657.06
300.136	686.06
300.366	665.06
300.597	698.06
300.827	702.06
301.057	693.06
301.288	679.06
301.518	702.06
301.748	716.06
301.979	725.06
302.209	691.06
302.439	707.06
302.669	696.06
302.9	695.06
303.13	693.06
303.36	697.06
303.59	682.06
303.82	688.06
304.051	708.06
304.281	687.06
304.511	730.06
304.741	694.06
304.971	701.06
305.201	671.06
305.431	712.06
305.661	711.06
305.891	722.06
306.121	687.06
306.352	700.06
306.582	669.06
306.812	668.06
307.042	683.06
307.272	697.06
307.502	673.06
307.731	720.06
307.961	690.06
308.191	698.06
308.421	682.06
308.651	693.06
308.881	690.06
309.111	685.06
309.341	668.06
309.571	697.06
309.8	732.06
310.03	703.06
310.26	711.06
310.49	719.06
310.72	710.06
310.949	684.06
311.179	712.06
311.409	725.06
311.639	708.06
311.868	710.06
312.098	714.06
312.328	720.06
312.557	733.06
312.787	746.06
313.017	724.06
313.246	741.06
313.476	766.06
313.706	758.06
313.935	771.06
314.165	750.06
314.394	755.06
314.624	774.06
314.853	762.06
315.083	757.06
315.312	780.06
315.542	773.06
315.771	765.06
316.001	758.06
316.23	782.06
316.46	776.06
316.689	797.06
316.919	760.06
317.148	790.06
317.377	767.06
317.607	758.06
317.836	796.06
318.065	770.06
318.295	772.06
318.524	800.06
318.753	780.06
318.983	781.06
319.212	751.06
319.441	776.06
319.67	764.06
319.9	760.06
320.129	771.06
320.358	774.06
320.587	775.06
320.816	809.06
321.046	779.06
321.275	814.06
321.504	783.06
321.733	792.06
321.962	814.06
322.191	814.06
322.42	802.06
322.649	803.06
322.878	789.06
323.108	820.06
323.337	829.06
323.566	858.06
323.795	847.06
324.024	844.06
324.253	842.06
324.482	847.06
324.71	836.06
324.939	842.06
325.168	832.06
325.397	840.06
325.626	851.06
325.855	886.06
326.084	886.06
326.313	868.06
326.542	905.06
326.77	896.06
326.999	896.06
327.228	886.06
327.457	895.06
327.686	893.06
327.914	901.06
328.143	908.06
328.372	891.06
328.6	888.06
328.829	893.06
329.058	894.06
329.287	915.06
329.515	914.06
329.744	924.06
329.972	918.06
330.201	972.06
330.43	935.06
330.658	922.06
330.887	955.06
331.115	978.06
331.344	969.06
331.572	981.06
331.801	1038.06
332.03	1015.06
332.258	1020.06
332.486	1033.06
332.715	1063.06
332.943	1093.06
333.172	1088.06
333.4	1174.06
333.629	1197.06
333.857	1236.06
334.085	1233.06
334.314	1215.06
334.542	1174.06
334.771	1209.06
334.999	1189.06
335.227	1160.06
335.455	1195.06
335.684	1196.06
335.912	1156.06
336.14	1177.06
336.369	1133.06
336.597	1157.06
336.825	1154.06
337.053	1142.06
337.281	1092.06
337.51	1088.06
337.738	1109.06
337.966	1063.06
338.194	1070.06
338.422	1041.06
338.65	1026.06
338.878	1028.06
339.106	1057.06
339.334	1041.06
339.562	1010.06
339.79	1006.06
340.018	992.06
340.246	993.06
340.474	978.06
340.702	1008.06
340.93	995.06
341.158	1000.06
341.386	999.06
341.614	1043.06
341.842	1022.06
342.07	999.06
342.298	977.06
342.526	980.06
342.754	979.06
342.981	988.06
343.209	1044.06
343.437	1057.06
343.665	1105.06
343.893	1165.06
344.12	1188.06
344.348	1171.06
344.576	1141.06
344.804	1090.06
345.031	1067.06
345.259	1052.06
345.487	1029.06
345.714	1030.06
345.942	1002.06
346.17	1021.06
346.397	988.06
346.625	974.06
346.853	942.06
347.08	946.06
347.308	931.06
347.535	916.06
347.763	958.06
347.99	970.06
348.218	964.06
348.445	982.06
348.673	962.06
348.9	965.06
349.128	965.06
349.355	959.06
349.583	946.06
349.81	927.06
350.037	939.06
350.265	902.06
350.492	919.06
350.72	916.06
350.947	946.06
351.174	935.06
351.402	941.06
351.629	944.06
351.856	931.06
352.083	919.06
352.311	927.06
352.538	946.06
352.765	900.06
352.992	925.06
353.22	923.06
353.447	898.06
353.674	924.06
353.901	918.06
354.128	911.06
354.355	902.06
354.583	914.06
354.81	921.06
355.037	911.06
355.264	928.06
355.491	906.06
355.718	933.06
355.945	912.06
356.172	943.06
356.399	925.06
356.626	956.06
356.853	948.06
357.08	902.06
357.307	917.06
357.534	901.06
357.761	925.06
357.988	907.06
358.215	914.06
358.441	903.06
358.668	892.06
358.895	929.06
359.122	898.06
359.349	900.06
359.576	900.06
359.802	934.06
360.029	907.06
360.256	929.06
360.483	942.06
360.709	918.06
360.936	927.06
361.163	941.06
361.39	931.06
361.616	939.06
361.843	922.06
362.07	955.06
362.296	943.06
362.523	912.06
362.749	913.06
362.976	902.06
363.203	940.06
363.429	928.06
363.656	908.06
363.882	932.06
364.109	902.06
364.335	912.06
364.562	890.06
364.788	914.06
365.015	918.06
365.241	954.06
365.468	904.06
365.694	955.06
365.92	911.06
366.147	892.06
366.373	934.06
366.599	937.06
366.826	932.06
367.052	910.06
367.278	901.06
367.505	932.06
367.731	908.06
367.957	904.06
368.184	921.06
368.41	940.06
368.636	930.06
368.862	952.06
369.089	934.06
369.315	956.06
369.541	972.06
369.767	949.06
369.993	929.06
370.219	940.06
370.445	944.06
370.672	960.06
370.898	955.06
371.124	974.06
371.35	989.06
371.576	979.06
371.802	972.06
372.028	984.06
372.254	998.06
372.48	987.06
372.706	1010.06
372.932	1012.06
373.158	1030.06
373.384	1006.06
373.61	998.06
373.835	1003.06
374.061	987.06
374.287	999.06
374.513	1001.06
374.739	1029.06
374.965	1067.06
375.191	1059.06
375.416	1094.06
375.642	1034.06
375.868	1019.06
376.094	1035.06
376.319	981.06
376.545	999.06
376.771	979.06
376.997	972.06
377.222	958.06
377.448	974.06
377.674	986.06
377.899	990.06
378.125	947.06
378.35	968.06
378.576	949.06
378.802	939.06
379.027	964.06
379.253	931.06
379.478	963.06
379.704	930.06
379.929	966.06
380.155	964.06
380.38	979.06
380.606	936.06
380.831	954.06
381.057	982.06
381.282	943.06
381.507	956.06
381.733	960.06
381.958	978.06
382.184	982.06
382.409	979.06
382.634	975.06
382.86	1017.06
383.085	1008.06
383.31	1031.06
383.535	1043.06
383.761	1032.06
383.986	1068.06
384.211	1071.06
384.436	1081.06
384.662	1106.06
384.887	1143.06
385.112	1138.06
385.337	1138.06
385.562	1168.06
385.787	1144.06
386.013	1148.06
386.238	1156.06
386.463	1176.06
386.688	1166.06
386.913	1144.06
387.138	1141.06
387.363	1154.06
387.588	1147.06
387.813	1149.06
388.038	1135.06
388.263	1138.06
388.488	1149.06
388.713	1131.06
388.938	1124.06
389.163	1148.06
389.387	1132.06
389.612	1138.06
389.837	1124.06
390.062	1106.06
390.287	1160.06
390.512	1162.06
390.736	1170.06
390.961	1178.06
391.186	1184.06
391.411	1240.06
391.636	1261.06
391.86	1287.06
392.085	1266.06
392.31	1290.06
392.534	1267.06
392.759	1247.06
392.984	1225.06
393.208	1221.06
393.433	1229.06
393.658	1259.06
393.882	1219.06
394.107	1238.06
394.331	1236.06
394.556	1230.06
394.78	1223.06
395.005	1255.06
395.229	1264.06
395.454	1258.06
395.678	1296.06
395.903	1299.06
396.127	1271.06
396.352	1290.06
396.576	1224.06
396.801	1261.06
397.025	1286.06
397.249	1270.06
397.474	1322.06
397.698	1326.06
397.922	1320.06
398.147	1352.06
398.371	1384.06
398.595	1447.06
398.82	1505.06
399.044	1598.06
399.268	1695.06
399.492	1847.06
399.717	1987.06
399.941	2053.06
400.165	1922.06
400.389	1771.06
400.613	1658.06
400.837	1600.06
401.062	1539.06
401.286	1506.06
401.51	1503.06
401.734	1478.06
401.958	1497.06
402.182	1488.06
402.406	1488.06
402.63	1548.06
402.854	1565.06
403.078	1552.06
403.302	1547.06
403.526	1559.06
403.75	1567.06
403.974	1596.06
404.198	1595.06
404.422	1598.06
404.645	1596.06
404.869	1602.06
405.093	1567.06
405.317	1553.06
405.541	1597.06
405.765	1619.06
405.988	1588.06
406.212	1606.06
406.436	1609.06
406.66	1640.06
406.883	1639.06
407.107	1723.06
407.331	1749.06
407.555	1850.06
407.778	1891.06
408.002	1804.06
408.226	1798.06
408.449	1750.06
408.673	1701.06
408.896	1638.06
409.12	1648.06
409.344	1653.06
409.567	1664.06
409.791	1622.06
410.014	1616.06
410.238	1626.06
410.461	1605.06
410.685	1573.06
410.908	1602.06
411.132	1588.06
411.355	1525.06
411.578	1524.06
411.802	1531.06
412.025	1517.06
412.249	1558.06
412.472	1518.06
412.695	1476.06
412.919	1470.06
413.142	1458.06
413.365	1471.06
413.589	1463.06
413.812	1441.06
414.035	1502.06
414.258	1446.06
414.482	1480.06
414.705	1476.06
414.928	1476.06
415.151	1500.06
415.374	1470.06
415.597	1468.06
415.821	1448.06
416.044	1448.06
416.267	1477.06
416.49	1414.06
416.713	1454.06
416.936	1444.06
417.159	1460.06
417.382	1427.06
417.605	1429.06
417.828	1433.06
418.051	1443.06
418.274	1456.06
418.497	1437.06
418.72	1488.06
418.943	1484.06
419.166	1575.06
419.389	1690.06
419.611	1629.06
419.834	1604.06
420.057	1540.06
420.28	1510.06
420.503	1442.06
420.726	1456.06
420.948	1429.06
421.171	1459.06
421.394	1477.06
421.617	1459.06
421.839	1477.06
422.062	1469.06
422.285	1438.06
422.507	1471.06
422.73	1507.06
422.953	1503.06
423.175	1504.06
423.398	1489.06
423.621	1475.06
423.843	1499.06
424.066	1531.06
424.288	1515.06
424.511	1473.06
424.733	1479.06
424.956	1483.06
425.178	1478.06
425.401	1494.06
425.623	1475.06
425.846	1425.06
426.068	1445.06
426.291	1405.06
426.513	1385.06
426.735	1405.06
426.958	1374.06
427.18	1359.06
427.402	1370.06
427.625	1422.06
427.847	1365.06
428.069	1340.06
428.292	1374.06
428.514	1346.06
428.736	1318.06
428.958	1349.06
429.181	1344.06
429.403	1315.06
429.625	1316.06
429.847	1292.06
430.069	1302.06
430.292	1299.06
430.514	1297.06
430.736	1313.06
430.958	1299.06
431.18	1301.06
431.402	1291.06
431.624	1282.06
431.846	1323.06
432.068	1342.06
432.29	1325.06
432.512	1322.06
432.734	1357.06
432.956	1344.06
433.178	1323.06
433.4	1347.06
433.622	1366.06
433.844	1361.06
434.066	1373.06
434.287	1365.06
434.509	1380.06
434.731	1479.06
434.953	1466.06
435.175	1465.06
435.397	1483.06
435.618	1419.06
435.84	1398.06
436.062	1359.06
436.284	1346.06
436.505	1322.06
436.727	1346.06
436.949	1344.06
437.17	1335.06
437.392	1332.06
437.614	1301.06
437.835	1288.06
438.057	1294.06
438.278	1259.06
438.5	1264.06
438.721	1302.06
438.943	1320.06
439.165	1307.06
439.386	1307.06
439.608	1323.06
439.829	1311.06
440.05	1323.06
440.272	1327.06
440.493	1365.06
440.715	1369.06
440.936	1371.06
441.158	1428.06
441.379	1415.06
441.6	1496.06
441.822	1476.06
442.043	1490.06
442.264	1450.06
442.486	1451.06
442.707	1446.06
442.928	1444.06
443.149	1485.06
443.371	1415.06
443.592	1471.06
443.813	1496.06
444.034	1505.06
444.255	1555.06
444.476	1621.06
444.698	1633.06
444.919	1727.06
445.14	1757.06
445.361	1636.06
445.582	1553.06
445.803	1465.06
446.024	1416.06
446.245	1406.06
446.466	1380.06
446.687	1384.06
446.908	1393.06
447.129	1361.06
447.35	1294.06
447.571	1294.06
447.792	1263.06
448.013	1258.06
448.234	1270.06
448.455	1241.06
448.675	1227.06
448.896	1233.06
449.117	1198.06
449.338	1220.06
449.559	1219.06
449.779	1236.06
450	1201.06
450.221	1225.06
450.442	1236.06
450.662	1236.06
450.883	1258.06
451.104	1225.06
451.324	1225.06
451.545	1231.06
451.766	1232.06
451.986	1221.06
452.207	1204.06
452.428	1208.06
452.648	1191.06
452.869	1206.06
453.089	1199.06
453.31	1182.06
453.53	1150.06
453.751	1198.06
453.971	1177.06
454.192	1148.06
454.412	1170.06
454.633	1160.06
454.853	1156.06
455.073	1164.06
455.294	1152.06
455.514	1157.06
455.734	1151.06
455.955	1125.06
456.175	1116.06
456.395	1118.06
456.616	1120.06
456.836	1147.06
457.056	1144.06
457.276	1135.06
457.497	1174.06
457.717	1152.06
457.937	1182.06
458.157	1182.06
458.377	1175.06
458.598	1257.06
458.818	1248.06
459.038	1253.06
459.258	1308.06
459.478	1354.06
459.698	1402.06
459.918	1417.06
460.138	1445.06
460.358	1488.06
460.578	1582.06
460.798	1540.06
461.018	1573.06
461.238	1526.06
461.458	1532.06
461.678	1551.06
461.898	1589.06
462.118	1614.06
462.338	1644.06
462.558	1698.06
462.777	1765.06
462.997	1835.06
463.217	1938.06
463.437	1972.06
463.657	1914.06
463.876	1818.06
464.096	1853.06
464.316	1777.06
464.536	1800.06
464.755	1711.06
464.975	1704.06
465.195	1589.06
465.414	1503.06
465.634	1438.06
465.854	1398.06
466.073	1402.06
466.293	1335.06
466.512	1300.06
466.732	1282.06
466.951	1288.06
467.171	1268.06
467.391	1299.06
467.61	1270.06
467.829	1301.06
468.049	1280.06
468.268	1221.06
468.488	1226.06
468.707	1246.06
468.927	1227.06
469.146	1226.06
469.365	1238.06
469.585	1260.06
469.804	1294.06
470.023	1331.06
470.243	1312.06
470.462	1296.06
470.681	1302.06
470.901	1313.06
471.12	1304.06
471.339	1317.06
471.558	1288.06
471.777	1267.06
471.997	1228.06
472.216	1246.06
472.435	1240.06
472.654	1211.06
472.873	1215.06
473.092	1224.06
473.311	1202.06
473.53	1228.06
473.749	1232.06
473.968	1210.06
474.187	1218.06
474.406	1194.06
474.625	1192.06
474.844	1227.06
475.063	1206.06
475.282	1196.06
475.501	1214.06
475.72	1211.06
475.939	1240.06
476.158	1223.06
476.377	1271.06
476.596	1245.06
476.814	1294.06
477.033	1276.06
477.252	1321.06
477.471	1338.06
477.69	1352.06
477.908	1397.06
478.127	1404.06
478.346	1423.06
478.564	1444.06
478.783	1467.06
479.002	1520.06
479.22	1527.06
479.439	1509.06
479.658	1498.06
479.876	1494.06
480.095	1503.06
480.313	1542.06
480.532	1553.06
480.751	1544.06
480.969	1515.06
481.188	1506.06
481.406	1458.06
481.624	1416.06
481.843	1412.06
482.061	1367.06
482.28	1380.06
482.498	1396.06
482.717	1356.06
482.935	1375.06
483.153	1349.06
483.372	1409.06
483.59	1380.06
483.808	1346.06
484.027	1389.06
484.245	1384.06
484.463	1379.06
484.681	1420.06
484.9	1404.06
485.118	1415.06
485.336	1387.06
485.554	1408.06
485.772	1432.06
485.99	1437.06
486.209	1435.06
486.427	1436.06
486.645	1439.06
486.863	1435.06
487.081	1438.06
487.299	1444.06
487.517	1459.06
487.735	1451.06
487.953	1460.06
488.171	1458.06
488.389	1419.06
488.607	1432.06
488.825	1410.06
489.043	1395.06
489.261	1436.06
489.479	1432.06
489.696	1410.06
489.914	1439.06
490.132	1480.06
490.35	1469.06
490.568	1424.06
490.786	1504.06
491.003	1451.06
491.221	1476.06
491.439	1478.06
491.657	1480.06
491.874	1475.06
492.092	1496.06
492.31	1480.06
492.527	1528.06
492.745	1492.06
492.963	1490.06
493.18	1524.06
493.398	1537.06
493.615	1547.06
493.833	1571.06
494.05	1531.06
494.268	1551.06
494.485	1564.06
494.703	1535.06
494.92	1578.06
495.138	1569.06
495.355	1615.06
495.573	1579.06
495.79	1581.06
496.008	1604.06
496.225	1608.06
496.442	1656.06
496.66	1680.06
496.877	1693.06
497.094	1716.06
497.312	1756.06
497.529	1800.06
497.746	1842.06
497.963	1872.06
498.181	1968.06
498.398	2034.06
498.615	2155.06
498.832	2316.06
499.049	2422.06
499.267	2638.06
499.484	2824.06
499.701	3098.06
499.918	3301.06
500.135	3689.06
500.352	3950.06
500.569	4088.06
500.786	4098.06
501.003	3855.06
501.22	3631.06
501.437	3228.06
501.654	2974.06
501.871	2752.06
502.088	2551.06
502.305	2422.06
502.522	2265.06
502.739	2198.06
502.956	2086.06
503.172	2006.06
503.389	1900.06
503.606	1880.06
503.823	1890.06
504.04	1825.06
504.256	1839.06
504.473	1848.06
504.69	1808.06
504.907	1775.06
505.123	1734.06
505.34	1635.06
505.557	1568.06
505.773	1554.06
505.99	1522.06
506.207	1480.06
506.423	1432.06
506.64	1378.06
506.856	1420.06
507.073	1432.06
507.289	1382.06
507.506	1351.06
507.722	1400.06
507.939	1374.06
508.155	1318.06
508.372	1311.06
508.588	1325.06
508.805	1308.06
509.021	1326.06
509.238	1269.06
509.454	1292.06
509.67	1309.06
509.887	1272.06
510.103	1288.06
510.319	1231.06
510.536	1237.06
510.752	1230.06
510.968	1247.06
511.184	1254.06
511.401	1260.06
511.617	1240.06
511.833	1225.06
512.049	1188.06
512.265	1239.06
512.481	1216.06
512.698	1218.06
512.914	1221.06
513.13	1225.06
513.346	1227.06
513.562	1235.06
513.778	1250.06
513.994	1239.06
514.21	1250.06
514.426	1250.06
514.642	1240.06
514.858	1275.06
515.074	1296.06
515.29	1306.06
515.506	1332.06
515.721	1340.06
515.937	1371.06
516.153	1368.06
516.369	1396.06
516.585	1434.06
516.801	1467.06
517.016	1501.06
517.232	1597.06
517.448	1623.06
517.664	1664.06
517.879	1654.06
518.095	1670.06
518.311	1647.06
518.527	1565.06
518.742	1540.06
518.958	1468.06
519.173	1442.06
519.389	1397.06
519.605	1369.06
519.82	1354.06
520.036	1332.06
520.251	1282.06
520.467	1295.06
520.682	1269.06
520.898	1259.06
521.113	1223.06
521.329	1229.06
521.544	1229.06
521.76	1196.06
521.975	1182.06
522.19	1168.06
522.406	1195.06
522.621	1168.06
522.836	1163.06
523.052	1156.06
523.267	1154.06
523.482	1144.06
523.698	1119.06
523.913	1139.06
524.128	1146.06
524.343	1142.06
524.559	1132.06
524.774	1126.06
524.989	1116.06
525.204	1143.06
525.419	1103.06
525.634	1141.06
525.849	1138.06
526.064	1114.06
526.28	1112.06
526.495	1090.06
526.71	1119.06
526.925	1062.06
527.14	1101.06
527.355	1127.06
527.57	1108.06
527.785	1132.06
527.999	1102.06
528.214	1133.06
528.429	1114.06
528.644	1121.06
528.859	1127.06
529.074	1095.06
529.289	1101.06
529.503	1125.06
529.718	1093.06
529.933	1096.06
530.148	1083.06
530.363	1094.06
530.577	1074.06
530.792	1107.06
531.007	1106.06
531.221	1102.06
531.436	1121.06
531.651	1088.06
531.865	1086.06
532.08	1103.06
532.295	1093.06
532.509	1102.06
532.724	1071.06
532.938	1104.06
533.153	1082.06
533.367	1098.06
533.582	1090.06
533.796	1104.06
534.011	1096.06
534.225	1091.06
534.44	1090.06
534.654	1072.06
534.868	1084.06
535.083	1097.06
535.297	1067.06
535.511	1058.06
535.726	1062.06
535.94	1068.06
536.154	1028.06
536.369	1046.06
536.583	1040.06
536.797	1025.06
537.011	1022.06
537.225	1002.06
537.44	1036.06
537.654	1018.06
537.868	996.06
538.082	992.06
538.296	985.06
538.51	1027.06
538.724	1007.06
538.938	998.06
539.153	989.06
539.367	1029.06
539.581	965.06
539.795	980.06
540.009	988.06
540.222	995.06
540.436	1010.06
540.65	970.06
540.864	990.06
541.078	980.06
541.292	995.06
541.506	1006.06
541.72	1022.06
541.934	1000.06
542.147	1001.06
542.361	1016.06
542.575	981.06
542.789	989.06
543.002	965.06
543.216	989.06
543.43	980.06
543.644	987.06
543.857	978.06
544.071	990.06
544.285	1013.06
544.498	1026.06
544.712	1018.06
544.925	1007.06
545.139	1017.06
545.352	998.06
545.566	1004.06
545.779	1007.06
545.993	1025.06
546.206	1026.06
546.42	1019.06
546.633	1016.06
546.847	1018.06
547.06	1004.06
547.274	998.06
547.487	1018.06
547.7	1012.06
547.914	1027.06
548.127	1029.06
548.34	1036.06
548.554	1049.06
548.767	1054.06
548.98	1023.06
549.193	1034.06
549.407	1005.06
549.62	1044.06
549.833	1022.06
550.046	1039.06
550.259	1038.06
550.473	1043.06
550.686	996.06
550.899	990.06
551.112	1002.06
551.325	993.06
551.538	1016.06
551.751	994.06
551.964	1013.06
552.177	1037.06
552.39	1018.06
552.603	1048.06
552.816	1068.06
553.029	1080.06
553.242	1095.06
553.455	1127.06
553.667	1086.06
553.88	1075.06
554.093	1046.06
554.306	1024.06
554.519	991.06
554.732	998.06
554.944	965.06
555.157	975.06
555.37	956.06
555.583	974.06
555.795	942.06
556.008	897.06
556.221	900.06
556.433	904.06
556.646	890.06
556.859	890.06
557.071	890.06
557.284	881.06
557.496	892.06
557.709	859.06
557.921	868.06
558.134	842.06
558.346	860.06
558.559	872.06
558.771	854.06
558.984	851.06
559.196	822.06
559.409	851.06
559.621	851.06
559.833	816.06
560.046	837.06
560.258	822.06
560.47	837.06
560.683	837.06
560.895	837.06
561.107	821.06
561.32	844.06
561.532	852.06
561.744	843.06
561.956	828.06
562.168	847.06
562.381	841.06
562.593	829.06
562.805	857.06
563.017	819.06
563.229	839.06
563.441	830.06
563.653	859.06
563.865	864.06
564.077	869.06
564.289	873.06
564.501	885.06
564.713	918.06
564.925	912.06
565.137	925.06
565.349	946.06
565.561	995.06
565.773	987.06
565.985	1065.06
566.197	1113.06
566.408	1175.06
566.62	1236.06
566.832	1232.06
567.044	1312.06
567.255	1340.06
567.467	1350.06
567.679	1414.06
567.891	1445.06
568.102	1440.06
568.314	1400.06
568.526	1270.06
568.737	1233.06
568.949	1118.06
569.161	1071.06
569.372	1022.06
569.584	923.06
569.795	936.06
570.007	882.06
570.218	898.06
570.43	861.06
570.641	853.06
570.853	875.06
571.064	884.06
571.276	838.06
571.487	824.06
571.698	794.06
571.91	770.06
572.121	751.06
572.333	781.06
572.544	773.06
572.755	725.06
572.966	727.06
573.178	710.06
573.389	698.06
573.6	696.06
573.811	683.06
574.023	682.06
574.234	685.06
574.445	671.06
574.656	657.06
574.867	654.06
575.078	654.06
575.289	676.06
575.501	651.06
575.712	665.06
575.923	639.06
576.134	655.06
576.345	647.06
576.556	636.06
576.767	624.06
576.978	642.06
577.188	612.06
577.399	649.06
577.61	639.06
577.821	644.06
578.032	602.06
578.243	595.06
578.454	607.06
578.665	626.06
578.875	595.06
579.086	617.06
579.297	619.06
579.508	590.06
579.718	592.06
579.929	590.06
580.14	571.06
580.35	577.06
580.561	600.06
580.772	588.06
580.982	584.06
581.193	554.06
581.403	584.06
581.614	570.06
581.825	570.06
582.035	563.06
582.246	556.06
582.456	559.06
582.667	570.06
582.877	551.06
583.087	568.06
583.298	561.06
583.508	557.06
583.719	559.06
583.929	558.06
584.139	558.06
584.35	553.06
584.56	543.06
584.77	553.06
584.981	533.06
585.191	538.06
585.401	550.06
585.611	551.06
585.821	549.06
586.032	528.06
586.242	547.06
586.452	579.06
586.662	541.06
586.872	545.06
587.082	540.06
587.292	558.06
587.502	526.06
587.713	539.06
587.923	524.06
588.133	526.06
588.343	544.06
588.553	557.06
588.762	556.06
588.972	546.06
589.182	556.06
589.392	556.06
589.602	542.06
589.812	548.06
590.022	575.06
590.232	518.06
590.441	542.06
590.651	544.06
590.861	529.06
591.071	535.06
591.281	573.06
591.49	547.06
591.7	573.06
591.91	579.06
592.119	593.06
592.329	583.06
592.539	598.06
592.748	621.06
592.958	643.06
593.167	643.06
593.377	667.06
593.587	653.06
593.796	637.06
594.006	648.06
594.215	631.06
594.424	662.06
594.634	631.06
594.843	607.06
595.053	587.06
595.262	598.06
595.472	562.06
595.681	564.06
595.89	559.06
596.1	535.06
596.309	544.06
596.518	510.06
596.727	532.06
596.937	508.06
597.146	521.06
597.355	475.06
597.564	498.06
597.774	470.06
597.983	483.06
598.192	454.06
598.401	474.06
598.61	461.06
598.819	476.06
599.028	466.06
599.237	457.06
599.446	432.06
599.655	461.06
599.864	462.06
600.073	422.06
600.282	455.06
600.491	442.06
600.7	444.06
600.909	438.06
601.118	435.06
601.327	446.06
601.536	431.06
601.745	461.06
601.953	449.06
602.162	417.06
602.371	429.06
602.58	418.06
602.789	426.06
602.997	434.06
603.206	438.06
603.415	440.06
603.623	412.06
603.832	395.06
604.041	407.06
604.249	424.06
604.458	409.06
604.666	404.06
604.875	412.06
605.084	410.06
605.292	416.06
605.501	415.06
605.709	415.06
605.918	416.06
606.126	401.06
606.334	380.06
606.543	411.06
606.751	408.06
606.96	421.06
607.168	399.06
607.376	392.06
607.585	387.06
607.793	404.06
608.001	409.06
608.21	413.06
608.418	397.06
608.626	410.06
608.834	380.06
609.043	387.06
609.251	409.06
609.459	377.06
609.667	396.06
609.875	378.06
610.083	381.06
610.291	379.06
610.499	393.06
610.707	397.06
610.916	371.06
611.124	370.06
611.332	379.06
611.54	392.06
611.748	367.06
611.955	389.06
612.163	356.06
612.371	373.06
612.579	370.06
612.787	383.06
612.995	392.06
613.203	374.06
613.411	375.06
613.618	377.06
613.826	358.06
614.034	367.06
614.242	379.06
614.449	382.06
614.657	364.06
614.865	358.06
615.072	367.06
615.28	359.06
615.488	353.06
615.695	372.06
615.903	364.06
616.111	378.06
616.318	389.06
616.526	360.06
616.733	357.06
616.941	367.06
617.148	361.06
617.356	361.06
617.563	364.06
617.771	367.06
617.978	357.06
618.185	375.06
618.393	372.06
618.6	381.06
618.807	389.06
619.015	354.06
619.222	383.06
619.429	351.06
619.637	370.06
619.844	365.06
620.051	340.06
620.258	348.06
620.466	346.06
620.673	339.06
620.88	336.06
621.087	332.06
621.294	347.06
621.501	325.06
621.708	324.06
621.915	357.06
622.122	350.06
622.329	344.06
622.536	344.06
622.743	336.06
622.95	345.06
623.157	325.06
623.364	339.06
623.571	321.06
623.778	346.06
623.985	334.06
624.192	334.06
624.399	351.06
624.606	328.06
624.812	347.06
625.019	318.06
625.226	328.06
625.433	321.06
625.639	328.06
625.846	311.06
626.053	316.06
626.259	332.06
626.466	317.06
626.673	323.06
626.879	312.06
627.086	308.06
627.293	326.06
627.499	313.06
627.706	312.06
627.912	295.06
628.119	324.06
628.325	338.06
628.532	315.06
628.738	296.06
628.945	290.06
629.151	295.06
629.357	300.06
629.564	279.06
629.77	300.06
629.976	312.06
630.183	302.06
630.389	298.06
630.595	288.06
630.802	305.06
631.008	285.06
631.214	294.06
631.42	305.06
631.627	299.06
631.833	290.06
632.039	306.06
632.245	284.06
632.451	304.06
632.657	289.06
632.863	288.06
633.069	293.06
633.275	261.06
633.481	275.06
633.688	262.06
633.893	266.06
634.099	264.06
634.305	274.06
634.511	262.06
634.717	275.06
634.923	289.06
635.129	259.06
635.335	262.06
635.541	278.06
635.747	255.06
635.952	264.06
636.158	269.06
636.364	291.06
636.57	262.06
636.775	272.06
636.981	267.06
637.187	259.06
637.392	257.06
637.598	243.06
637.804	260.06
638.009	247.06
638.215	246.06
638.421	267.06
638.626	270.06
638.832	250.06
639.037	243.06
639.243	240.06
639.448	235.06
639.654	267.06
639.859	257.06
640.065	242.06
640.27	231.06
640.475	256.06
640.681	254.06
640.886	241.06
641.091	223.06
641.297	248.06
641.502	238.06
641.707	218.06
641.913	264.06
642.118	255.06
642.323	249.06
642.528	246.06
642.733	243.06
642.939	238.06
643.144	234.06
643.349	249.06
643.554	236.06
643.759	247.06
643.964	238.06
644.169	231.06
644.374	256.06
644.579	238.06
644.784	248.06
644.989	229.06
645.194	230.06
645.399	244.06
645.604	232.06
645.809	228.06
646.014	247.06
646.219	229.06
646.423	247.06
646.628	240.06
646.833	234.06
647.038	226.06
647.243	223.06
647.447	244.06
647.652	244.06
647.857	271.06
648.062	258.06
648.266	252.06
648.471	247.06
648.676	232.06
648.88	230.06
649.085	232.06
649.289	229.06
649.494	238.06
649.698	224.06
649.903	230.06
650.107	211.06
650.312	230.06
650.516	215.06
650.721	231.06
650.925	219.06
651.13	211.06
651.334	213.06
651.539	204.06
651.743	204.06
651.947	199.06
652.152	211.06
652.356	204.06
652.56	192.06
652.764	200.06
652.969	195.06
653.173	195.06
653.377	192.06
653.581	176.06
653.785	186.06
653.99	188.06
654.194	188.06
654.398	174.06
654.602	160.06
654.806	159.06
655.01	170.06
655.214	167.06
655.418	180.06
655.622	188.06
655.826	171.06
656.03	171.06
656.234	185.06
656.438	152.06
656.642	150.06
656.846	155.06
657.049	151.06
657.253	151.06
657.457	158.06
657.661	152.06
657.865	137.06
658.068	141.06
658.272	144.06
658.476	135.06
658.68	118.06
658.883	131.06
659.087	120.06
659.291	128.06
659.494	142.06
659.698	123.06
659.901	106.06
660.105	99.06
660.309	110.06
660.512	105.06
660.716	105.06
660.919	107.06
661.123	102.06
661.326	93.06
661.53	92.06
661.733	111.06
661.936	84.06
662.14	90.06
662.343	89.06
662.546	93.06
662.75	90.06
662.953	88.06
663.156	88.06
663.36	99.06
663.563	85.06
663.766	77.06
663.969	84.06
664.173	88.06
664.376	108.06
664.579	95.06
664.782	86.06
664.985	79.06
665.188	92.06
665.391	87.06
665.594	77.06
665.797	87.06
666	87.06
666.203	97.06
666.406	84.06
666.609	92.06
666.812	83.06
667.015	94.06
667.218	97.06
667.421	86.06
667.624	93.06
667.827	82.06
668.03	86.06
668.232	87.06
668.435	86.06
668.638	86.06
668.841	82.06
669.043	76.06
669.246	93.06
669.449	90.06
669.651	95.06
669.854	76.06
670.057	84.06
670.259	72.06
670.462	100.06
670.665	77.06
670.867	88.06
671.07	92.06
671.272	86.06
671.475	106.06
671.677	86.06
671.88	94.06
672.082	83.06
672.284	88.06
672.487	80.06
672.689	85.06
672.892	82.06
