Data from Ni(NO3)2@0.0625M.TitratingCurve.Agarose3%dH2O.NegLispCup.LampEnergy10.LIBS07252019_HRD10591_18-15-00-570.txt Node
Date: Thu Jul 25 18:15:00 EDT 2019
User: cochatt
Spectrometer: HR+D1059
Trigger mode: 1
Integration Time (sec): 1.000000E-1
Scans to average: 1
Electric dark correction enabled: true
Nonlinearity correction enabled: false
Boxcar width: 0
XAxis mode: Wavelengths
Number of Pixels in Spectrum: 2048
>>>>>Begin Spectral Data<<<<<
223.165	-27.31
223.4	-27.31
223.635	-27.31
223.869	-22.31
224.104	-6.31
224.338	-16.31
224.573	-19.31
224.808	-13.31
225.042	-9.31
225.277	-2.31
225.511	14.69
225.746	-10.31
225.98	9.69
226.215	6.69
226.449	15.69
226.683	17.69
226.918	26.69
227.152	35.69
227.387	31.69
227.621	40.69
227.856	35.69
228.09	59.69
228.324	42.69
228.559	58.69
228.793	58.69
229.027	98.69
229.262	98.69
229.496	104.69
229.73	110.69
229.964	117.69
230.199	125.69
230.433	135.69
230.667	125.69
230.901	127.69
231.136	128.69
231.37	132.69
231.604	118.69
231.838	129.69
232.072	140.69
232.306	135.69
232.541	137.69
232.775	132.69
233.009	133.69
233.243	132.69
233.477	146.69
233.711	145.69
233.945	131.69
234.179	146.69
234.413	150.69
234.647	140.69
234.881	147.69
235.115	144.69
235.349	133.69
235.583	150.69
235.817	137.69
236.051	141.69
236.285	145.69
236.519	144.69
236.753	145.69
236.987	149.69
237.221	150.69
237.455	150.69
237.689	144.69
237.922	157.69
238.156	142.69
238.39	161.69
238.624	135.69
238.858	152.69
239.091	151.69
239.325	167.69
239.559	147.69
239.793	153.69
240.027	178.69
240.26	163.69
240.494	173.69
240.728	177.69
240.961	166.69
241.195	171.69
241.429	165.69
241.662	174.69
241.896	182.69
242.13	163.69
242.363	162.69
242.597	173.69
242.83	166.69
243.064	174.69
243.298	171.69
243.531	184.69
243.765	190.69
243.998	190.69
244.232	194.69
244.465	175.69
244.699	197.69
244.932	192.69
245.166	204.69
245.399	201.69
245.633	184.69
245.866	201.69
246.099	184.69
246.333	193.69
246.566	209.69
246.8	214.69
247.033	202.69
247.266	192.69
247.5	202.69
247.733	212.69
247.966	202.69
248.2	225.69
248.433	211.69
248.666	221.69
248.899	223.69
249.133	222.69
249.366	220.69
249.599	243.69
249.832	195.69
250.066	238.69
250.299	232.69
250.532	232.69
250.765	227.69
250.998	242.69
251.231	237.69
251.465	241.69
251.698	226.69
251.931	238.69
252.164	232.69
252.397	230.69
252.63	242.69
252.863	254.69
253.096	251.69
253.329	253.69
253.562	263.69
253.795	259.69
254.028	243.69
254.261	257.69
254.494	266.69
254.727	261.69
254.96	261.69
255.193	267.69
255.426	274.69
255.659	257.69
255.892	255.69
256.124	250.69
256.357	251.69
256.59	261.69
256.823	247.69
257.056	258.69
257.289	275.69
257.521	264.69
257.754	251.69
257.987	285.69
258.22	271.69
258.452	265.69
258.685	272.69
258.918	273.69
259.151	266.69
259.383	271.69
259.616	276.69
259.849	267.69
260.081	277.69
260.314	291.69
260.547	297.69
260.779	279.69
261.012	288.69
261.244	298.69
261.477	289.69
261.71	296.69
261.942	290.69
262.175	298.69
262.407	307.69
262.64	297.69
262.872	297.69
263.105	278.69
263.337	294.69
263.57	301.69
263.802	306.69
264.035	307.69
264.267	288.69
264.499	308.69
264.732	303.69
264.964	312.69
265.197	326.69
265.429	315.69
265.661	308.69
265.894	315.69
266.126	331.69
266.358	333.69
266.591	311.69
266.823	327.69
267.055	330.69
267.287	318.69
267.52	324.69
267.752	334.69
267.984	330.69
268.216	319.69
268.448	329.69
268.681	348.69
268.913	331.69
269.145	335.69
269.377	345.69
269.609	325.69
269.841	345.69
270.073	342.69
270.306	347.69
270.538	352.69
270.77	346.69
271.002	336.69
271.234	352.69
271.466	347.69
271.698	367.69
271.93	335.69
272.162	346.69
272.394	343.69
272.626	344.69
272.858	352.69
273.09	370.69
273.322	359.69
273.553	375.69
273.785	385.69
274.017	374.69
274.249	373.69
274.481	362.69
274.713	365.69
274.945	375.69
275.176	374.69
275.408	375.69
275.64	372.69
275.872	357.69
276.104	378.69
276.335	393.69
276.567	393.69
276.799	377.69
277.031	383.69
277.262	397.69
277.494	393.69
277.726	397.69
277.957	409.69
278.189	386.69
278.421	398.69
278.652	393.69
278.884	394.69
279.115	396.69
279.347	379.69
279.579	413.69
279.81	403.69
280.042	390.69
280.273	426.69
280.505	400.69
280.736	412.69
280.968	417.69
281.199	405.69
281.431	413.69
281.662	416.69
281.894	420.69
282.125	416.69
282.356	424.69
282.588	431.69
282.819	419.69
283.051	419.69
283.282	418.69
283.513	425.69
283.745	416.69
283.976	433.69
284.207	423.69
284.439	437.69
284.67	429.69
284.901	433.69
285.132	438.69
285.364	431.69
285.595	453.69
285.826	448.69
286.057	458.69
286.288	440.69
286.52	447.69
286.751	430.69
286.982	445.69
287.213	446.69
287.444	430.69
287.675	434.69
287.906	478.69
288.138	445.69
288.369	466.69
288.6	460.69
288.831	462.69
289.062	449.69
289.293	461.69
289.524	466.69
289.755	479.69
289.986	470.69
290.217	474.69
290.448	459.69
290.679	466.69
290.91	455.69
291.141	451.69
291.371	470.69
291.602	468.69
291.833	480.69
292.064	482.69
292.295	472.69
292.526	478.69
292.757	478.69
292.987	459.69
293.218	477.69
293.449	489.69
293.68	485.69
293.91	480.69
294.141	464.69
294.372	477.69
294.603	467.69
294.833	487.69
295.064	480.69
295.295	471.69
295.525	490.69
295.756	467.69
295.987	481.69
296.217	502.69
296.448	473.69
296.679	487.69
296.909	515.69
297.14	500.69
297.37	505.69
297.601	508.69
297.831	512.69
298.062	536.69
298.292	522.69
298.523	538.69
298.753	523.69
298.984	519.69
299.214	537.69
299.445	509.69
299.675	514.69
299.905	519.69
300.136	523.69
300.366	528.69
300.597	544.69
300.827	571.69
301.057	573.69
301.288	552.69
301.518	535.69
301.748	553.69
301.979	549.69
302.209	550.69
302.439	541.69
302.669	541.69
302.9	559.69
303.13	547.69
303.36	534.69
303.59	540.69
303.82	535.69
304.051	550.69
304.281	554.69
304.511	523.69
304.741	533.69
304.971	545.69
305.201	527.69
305.431	544.69
305.661	544.69
305.891	539.69
306.121	527.69
306.352	544.69
306.582	539.69
306.812	524.69
307.042	550.69
307.272	522.69
307.502	542.69
307.731	535.69
307.961	509.69
308.191	539.69
308.421	519.69
308.651	539.69
308.881	518.69
309.111	527.69
309.341	530.69
309.571	537.69
309.8	524.69
310.03	546.69
310.26	527.69
310.49	541.69
310.72	543.69
310.949	549.69
311.179	539.69
311.409	529.69
311.639	556.69
311.868	535.69
312.098	549.69
312.328	542.69
312.557	560.69
312.787	538.69
313.017	564.69
313.246	579.69
313.476	590.69
313.706	575.69
313.935	566.69
314.165	568.69
314.394	573.69
314.624	569.69
314.853	565.69
315.083	548.69
315.312	573.69
315.542	568.69
315.771	565.69
316.001	564.69
316.23	563.69
316.46	562.69
316.689	548.69
316.919	541.69
317.148	557.69
317.377	562.69
317.607	530.69
317.836	536.69
318.065	536.69
318.295	563.69
318.524	539.69
318.753	548.69
318.983	546.69
319.212	543.69
319.441	549.69
319.67	557.69
319.9	546.69
320.129	561.69
320.358	552.69
320.587	544.69
320.816	549.69
321.046	566.69
321.275	563.69
321.504	562.69
321.733	566.69
321.962	558.69
322.191	545.69
322.42	578.69
322.649	579.69
322.878	581.69
323.108	577.69
323.337	573.69
323.566	570.69
323.795	595.69
324.024	565.69
324.253	581.69
324.482	597.69
324.71	584.69
324.939	591.69
325.168	631.69
325.397	573.69
325.626	601.69
325.855	584.69
326.084	603.69
326.313	619.69
326.542	608.69
326.77	645.69
326.999	596.69
327.228	607.69
327.457	624.69
327.686	595.69
327.914	618.69
328.143	614.69
328.372	610.69
328.6	619.69
328.829	631.69
329.058	609.69
329.287	621.69
329.515	625.69
329.744	614.69
329.972	619.69
330.201	631.69
330.43	643.69
330.658	621.69
330.887	626.69
331.115	646.69
331.344	637.69
331.572	655.69
331.801	666.69
332.03	684.69
332.258	702.69
332.486	734.69
332.715	726.69
332.943	773.69
333.172	829.69
333.4	848.69
333.629	857.69
333.857	855.69
334.085	823.69
334.314	817.69
334.542	765.69
334.771	783.69
334.999	762.69
335.227	798.69
335.455	790.69
335.684	774.69
335.912	747.69
336.14	741.69
336.369	745.69
336.597	756.69
336.825	724.69
337.053	737.69
337.281	745.69
337.51	705.69
337.738	725.69
337.966	722.69
338.194	722.69
338.422	714.69
338.65	671.69
338.878	692.69
339.106	650.69
339.334	696.69
339.562	638.69
339.79	641.69
340.018	665.69
340.246	641.69
340.474	651.69
340.702	634.69
340.93	645.69
341.158	659.69
341.386	651.69
341.614	682.69
341.842	647.69
342.07	635.69
342.298	637.69
342.526	619.69
342.754	641.69
342.981	639.69
343.209	675.69
343.437	699.69
343.665	738.69
343.893	781.69
344.12	794.69
344.348	777.69
344.576	736.69
344.804	714.69
345.031	692.69
345.259	638.69
345.487	645.69
345.714	652.69
345.942	641.69
346.17	655.69
346.397	638.69
346.625	632.69
346.853	609.69
347.08	643.69
347.308	631.69
347.535	626.69
347.763	635.69
347.99	643.69
348.218	646.69
348.445	643.69
348.673	627.69
348.9	626.69
349.128	626.69
349.355	625.69
349.583	645.69
349.81	628.69
350.037	614.69
350.265	595.69
350.492	602.69
350.72	616.69
350.947	603.69
351.174	626.69
351.402	631.69
351.629	615.69
351.856	609.69
352.083	610.69
352.311	609.69
352.538	612.69
352.765	637.69
352.992	593.69
353.22	602.69
353.447	586.69
353.674	625.69
353.901	605.69
354.128	592.69
354.355	587.69
354.583	611.69
354.81	622.69
355.037	624.69
355.264	625.69
355.491	605.69
355.718	591.69
355.945	633.69
356.172	619.69
356.399	614.69
356.626	618.69
356.853	622.69
357.08	598.69
357.307	618.69
357.534	615.69
357.761	601.69
357.988	620.69
358.215	601.69
358.441	615.69
358.668	614.69
358.895	605.69
359.122	630.69
359.349	614.69
359.576	626.69
359.802	613.69
360.029	609.69
360.256	593.69
360.483	625.69
360.709	615.69
360.936	612.69
361.163	611.69
361.39	602.69
361.616	607.69
361.843	594.69
362.07	636.69
362.296	613.69
362.523	581.69
362.749	608.69
362.976	589.69
363.203	598.69
363.429	603.69
363.656	599.69
363.882	606.69
364.109	611.69
364.335	599.69
364.562	609.69
364.788	584.69
365.015	616.69
365.241	615.69
365.468	617.69
365.694	596.69
365.92	602.69
366.147	587.69
366.373	600.69
366.599	621.69
366.826	578.69
367.052	611.69
367.278	609.69
367.505	619.69
367.731	629.69
367.957	610.69
368.184	647.69
368.41	619.69
368.636	627.69
368.862	615.69
369.089	615.69
369.315	619.69
369.541	598.69
369.767	627.69
369.993	625.69
370.219	619.69
370.445	656.69
370.672	655.69
370.898	655.69
371.124	647.69
371.35	676.69
371.576	673.69
371.802	671.69
372.028	649.69
372.254	638.69
372.48	670.69
372.706	696.69
372.932	680.69
373.158	709.69
373.384	672.69
373.61	665.69
373.835	646.69
374.061	670.69
374.287	678.69
374.513	691.69
374.739	694.69
374.965	725.69
375.191	729.69
375.416	753.69
375.642	719.69
375.868	709.69
376.094	700.69
376.319	685.69
376.545	695.69
376.771	690.69
376.997	649.69
377.222	662.69
377.448	671.69
377.674	677.69
377.899	670.69
378.125	666.69
378.35	644.69
378.576	649.69
378.802	652.69
379.027	674.69
379.253	651.69
379.478	680.69
379.704	631.69
379.929	655.69
380.155	643.69
380.38	629.69
380.606	645.69
380.831	669.69
381.057	645.69
381.282	647.69
381.507	651.69
381.733	656.69
381.958	678.69
382.184	674.69
382.409	695.69
382.634	703.69
382.86	692.69
383.085	724.69
383.31	719.69
383.535	723.69
383.761	728.69
383.986	758.69
384.211	773.69
384.436	778.69
384.662	792.69
384.887	808.69
385.112	790.69
385.337	805.69
385.562	789.69
385.787	799.69
386.013	814.69
386.238	820.69
386.463	792.69
386.688	808.69
386.913	795.69
387.138	822.69
387.363	779.69
387.588	777.69
387.813	777.69
388.038	776.69
388.263	780.69
388.488	784.69
388.713	774.69
388.938	776.69
389.163	778.69
389.387	769.69
389.612	771.69
389.837	785.69
390.062	765.69
390.287	760.69
390.512	776.69
390.736	777.69
390.961	797.69
391.186	785.69
391.411	831.69
391.636	851.69
391.86	893.69
392.085	901.69
392.31	891.69
392.534	877.69
392.759	852.69
392.984	816.69
393.208	844.69
393.433	833.69
393.658	841.69
393.882	844.69
394.107	861.69
394.331	871.69
394.556	883.69
394.78	876.69
395.005	848.69
395.229	892.69
395.454	878.69
395.678	904.69
395.903	874.69
396.127	873.69
396.352	834.69
396.576	836.69
396.801	827.69
397.025	843.69
397.249	879.69
397.474	893.69
397.698	867.69
397.922	909.69
398.147	859.69
398.371	909.69
398.595	933.69
398.82	957.69
399.044	1081.69
399.268	1199.69
399.492	1335.69
399.717	1541.69
399.941	1559.69
400.165	1334.69
400.389	1180.69
400.613	1106.69
400.837	1023.69
401.062	1030.69
401.286	962.69
401.51	1008.69
401.734	957.69
401.958	987.69
402.182	1041.69
402.406	1043.69
402.63	1065.69
402.854	1061.69
403.078	1071.69
403.302	1133.69
403.526	1143.69
403.75	1174.69
403.974	1170.69
404.198	1179.69
404.422	1200.69
404.645	1173.69
404.869	1126.69
405.093	1146.69
405.317	1095.69
405.541	1115.69
405.765	1112.69
405.988	1072.69
406.212	1107.69
406.436	1061.69
406.66	1100.69
406.883	1148.69
407.107	1223.69
407.331	1277.69
407.555	1338.69
407.778	1304.69
408.002	1267.69
408.226	1244.69
408.449	1223.69
408.673	1154.69
408.896	1149.69
409.12	1122.69
409.344	1122.69
409.567	1136.69
409.791	1163.69
410.014	1159.69
410.238	1151.69
410.461	1118.69
410.685	1135.69
410.908	1090.69
411.132	1049.69
411.355	1061.69
411.578	1056.69
411.802	1039.69
412.025	1070.69
412.249	1062.69
412.472	1043.69
412.695	1009.69
412.919	994.69
413.142	1002.69
413.365	994.69
413.589	988.69
413.812	977.69
414.035	988.69
414.258	1006.69
414.482	991.69
414.705	1021.69
414.928	1013.69
415.151	990.69
415.374	1007.69
415.597	977.69
415.821	985.69
416.044	950.69
416.267	946.69
416.49	946.69
416.713	962.69
416.936	970.69
417.159	976.69
417.382	997.69
417.605	963.69
417.828	970.69
418.051	980.69
418.274	965.69
418.497	980.69
418.72	1027.69
418.943	1038.69
419.166	1075.69
419.389	1160.69
419.611	1101.69
419.834	1082.69
420.057	1027.69
420.28	1012.69
420.503	968.69
420.726	969.69
420.948	990.69
421.171	965.69
421.394	980.69
421.617	977.69
421.839	967.69
422.062	977.69
422.285	1010.69
422.507	1037.69
422.73	1055.69
422.953	1045.69
423.175	1037.69
423.398	1046.69
423.621	1057.69
423.843	1088.69
424.066	1080.69
424.288	1047.69
424.511	1049.69
424.733	1023.69
424.956	1003.69
425.178	981.69
425.401	993.69
425.623	986.69
425.846	918.69
426.068	947.69
426.291	932.69
426.513	945.69
426.735	935.69
426.958	883.69
427.18	913.69
427.402	902.69
427.625	913.69
427.847	884.69
428.069	907.69
428.292	873.69
428.514	863.69
428.736	865.69
428.958	881.69
429.181	850.69
429.403	853.69
429.625	847.69
429.847	838.69
430.069	856.69
430.292	863.69
430.514	856.69
430.736	837.69
430.958	837.69
431.18	858.69
431.402	850.69
431.624	852.69
431.846	891.69
432.068	887.69
432.29	903.69
432.512	847.69
432.734	881.69
432.956	882.69
433.178	894.69
433.4	886.69
433.622	874.69
433.844	905.69
434.066	893.69
434.287	902.69
434.509	924.69
434.731	948.69
434.953	998.69
435.175	1005.69
435.397	975.69
435.618	942.69
435.84	890.69
436.062	900.69
436.284	921.69
436.505	896.69
436.727	893.69
436.949	926.69
437.17	873.69
437.392	865.69
437.614	838.69
437.835	854.69
438.057	846.69
438.278	827.69
438.5	827.69
438.721	849.69
438.943	833.69
439.165	818.69
439.386	862.69
439.608	857.69
439.829	865.69
440.05	872.69
440.272	900.69
440.493	899.69
440.715	899.69
440.936	901.69
441.158	932.69
441.379	958.69
441.6	981.69
441.822	1014.69
442.043	1010.69
442.264	1006.69
442.486	975.69
442.707	961.69
442.928	968.69
443.149	966.69
443.371	954.69
443.592	1029.69
443.813	990.69
444.034	981.69
444.255	1000.69
444.476	1067.69
444.698	1161.69
444.919	1226.69
445.14	1273.69
445.361	1124.69
445.582	1025.69
445.803	950.69
446.024	919.69
446.245	933.69
446.466	916.69
446.687	879.69
446.908	895.69
447.129	863.69
447.35	873.69
447.571	862.69
447.792	834.69
448.013	830.69
448.234	815.69
448.455	842.69
448.675	794.69
448.896	787.69
449.117	796.69
449.338	782.69
449.559	788.69
449.779	781.69
450	811.69
450.221	805.69
450.442	832.69
450.662	832.69
450.883	821.69
451.104	823.69
451.324	843.69
451.545	817.69
451.766	814.69
451.986	822.69
452.207	832.69
452.428	803.69
452.648	797.69
452.869	794.69
453.089	780.69
453.31	798.69
453.53	778.69
453.751	808.69
453.971	775.69
454.192	772.69
454.412	771.69
454.633	769.69
454.853	771.69
455.073	751.69
455.294	766.69
455.514	755.69
455.734	757.69
455.955	725.69
456.175	795.69
456.395	733.69
456.616	738.69
456.836	733.69
457.056	746.69
457.276	736.69
457.497	769.69
457.717	756.69
457.937	761.69
458.157	759.69
458.377	784.69
458.598	808.69
458.818	800.69
459.038	850.69
459.258	886.69
459.478	890.69
459.698	927.69
459.918	930.69
460.138	958.69
460.358	1039.69
460.578	1038.69
460.798	1047.69
461.018	1094.69
461.238	1027.69
461.458	1025.69
461.678	1035.69
461.898	1048.69
462.118	1009.69
462.338	1103.69
462.558	1133.69
462.777	1200.69
462.997	1321.69
463.217	1420.69
463.437	1451.69
463.657	1273.69
463.876	1211.69
464.096	1211.69
464.316	1201.69
464.536	1226.69
464.755	1175.69
464.975	1137.69
465.195	1091.69
465.414	1016.69
465.634	955.69
465.854	932.69
466.073	905.69
466.293	857.69
466.512	866.69
466.732	849.69
466.951	855.69
467.171	869.69
467.391	857.69
467.61	843.69
467.829	823.69
468.049	824.69
468.268	821.69
468.488	768.69
468.707	786.69
468.927	803.69
469.146	820.69
469.365	826.69
469.585	824.69
469.804	850.69
470.023	849.69
470.243	865.69
470.462	902.69
470.681	885.69
470.901	875.69
471.12	855.69
471.339	840.69
471.558	852.69
471.777	823.69
471.997	795.69
472.216	823.69
472.435	794.69
472.654	785.69
472.873	785.69
473.092	770.69
473.311	751.69
473.53	802.69
473.749	799.69
473.968	781.69
474.187	779.69
474.406	760.69
474.625	810.69
474.844	788.69
475.063	788.69
475.282	790.69
475.501	810.69
475.72	803.69
475.939	792.69
476.158	789.69
476.377	793.69
476.596	816.69
476.814	851.69
477.033	845.69
477.252	859.69
477.471	872.69
477.69	867.69
477.908	884.69
478.127	949.69
478.346	934.69
478.564	948.69
478.783	976.69
479.002	1008.69
479.22	999.69
479.439	990.69
479.658	987.69
479.876	968.69
480.095	998.69
480.313	1037.69
480.532	1079.69
480.751	1054.69
480.969	992.69
481.188	971.69
481.406	968.69
481.624	920.69
481.843	900.69
482.061	911.69
482.28	899.69
482.498	881.69
482.717	908.69
482.935	910.69
483.153	928.69
483.372	927.69
483.59	903.69
483.808	908.69
484.027	883.69
484.245	904.69
484.463	888.69
484.681	928.69
484.9	943.69
485.118	962.69
485.336	921.69
485.554	947.69
485.772	969.69
485.99	952.69
486.209	956.69
486.427	949.69
486.645	961.69
486.863	971.69
487.081	951.69
487.299	959.69
487.517	958.69
487.735	963.69
487.953	918.69
488.171	939.69
488.389	914.69
488.607	932.69
488.825	932.69
489.043	918.69
489.261	905.69
489.479	941.69
489.696	942.69
489.914	921.69
490.132	923.69
490.35	952.69
490.568	955.69
490.786	948.69
491.003	930.69
491.221	927.69
491.439	949.69
491.657	938.69
491.874	963.69
492.092	945.69
492.31	928.69
492.527	962.69
492.745	942.69
492.963	950.69
493.18	960.69
493.398	983.69
493.615	1001.69
493.833	974.69
494.05	981.69
494.268	1009.69
494.485	975.69
494.703	978.69
494.92	974.69
495.138	971.69
495.355	977.69
495.573	1019.69
495.79	1012.69
496.008	993.69
496.225	1011.69
496.442	999.69
496.66	1021.69
496.877	1047.69
497.094	1024.69
497.312	1033.69
497.529	1095.69
497.746	1102.69
497.963	1173.69
498.181	1153.69
498.398	1236.69
498.615	1325.69
498.832	1412.69
499.049	1521.69
499.267	1631.69
499.484	1829.69
499.701	2051.69
499.918	2254.69
500.135	2577.69
500.352	3009.69
500.569	3192.69
500.786	3144.69
501.003	2847.69
501.22	2459.69
501.437	2191.69
501.654	1923.69
501.871	1715.69
502.088	1555.69
502.305	1460.69
502.522	1389.69
502.739	1357.69
502.956	1303.69
503.172	1238.69
503.389	1173.69
503.606	1147.69
503.823	1114.69
504.04	1109.69
504.256	1162.69
504.473	1158.69
504.69	1219.69
504.907	1205.69
505.123	1090.69
505.34	1025.69
505.557	959.69
505.773	952.69
505.99	957.69
506.207	894.69
506.423	889.69
506.64	919.69
506.856	901.69
507.073	880.69
507.289	867.69
507.506	869.69
507.722	856.69
507.939	848.69
508.155	842.69
508.372	821.69
508.588	829.69
508.805	822.69
509.021	825.69
509.238	824.69
509.454	826.69
509.67	827.69
509.887	797.69
510.103	795.69
510.319	778.69
510.536	780.69
510.752	794.69
510.968	776.69
511.184	784.69
511.401	792.69
511.617	780.69
511.833	793.69
512.049	777.69
512.265	805.69
512.481	787.69
512.698	776.69
512.914	806.69
513.13	795.69
513.346	797.69
513.562	808.69
513.778	791.69
513.994	810.69
514.21	789.69
514.426	775.69
514.642	783.69
514.858	805.69
515.074	798.69
515.29	816.69
515.506	847.69
515.721	858.69
515.937	852.69
516.153	887.69
516.369	880.69
516.585	923.69
516.801	937.69
517.016	967.69
517.232	1032.69
517.448	1087.69
517.664	1149.69
517.879	1152.69
518.095	1109.69
518.311	1110.69
518.527	1069.69
518.742	1021.69
518.958	957.69
519.173	949.69
519.389	891.69
519.605	870.69
519.82	860.69
520.036	837.69
520.251	833.69
520.467	804.69
520.682	813.69
520.898	779.69
521.113	787.69
521.329	765.69
521.544	803.69
521.76	807.69
521.975	741.69
522.19	756.69
522.406	738.69
522.621	769.69
522.836	745.69
523.052	730.69
523.267	733.69
523.482	744.69
523.698	730.69
523.913	735.69
524.128	731.69
524.343	744.69
524.559	710.69
524.774	723.69
524.989	722.69
525.204	730.69
525.419	713.69
525.634	715.69
525.849	719.69
526.064	719.69
526.28	711.69
526.495	699.69
526.71	729.69
526.925	713.69
527.14	715.69
527.355	733.69
527.57	705.69
527.785	729.69
527.999	713.69
528.214	731.69
528.429	707.69
528.644	712.69
528.859	704.69
529.074	704.69
529.289	713.69
529.503	726.69
529.718	735.69
529.933	715.69
530.148	729.69
530.363	734.69
530.577	716.69
530.792	712.69
531.007	698.69
531.221	714.69
531.436	735.69
531.651	738.69
531.865	744.69
532.08	708.69
532.295	745.69
532.509	711.69
532.724	729.69
532.938	721.69
533.153	706.69
533.367	719.69
533.582	719.69
533.796	720.69
534.011	722.69
534.225	725.69
534.44	693.69
534.654	740.69
534.868	694.69
535.083	704.69
535.297	711.69
535.511	688.69
535.726	706.69
535.94	695.69
536.154	689.69
536.369	653.69
536.583	669.69
536.797	686.69
537.011	664.69
537.225	679.69
537.44	667.69
537.654	658.69
537.868	649.69
538.082	660.69
538.296	679.69
538.51	677.69
538.724	670.69
538.938	630.69
539.153	637.69
539.367	645.69
539.581	650.69
539.795	645.69
540.009	616.69
540.222	650.69
540.436	649.69
540.65	654.69
540.864	641.69
541.078	622.69
541.292	657.69
541.506	623.69
541.72	637.69
541.934	634.69
542.147	652.69
542.361	641.69
542.575	611.69
542.789	614.69
543.002	638.69
543.216	651.69
543.43	639.69
543.644	650.69
543.857	612.69
544.071	643.69
544.285	657.69
544.498	644.69
544.712	616.69
544.925	626.69
545.139	648.69
545.352	659.69
545.566	673.69
545.779	654.69
545.993	649.69
546.206	667.69
546.42	652.69
546.633	645.69
546.847	639.69
547.06	662.69
547.274	641.69
547.487	659.69
547.7	650.69
547.914	674.69
548.127	662.69
548.34	687.69
548.554	661.69
548.767	661.69
548.98	649.69
549.193	651.69
549.407	649.69
549.62	672.69
549.833	702.69
550.046	683.69
550.259	660.69
550.473	612.69
550.686	637.69
550.899	639.69
551.112	628.69
551.325	639.69
551.538	650.69
551.751	644.69
551.964	635.69
552.177	644.69
552.39	677.69
552.603	672.69
552.816	698.69
553.029	712.69
553.242	728.69
553.455	724.69
553.667	740.69
553.88	719.69
554.093	690.69
554.306	676.69
554.519	644.69
554.732	644.69
554.944	631.69
555.157	641.69
555.37	631.69
555.583	615.69
555.795	630.69
556.008	586.69
556.221	582.69
556.433	602.69
556.646	572.69
556.859	571.69
557.071	574.69
557.284	582.69
557.496	562.69
557.709	562.69
557.921	550.69
558.134	561.69
558.346	567.69
558.559	554.69
558.771	561.69
558.984	548.69
559.196	554.69
559.409	547.69
559.621	537.69
559.833	546.69
560.046	549.69
560.258	544.69
560.47	548.69
560.683	529.69
560.895	527.69
561.107	511.69
561.32	520.69
561.532	542.69
561.744	529.69
561.956	541.69
562.168	548.69
562.381	562.69
562.593	551.69
562.805	538.69
563.017	557.69
563.229	537.69
563.441	533.69
563.653	559.69
563.865	571.69
564.077	521.69
564.289	555.69
564.501	567.69
564.713	581.69
564.925	581.69
565.137	617.69
565.349	584.69
565.561	632.69
565.773	660.69
565.985	674.69
566.197	704.69
566.408	773.69
566.62	819.69
566.832	890.69
567.044	929.69
567.255	894.69
567.467	945.69
567.679	979.69
567.891	1095.69
568.102	1118.69
568.314	1064.69
568.526	935.69
568.737	823.69
568.949	767.69
569.161	705.69
569.372	634.69
569.584	635.69
569.795	590.69
570.007	554.69
570.218	570.69
570.43	551.69
570.641	552.69
570.853	537.69
571.064	545.69
571.276	581.69
571.487	551.69
571.698	534.69
571.91	518.69
572.121	500.69
572.333	459.69
572.544	477.69
572.755	484.69
572.966	466.69
573.178	452.69
573.389	479.69
573.6	445.69
573.811	446.69
574.023	462.69
574.234	443.69
574.445	429.69
574.656	459.69
574.867	449.69
575.078	451.69
575.289	425.69
575.501	434.69
575.712	409.69
575.923	418.69
576.134	429.69
576.345	433.69
576.556	433.69
576.767	425.69
576.978	417.69
577.188	440.69
577.399	422.69
577.61	421.69
577.821	437.69
578.032	416.69
578.243	412.69
578.454	420.69
578.665	415.69
578.875	418.69
579.086	392.69
579.297	403.69
579.508	387.69
579.718	407.69
579.929	413.69
580.14	388.69
580.35	409.69
580.561	388.69
580.772	392.69
580.982	394.69
581.193	384.69
581.403	408.69
581.614	382.69
581.825	407.69
582.035	379.69
582.246	376.69
582.456	366.69
582.667	385.69
582.877	369.69
583.087	357.69
583.298	377.69
583.508	377.69
583.719	365.69
583.929	399.69
584.139	368.69
584.35	379.69
584.56	366.69
584.77	374.69
584.981	352.69
585.191	391.69
585.401	351.69
585.611	369.69
585.821	360.69
586.032	361.69
586.242	349.69
586.452	374.69
586.662	373.69
586.872	383.69
587.082	366.69
587.292	377.69
587.502	348.69
587.713	357.69
587.923	371.69
588.133	362.69
588.343	386.69
588.553	384.69
588.762	358.69
588.972	367.69
589.182	369.69
589.392	363.69
589.602	347.69
589.812	367.69
590.022	369.69
590.232	376.69
590.441	371.69
590.651	366.69
590.861	360.69
591.071	385.69
591.281	393.69
591.49	382.69
591.7	373.69
591.91	377.69
592.119	378.69
592.329	416.69
592.539	415.69
592.748	442.69
592.958	435.69
593.167	465.69
593.377	458.69
593.587	463.69
593.796	475.69
594.006	456.69
594.215	477.69
594.424	486.69
594.634	457.69
594.843	435.69
595.053	424.69
595.262	408.69
595.472	411.69
595.681	397.69
595.89	383.69
596.1	374.69
596.309	350.69
596.518	362.69
596.727	337.69
596.937	352.69
597.146	335.69
597.355	323.69
597.564	334.69
597.774	326.69
597.983	335.69
598.192	335.69
598.401	316.69
598.61	316.69
598.819	322.69
599.028	306.69
599.237	312.69
599.446	317.69
599.655	325.69
599.864	306.69
600.073	307.69
600.282	307.69
600.491	303.69
600.7	304.69
600.909	294.69
601.118	309.69
601.327	331.69
601.536	307.69
601.745	309.69
601.953	288.69
602.162	302.69
602.371	288.69
602.58	289.69
602.789	305.69
602.997	295.69
603.206	305.69
603.415	288.69
603.623	297.69
603.832	295.69
604.041	269.69
604.249	286.69
604.458	289.69
604.666	283.69
604.875	270.69
605.084	269.69
605.292	275.69
605.501	290.69
605.709	290.69
605.918	272.69
606.126	269.69
606.334	291.69
606.543	281.69
606.751	282.69
606.96	278.69
607.168	272.69
607.376	293.69
607.585	279.69
607.793	277.69
608.001	266.69
608.21	271.69
608.418	279.69
608.626	268.69
608.834	289.69
609.043	277.69
609.251	277.69
609.459	277.69
609.667	289.69
609.875	270.69
610.083	289.69
610.291	268.69
610.499	289.69
610.707	282.69
610.916	268.69
611.124	277.69
611.332	265.69
611.54	254.69
611.748	242.69
611.955	271.69
612.163	261.69
612.371	290.69
612.579	281.69
612.787	257.69
612.995	270.69
613.203	259.69
613.411	290.69
613.618	267.69
613.826	256.69
614.034	274.69
614.242	281.69
614.449	263.69
614.657	266.69
614.865	267.69
615.072	269.69
615.28	258.69
615.488	276.69
615.695	265.69
615.903	256.69
616.111	285.69
616.318	280.69
616.526	272.69
616.733	260.69
616.941	273.69
617.148	281.69
617.356	278.69
617.563	284.69
617.771	267.69
617.978	273.69
618.185	289.69
618.393	274.69
618.6	259.69
618.807	274.69
619.015	253.69
619.222	278.69
619.429	279.69
619.637	274.69
619.844	255.69
620.051	265.69
620.258	262.69
620.466	242.69
620.673	242.69
620.88	246.69
621.087	244.69
621.294	232.69
621.501	240.69
621.708	227.69
621.915	253.69
622.122	241.69
622.329	243.69
622.536	248.69
622.743	245.69
622.95	223.69
623.157	228.69
623.364	242.69
623.571	239.69
623.778	222.69
623.985	238.69
624.192	238.69
624.399	237.69
624.606	231.69
624.812	231.69
625.019	234.69
625.226	218.69
625.433	223.69
625.639	215.69
625.846	223.69
626.053	216.69
626.259	234.69
626.466	225.69
626.673	235.69
626.879	230.69
627.086	221.69
627.293	237.69
627.499	217.69
627.706	218.69
627.912	219.69
628.119	239.69
628.325	219.69
628.532	201.69
628.738	214.69
628.945	215.69
629.151	201.69
629.357	203.69
629.564	226.69
629.77	206.69
629.976	211.69
630.183	227.69
630.389	214.69
630.595	206.69
630.802	209.69
631.008	186.69
631.214	190.69
631.42	213.69
631.627	216.69
631.833	208.69
632.039	185.69
632.245	215.69
632.451	197.69
632.657	201.69
632.863	190.69
633.069	217.69
633.275	202.69
633.481	190.69
633.688	202.69
633.893	186.69
634.099	186.69
634.305	215.69
634.511	203.69
634.717	202.69
634.923	203.69
635.129	186.69
635.335	195.69
635.541	186.69
635.747	193.69
635.952	193.69
636.158	207.69
636.364	218.69
636.57	202.69
636.775	189.69
636.981	195.69
637.187	196.69
637.392	195.69
637.598	209.69
637.804	212.69
638.009	196.69
638.215	202.69
638.421	189.69
638.626	198.69
638.832	188.69
639.037	195.69
639.243	181.69
639.448	183.69
639.654	184.69
639.859	191.69
640.065	167.69
640.27	180.69
640.475	184.69
640.681	188.69
640.886	195.69
641.091	179.69
641.297	197.69
641.502	181.69
641.707	193.69
641.913	186.69
642.118	181.69
642.323	190.69
642.528	187.69
642.733	176.69
642.939	176.69
643.144	176.69
643.349	179.69
643.554	183.69
643.759	179.69
643.964	189.69
644.169	188.69
644.374	178.69
644.579	185.69
644.784	161.69
644.989	167.69
645.194	183.69
645.399	192.69
645.604	174.69
645.809	171.69
646.014	171.69
646.219	184.69
646.423	186.69
646.628	195.69
646.833	180.69
647.038	171.69
647.243	185.69
647.447	183.69
647.652	183.69
647.857	187.69
648.062	193.69
648.266	196.69
648.471	202.69
648.676	175.69
648.88	184.69
649.085	189.69
649.289	179.69
649.494	183.69
649.698	179.69
649.903	175.69
650.107	175.69
650.312	185.69
650.516	177.69
650.721	182.69
650.925	175.69
651.13	187.69
651.334	161.69
651.539	185.69
651.743	162.69
651.947	152.69
652.152	154.69
652.356	169.69
652.56	143.69
652.764	155.69
652.969	155.69
653.173	136.69
653.377	155.69
653.581	160.69
653.785	140.69
653.99	145.69
654.194	147.69
654.398	142.69
654.602	138.69
654.806	167.69
655.01	143.69
655.214	146.69
655.418	146.69
655.622	149.69
655.826	124.69
656.03	141.69
656.234	159.69
656.438	147.69
656.642	146.69
656.846	136.69
657.049	131.69
657.253	125.69
657.457	134.69
657.661	133.69
657.865	125.69
658.068	104.69
658.272	119.69
658.476	109.69
658.68	122.69
658.883	109.69
659.087	98.69
659.291	93.69
659.494	109.69
659.698	99.69
659.901	114.69
660.105	106.69
660.309	103.69
660.512	99.69
660.716	90.69
660.919	89.69
661.123	78.69
661.326	75.69
661.53	76.69
661.733	81.69
661.936	95.69
662.14	84.69
662.343	82.69
662.546	87.69
662.75	84.69
662.953	77.69
663.156	75.69
663.36	85.69
663.563	85.69
663.766	73.69
663.969	86.69
664.173	90.69
664.376	75.69
664.579	72.69
664.782	81.69
664.985	82.69
665.188	68.69
665.391	88.69
665.594	79.69
665.797	79.69
666	85.69
666.203	73.69
666.406	64.69
666.609	92.69
666.812	80.69
667.015	75.69
667.218	86.69
667.421	90.69
667.624	65.69
667.827	87.69
668.03	78.69
668.232	81.69
668.435	80.69
668.638	86.69
668.841	99.69
669.043	86.69
669.246	82.69
669.449	84.69
669.651	80.69
669.854	81.69
670.057	86.69
670.259	81.69
670.462	90.69
670.665	78.69
670.867	68.69
671.07	87.69
671.272	83.69
671.475	70.69
671.677	72.69
671.88	70.69
672.082	93.69
672.284	71.69
672.487	78.69
672.689	82.69
672.892	71.69
