Data from Ni(NO3)2@0.5M.TitratingCurve.Agarose3%dH2O.NegLispCup.LampEnergy10.LIBS07252019_HRD10591_17-58-59-564.txt Node
Date: Thu Jul 25 17:58:59 EDT 2019
User: cochatt
Spectrometer: HR+D1059
Trigger mode: 1
Integration Time (sec): 1.000000E-1
Scans to average: 1
Electric dark correction enabled: true
Nonlinearity correction enabled: false
Boxcar width: 0
XAxis mode: Wavelengths
Number of Pixels in Spectrum: 2048
>>>>>Begin Spectral Data<<<<<
223.165	-14.19
223.4	-14.19
223.635	-14.19
223.869	-14.19
224.104	-11.19
224.338	-18.19
224.573	-8.19
224.808	-28.19
225.042	8.81
225.277	-3.19
225.511	1.81
225.746	-2.19
225.98	12.81
226.215	14.81
226.449	12.81
226.683	18.81
226.918	8.81
227.152	20.81
227.387	35.81
227.621	52.81
227.856	37.81
228.09	62.81
228.324	59.81
228.559	62.81
228.793	76.81
229.027	122.81
229.262	153.81
229.496	153.81
229.73	149.81
229.964	188.81
230.199	224.81
230.433	210.81
230.667	198.81
230.901	188.81
231.136	172.81
231.37	175.81
231.604	187.81
231.838	221.81
232.072	233.81
232.306	225.81
232.541	199.81
232.775	182.81
233.009	163.81
233.243	171.81
233.477	171.81
233.711	178.81
233.945	183.81
234.179	190.81
234.413	173.81
234.647	193.81
234.881	181.81
235.115	187.81
235.349	173.81
235.583	170.81
235.817	155.81
236.051	170.81
236.285	179.81
236.519	170.81
236.753	170.81
236.987	181.81
237.221	177.81
237.455	171.81
237.689	173.81
237.922	186.81
238.156	189.81
238.39	196.81
238.624	200.81
238.858	185.81
239.091	193.81
239.325	195.81
239.559	207.81
239.793	234.81
240.027	238.81
240.26	191.81
240.494	187.81
240.728	213.81
240.961	196.81
241.195	206.81
241.429	200.81
241.662	219.81
241.896	255.81
242.13	268.81
242.363	236.81
242.597	211.81
242.83	206.81
243.064	218.81
243.298	221.81
243.531	225.81
243.765	226.81
243.998	232.81
244.232	255.81
244.465	238.81
244.699	245.81
244.932	222.81
245.166	220.81
245.399	213.81
245.633	237.81
245.866	226.81
246.099	241.81
246.333	230.81
246.566	243.81
246.8	236.81
247.033	246.81
247.266	250.81
247.5	250.81
247.733	269.81
247.966	266.81
248.2	269.81
248.433	269.81
248.666	271.81
248.899	276.81
249.133	263.81
249.366	267.81
249.599	258.81
249.832	267.81
250.066	282.81
250.299	256.81
250.532	282.81
250.765	277.81
250.998	287.81
251.231	314.81
251.465	333.81
251.698	311.81
251.931	285.81
252.164	307.81
252.397	295.81
252.63	306.81
252.863	299.81
253.096	307.81
253.329	303.81
253.562	311.81
253.795	314.81
254.028	308.81
254.261	320.81
254.494	317.81
254.727	316.81
254.96	345.81
255.193	322.81
255.426	331.81
255.659	342.81
255.892	324.81
256.124	337.81
256.357	335.81
256.59	349.81
256.823	329.81
257.056	332.81
257.289	345.81
257.521	334.81
257.754	343.81
257.987	369.81
258.22	338.81
258.452	350.81
258.685	367.81
258.918	350.81
259.151	363.81
259.383	341.81
259.616	347.81
259.849	361.81
260.081	355.81
260.314	373.81
260.547	369.81
260.779	376.81
261.012	387.81
261.244	391.81
261.477	379.81
261.71	375.81
261.942	381.81
262.175	373.81
262.407	382.81
262.64	367.81
262.872	399.81
263.105	393.81
263.337	398.81
263.57	389.81
263.802	409.81
264.035	407.81
264.267	413.81
264.499	404.81
264.732	392.81
264.964	405.81
265.197	407.81
265.429	424.81
265.661	401.81
265.894	412.81
266.126	400.81
266.358	400.81
266.591	414.81
266.823	444.81
267.055	424.81
267.287	421.81
267.52	400.81
267.752	433.81
267.984	407.81
268.216	436.81
268.448	420.81
268.681	422.81
268.913	447.81
269.145	435.81
269.377	436.81
269.609	445.81
269.841	425.81
270.073	427.81
270.306	449.81
270.538	437.81
270.77	457.81
271.002	445.81
271.234	445.81
271.466	447.81
271.698	462.81
271.93	458.81
272.162	429.81
272.394	459.81
272.626	469.81
272.858	464.81
273.09	467.81
273.322	487.81
273.553	466.81
273.785	467.81
274.017	471.81
274.249	485.81
274.481	474.81
274.713	475.81
274.945	473.81
275.176	472.81
275.408	479.81
275.64	479.81
275.872	465.81
276.104	489.81
276.335	497.81
276.567	466.81
276.799	463.81
277.031	502.81
277.262	509.81
277.494	521.81
277.726	518.81
277.957	504.81
278.189	513.81
278.421	506.81
278.652	496.81
278.884	503.81
279.115	527.81
279.347	515.81
279.579	510.81
279.81	497.81
280.042	541.81
280.273	534.81
280.505	522.81
280.736	538.81
280.968	538.81
281.199	543.81
281.431	536.81
281.662	536.81
281.894	539.81
282.125	517.81
282.356	519.81
282.588	534.81
282.819	554.81
283.051	556.81
283.282	553.81
283.513	542.81
283.745	557.81
283.976	545.81
284.207	567.81
284.439	544.81
284.67	574.81
284.901	565.81
285.132	550.81
285.364	561.81
285.595	541.81
285.826	582.81
286.057	574.81
286.288	550.81
286.52	569.81
286.751	577.81
286.982	569.81
287.213	579.81
287.444	583.81
287.675	563.81
287.906	597.81
288.138	583.81
288.369	587.81
288.6	562.81
288.831	563.81
289.062	590.81
289.293	571.81
289.524	594.81
289.755	588.81
289.986	605.81
290.217	597.81
290.448	596.81
290.679	613.81
290.91	606.81
291.141	586.81
291.371	581.81
291.602	595.81
291.833	601.81
292.064	589.81
292.295	579.81
292.526	591.81
292.757	608.81
292.987	577.81
293.218	595.81
293.449	613.81
293.68	617.81
293.91	586.81
294.141	590.81
294.372	579.81
294.603	630.81
294.833	617.81
295.064	614.81
295.295	618.81
295.525	628.81
295.756	620.81
295.987	620.81
296.217	622.81
296.448	617.81
296.679	613.81
296.909	606.81
297.14	627.81
297.37	655.81
297.601	624.81
297.831	631.81
298.062	643.81
298.292	627.81
298.523	639.81
298.753	667.81
298.984	643.81
299.214	643.81
299.445	654.81
299.675	630.81
299.905	667.81
300.136	650.81
300.366	701.81
300.597	712.81
300.827	695.81
301.057	676.81
301.288	698.81
301.518	685.81
301.748	687.81
301.979	681.81
302.209	687.81
302.439	692.81
302.669	673.81
302.9	697.81
303.13	687.81
303.36	709.81
303.59	702.81
303.82	748.81
304.051	723.81
304.281	709.81
304.511	709.81
304.741	698.81
304.971	736.81
305.201	711.81
305.431	733.81
305.661	738.81
305.891	713.81
306.121	717.81
306.352	713.81
306.582	714.81
306.812	692.81
307.042	700.81
307.272	669.81
307.502	669.81
307.731	713.81
307.961	689.81
308.191	668.81
308.421	696.81
308.651	661.81
308.881	702.81
309.111	708.81
309.341	698.81
309.571	723.81
309.8	689.81
310.03	751.81
310.26	789.81
310.49	767.81
310.72	744.81
310.949	741.81
311.179	720.81
311.409	724.81
311.639	730.81
311.868	716.81
312.098	753.81
312.328	725.81
312.557	732.81
312.787	742.81
313.017	738.81
313.246	751.81
313.476	805.81
313.706	774.81
313.935	769.81
314.165	748.81
314.394	738.81
314.624	790.81
314.853	764.81
315.083	750.81
315.312	758.81
315.542	779.81
315.771	778.81
316.001	777.81
316.23	762.81
316.46	756.81
316.689	771.81
316.919	770.81
317.148	770.81
317.377	779.81
317.607	761.81
317.836	772.81
318.065	803.81
318.295	785.81
318.524	779.81
318.753	785.81
318.983	775.81
319.212	769.81
319.441	779.81
319.67	782.81
319.9	781.81
320.129	747.81
320.358	817.81
320.587	798.81
320.816	793.81
321.046	789.81
321.275	805.81
321.504	809.81
321.733	802.81
321.962	829.81
322.191	807.81
322.42	831.81
322.649	811.81
322.878	822.81
323.108	819.81
323.337	846.81
323.566	839.81
323.795	850.81
324.024	827.81
324.253	841.81
324.482	837.81
324.71	842.81
324.939	825.81
325.168	851.81
325.397	860.81
325.626	847.81
325.855	877.81
326.084	847.81
326.313	852.81
326.542	843.81
326.77	892.81
326.999	881.81
327.228	852.81
327.457	877.81
327.686	852.81
327.914	865.81
328.143	877.81
328.372	863.81
328.6	889.81
328.829	885.81
329.058	864.81
329.287	889.81
329.515	884.81
329.744	887.81
329.972	906.81
330.201	889.81
330.43	873.81
330.658	893.81
330.887	921.81
331.115	892.81
331.344	933.81
331.572	924.81
331.801	923.81
332.03	929.81
332.258	941.81
332.486	949.81
332.715	972.81
332.943	987.81
333.172	970.81
333.4	971.81
333.629	980.81
333.857	1008.81
334.085	1019.81
334.314	1020.81
334.542	1010.81
334.771	1017.81
334.999	999.81
335.227	1038.81
335.455	1019.81
335.684	999.81
335.912	1021.81
336.14	1056.81
336.369	1039.81
336.597	1037.81
336.825	1061.81
337.053	1044.81
337.281	1039.81
337.51	1049.81
337.738	1027.81
337.966	1034.81
338.194	1022.81
338.422	1030.81
338.65	980.81
338.878	1018.81
339.106	996.81
339.334	1017.81
339.562	1031.81
339.79	973.81
340.018	969.81
340.246	960.81
340.474	963.81
340.702	953.81
340.93	993.81
341.158	966.81
341.386	1005.81
341.614	1048.81
341.842	1025.81
342.07	989.81
342.298	982.81
342.526	970.81
342.754	967.81
342.981	961.81
343.209	986.81
343.437	1023.81
343.665	1021.81
343.893	1033.81
344.12	1030.81
344.348	1025.81
344.576	1058.81
344.804	1057.81
345.031	1036.81
345.259	989.81
345.487	987.81
345.714	1001.81
345.942	1045.81
346.17	1055.81
346.397	1022.81
346.625	962.81
346.853	928.81
347.08	938.81
347.308	937.81
347.535	921.81
347.763	909.81
347.99	920.81
348.218	897.81
348.445	903.81
348.673	905.81
348.9	929.81
349.128	954.81
349.355	975.81
349.583	927.81
349.81	938.81
350.037	911.81
350.265	919.81
350.492	920.81
350.72	901.81
350.947	955.81
351.174	959.81
351.402	975.81
351.629	988.81
351.856	973.81
352.083	940.81
352.311	942.81
352.538	1002.81
352.765	990.81
352.992	931.81
353.22	901.81
353.447	904.81
353.674	879.81
353.901	876.81
354.128	886.81
354.355	872.81
354.583	883.81
354.81	892.81
355.037	896.81
355.264	878.81
355.491	873.81
355.718	877.81
355.945	879.81
356.172	872.81
356.399	920.81
356.626	933.81
356.853	953.81
357.08	916.81
357.307	883.81
357.534	919.81
357.761	917.81
357.988	907.81
358.215	894.81
358.441	875.81
358.668	884.81
358.895	893.81
359.122	875.81
359.349	879.81
359.576	876.81
359.802	916.81
360.029	904.81
360.256	904.81
360.483	897.81
360.709	897.81
360.936	918.81
361.163	926.81
361.39	917.81
361.616	926.81
361.843	976.81
362.07	988.81
362.296	987.81
362.523	927.81
362.749	919.81
362.976	898.81
363.203	886.81
363.429	878.81
363.656	899.81
363.882	906.81
364.109	893.81
364.335	912.81
364.562	899.81
364.788	891.81
365.015	933.81
365.241	891.81
365.468	927.81
365.694	899.81
365.92	907.81
366.147	885.81
366.373	907.81
366.599	885.81
366.826	899.81
367.052	904.81
367.278	907.81
367.505	925.81
367.731	915.81
367.957	927.81
368.184	909.81
368.41	907.81
368.636	933.81
368.862	931.81
369.089	938.81
369.315	933.81
369.541	904.81
369.767	918.81
369.993	955.81
370.219	925.81
370.445	969.81
370.672	953.81
370.898	942.81
371.124	970.81
371.35	987.81
371.576	950.81
371.802	966.81
372.028	957.81
372.254	964.81
372.48	973.81
372.706	968.81
372.932	990.81
373.158	957.81
373.384	966.81
373.61	965.81
373.835	981.81
374.061	984.81
374.287	953.81
374.513	981.81
374.739	985.81
374.965	1002.81
375.191	1020.81
375.416	1015.81
375.642	967.81
375.868	985.81
376.094	1000.81
376.319	972.81
376.545	973.81
376.771	966.81
376.997	962.81
377.222	961.81
377.448	961.81
377.674	999.81
377.899	958.81
378.125	957.81
378.35	950.81
378.576	942.81
378.802	933.81
379.027	986.81
379.253	941.81
379.478	953.81
379.704	952.81
379.929	949.81
380.155	945.81
380.38	952.81
380.606	966.81
380.831	942.81
381.057	981.81
381.282	949.81
381.507	972.81
381.733	982.81
381.958	979.81
382.184	981.81
382.409	1009.81
382.634	988.81
382.86	960.81
383.085	988.81
383.31	998.81
383.535	1014.81
383.761	1000.81
383.986	998.81
384.211	1003.81
384.436	1021.81
384.662	1002.81
384.887	1039.81
385.112	1027.81
385.337	1046.81
385.562	1036.81
385.787	1071.81
386.013	1124.81
386.238	1065.81
386.463	1114.81
386.688	1108.81
386.913	1098.81
387.138	1100.81
387.363	1106.81
387.588	1111.81
387.813	1107.81
388.038	1089.81
388.263	1101.81
388.488	1084.81
388.713	1089.81
388.938	1094.81
389.163	1077.81
389.387	1083.81
389.612	1126.81
389.837	1063.81
390.062	1102.81
390.287	1095.81
390.512	1101.81
390.736	1069.81
390.961	1108.81
391.186	1087.81
391.411	1126.81
391.636	1139.81
391.86	1158.81
392.085	1154.81
392.31	1146.81
392.534	1133.81
392.759	1167.81
392.984	1179.81
393.208	1165.81
393.433	1152.81
393.658	1190.81
393.882	1170.81
394.107	1111.81
394.331	1166.81
394.556	1134.81
394.78	1129.81
395.005	1148.81
395.229	1130.81
395.454	1179.81
395.678	1153.81
395.903	1161.81
396.127	1182.81
396.352	1171.81
396.576	1170.81
396.801	1179.81
397.025	1194.81
397.249	1199.81
397.474	1220.81
397.698	1221.81
397.922	1219.81
398.147	1217.81
398.371	1262.81
398.595	1257.81
398.82	1286.81
399.044	1304.81
399.268	1337.81
399.492	1427.81
399.717	1472.81
399.941	1494.81
400.165	1457.81
400.389	1442.81
400.613	1403.81
400.837	1336.81
401.062	1351.81
401.286	1309.81
401.51	1311.81
401.734	1283.81
401.958	1295.81
402.182	1307.81
402.406	1260.81
402.63	1293.81
402.854	1301.81
403.078	1271.81
403.302	1331.81
403.526	1307.81
403.75	1300.81
403.974	1305.81
404.198	1296.81
404.422	1293.81
404.645	1294.81
404.869	1314.81
405.093	1317.81
405.317	1315.81
405.541	1325.81
405.765	1348.81
405.988	1363.81
406.212	1348.81
406.436	1373.81
406.66	1394.81
406.883	1408.81
407.107	1445.81
407.331	1468.81
407.555	1481.81
407.778	1460.81
408.002	1461.81
408.226	1496.81
408.449	1490.81
408.673	1450.81
408.896	1423.81
409.12	1405.81
409.344	1446.81
409.567	1377.81
409.791	1413.81
410.014	1370.81
410.238	1367.81
410.461	1356.81
410.685	1357.81
410.908	1358.81
411.132	1361.81
411.355	1360.81
411.578	1327.81
411.802	1350.81
412.025	1332.81
412.249	1353.81
412.472	1351.81
412.695	1323.81
412.919	1320.81
413.142	1300.81
413.365	1324.81
413.589	1302.81
413.812	1315.81
414.035	1294.81
414.258	1316.81
414.482	1295.81
414.705	1302.81
414.928	1287.81
415.151	1307.81
415.374	1263.81
415.597	1298.81
415.821	1257.81
416.044	1240.81
416.267	1247.81
416.49	1235.81
416.713	1233.81
416.936	1286.81
417.159	1254.81
417.382	1248.81
417.605	1240.81
417.828	1214.81
418.051	1242.81
418.274	1227.81
418.497	1211.81
418.72	1238.81
418.943	1244.81
419.166	1310.81
419.389	1388.81
419.611	1374.81
419.834	1333.81
420.057	1285.81
420.28	1275.81
420.503	1238.81
420.726	1239.81
420.948	1238.81
421.171	1229.81
421.394	1258.81
421.617	1236.81
421.839	1199.81
422.062	1240.81
422.285	1201.81
422.507	1231.81
422.73	1243.81
422.953	1232.81
423.175	1212.81
423.398	1226.81
423.621	1245.81
423.843	1231.81
424.066	1290.81
424.288	1265.81
424.511	1238.81
424.733	1208.81
424.956	1219.81
425.178	1239.81
425.401	1242.81
425.623	1247.81
425.846	1217.81
426.068	1217.81
426.291	1197.81
426.513	1205.81
426.735	1207.81
426.958	1232.81
427.18	1189.81
427.402	1195.81
427.625	1249.81
427.847	1195.81
428.069	1202.81
428.292	1231.81
428.514	1214.81
428.736	1185.81
428.958	1181.81
429.181	1181.81
429.403	1156.81
429.625	1194.81
429.847	1143.81
430.069	1182.81
430.292	1179.81
430.514	1170.81
430.736	1186.81
430.958	1191.81
431.18	1197.81
431.402	1183.81
431.624	1209.81
431.846	1165.81
432.068	1184.81
432.29	1210.81
432.512	1196.81
432.734	1198.81
432.956	1183.81
433.178	1237.81
433.4	1263.81
433.622	1247.81
433.844	1227.81
434.066	1274.81
434.287	1269.81
434.509	1239.81
434.731	1237.81
434.953	1263.81
435.175	1291.81
435.397	1304.81
435.618	1244.81
435.84	1237.81
436.062	1201.81
436.284	1217.81
436.505	1202.81
436.727	1177.81
436.949	1207.81
437.17	1206.81
437.392	1208.81
437.614	1184.81
437.835	1176.81
438.057	1181.81
438.278	1139.81
438.5	1159.81
438.721	1159.81
438.943	1181.81
439.165	1165.81
439.386	1168.81
439.608	1175.81
439.829	1140.81
440.05	1190.81
440.272	1191.81
440.493	1215.81
440.715	1198.81
440.936	1244.81
441.158	1189.81
441.379	1247.81
441.6	1258.81
441.822	1250.81
442.043	1244.81
442.264	1246.81
442.486	1253.81
442.707	1233.81
442.928	1249.81
443.149	1259.81
443.371	1288.81
443.592	1369.81
443.813	1322.81
444.034	1297.81
444.255	1288.81
444.476	1331.81
444.698	1357.81
444.919	1399.81
445.14	1481.81
445.361	1376.81
445.582	1278.81
445.803	1257.81
446.024	1252.81
446.245	1262.81
446.466	1209.81
446.687	1191.81
446.908	1199.81
447.129	1183.81
447.35	1149.81
447.571	1154.81
447.792	1145.81
448.013	1110.81
448.234	1125.81
448.455	1118.81
448.675	1144.81
448.896	1108.81
449.117	1067.81
449.338	1129.81
449.559	1103.81
449.779	1084.81
450	1069.81
450.221	1094.81
450.442	1075.81
450.662	1118.81
450.883	1133.81
451.104	1165.81
451.324	1095.81
451.545	1121.81
451.766	1141.81
451.986	1077.81
452.207	1101.81
452.428	1054.81
452.648	1066.81
452.869	1076.81
453.089	1065.81
453.31	1111.81
453.53	1079.81
453.751	1065.81
453.971	1058.81
454.192	1110.81
454.412	1102.81
454.633	1068.81
454.853	1086.81
455.073	1062.81
455.294	1050.81
455.514	1086.81
455.734	1109.81
455.955	1092.81
456.175	1112.81
456.395	1057.81
456.616	1034.81
456.836	1041.81
457.056	1081.81
457.276	1077.81
457.497	1115.81
457.717	1116.81
457.937	1108.81
458.157	1111.81
458.377	1078.81
458.598	1128.81
458.818	1099.81
459.038	1151.81
459.258	1159.81
459.478	1258.81
459.698	1362.81
459.918	1365.81
460.138	1330.81
460.358	1319.81
460.578	1334.81
460.798	1355.81
461.018	1358.81
461.238	1298.81
461.458	1295.81
461.678	1283.81
461.898	1301.81
462.118	1307.81
462.338	1351.81
462.558	1406.81
462.777	1424.81
462.997	1525.81
463.217	1487.81
463.437	1578.81
463.657	1563.81
463.876	1479.81
464.096	1437.81
464.316	1427.81
464.536	1403.81
464.755	1404.81
464.975	1370.81
465.195	1343.81
465.414	1287.81
465.634	1252.81
465.854	1221.81
466.073	1215.81
466.293	1178.81
466.512	1190.81
466.732	1191.81
466.951	1179.81
467.171	1182.81
467.391	1193.81
467.61	1147.81
467.829	1154.81
468.049	1143.81
468.268	1118.81
468.488	1149.81
468.707	1138.81
468.927	1152.81
469.146	1152.81
469.365	1178.81
469.585	1169.81
469.804	1182.81
470.023	1181.81
470.243	1166.81
470.462	1179.81
470.681	1179.81
470.901	1157.81
471.12	1159.81
471.339	1177.81
471.558	1170.81
471.777	1171.81
471.997	1144.81
472.216	1139.81
472.435	1117.81
472.654	1121.81
472.873	1161.81
473.092	1149.81
473.311	1115.81
473.53	1149.81
473.749	1154.81
473.968	1147.81
474.187	1148.81
474.406	1141.81
474.625	1140.81
474.844	1181.81
475.063	1172.81
475.282	1156.81
475.501	1165.81
475.72	1190.81
475.939	1179.81
476.158	1161.81
476.377	1207.81
476.596	1183.81
476.814	1210.81
477.033	1198.81
477.252	1240.81
477.471	1265.81
477.69	1253.81
477.908	1276.81
478.127	1283.81
478.346	1291.81
478.564	1307.81
478.783	1370.81
479.002	1384.81
479.22	1427.81
479.439	1419.81
479.658	1345.81
479.876	1338.81
480.095	1326.81
480.313	1358.81
480.532	1366.81
480.751	1400.81
480.969	1369.81
481.188	1363.81
481.406	1363.81
481.624	1347.81
481.843	1310.81
482.061	1345.81
482.28	1319.81
482.498	1334.81
482.717	1332.81
482.935	1362.81
483.153	1379.81
483.372	1446.81
483.59	1439.81
483.808	1353.81
484.027	1363.81
484.245	1350.81
484.463	1359.81
484.681	1388.81
484.9	1381.81
485.118	1377.81
485.336	1378.81
485.554	1369.81
485.772	1403.81
485.99	1395.81
486.209	1365.81
486.427	1369.81
486.645	1381.81
486.863	1376.81
487.081	1399.81
487.299	1351.81
487.517	1411.81
487.735	1424.81
487.953	1445.81
488.171	1465.81
488.389	1398.81
488.607	1416.81
488.825	1382.81
489.043	1346.81
489.261	1388.81
489.479	1365.81
489.696	1349.81
489.914	1357.81
490.132	1411.81
490.35	1397.81
490.568	1385.81
490.786	1406.81
491.003	1373.81
491.221	1423.81
491.439	1421.81
491.657	1409.81
491.874	1444.81
492.092	1459.81
492.31	1423.81
492.527	1421.81
492.745	1470.81
492.963	1445.81
493.18	1430.81
493.398	1439.81
493.615	1411.81
493.833	1425.81
494.05	1444.81
494.268	1448.81
494.485	1459.81
494.703	1437.81
494.92	1464.81
495.138	1471.81
495.355	1462.81
495.573	1514.81
495.79	1465.81
496.008	1516.81
496.225	1514.81
496.442	1514.81
496.66	1547.81
496.877	1533.81
497.094	1579.81
497.312	1589.81
497.529	1580.81
497.746	1651.81
497.963	1683.81
498.181	1690.81
498.398	1720.81
498.615	1785.81
498.832	1837.81
499.049	1893.81
499.267	1958.81
499.484	2040.81
499.701	2156.81
499.918	2227.81
500.135	2293.81
500.352	2406.81
500.569	2441.81
500.786	2419.81
501.003	2404.81
501.22	2321.81
501.437	2209.81
501.654	2114.81
501.871	2059.81
502.088	1986.81
502.305	1947.81
502.522	1926.81
502.739	1820.81
502.956	1706.81
503.172	1709.81
503.389	1640.81
503.606	1657.81
503.823	1590.81
504.04	1596.81
504.256	1572.81
504.473	1563.81
504.69	1509.81
504.907	1459.81
505.123	1487.81
505.34	1449.81
505.557	1415.81
505.773	1400.81
505.99	1361.81
506.207	1364.81
506.423	1308.81
506.64	1334.81
506.856	1315.81
507.073	1328.81
507.289	1315.81
507.506	1307.81
507.722	1271.81
507.939	1263.81
508.155	1285.81
508.372	1269.81
508.588	1270.81
508.805	1237.81
509.021	1277.81
509.238	1244.81
509.454	1193.81
509.67	1198.81
509.887	1207.81
510.103	1177.81
510.319	1191.81
510.536	1223.81
510.752	1175.81
510.968	1148.81
511.184	1171.81
511.401	1177.81
511.617	1169.81
511.833	1154.81
512.049	1180.81
512.265	1181.81
512.481	1163.81
512.698	1169.81
512.914	1183.81
513.13	1128.81
513.346	1153.81
513.562	1162.81
513.778	1174.81
513.994	1157.81
514.21	1208.81
514.426	1187.81
514.642	1171.81
514.858	1177.81
515.074	1198.81
515.29	1201.81
515.506	1185.81
515.721	1168.81
515.937	1198.81
516.153	1207.81
516.369	1233.81
516.585	1255.81
516.801	1238.81
517.016	1270.81
517.232	1319.81
517.448	1271.81
517.664	1319.81
517.879	1306.81
518.095	1291.81
518.311	1315.81
518.527	1261.81
518.742	1273.81
518.958	1221.81
519.173	1235.81
519.389	1235.81
519.605	1209.81
519.82	1178.81
520.036	1162.81
520.251	1147.81
520.467	1144.81
520.682	1129.81
520.898	1131.81
521.113	1113.81
521.329	1095.81
521.544	1103.81
521.76	1129.81
521.975	1099.81
522.19	1103.81
522.406	1090.81
522.621	1060.81
522.836	1098.81
523.052	1070.81
523.267	1081.81
523.482	1071.81
523.698	1049.81
523.913	1045.81
524.128	1052.81
524.343	1082.81
524.559	1017.81
524.774	1054.81
524.989	1035.81
525.204	1038.81
525.419	1015.81
525.634	1026.81
525.849	1075.81
526.064	1060.81
526.28	1044.81
526.495	1048.81
526.71	1040.81
526.925	1006.81
527.14	1006.81
527.355	1032.81
527.57	1014.81
527.785	1004.81
527.999	1017.81
528.214	1011.81
528.429	1031.81
528.644	990.81
528.859	1025.81
529.074	1013.81
529.289	1003.81
529.503	1013.81
529.718	1000.81
529.933	993.81
530.148	1031.81
530.363	1015.81
530.577	981.81
530.792	998.81
531.007	950.81
531.221	993.81
531.436	982.81
531.651	995.81
531.865	979.81
532.08	1008.81
532.295	984.81
532.509	977.81
532.724	1009.81
532.938	942.81
533.153	965.81
533.367	970.81
533.582	976.81
533.796	996.81
534.011	971.81
534.225	964.81
534.44	975.81
534.654	949.81
534.868	986.81
535.083	966.81
535.297	954.81
535.511	934.81
535.726	957.81
535.94	970.81
536.154	932.81
536.369	941.81
536.583	939.81
536.797	931.81
537.011	967.81
537.225	930.81
537.44	902.81
537.654	935.81
537.868	927.81
538.082	916.81
538.296	901.81
538.51	917.81
538.724	937.81
538.938	926.81
539.153	910.81
539.367	926.81
539.581	917.81
539.795	893.81
540.009	911.81
540.222	910.81
540.436	938.81
540.65	894.81
540.864	920.81
541.078	901.81
541.292	906.81
541.506	909.81
541.72	911.81
541.934	889.81
542.147	934.81
542.361	924.81
542.575	912.81
542.789	896.81
543.002	865.81
543.216	885.81
543.43	899.81
543.644	894.81
543.857	895.81
544.071	928.81
544.285	889.81
544.498	887.81
544.712	918.81
544.925	909.81
545.139	903.81
545.352	913.81
545.566	912.81
545.779	892.81
545.993	883.81
546.206	906.81
546.42	924.81
546.633	934.81
546.847	883.81
547.06	891.81
547.274	889.81
547.487	929.81
547.7	890.81
547.914	925.81
548.127	928.81
548.34	914.81
548.554	907.81
548.767	917.81
548.98	915.81
549.193	903.81
549.407	855.81
549.62	866.81
549.833	894.81
550.046	860.81
550.259	927.81
550.473	870.81
550.686	885.81
550.899	875.81
551.112	892.81
551.325	891.81
551.538	895.81
551.751	898.81
551.964	875.81
552.177	900.81
552.39	897.81
552.603	909.81
552.816	903.81
553.029	902.81
553.242	905.81
553.455	876.81
553.667	876.81
553.88	881.81
554.093	893.81
554.306	862.81
554.519	870.81
554.732	857.81
554.944	842.81
555.157	840.81
555.37	830.81
555.583	824.81
555.795	818.81
556.008	808.81
556.221	795.81
556.433	785.81
556.646	804.81
556.859	803.81
557.071	803.81
557.284	794.81
557.496	794.81
557.709	779.81
557.921	782.81
558.134	782.81
558.346	755.81
558.559	781.81
558.771	778.81
558.984	767.81
559.196	746.81
559.409	762.81
559.621	756.81
559.833	757.81
560.046	770.81
560.258	746.81
560.47	752.81
560.683	742.81
560.895	765.81
561.107	746.81
561.32	753.81
561.532	769.81
561.744	760.81
561.956	772.81
562.168	777.81
562.381	742.81
562.593	730.81
562.805	754.81
563.017	742.81
563.229	749.81
563.441	719.81
563.653	739.81
563.865	759.81
564.077	769.81
564.289	777.81
564.501	762.81
564.713	765.81
564.925	795.81
565.137	783.81
565.349	830.81
565.561	825.81
565.773	836.81
565.985	847.81
566.197	859.81
566.408	888.81
566.62	891.81
566.832	928.81
567.044	937.81
567.255	916.81
567.467	927.81
567.679	940.81
567.891	948.81
568.102	965.81
568.314	912.81
568.526	875.81
568.737	867.81
568.949	839.81
569.161	828.81
569.372	815.81
569.584	775.81
569.795	759.81
570.007	733.81
570.218	735.81
570.43	740.81
570.641	716.81
570.853	720.81
571.064	712.81
571.276	701.81
571.487	702.81
571.698	693.81
571.91	670.81
572.121	689.81
572.333	667.81
572.544	665.81
572.755	656.81
572.966	613.81
573.178	608.81
573.389	646.81
573.6	630.81
573.811	607.81
574.023	623.81
574.234	589.81
574.445	604.81
574.656	609.81
574.867	614.81
575.078	603.81
575.289	582.81
575.501	577.81
575.712	598.81
575.923	597.81
576.134	607.81
576.345	579.81
576.556	593.81
576.767	565.81
576.978	551.81
577.188	568.81
577.399	582.81
577.61	573.81
577.821	559.81
578.032	551.81
578.243	554.81
578.454	552.81
578.665	554.81
578.875	535.81
579.086	535.81
579.297	547.81
579.508	567.81
579.718	554.81
579.929	525.81
580.14	549.81
580.35	517.81
580.561	533.81
580.772	532.81
580.982	533.81
581.193	528.81
581.403	537.81
581.614	540.81
581.825	525.81
582.035	528.81
582.246	528.81
582.456	524.81
582.667	540.81
582.877	510.81
583.087	481.81
583.298	489.81
583.508	503.81
583.719	504.81
583.929	498.81
584.139	494.81
584.35	507.81
584.56	525.81
584.77	495.81
584.981	513.81
585.191	509.81
585.401	477.81
585.611	497.81
585.821	530.81
586.032	483.81
586.242	500.81
586.452	484.81
586.662	505.81
586.872	498.81
587.082	490.81
587.292	484.81
587.502	483.81
587.713	480.81
587.923	494.81
588.133	490.81
588.343	489.81
588.553	503.81
588.762	486.81
588.972	505.81
589.182	550.81
589.392	529.81
589.602	499.81
589.812	537.81
590.022	510.81
590.232	512.81
590.441	497.81
590.651	484.81
590.861	460.81
591.071	478.81
591.281	481.81
591.49	494.81
591.7	492.81
591.91	506.81
592.119	495.81
592.329	507.81
592.539	508.81
592.748	533.81
592.958	491.81
593.167	491.81
593.377	518.81
593.587	514.81
593.796	510.81
594.006	533.81
594.215	522.81
594.424	522.81
594.634	514.81
594.843	485.81
595.053	463.81
595.262	495.81
595.472	482.81
595.681	484.81
595.89	484.81
596.1	450.81
596.309	459.81
596.518	459.81
596.727	450.81
596.937	437.81
597.146	457.81
597.355	446.81
597.564	434.81
597.774	429.81
597.983	414.81
598.192	418.81
598.401	427.81
598.61	411.81
598.819	409.81
599.028	420.81
599.237	422.81
599.446	412.81
599.655	397.81
599.864	414.81
600.073	411.81
600.282	426.81
600.491	412.81
600.7	419.81
600.909	406.81
601.118	419.81
601.327	395.81
601.536	406.81
601.745	413.81
601.953	399.81
602.162	389.81
602.371	406.81
602.58	392.81
602.789	383.81
602.997	394.81
603.206	406.81
603.415	395.81
603.623	395.81
603.832	380.81
604.041	397.81
604.249	371.81
604.458	378.81
604.666	374.81
604.875	373.81
605.084	375.81
605.292	379.81
605.501	358.81
605.709	379.81
605.918	359.81
606.126	367.81
606.334	384.81
606.543	372.81
606.751	364.81
606.96	358.81
607.168	365.81
607.376	376.81
607.585	377.81
607.793	371.81
608.001	367.81
608.21	373.81
608.418	351.81
608.626	350.81
608.834	381.81
609.043	356.81
609.251	354.81
609.459	360.81
609.667	370.81
609.875	379.81
610.083	357.81
610.291	349.81
610.499	362.81
610.707	369.81
610.916	353.81
611.124	354.81
611.332	357.81
611.54	375.81
611.748	350.81
611.955	345.81
612.163	354.81
612.371	373.81
612.579	354.81
612.787	334.81
612.995	349.81
613.203	366.81
613.411	343.81
613.618	341.81
613.826	337.81
614.034	354.81
614.242	333.81
614.449	330.81
614.657	346.81
614.865	349.81
615.072	344.81
615.28	353.81
615.488	339.81
615.695	349.81
615.903	359.81
616.111	348.81
616.318	357.81
616.526	340.81
616.733	343.81
616.941	341.81
617.148	347.81
617.356	350.81
617.563	335.81
617.771	347.81
617.978	354.81
618.185	335.81
618.393	337.81
618.6	321.81
618.807	328.81
619.015	349.81
619.222	335.81
619.429	347.81
619.637	315.81
619.844	314.81
620.051	330.81
620.258	315.81
620.466	292.81
620.673	323.81
620.88	318.81
621.087	321.81
621.294	318.81
621.501	323.81
621.708	318.81
621.915	331.81
622.122	330.81
622.329	313.81
622.536	327.81
622.743	343.81
622.95	324.81
623.157	310.81
623.364	316.81
623.571	311.81
623.778	325.81
623.985	315.81
624.192	299.81
624.399	303.81
624.606	311.81
624.812	306.81
625.019	325.81
625.226	301.81
625.433	310.81
625.639	318.81
625.846	299.81
626.053	298.81
626.259	307.81
626.466	305.81
626.673	290.81
626.879	306.81
627.086	300.81
627.293	293.81
627.499	297.81
627.706	282.81
627.912	295.81
628.119	298.81
628.325	314.81
628.532	279.81
628.738	308.81
628.945	291.81
629.151	280.81
629.357	285.81
629.564	288.81
629.77	283.81
629.976	276.81
630.183	289.81
630.389	276.81
630.595	292.81
630.802	289.81
631.008	296.81
631.214	298.81
631.42	287.81
631.627	285.81
631.833	299.81
632.039	278.81
632.245	266.81
632.451	273.81
632.657	295.81
632.863	276.81
633.069	276.81
633.275	266.81
633.481	260.81
633.688	281.81
633.893	275.81
634.099	276.81
634.305	285.81
634.511	277.81
634.717	270.81
634.923	272.81
635.129	266.81
635.335	274.81
635.541	279.81
635.747	282.81
635.952	275.81
636.158	250.81
636.364	282.81
636.57	267.81
636.775	269.81
636.981	261.81
637.187	254.81
637.392	246.81
637.598	258.81
637.804	268.81
638.009	252.81
638.215	269.81
638.421	254.81
638.626	260.81
638.832	258.81
639.037	246.81
639.243	258.81
639.448	235.81
639.654	256.81
639.859	243.81
640.065	267.81
640.27	271.81
640.475	255.81
640.681	247.81
640.886	259.81
641.091	246.81
641.297	245.81
641.502	262.81
641.707	246.81
641.913	255.81
642.118	265.81
642.323	261.81
642.528	242.81
642.733	261.81
642.939	250.81
643.144	257.81
643.349	271.81
643.554	276.81
643.759	263.81
643.964	276.81
644.169	262.81
644.374	236.81
644.579	243.81
644.784	268.81
644.989	249.81
645.194	245.81
645.399	253.81
645.604	253.81
645.809	264.81
646.014	265.81
646.219	253.81
646.423	270.81
646.628	252.81
646.833	258.81
647.038	253.81
647.243	275.81
647.447	265.81
647.652	240.81
647.857	267.81
648.062	254.81
648.266	262.81
648.471	273.81
648.676	281.81
648.88	267.81
649.085	271.81
649.289	238.81
649.494	267.81
649.698	270.81
649.903	263.81
650.107	257.81
650.312	264.81
650.516	256.81
650.721	262.81
650.925	254.81
651.13	246.81
651.334	245.81
651.539	255.81
651.743	244.81
651.947	265.81
652.152	250.81
652.356	247.81
652.56	259.81
652.764	247.81
652.969	220.81
653.173	235.81
653.377	243.81
653.581	244.81
653.785	225.81
653.99	263.81
654.194	236.81
654.398	231.81
654.602	231.81
654.806	229.81
655.01	218.81
655.214	222.81
655.418	237.81
655.622	237.81
655.826	222.81
656.03	233.81
656.234	236.81
656.438	246.81
656.642	230.81
656.846	237.81
657.049	221.81
657.253	218.81
657.457	210.81
657.661	200.81
657.865	188.81
658.068	184.81
658.272	181.81
658.476	184.81
658.68	163.81
658.883	158.81
659.087	143.81
659.291	153.81
659.494	138.81
659.698	133.81
659.901	129.81
660.105	139.81
660.309	135.81
660.512	119.81
660.716	122.81
660.919	125.81
661.123	123.81
661.326	118.81
661.53	94.81
661.733	111.81
661.936	116.81
662.14	93.81
662.343	104.81
662.546	90.81
662.75	96.81
662.953	99.81
663.156	84.81
663.36	94.81
663.563	90.81
663.766	86.81
663.969	79.81
664.173	84.81
664.376	89.81
664.579	70.81
664.782	98.81
664.985	87.81
665.188	87.81
665.391	82.81
665.594	85.81
665.797	81.81
666	87.81
666.203	83.81
666.406	71.81
666.609	94.81
666.812	77.81
667.015	89.81
667.218	86.81
667.421	90.81
667.624	79.81
667.827	85.81
668.03	83.81
668.232	88.81
668.435	77.81
668.638	93.81
668.841	82.81
669.043	73.81
669.246	73.81
669.449	80.81
669.651	78.81
669.854	84.81
670.057	82.81
670.259	91.81
670.462	86.81
670.665	79.81
670.867	85.81
671.07	90.81
671.272	91.81
671.475	76.81
671.677	79.81
671.88	78.81
672.082	88.81
672.284	73.81
672.487	87.81
672.689	90.81
672.892	79.81
