Data from Ni(NO3)2@0.5M.TitratingCurve.Agarose3%dH2O.NegLispCup.LampEnergy10.LIBS07252019_HRD10591_17-57-10-563.txt Node
Date: Thu Jul 25 17:57:10 EDT 2019
User: cochatt
Spectrometer: HR+D1059
Trigger mode: 1
Integration Time (sec): 1.000000E-1
Scans to average: 1
Electric dark correction enabled: true
Nonlinearity correction enabled: false
Boxcar width: 0
XAxis mode: Wavelengths
Number of Pixels in Spectrum: 2048
>>>>>Begin Spectral Data<<<<<
223.165	-22.56
223.4	-22.56
223.635	-22.56
223.869	-23.56
224.104	-30.56
224.338	-19.56
224.573	-13.56
224.808	3.44
225.042	2.44
225.277	9.44
225.511	19.44
225.746	-9.56
225.98	2.44
226.215	7.44
226.449	15.44
226.683	5.44
226.918	28.44
227.152	25.44
227.387	27.44
227.621	34.44
227.856	44.44
228.09	46.44
228.324	39.44
228.559	52.44
228.793	79.44
229.027	110.44
229.262	103.44
229.496	100.44
229.73	121.44
229.964	129.44
230.199	141.44
230.433	155.44
230.667	146.44
230.901	137.44
231.136	146.44
231.37	133.44
231.604	141.44
231.838	158.44
232.072	165.44
232.306	158.44
232.541	152.44
232.775	149.44
233.009	131.44
233.243	138.44
233.477	143.44
233.711	155.44
233.945	130.44
234.179	144.44
234.413	138.44
234.647	156.44
234.881	143.44
235.115	157.44
235.349	138.44
235.583	139.44
235.817	137.44
236.051	156.44
236.285	146.44
236.519	133.44
236.753	133.44
236.987	136.44
237.221	141.44
237.455	161.44
237.689	145.44
237.922	166.44
238.156	153.44
238.39	158.44
238.624	137.44
238.858	153.44
239.091	165.44
239.325	157.44
239.559	164.44
239.793	191.44
240.027	182.44
240.26	153.44
240.494	152.44
240.728	175.44
240.961	157.44
241.195	162.44
241.429	174.44
241.662	174.44
241.896	181.44
242.13	179.44
242.363	173.44
242.597	166.44
242.83	169.44
243.064	194.44
243.298	184.44
243.531	193.44
243.765	179.44
243.998	195.44
244.232	190.44
244.465	184.44
244.699	183.44
244.932	158.44
245.166	190.44
245.399	198.44
245.633	184.44
245.866	200.44
246.099	201.44
246.333	202.44
246.566	187.44
246.8	195.44
247.033	201.44
247.266	212.44
247.5	203.44
247.733	201.44
247.966	225.44
248.2	197.44
248.433	188.44
248.666	212.44
248.899	219.44
249.133	215.44
249.366	205.44
249.599	220.44
249.832	214.44
250.066	229.44
250.299	215.44
250.532	217.44
250.765	221.44
250.998	241.44
251.231	219.44
251.465	250.44
251.698	243.44
251.931	236.44
252.164	234.44
252.397	241.44
252.63	255.44
252.863	243.44
253.096	237.44
253.329	242.44
253.562	241.44
253.795	254.44
254.028	243.44
254.261	244.44
254.494	254.44
254.727	263.44
254.96	258.44
255.193	258.44
255.426	252.44
255.659	270.44
255.892	281.44
256.124	263.44
256.357	286.44
256.59	262.44
256.823	268.44
257.056	276.44
257.289	271.44
257.521	271.44
257.754	281.44
257.987	284.44
258.22	284.44
258.452	275.44
258.685	294.44
258.918	274.44
259.151	309.44
259.383	286.44
259.616	293.44
259.849	278.44
260.081	298.44
260.314	298.44
260.547	300.44
260.779	312.44
261.012	317.44
261.244	303.44
261.477	310.44
261.71	313.44
261.942	299.44
262.175	327.44
262.407	309.44
262.64	298.44
262.872	289.44
263.105	310.44
263.337	326.44
263.57	323.44
263.802	309.44
264.035	315.44
264.267	319.44
264.499	334.44
264.732	317.44
264.964	333.44
265.197	332.44
265.429	318.44
265.661	328.44
265.894	340.44
266.126	335.44
266.358	331.44
266.591	352.44
266.823	351.44
267.055	354.44
267.287	346.44
267.52	345.44
267.752	355.44
267.984	344.44
268.216	331.44
268.448	348.44
268.681	343.44
268.913	361.44
269.145	358.44
269.377	348.44
269.609	357.44
269.841	330.44
270.073	337.44
270.306	356.44
270.538	348.44
270.77	364.44
271.002	359.44
271.234	370.44
271.466	358.44
271.698	351.44
271.93	358.44
272.162	370.44
272.394	369.44
272.626	363.44
272.858	371.44
273.09	373.44
273.322	371.44
273.553	390.44
273.785	382.44
274.017	377.44
274.249	365.44
274.481	377.44
274.713	377.44
274.945	380.44
275.176	365.44
275.408	377.44
275.64	387.44
275.872	379.44
276.104	383.44
276.335	383.44
276.567	409.44
276.799	388.44
277.031	406.44
277.262	411.44
277.494	401.44
277.726	410.44
277.957	380.44
278.189	400.44
278.421	406.44
278.652	398.44
278.884	408.44
279.115	428.44
279.347	409.44
279.579	421.44
279.81	395.44
280.042	418.44
280.273	409.44
280.505	415.44
280.736	399.44
280.968	405.44
281.199	387.44
281.431	411.44
281.662	441.44
281.894	417.44
282.125	413.44
282.356	427.44
282.588	438.44
282.819	426.44
283.051	412.44
283.282	435.44
283.513	421.44
283.745	408.44
283.976	421.44
284.207	427.44
284.439	422.44
284.67	449.44
284.901	436.44
285.132	430.44
285.364	426.44
285.595	439.44
285.826	434.44
286.057	438.44
286.288	435.44
286.52	436.44
286.751	446.44
286.982	432.44
287.213	425.44
287.444	427.44
287.675	444.44
287.906	439.44
288.138	443.44
288.369	450.44
288.6	438.44
288.831	446.44
289.062	443.44
289.293	427.44
289.524	442.44
289.755	447.44
289.986	464.44
290.217	443.44
290.448	451.44
290.679	461.44
290.91	455.44
291.141	455.44
291.371	453.44
291.602	451.44
291.833	455.44
292.064	460.44
292.295	464.44
292.526	460.44
292.757	468.44
292.987	446.44
293.218	446.44
293.449	469.44
293.68	458.44
293.91	452.44
294.141	455.44
294.372	458.44
294.603	455.44
294.833	457.44
295.064	467.44
295.295	469.44
295.525	468.44
295.756	462.44
295.987	474.44
296.217	473.44
296.448	446.44
296.679	479.44
296.909	475.44
297.14	492.44
297.37	464.44
297.601	471.44
297.831	485.44
298.062	476.44
298.292	471.44
298.523	494.44
298.753	489.44
298.984	472.44
299.214	478.44
299.445	515.44
299.675	518.44
299.905	504.44
300.136	503.44
300.366	522.44
300.597	521.44
300.827	505.44
301.057	514.44
301.288	520.44
301.518	528.44
301.748	505.44
301.979	505.44
302.209	547.44
302.439	542.44
302.669	525.44
302.9	510.44
303.13	513.44
303.36	532.44
303.59	522.44
303.82	537.44
304.051	537.44
304.281	555.44
304.511	525.44
304.741	541.44
304.971	535.44
305.201	557.44
305.431	559.44
305.661	541.44
305.891	510.44
306.121	529.44
306.352	542.44
306.582	497.44
306.812	543.44
307.042	535.44
307.272	528.44
307.502	536.44
307.731	541.44
307.961	518.44
308.191	542.44
308.421	547.44
308.651	517.44
308.881	545.44
309.111	545.44
309.341	564.44
309.571	531.44
309.8	542.44
310.03	554.44
310.26	531.44
310.49	569.44
310.72	571.44
310.949	556.44
311.179	568.44
311.409	550.44
311.639	555.44
311.868	565.44
312.098	582.44
312.328	582.44
312.557	581.44
312.787	555.44
313.017	565.44
313.246	573.44
313.476	577.44
313.706	598.44
313.935	586.44
314.165	594.44
314.394	566.44
314.624	592.44
314.853	603.44
315.083	595.44
315.312	589.44
315.542	586.44
315.771	591.44
316.001	618.44
316.23	618.44
316.46	614.44
316.689	611.44
316.919	606.44
317.148	620.44
317.377	606.44
317.607	631.44
317.836	609.44
318.065	628.44
318.295	615.44
318.524	633.44
318.753	639.44
318.983	616.44
319.212	630.44
319.441	618.44
319.67	618.44
319.9	624.44
320.129	608.44
320.358	632.44
320.587	613.44
320.816	647.44
321.046	654.44
321.275	638.44
321.504	647.44
321.733	630.44
321.962	636.44
322.191	643.44
322.42	641.44
322.649	645.44
322.878	664.44
323.108	652.44
323.337	669.44
323.566	675.44
323.795	643.44
324.024	649.44
324.253	671.44
324.482	681.44
324.71	684.44
324.939	674.44
325.168	683.44
325.397	667.44
325.626	673.44
325.855	681.44
326.084	692.44
326.313	714.44
326.542	680.44
326.77	676.44
326.999	678.44
327.228	671.44
327.457	699.44
327.686	682.44
327.914	712.44
328.143	710.44
328.372	705.44
328.6	702.44
328.829	689.44
329.058	702.44
329.287	717.44
329.515	725.44
329.744	712.44
329.972	719.44
330.201	707.44
330.43	735.44
330.658	733.44
330.887	718.44
331.115	737.44
331.344	737.44
331.572	730.44
331.801	757.44
332.03	732.44
332.258	769.44
332.486	755.44
332.715	766.44
332.943	747.44
333.172	769.44
333.4	762.44
333.629	777.44
333.857	796.44
334.085	778.44
334.314	786.44
334.542	759.44
334.771	797.44
334.999	789.44
335.227	763.44
335.455	787.44
335.684	817.44
335.912	780.44
336.14	805.44
336.369	789.44
336.597	805.44
336.825	805.44
337.053	810.44
337.281	826.44
337.51	821.44
337.738	821.44
337.966	803.44
338.194	819.44
338.422	805.44
338.65	791.44
338.878	774.44
339.106	794.44
339.334	798.44
339.562	794.44
339.79	770.44
340.018	767.44
340.246	786.44
340.474	770.44
340.702	753.44
340.93	786.44
341.158	780.44
341.386	793.44
341.614	838.44
341.842	825.44
342.07	780.44
342.298	769.44
342.526	776.44
342.754	791.44
342.981	781.44
343.209	790.44
343.437	797.44
343.665	778.44
343.893	793.44
344.12	834.44
344.348	791.44
344.576	821.44
344.804	814.44
345.031	783.44
345.259	790.44
345.487	811.44
345.714	782.44
345.942	796.44
346.17	806.44
346.397	761.44
346.625	793.44
346.853	753.44
347.08	771.44
347.308	749.44
347.535	778.44
347.763	780.44
347.99	751.44
348.218	730.44
348.445	773.44
348.673	743.44
348.9	753.44
349.128	765.44
349.355	761.44
349.583	776.44
349.81	751.44
350.037	746.44
350.265	734.44
350.492	759.44
350.72	744.44
350.947	732.44
351.174	758.44
351.402	782.44
351.629	788.44
351.856	769.44
352.083	759.44
352.311	790.44
352.538	782.44
352.765	778.44
352.992	732.44
353.22	755.44
353.447	739.44
353.674	702.44
353.901	722.44
354.128	743.44
354.355	723.44
354.583	734.44
354.81	724.44
355.037	730.44
355.264	737.44
355.491	734.44
355.718	720.44
355.945	728.44
356.172	735.44
356.399	728.44
356.626	758.44
356.853	795.44
357.08	776.44
357.307	762.44
357.534	718.44
357.761	731.44
357.988	724.44
358.215	747.44
358.441	718.44
358.668	706.44
358.895	757.44
359.122	748.44
359.349	708.44
359.576	750.44
359.802	744.44
360.029	732.44
360.256	736.44
360.483	723.44
360.709	733.44
360.936	773.44
361.163	735.44
361.39	745.44
361.616	736.44
361.843	754.44
362.07	776.44
362.296	767.44
362.523	748.44
362.749	749.44
362.976	734.44
363.203	742.44
363.429	736.44
363.656	728.44
363.882	737.44
364.109	766.44
364.335	763.44
364.562	713.44
364.788	751.44
365.015	742.44
365.241	741.44
365.468	719.44
365.694	746.44
365.92	730.44
366.147	724.44
366.373	747.44
366.599	735.44
366.826	718.44
367.052	733.44
367.278	743.44
367.505	758.44
367.731	732.44
367.957	724.44
368.184	742.44
368.41	740.44
368.636	730.44
368.862	758.44
369.089	734.44
369.315	758.44
369.541	764.44
369.767	782.44
369.993	741.44
370.219	739.44
370.445	753.44
370.672	770.44
370.898	743.44
371.124	771.44
371.35	774.44
371.576	749.44
371.802	769.44
372.028	734.44
372.254	758.44
372.48	747.44
372.706	777.44
372.932	762.44
373.158	764.44
373.384	785.44
373.61	759.44
373.835	794.44
374.061	761.44
374.287	780.44
374.513	783.44
374.739	787.44
374.965	787.44
375.191	761.44
375.416	783.44
375.642	782.44
375.868	757.44
376.094	749.44
376.319	755.44
376.545	756.44
376.771	769.44
376.997	746.44
377.222	787.44
377.448	756.44
377.674	737.44
377.899	721.44
378.125	732.44
378.35	746.44
378.576	740.44
378.802	735.44
379.027	700.44
379.253	720.44
379.478	731.44
379.704	790.44
379.929	749.44
380.155	752.44
380.38	745.44
380.606	734.44
380.831	739.44
381.057	755.44
381.282	749.44
381.507	735.44
381.733	750.44
381.958	742.44
382.184	766.44
382.409	756.44
382.634	757.44
382.86	741.44
383.085	761.44
383.31	764.44
383.535	767.44
383.761	769.44
383.986	756.44
384.211	778.44
384.436	785.44
384.662	779.44
384.887	792.44
385.112	783.44
385.337	797.44
385.562	793.44
385.787	766.44
386.013	797.44
386.238	798.44
386.463	815.44
386.688	834.44
386.913	789.44
387.138	801.44
387.363	817.44
387.588	793.44
387.813	805.44
388.038	802.44
388.263	823.44
388.488	814.44
388.713	814.44
388.938	803.44
389.163	791.44
389.387	799.44
389.612	818.44
389.837	819.44
390.062	790.44
390.287	795.44
390.512	793.44
390.736	801.44
390.961	824.44
391.186	827.44
391.411	816.44
391.636	836.44
391.86	842.44
392.085	827.44
392.31	826.44
392.534	817.44
392.759	827.44
392.984	854.44
393.208	845.44
393.433	841.44
393.658	818.44
393.882	835.44
394.107	827.44
394.331	825.44
394.556	814.44
394.78	836.44
395.005	816.44
395.229	835.44
395.454	829.44
395.678	825.44
395.903	854.44
396.127	841.44
396.352	812.44
396.576	838.44
396.801	853.44
397.025	845.44
397.249	837.44
397.474	873.44
397.698	877.44
397.922	872.44
398.147	854.44
398.371	857.44
398.595	883.44
398.82	866.44
399.044	911.44
399.268	937.44
399.492	954.44
399.717	953.44
399.941	951.44
400.165	950.44
400.389	928.44
400.613	929.44
400.837	946.44
401.062	912.44
401.286	917.44
401.51	899.44
401.734	918.44
401.958	901.44
402.182	900.44
402.406	872.44
402.63	899.44
402.854	911.44
403.078	938.44
403.302	914.44
403.526	907.44
403.75	903.44
403.974	925.44
404.198	900.44
404.422	902.44
404.645	900.44
404.869	912.44
405.093	903.44
405.317	909.44
405.541	929.44
405.765	929.44
405.988	926.44
406.212	935.44
406.436	955.44
406.66	965.44
406.883	945.44
407.107	963.44
407.331	960.44
407.555	984.44
407.778	980.44
408.002	962.44
408.226	991.44
408.449	987.44
408.673	970.44
408.896	975.44
409.12	1010.44
409.344	956.44
409.567	950.44
409.791	970.44
410.014	934.44
410.238	964.44
410.461	950.44
410.685	954.44
410.908	951.44
411.132	955.44
411.355	927.44
411.578	956.44
411.802	959.44
412.025	921.44
412.249	953.44
412.472	941.44
412.695	915.44
412.919	937.44
413.142	947.44
413.365	945.44
413.589	934.44
413.812	910.44
414.035	882.44
414.258	908.44
414.482	890.44
414.705	927.44
414.928	915.44
415.151	926.44
415.374	898.44
415.597	901.44
415.821	907.44
416.044	893.44
416.267	889.44
416.49	906.44
416.713	870.44
416.936	888.44
417.159	887.44
417.382	892.44
417.605	897.44
417.828	883.44
418.051	884.44
418.274	923.44
418.497	884.44
418.72	894.44
418.943	877.44
419.166	925.44
419.389	966.44
419.611	949.44
419.834	937.44
420.057	923.44
420.28	920.44
420.503	891.44
420.726	885.44
420.948	861.44
421.171	891.44
421.394	894.44
421.617	897.44
421.839	919.44
422.062	894.44
422.285	857.44
422.507	881.44
422.73	864.44
422.953	854.44
423.175	879.44
423.398	905.44
423.621	881.44
423.843	895.44
424.066	906.44
424.288	894.44
424.511	866.44
424.733	872.44
424.956	874.44
425.178	895.44
425.401	889.44
425.623	897.44
425.846	871.44
426.068	901.44
426.291	870.44
426.513	890.44
426.735	877.44
426.958	881.44
427.18	881.44
427.402	882.44
427.625	853.44
427.847	879.44
428.069	871.44
428.292	871.44
428.514	874.44
428.736	880.44
428.958	889.44
429.181	832.44
429.403	876.44
429.625	835.44
429.847	885.44
430.069	851.44
430.292	884.44
430.514	875.44
430.736	885.44
430.958	853.44
431.18	861.44
431.402	891.44
431.624	874.44
431.846	893.44
432.068	851.44
432.29	876.44
432.512	840.44
432.734	904.44
432.956	874.44
433.178	901.44
433.4	913.44
433.622	893.44
433.844	878.44
434.066	869.44
434.287	879.44
434.509	893.44
434.731	898.44
434.953	883.44
435.175	925.44
435.397	926.44
435.618	901.44
435.84	885.44
436.062	877.44
436.284	899.44
436.505	890.44
436.727	902.44
436.949	918.44
437.17	873.44
437.392	883.44
437.614	876.44
437.835	853.44
438.057	867.44
438.278	884.44
438.5	851.44
438.721	870.44
438.943	882.44
439.165	862.44
439.386	874.44
439.608	836.44
439.829	877.44
440.05	869.44
440.272	895.44
440.493	890.44
440.715	903.44
440.936	899.44
441.158	876.44
441.379	905.44
441.6	927.44
441.822	929.44
442.043	917.44
442.264	890.44
442.486	896.44
442.707	931.44
442.928	912.44
443.149	897.44
443.371	949.44
443.592	960.44
443.813	949.44
444.034	943.44
444.255	939.44
444.476	942.44
444.698	950.44
444.919	952.44
445.14	1060.44
445.361	996.44
445.582	917.44
445.803	916.44
446.024	911.44
446.245	902.44
446.466	886.44
446.687	891.44
446.908	873.44
447.129	869.44
447.35	872.44
447.571	858.44
447.792	827.44
448.013	842.44
448.234	849.44
448.455	835.44
448.675	831.44
448.896	859.44
449.117	844.44
449.338	854.44
449.559	829.44
449.779	835.44
450	829.44
450.221	823.44
450.442	835.44
450.662	813.44
450.883	830.44
451.104	809.44
451.324	830.44
451.545	801.44
451.766	814.44
451.986	807.44
452.207	811.44
452.428	783.44
452.648	833.44
452.869	814.44
453.089	789.44
453.31	788.44
453.53	791.44
453.751	785.44
453.971	793.44
454.192	830.44
454.412	797.44
454.633	775.44
454.853	803.44
455.073	778.44
455.294	802.44
455.514	806.44
455.734	808.44
455.955	825.44
456.175	815.44
456.395	786.44
456.616	769.44
456.836	807.44
457.056	794.44
457.276	790.44
457.497	810.44
457.717	805.44
457.937	799.44
458.157	795.44
458.377	808.44
458.598	795.44
458.818	800.44
459.038	809.44
459.258	834.44
459.478	855.44
459.698	881.44
459.918	899.44
460.138	873.44
460.358	903.44
460.578	901.44
460.798	918.44
461.018	911.44
461.238	912.44
461.458	886.44
461.678	883.44
461.898	891.44
462.118	933.44
462.338	933.44
462.558	951.44
462.777	958.44
462.997	965.44
463.217	993.44
463.437	1010.44
463.657	994.44
463.876	940.44
464.096	955.44
464.316	953.44
464.536	937.44
464.755	912.44
464.975	895.44
465.195	894.44
465.414	873.44
465.634	879.44
465.854	858.44
466.073	854.44
466.293	849.44
466.512	869.44
466.732	841.44
466.951	877.44
467.171	886.44
467.391	881.44
467.61	892.44
467.829	844.44
468.049	845.44
468.268	852.44
468.488	851.44
468.707	831.44
468.927	841.44
469.146	852.44
469.365	861.44
469.585	860.44
469.804	850.44
470.023	852.44
470.243	859.44
470.462	859.44
470.681	860.44
470.901	868.44
471.12	863.44
471.339	885.44
471.558	872.44
471.777	855.44
471.997	873.44
472.216	839.44
472.435	842.44
472.654	854.44
472.873	836.44
473.092	843.44
473.311	838.44
473.53	852.44
473.749	837.44
473.968	873.44
474.187	878.44
474.406	869.44
474.625	878.44
474.844	886.44
475.063	891.44
475.282	886.44
475.501	875.44
475.72	899.44
475.939	868.44
476.158	885.44
476.377	901.44
476.596	882.44
476.814	893.44
477.033	903.44
477.252	907.44
477.471	906.44
477.69	957.44
477.908	936.44
478.127	945.44
478.346	932.44
478.564	955.44
478.783	954.44
479.002	980.44
479.22	992.44
479.439	980.44
479.658	991.44
479.876	1005.44
480.095	998.44
480.313	990.44
480.532	975.44
480.751	996.44
480.969	969.44
481.188	996.44
481.406	982.44
481.624	972.44
481.843	1000.44
482.061	978.44
482.28	976.44
482.498	979.44
482.717	991.44
482.935	986.44
483.153	996.44
483.372	1060.44
483.59	1056.44
483.808	1029.44
484.027	1025.44
484.245	993.44
484.463	1000.44
484.681	1003.44
484.9	1026.44
485.118	1017.44
485.336	1004.44
485.554	1012.44
485.772	1016.44
485.99	996.44
486.209	1006.44
486.427	1014.44
486.645	1003.44
486.863	1041.44
487.081	1041.44
487.299	1030.44
487.517	1033.44
487.735	1018.44
487.953	1082.44
488.171	1077.44
488.389	1036.44
488.607	1037.44
488.825	1048.44
489.043	1034.44
489.261	1020.44
489.479	1020.44
489.696	1028.44
489.914	1055.44
490.132	1042.44
490.35	1059.44
490.568	1073.44
490.786	1077.44
491.003	1074.44
491.221	1067.44
491.439	1053.44
491.657	1075.44
491.874	1084.44
492.092	1120.44
492.31	1102.44
492.527	1147.44
492.745	1145.44
492.963	1097.44
493.18	1081.44
493.398	1080.44
493.615	1085.44
493.833	1064.44
494.05	1071.44
494.268	1092.44
494.485	1099.44
494.703	1082.44
494.92	1083.44
495.138	1103.44
495.355	1121.44
495.573	1121.44
495.79	1079.44
496.008	1079.44
496.225	1112.44
496.442	1113.44
496.66	1126.44
496.877	1100.44
497.094	1123.44
497.312	1130.44
497.529	1146.44
497.746	1157.44
497.963	1176.44
498.181	1184.44
498.398	1163.44
498.615	1209.44
498.832	1220.44
499.049	1269.44
499.267	1311.44
499.484	1342.44
499.701	1365.44
499.918	1426.44
500.135	1475.44
500.352	1496.44
500.569	1541.44
500.786	1501.44
501.003	1486.44
501.22	1426.44
501.437	1365.44
501.654	1343.44
501.871	1310.44
502.088	1301.44
502.305	1273.44
502.522	1244.44
502.739	1213.44
502.956	1180.44
503.172	1158.44
503.389	1124.44
503.606	1121.44
503.823	1129.44
504.04	1104.44
504.256	1134.44
504.473	1103.44
504.69	1118.44
504.907	1100.44
505.123	1070.44
505.34	1074.44
505.557	1035.44
505.773	1027.44
505.99	1042.44
506.207	1008.44
506.423	984.44
506.64	990.44
506.856	987.44
507.073	965.44
507.289	966.44
507.506	985.44
507.722	964.44
507.939	942.44
508.155	958.44
508.372	942.44
508.588	977.44
508.805	923.44
509.021	933.44
509.238	909.44
509.454	886.44
509.67	929.44
509.887	900.44
510.103	896.44
510.319	908.44
510.536	882.44
510.752	891.44
510.968	878.44
511.184	885.44
511.401	878.44
511.617	885.44
511.833	855.44
512.049	860.44
512.265	887.44
512.481	870.44
512.698	892.44
512.914	870.44
513.13	870.44
513.346	872.44
513.562	896.44
513.778	872.44
513.994	880.44
514.21	876.44
514.426	890.44
514.642	875.44
514.858	919.44
515.074	885.44
515.29	914.44
515.506	857.44
515.721	899.44
515.937	885.44
516.153	872.44
516.369	890.44
516.585	887.44
516.801	905.44
517.016	910.44
517.232	937.44
517.448	919.44
517.664	940.44
517.879	929.44
518.095	926.44
518.311	927.44
518.527	928.44
518.742	915.44
518.958	916.44
519.173	882.44
519.389	883.44
519.605	856.44
519.82	869.44
520.036	870.44
520.251	871.44
520.467	861.44
520.682	866.44
520.898	835.44
521.113	841.44
521.329	813.44
521.544	833.44
521.76	829.44
521.975	827.44
522.19	830.44
522.406	813.44
522.621	826.44
522.836	841.44
523.052	844.44
523.267	831.44
523.482	812.44
523.698	818.44
523.913	810.44
524.128	826.44
524.343	782.44
524.559	823.44
524.774	814.44
524.989	812.44
525.204	806.44
525.419	812.44
525.634	834.44
525.849	817.44
526.064	785.44
526.28	797.44
526.495	796.44
526.71	788.44
526.925	760.44
527.14	770.44
527.355	785.44
527.57	786.44
527.785	759.44
527.999	759.44
528.214	771.44
528.429	780.44
528.644	772.44
528.859	779.44
529.074	766.44
529.289	773.44
529.503	788.44
529.718	780.44
529.933	804.44
530.148	759.44
530.363	726.44
530.577	765.44
530.792	742.44
531.007	754.44
531.221	759.44
531.436	762.44
531.651	738.44
531.865	737.44
532.08	746.44
532.295	751.44
532.509	754.44
532.724	758.44
532.938	746.44
533.153	758.44
533.367	748.44
533.582	728.44
533.796	734.44
534.011	737.44
534.225	749.44
534.44	735.44
534.654	711.44
534.868	750.44
535.083	745.44
535.297	737.44
535.511	726.44
535.726	706.44
535.94	716.44
536.154	717.44
536.369	699.44
536.583	717.44
536.797	726.44
537.011	738.44
537.225	685.44
537.44	693.44
537.654	687.44
537.868	689.44
538.082	673.44
538.296	695.44
538.51	663.44
538.724	687.44
538.938	666.44
539.153	712.44
539.367	709.44
539.581	686.44
539.795	693.44
540.009	704.44
540.222	682.44
540.436	700.44
540.65	707.44
540.864	687.44
541.078	697.44
541.292	726.44
541.506	699.44
541.72	725.44
541.934	725.44
542.147	750.44
542.361	740.44
542.575	711.44
542.789	712.44
543.002	671.44
543.216	686.44
543.43	694.44
543.644	702.44
543.857	695.44
544.071	720.44
544.285	711.44
544.498	696.44
544.712	712.44
544.925	710.44
545.139	702.44
545.352	703.44
545.566	706.44
545.779	715.44
545.993	711.44
546.206	711.44
546.42	697.44
546.633	716.44
546.847	705.44
547.06	675.44
547.274	711.44
547.487	693.44
547.7	685.44
547.914	687.44
548.127	678.44
548.34	707.44
548.554	667.44
548.767	677.44
548.98	679.44
549.193	693.44
549.407	673.44
549.62	686.44
549.833	679.44
550.046	696.44
550.259	661.44
550.473	671.44
550.686	691.44
550.899	677.44
551.112	659.44
551.325	675.44
551.538	673.44
551.751	666.44
551.964	662.44
552.177	669.44
552.39	649.44
552.603	681.44
552.816	653.44
553.029	663.44
553.242	678.44
553.455	670.44
553.667	678.44
553.88	651.44
554.093	665.44
554.306	647.44
554.519	652.44
554.732	646.44
554.944	671.44
555.157	659.44
555.37	637.44
555.583	649.44
555.795	642.44
556.008	661.44
556.221	605.44
556.433	616.44
556.646	618.44
556.859	609.44
557.071	609.44
557.284	598.44
557.496	617.44
557.709	611.44
557.921	622.44
558.134	596.44
558.346	590.44
558.559	570.44
558.771	585.44
558.984	586.44
559.196	589.44
559.409	600.44
559.621	604.44
559.833	588.44
560.046	584.44
560.258	585.44
560.47	584.44
560.683	597.44
560.895	577.44
561.107	584.44
561.32	572.44
561.532	551.44
561.744	586.44
561.956	580.44
562.168	569.44
562.381	566.44
562.593	591.44
562.805	582.44
563.017	566.44
563.229	549.44
563.441	563.44
563.653	583.44
563.865	579.44
564.077	567.44
564.289	550.44
564.501	564.44
564.713	598.44
564.925	592.44
565.137	566.44
565.349	593.44
565.561	628.44
565.773	591.44
565.985	603.44
566.197	610.44
566.408	615.44
566.62	609.44
566.832	616.44
567.044	633.44
567.255	634.44
567.467	604.44
567.679	619.44
567.891	620.44
568.102	638.44
568.314	636.44
568.526	603.44
568.737	601.44
568.949	585.44
569.161	571.44
569.372	531.44
569.584	545.44
569.795	521.44
570.007	525.44
570.218	532.44
570.43	512.44
570.641	533.44
570.853	525.44
571.064	495.44
571.276	525.44
571.487	497.44
571.698	494.44
571.91	483.44
572.121	481.44
572.333	487.44
572.544	491.44
572.755	461.44
572.966	458.44
573.178	478.44
573.389	467.44
573.6	464.44
573.811	462.44
574.023	479.44
574.234	454.44
574.445	458.44
574.656	448.44
574.867	445.44
575.078	460.44
575.289	447.44
575.501	451.44
575.712	435.44
575.923	406.44
576.134	451.44
576.345	428.44
576.556	450.44
576.767	423.44
576.978	435.44
577.188	431.44
577.399	443.44
577.61	427.44
577.821	448.44
578.032	429.44
578.243	434.44
578.454	416.44
578.665	425.44
578.875	423.44
579.086	400.44
579.297	414.44
579.508	399.44
579.718	421.44
579.929	407.44
580.14	392.44
580.35	409.44
580.561	403.44
580.772	384.44
580.982	411.44
581.193	394.44
581.403	397.44
581.614	397.44
581.825	393.44
582.035	389.44
582.246	394.44
582.456	362.44
582.667	415.44
582.877	387.44
583.087	385.44
583.298	397.44
583.508	386.44
583.719	396.44
583.929	393.44
584.139	380.44
584.35	365.44
584.56	384.44
584.77	369.44
584.981	380.44
585.191	389.44
585.401	387.44
585.611	379.44
585.821	376.44
586.032	385.44
586.242	374.44
586.452	367.44
586.662	375.44
586.872	369.44
587.082	360.44
587.292	379.44
587.502	362.44
587.713	367.44
587.923	389.44
588.133	367.44
588.343	362.44
588.553	369.44
588.762	386.44
588.972	360.44
589.182	403.44
589.392	383.44
589.602	384.44
589.812	411.44
590.022	377.44
590.232	378.44
590.441	351.44
590.651	369.44
590.861	372.44
591.071	353.44
591.281	355.44
591.49	361.44
591.7	370.44
591.91	359.44
592.119	363.44
592.329	383.44
592.539	379.44
592.748	357.44
592.958	365.44
593.167	376.44
593.377	366.44
593.587	381.44
593.796	375.44
594.006	365.44
594.215	369.44
594.424	359.44
594.634	371.44
594.843	356.44
595.053	348.44
595.262	344.44
595.472	344.44
595.681	353.44
595.89	349.44
596.1	342.44
596.309	338.44
596.518	346.44
596.727	333.44
596.937	335.44
597.146	316.44
597.355	335.44
597.564	339.44
597.774	322.44
597.983	330.44
598.192	311.44
598.401	307.44
598.61	313.44
598.819	331.44
599.028	321.44
599.237	317.44
599.446	316.44
599.655	306.44
599.864	301.44
600.073	305.44
600.282	315.44
600.491	315.44
600.7	333.44
600.909	319.44
601.118	313.44
601.327	332.44
601.536	294.44
601.745	307.44
601.953	313.44
602.162	305.44
602.371	291.44
602.58	310.44
602.789	309.44
602.997	293.44
603.206	326.44
603.415	309.44
603.623	309.44
603.832	314.44
604.041	289.44
604.249	301.44
604.458	285.44
604.666	285.44
604.875	281.44
605.084	287.44
605.292	288.44
605.501	297.44
605.709	305.44
605.918	301.44
606.126	312.44
606.334	298.44
606.543	286.44
606.751	285.44
606.96	267.44
607.168	293.44
607.376	297.44
607.585	300.44
607.793	304.44
608.001	275.44
608.21	288.44
608.418	269.44
608.626	292.44
608.834	292.44
609.043	297.44
609.251	278.44
609.459	285.44
609.667	283.44
609.875	270.44
610.083	288.44
610.291	298.44
610.499	286.44
610.707	291.44
610.916	295.44
611.124	292.44
611.332	289.44
611.54	288.44
611.748	286.44
611.955	295.44
612.163	272.44
612.371	297.44
612.579	294.44
612.787	276.44
612.995	282.44
613.203	277.44
613.411	257.44
613.618	278.44
613.826	272.44
614.034	292.44
614.242	272.44
614.449	274.44
614.657	288.44
614.865	268.44
615.072	283.44
615.28	267.44
615.488	277.44
615.695	280.44
615.903	276.44
616.111	274.44
616.318	279.44
616.526	274.44
616.733	272.44
616.941	267.44
617.148	257.44
617.356	273.44
617.563	276.44
617.771	264.44
617.978	249.44
618.185	261.44
618.393	276.44
618.6	267.44
618.807	241.44
619.015	268.44
619.222	257.44
619.429	269.44
619.637	264.44
619.844	231.44
620.051	267.44
620.258	253.44
620.466	252.44
620.673	248.44
620.88	259.44
621.087	239.44
621.294	253.44
621.501	227.44
621.708	233.44
621.915	247.44
622.122	285.44
622.329	237.44
622.536	262.44
622.743	257.44
622.95	266.44
623.157	251.44
623.364	251.44
623.571	245.44
623.778	230.44
623.985	257.44
624.192	226.44
624.399	249.44
624.606	233.44
624.812	243.44
625.019	252.44
625.226	237.44
625.433	248.44
625.639	234.44
625.846	225.44
626.053	230.44
626.259	236.44
626.466	241.44
626.673	226.44
626.879	236.44
627.086	235.44
627.293	221.44
627.499	227.44
627.706	224.44
627.912	242.44
628.119	241.44
628.325	236.44
628.532	233.44
628.738	239.44
628.945	240.44
629.151	233.44
629.357	226.44
629.564	211.44
629.77	216.44
629.976	231.44
630.183	214.44
630.389	221.44
630.595	202.44
630.802	234.44
631.008	220.44
631.214	221.44
631.42	228.44
631.627	218.44
631.833	211.44
632.039	218.44
632.245	224.44
632.451	200.44
632.657	218.44
632.863	214.44
633.069	204.44
633.275	189.44
633.481	202.44
633.688	203.44
633.893	215.44
634.099	206.44
634.305	218.44
634.511	209.44
634.717	214.44
634.923	207.44
635.129	203.44
635.335	217.44
635.541	210.44
635.747	211.44
635.952	208.44
636.158	210.44
636.364	218.44
636.57	199.44
636.775	197.44
636.981	209.44
637.187	215.44
637.392	215.44
637.598	214.44
637.804	222.44
638.009	217.44
638.215	209.44
638.421	202.44
638.626	214.44
638.832	220.44
639.037	215.44
639.243	201.44
639.448	194.44
639.654	206.44
639.859	197.44
640.065	189.44
640.27	221.44
640.475	203.44
640.681	178.44
640.886	198.44
641.091	198.44
641.297	198.44
641.502	202.44
641.707	202.44
641.913	218.44
642.118	201.44
642.323	194.44
642.528	209.44
642.733	224.44
642.939	208.44
643.144	198.44
643.349	202.44
643.554	198.44
643.759	208.44
643.964	212.44
644.169	186.44
644.374	201.44
644.579	208.44
644.784	197.44
644.989	209.44
645.194	190.44
645.399	189.44
645.604	193.44
645.809	205.44
646.014	190.44
646.219	193.44
646.423	199.44
646.628	191.44
646.833	191.44
647.038	186.44
647.243	201.44
647.447	191.44
647.652	193.44
647.857	207.44
648.062	193.44
648.266	202.44
648.471	207.44
648.676	210.44
648.88	195.44
649.085	201.44
649.289	194.44
649.494	202.44
649.698	200.44
649.903	174.44
650.107	189.44
650.312	193.44
650.516	200.44
650.721	208.44
650.925	176.44
651.13	191.44
651.334	192.44
651.539	189.44
651.743	191.44
651.947	204.44
652.152	203.44
652.356	198.44
652.56	187.44
652.764	177.44
652.969	168.44
653.173	171.44
653.377	193.44
653.581	159.44
653.785	187.44
653.99	184.44
654.194	183.44
654.398	185.44
654.602	190.44
654.806	181.44
655.01	179.44
655.214	188.44
655.418	171.44
655.622	166.44
655.826	174.44
656.03	181.44
656.234	185.44
656.438	179.44
656.642	179.44
656.846	176.44
657.049	167.44
657.253	175.44
657.457	161.44
657.661	133.44
657.865	140.44
658.068	137.44
658.272	130.44
658.476	136.44
658.68	138.44
658.883	135.44
659.087	122.44
659.291	130.44
659.494	142.44
659.698	127.44
659.901	124.44
660.105	118.44
660.309	118.44
660.512	99.44
660.716	109.44
660.919	94.44
661.123	111.44
661.326	102.44
661.53	114.44
661.733	91.44
661.936	87.44
662.14	94.44
662.343	82.44
662.546	101.44
662.75	87.44
662.953	93.44
663.156	87.44
663.36	85.44
663.563	94.44
663.766	87.44
663.969	97.44
664.173	89.44
664.376	92.44
664.579	79.44
664.782	86.44
664.985	93.44
665.188	73.44
665.391	85.44
665.594	77.44
665.797	74.44
666	66.44
666.203	78.44
666.406	92.44
666.609	76.44
666.812	88.44
667.015	84.44
667.218	77.44
667.421	82.44
667.624	87.44
667.827	79.44
668.03	76.44
668.232	87.44
668.435	75.44
668.638	98.44
668.841	83.44
669.043	82.44
669.246	102.44
669.449	93.44
669.651	107.44
669.854	87.44
670.057	94.44
670.259	83.44
670.462	77.44
670.665	85.44
670.867	90.44
671.07	84.44
671.272	90.44
671.475	92.44
671.677	94.44
671.88	79.44
672.082	84.44
672.284	76.44
672.487	89.44
672.689	92.44
672.892	72.44
