Data from Ni(NO3)2@0.25M.TitratingCurve.Agarose3%dH2O.NegLispCup.LampEnergy10.LIBS07252019_HRD10591_18-03-45-566.txt Node
Date: Thu Jul 25 18:03:45 EDT 2019
User: cochatt
Spectrometer: HR+D1059
Trigger mode: 1
Integration Time (sec): 1.000000E-1
Scans to average: 1
Electric dark correction enabled: true
Nonlinearity correction enabled: false
Boxcar width: 0
XAxis mode: Wavelengths
Number of Pixels in Spectrum: 2048
>>>>>Begin Spectral Data<<<<<
223.165	-22.5
223.4	-22.5
223.635	-22.5
223.869	-7.5
224.104	-13.5
224.338	-5.5
224.573	-6.5
224.808	-17.5
225.042	-12.5
225.277	-29.5
225.511	-13.5
225.746	-5.5
225.98	-3.5
226.215	18.5
226.449	22.5
226.683	23.5
226.918	23.5
227.152	49.5
227.387	38.5
227.621	53.5
227.856	53.5
228.09	43.5
228.324	42.5
228.559	64.5
228.793	75.5
229.027	100.5
229.262	83.5
229.496	78.5
229.73	96.5
229.964	104.5
230.199	103.5
230.433	101.5
230.667	99.5
230.901	111.5
231.136	108.5
231.37	104.5
231.604	114.5
231.838	118.5
232.072	115.5
232.306	119.5
232.541	117.5
232.775	110.5
233.009	107.5
233.243	119.5
233.477	108.5
233.711	99.5
233.945	94.5
234.179	119.5
234.413	111.5
234.647	111.5
234.881	117.5
235.115	107.5
235.349	95.5
235.583	102.5
235.817	112.5
236.051	128.5
236.285	98.5
236.519	102.5
236.753	109.5
236.987	120.5
237.221	105.5
237.455	130.5
237.689	114.5
237.922	108.5
238.156	115.5
238.39	115.5
238.624	101.5
238.858	89.5
239.091	127.5
239.325	102.5
239.559	120.5
239.793	115.5
240.027	119.5
240.26	103.5
240.494	102.5
240.728	113.5
240.961	96.5
241.195	99.5
241.429	111.5
241.662	108.5
241.896	119.5
242.13	118.5
242.363	131.5
242.597	128.5
242.83	119.5
243.064	118.5
243.298	116.5
243.531	131.5
243.765	125.5
243.998	120.5
244.232	122.5
244.465	130.5
244.699	114.5
244.932	117.5
245.166	118.5
245.399	130.5
245.633	138.5
245.866	120.5
246.099	128.5
246.333	135.5
246.566	142.5
246.8	150.5
247.033	125.5
247.266	131.5
247.5	143.5
247.733	152.5
247.966	130.5
248.2	146.5
248.433	129.5
248.666	143.5
248.899	136.5
249.133	158.5
249.366	140.5
249.599	146.5
249.832	154.5
250.066	157.5
250.299	151.5
250.532	169.5
250.765	166.5
250.998	165.5
251.231	171.5
251.465	170.5
251.698	183.5
251.931	176.5
252.164	188.5
252.397	188.5
252.63	172.5
252.863	199.5
253.096	194.5
253.329	195.5
253.562	178.5
253.795	207.5
254.028	206.5
254.261	193.5
254.494	202.5
254.727	205.5
254.96	208.5
255.193	186.5
255.426	202.5
255.659	215.5
255.892	218.5
256.124	219.5
256.357	220.5
256.59	193.5
256.823	208.5
257.056	212.5
257.289	249.5
257.521	218.5
257.754	228.5
257.987	234.5
258.22	237.5
258.452	233.5
258.685	228.5
258.918	246.5
259.151	233.5
259.383	261.5
259.616	250.5
259.849	239.5
260.081	249.5
260.314	265.5
260.547	262.5
260.779	253.5
261.012	255.5
261.244	244.5
261.477	239.5
261.71	262.5
261.942	240.5
262.175	271.5
262.407	265.5
262.64	263.5
262.872	260.5
263.105	264.5
263.337	259.5
263.57	262.5
263.802	262.5
264.035	278.5
264.267	265.5
264.499	282.5
264.732	284.5
264.964	277.5
265.197	274.5
265.429	270.5
265.661	281.5
265.894	280.5
266.126	292.5
266.358	292.5
266.591	275.5
266.823	287.5
267.055	292.5
267.287	287.5
267.52	278.5
267.752	264.5
267.984	294.5
268.216	285.5
268.448	293.5
268.681	292.5
268.913	293.5
269.145	272.5
269.377	293.5
269.609	282.5
269.841	278.5
270.073	294.5
270.306	307.5
270.538	297.5
270.77	296.5
271.002	299.5
271.234	294.5
271.466	313.5
271.698	298.5
271.93	269.5
272.162	285.5
272.394	283.5
272.626	310.5
272.858	298.5
273.09	293.5
273.322	292.5
273.553	296.5
273.785	296.5
274.017	298.5
274.249	306.5
274.481	294.5
274.713	300.5
274.945	295.5
275.176	300.5
275.408	307.5
275.64	310.5
275.872	295.5
276.104	283.5
276.335	291.5
276.567	296.5
276.799	307.5
277.031	291.5
277.262	316.5
277.494	327.5
277.726	309.5
277.957	313.5
278.189	295.5
278.421	309.5
278.652	311.5
278.884	313.5
279.115	285.5
279.347	301.5
279.579	311.5
279.81	308.5
280.042	310.5
280.273	317.5
280.505	325.5
280.736	316.5
280.968	308.5
281.199	330.5
281.431	336.5
281.662	320.5
281.894	318.5
282.125	316.5
282.356	297.5
282.588	303.5
282.819	334.5
283.051	316.5
283.282	314.5
283.513	322.5
283.745	314.5
283.976	319.5
284.207	324.5
284.439	319.5
284.67	329.5
284.901	326.5
285.132	325.5
285.364	329.5
285.595	322.5
285.826	320.5
286.057	326.5
286.288	339.5
286.52	308.5
286.751	327.5
286.982	312.5
287.213	303.5
287.444	311.5
287.675	326.5
287.906	322.5
288.138	326.5
288.369	328.5
288.6	341.5
288.831	325.5
289.062	324.5
289.293	312.5
289.524	342.5
289.755	325.5
289.986	287.5
290.217	318.5
290.448	314.5
290.679	335.5
290.91	336.5
291.141	310.5
291.371	311.5
291.602	332.5
291.833	313.5
292.064	327.5
292.295	312.5
292.526	320.5
292.757	319.5
292.987	319.5
293.218	326.5
293.449	312.5
293.68	313.5
293.91	310.5
294.141	317.5
294.372	306.5
294.603	311.5
294.833	315.5
295.064	310.5
295.295	312.5
295.525	291.5
295.756	314.5
295.987	333.5
296.217	332.5
296.448	340.5
296.679	340.5
296.909	316.5
297.14	325.5
297.37	331.5
297.601	338.5
297.831	330.5
298.062	335.5
298.292	336.5
298.523	329.5
298.753	332.5
298.984	345.5
299.214	330.5
299.445	345.5
299.675	354.5
299.905	335.5
300.136	350.5
300.366	367.5
300.597	366.5
300.827	350.5
301.057	367.5
301.288	356.5
301.518	351.5
301.748	345.5
301.979	348.5
302.209	347.5
302.439	360.5
302.669	350.5
302.9	348.5
303.13	353.5
303.36	354.5
303.59	358.5
303.82	356.5
304.051	357.5
304.281	365.5
304.511	379.5
304.741	348.5
304.971	366.5
305.201	393.5
305.431	378.5
305.661	372.5
305.891	385.5
306.121	377.5
306.352	364.5
306.582	354.5
306.812	344.5
307.042	349.5
307.272	362.5
307.502	370.5
307.731	362.5
307.961	350.5
308.191	374.5
308.421	386.5
308.651	362.5
308.881	352.5
309.111	374.5
309.341	382.5
309.571	374.5
309.8	383.5
310.03	391.5
310.26	404.5
310.49	402.5
310.72	410.5
310.949	392.5
311.179	390.5
311.409	397.5
311.639	406.5
311.868	397.5
312.098	408.5
312.328	397.5
312.557	406.5
312.787	424.5
313.017	413.5
313.246	418.5
313.476	435.5
313.706	439.5
313.935	411.5
314.165	427.5
314.394	422.5
314.624	438.5
314.853	439.5
315.083	440.5
315.312	453.5
315.542	459.5
315.771	432.5
316.001	430.5
316.23	451.5
316.46	456.5
316.689	440.5
316.919	441.5
317.148	472.5
317.377	440.5
317.607	478.5
317.836	475.5
318.065	461.5
318.295	467.5
318.524	473.5
318.753	486.5
318.983	483.5
319.212	484.5
319.441	489.5
319.67	503.5
319.9	484.5
320.129	509.5
320.358	495.5
320.587	504.5
320.816	523.5
321.046	520.5
321.275	525.5
321.504	546.5
321.733	526.5
321.962	543.5
322.191	534.5
322.42	541.5
322.649	540.5
322.878	553.5
323.108	538.5
323.337	542.5
323.566	549.5
323.795	587.5
324.024	592.5
324.253	570.5
324.482	562.5
324.71	582.5
324.939	581.5
325.168	595.5
325.397	575.5
325.626	589.5
325.855	603.5
326.084	611.5
326.313	630.5
326.542	628.5
326.77	648.5
326.999	645.5
327.228	623.5
327.457	634.5
327.686	619.5
327.914	618.5
328.143	644.5
328.372	666.5
328.6	654.5
328.829	667.5
329.058	625.5
329.287	651.5
329.515	641.5
329.744	704.5
329.972	667.5
330.201	684.5
330.43	696.5
330.658	678.5
330.887	704.5
331.115	708.5
331.344	699.5
331.572	720.5
331.801	708.5
332.03	712.5
332.258	760.5
332.486	737.5
332.715	743.5
332.943	758.5
333.172	752.5
333.4	762.5
333.629	784.5
333.857	815.5
334.085	804.5
334.314	789.5
334.542	790.5
334.771	838.5
334.999	827.5
335.227	841.5
335.455	815.5
335.684	838.5
335.912	831.5
336.14	834.5
336.369	847.5
336.597	852.5
336.825	837.5
337.053	831.5
337.281	833.5
337.51	842.5
337.738	825.5
337.966	814.5
338.194	837.5
338.422	824.5
338.65	798.5
338.878	770.5
339.106	792.5
339.334	826.5
339.562	802.5
339.79	789.5
340.018	782.5
340.246	774.5
340.474	765.5
340.702	780.5
340.93	784.5
341.158	756.5
341.386	767.5
341.614	806.5
341.842	806.5
342.07	779.5
342.298	798.5
342.526	792.5
342.754	790.5
342.981	778.5
343.209	758.5
343.437	797.5
343.665	827.5
343.893	838.5
344.12	854.5
344.348	835.5
344.576	833.5
344.804	839.5
345.031	813.5
345.259	800.5
345.487	799.5
345.714	787.5
345.942	800.5
346.17	799.5
346.397	785.5
346.625	766.5
346.853	760.5
347.08	772.5
347.308	768.5
347.535	780.5
347.763	761.5
347.99	766.5
348.218	745.5
348.445	729.5
348.673	745.5
348.9	744.5
349.128	732.5
349.355	774.5
349.583	774.5
349.81	757.5
350.037	734.5
350.265	739.5
350.492	741.5
350.72	733.5
350.947	719.5
351.174	729.5
351.402	786.5
351.629	777.5
351.856	784.5
352.083	756.5
352.311	722.5
352.538	772.5
352.765	765.5
352.992	730.5
353.22	728.5
353.447	718.5
353.674	700.5
353.901	710.5
354.128	730.5
354.355	724.5
354.583	727.5
354.81	734.5
355.037	727.5
355.264	752.5
355.491	735.5
355.718	714.5
355.945	748.5
356.172	732.5
356.399	737.5
356.626	763.5
356.853	744.5
357.08	741.5
357.307	717.5
357.534	736.5
357.761	723.5
357.988	754.5
358.215	727.5
358.441	718.5
358.668	725.5
358.895	693.5
359.122	709.5
359.349	711.5
359.576	727.5
359.802	727.5
360.029	711.5
360.256	713.5
360.483	707.5
360.709	704.5
360.936	718.5
361.163	742.5
361.39	717.5
361.616	721.5
361.843	727.5
362.07	738.5
362.296	722.5
362.523	723.5
362.749	713.5
362.976	732.5
363.203	701.5
363.429	680.5
363.656	709.5
363.882	709.5
364.109	713.5
364.335	690.5
364.562	715.5
364.788	711.5
365.015	712.5
365.241	734.5
365.468	720.5
365.694	711.5
365.92	694.5
366.147	722.5
366.373	730.5
366.599	687.5
366.826	688.5
367.052	711.5
367.278	727.5
367.505	693.5
367.731	711.5
367.957	697.5
368.184	716.5
368.41	698.5
368.636	699.5
368.862	684.5
369.089	700.5
369.315	723.5
369.541	711.5
369.767	704.5
369.993	694.5
370.219	712.5
370.445	727.5
370.672	736.5
370.898	722.5
371.124	751.5
371.35	712.5
371.576	724.5
371.802	724.5
372.028	716.5
372.254	729.5
372.48	707.5
372.706	738.5
372.932	728.5
373.158	718.5
373.384	726.5
373.61	729.5
373.835	724.5
374.061	732.5
374.287	734.5
374.513	734.5
374.739	749.5
374.965	743.5
375.191	730.5
375.416	747.5
375.642	716.5
375.868	728.5
376.094	727.5
376.319	707.5
376.545	673.5
376.771	702.5
376.997	701.5
377.222	682.5
377.448	703.5
377.674	690.5
377.899	695.5
378.125	710.5
378.35	681.5
378.576	683.5
378.802	675.5
379.027	677.5
379.253	703.5
379.478	674.5
379.704	679.5
379.929	723.5
380.155	687.5
380.38	686.5
380.606	673.5
380.831	663.5
381.057	675.5
381.282	640.5
381.507	704.5
381.733	694.5
381.958	684.5
382.184	665.5
382.409	682.5
382.634	697.5
382.86	698.5
383.085	701.5
383.31	709.5
383.535	704.5
383.761	679.5
383.986	731.5
384.211	712.5
384.436	714.5
384.662	711.5
384.887	735.5
385.112	724.5
385.337	747.5
385.562	727.5
385.787	733.5
386.013	770.5
386.238	760.5
386.463	748.5
386.688	738.5
386.913	746.5
387.138	749.5
387.363	727.5
387.588	736.5
387.813	739.5
388.038	760.5
388.263	742.5
388.488	747.5
388.713	761.5
388.938	748.5
389.163	739.5
389.387	775.5
389.612	771.5
389.837	750.5
390.062	754.5
390.287	757.5
390.512	748.5
390.736	768.5
390.961	758.5
391.186	784.5
391.411	813.5
391.636	812.5
391.86	799.5
392.085	826.5
392.31	788.5
392.534	794.5
392.759	805.5
392.984	794.5
393.208	791.5
393.433	779.5
393.658	780.5
393.882	797.5
394.107	783.5
394.331	822.5
394.556	802.5
394.78	774.5
395.005	810.5
395.229	787.5
395.454	831.5
395.678	790.5
395.903	825.5
396.127	856.5
396.352	828.5
396.576	808.5
396.801	828.5
397.025	824.5
397.249	823.5
397.474	851.5
397.698	854.5
397.922	871.5
398.147	855.5
398.371	867.5
398.595	886.5
398.82	892.5
399.044	916.5
399.268	960.5
399.492	994.5
399.717	1060.5
399.941	1057.5
400.165	1015.5
400.389	1029.5
400.613	976.5
400.837	961.5
401.062	962.5
401.286	932.5
401.51	927.5
401.734	931.5
401.958	916.5
402.182	917.5
402.406	910.5
402.63	932.5
402.854	940.5
403.078	922.5
403.302	932.5
403.526	930.5
403.75	939.5
403.974	959.5
404.198	929.5
404.422	983.5
404.645	965.5
404.869	957.5
405.093	983.5
405.317	957.5
405.541	978.5
405.765	964.5
405.988	980.5
406.212	985.5
406.436	1003.5
406.66	1013.5
406.883	973.5
407.107	1050.5
407.331	1060.5
407.555	1101.5
407.778	1082.5
408.002	1098.5
408.226	1062.5
408.449	1076.5
408.673	1042.5
408.896	1060.5
409.12	1049.5
409.344	1069.5
409.567	1046.5
409.791	1058.5
410.014	1037.5
410.238	1017.5
410.461	1033.5
410.685	1031.5
410.908	995.5
411.132	1003.5
411.355	999.5
411.578	990.5
411.802	1000.5
412.025	967.5
412.249	1002.5
412.472	995.5
412.695	1011.5
412.919	989.5
413.142	986.5
413.365	997.5
413.589	993.5
413.812	972.5
414.035	984.5
414.258	979.5
414.482	986.5
414.705	997.5
414.928	981.5
415.151	1006.5
415.374	986.5
415.597	983.5
415.821	989.5
416.044	978.5
416.267	952.5
416.49	989.5
416.713	970.5
416.936	987.5
417.159	988.5
417.382	994.5
417.605	973.5
417.828	954.5
418.051	982.5
418.274	979.5
418.497	996.5
418.72	982.5
418.943	978.5
419.166	1052.5
419.389	1088.5
419.611	1092.5
419.834	1014.5
420.057	1040.5
420.28	1035.5
420.503	985.5
420.726	966.5
420.948	971.5
421.171	975.5
421.394	989.5
421.617	987.5
421.839	969.5
422.062	994.5
422.285	982.5
422.507	1017.5
422.73	983.5
422.953	1006.5
423.175	1003.5
423.398	1008.5
423.621	978.5
423.843	1020.5
424.066	978.5
424.288	1020.5
424.511	1007.5
424.733	1000.5
424.956	1010.5
425.178	980.5
425.401	1015.5
425.623	1038.5
425.846	987.5
426.068	998.5
426.291	1013.5
426.513	993.5
426.735	997.5
426.958	1015.5
427.18	1023.5
427.402	994.5
427.625	997.5
427.847	970.5
428.069	970.5
428.292	1013.5
428.514	959.5
428.736	974.5
428.958	981.5
429.181	1000.5
429.403	990.5
429.625	992.5
429.847	988.5
430.069	973.5
430.292	1002.5
430.514	999.5
430.736	997.5
430.958	998.5
431.18	952.5
431.402	999.5
431.624	984.5
431.846	996.5
432.068	1024.5
432.29	1042.5
432.512	992.5
432.734	1015.5
432.956	971.5
433.178	997.5
433.4	1013.5
433.622	1007.5
433.844	1040.5
434.066	1027.5
434.287	1013.5
434.509	1008.5
434.731	1050.5
434.953	1049.5
435.175	1073.5
435.397	1096.5
435.618	1029.5
435.84	1032.5
436.062	1021.5
436.284	1022.5
436.505	1028.5
436.727	1019.5
436.949	1006.5
437.17	1008.5
437.392	973.5
437.614	986.5
437.835	959.5
438.057	964.5
438.278	989.5
438.5	1005.5
438.721	1008.5
438.943	1021.5
439.165	1004.5
439.386	975.5
439.608	999.5
439.829	1003.5
440.05	1018.5
440.272	1031.5
440.493	1037.5
440.715	1034.5
440.936	1054.5
441.158	1050.5
441.379	1069.5
441.6	1095.5
441.822	1080.5
442.043	1069.5
442.264	1058.5
442.486	1028.5
442.707	1042.5
442.928	1079.5
443.149	1044.5
443.371	1072.5
443.592	1059.5
443.813	1064.5
444.034	1076.5
444.255	1117.5
444.476	1083.5
444.698	1146.5
444.919	1125.5
445.14	1176.5
445.361	1144.5
445.582	1093.5
445.803	1049.5
446.024	1075.5
446.245	1055.5
446.466	1044.5
446.687	1004.5
446.908	1048.5
447.129	1022.5
447.35	1003.5
447.571	987.5
447.792	986.5
448.013	990.5
448.234	973.5
448.455	962.5
448.675	960.5
448.896	962.5
449.117	966.5
449.338	972.5
449.559	935.5
449.779	944.5
450	956.5
450.221	952.5
450.442	943.5
450.662	958.5
450.883	966.5
451.104	957.5
451.324	952.5
451.545	929.5
451.766	946.5
451.986	941.5
452.207	923.5
452.428	940.5
452.648	930.5
452.869	907.5
453.089	911.5
453.31	903.5
453.53	920.5
453.751	900.5
453.971	898.5
454.192	910.5
454.412	900.5
454.633	887.5
454.853	907.5
455.073	906.5
455.294	912.5
455.514	907.5
455.734	915.5
455.955	868.5
456.175	896.5
456.395	885.5
456.616	908.5
456.836	892.5
457.056	895.5
457.276	899.5
457.497	928.5
457.717	912.5
457.937	907.5
458.157	914.5
458.377	924.5
458.598	978.5
458.818	956.5
459.038	956.5
459.258	963.5
459.478	997.5
459.698	1022.5
459.918	1070.5
460.138	1038.5
460.358	1050.5
460.578	1054.5
460.798	1098.5
461.018	1109.5
461.238	1134.5
461.458	1098.5
461.678	1090.5
461.898	1131.5
462.118	1120.5
462.338	1191.5
462.558	1167.5
462.777	1176.5
462.997	1230.5
463.217	1250.5
463.437	1241.5
463.657	1228.5
463.876	1218.5
464.096	1223.5
464.316	1206.5
464.536	1208.5
464.755	1203.5
464.975	1153.5
465.195	1140.5
465.414	1099.5
465.634	1061.5
465.854	1079.5
466.073	1054.5
466.293	1013.5
466.512	987.5
466.732	994.5
466.951	1024.5
467.171	1005.5
467.391	1034.5
467.61	1019.5
467.829	1014.5
468.049	1012.5
468.268	970.5
468.488	995.5
468.707	950.5
468.927	963.5
469.146	967.5
469.365	1007.5
469.585	998.5
469.804	1036.5
470.023	975.5
470.243	994.5
470.462	1004.5
470.681	1022.5
470.901	1016.5
471.12	982.5
471.339	1037.5
471.558	1006.5
471.777	1028.5
471.997	1007.5
472.216	994.5
472.435	970.5
472.654	972.5
472.873	972.5
473.092	987.5
473.311	990.5
473.53	996.5
473.749	992.5
473.968	993.5
474.187	994.5
474.406	981.5
474.625	979.5
474.844	986.5
475.063	1019.5
475.282	1019.5
475.501	1014.5
475.72	999.5
475.939	1017.5
476.158	1031.5
476.377	1022.5
476.596	1032.5
476.814	1056.5
477.033	1046.5
477.252	1084.5
477.471	1094.5
477.69	1090.5
477.908	1103.5
478.127	1120.5
478.346	1140.5
478.564	1163.5
478.783	1135.5
479.002	1172.5
479.22	1160.5
479.439	1162.5
479.658	1166.5
479.876	1165.5
480.095	1158.5
480.313	1212.5
480.532	1183.5
480.751	1204.5
480.969	1181.5
481.188	1166.5
481.406	1158.5
481.624	1138.5
481.843	1150.5
482.061	1146.5
482.28	1148.5
482.498	1140.5
482.717	1173.5
482.935	1192.5
483.153	1151.5
483.372	1152.5
483.59	1184.5
483.808	1165.5
484.027	1178.5
484.245	1145.5
484.463	1166.5
484.681	1186.5
484.9	1160.5
485.118	1207.5
485.336	1171.5
485.554	1180.5
485.772	1206.5
485.99	1199.5
486.209	1198.5
486.427	1212.5
486.645	1207.5
486.863	1184.5
487.081	1249.5
487.299	1226.5
487.517	1200.5
487.735	1229.5
487.953	1231.5
488.171	1218.5
488.389	1222.5
488.607	1208.5
488.825	1202.5
489.043	1177.5
489.261	1192.5
489.479	1203.5
489.696	1210.5
489.914	1218.5
490.132	1212.5
490.35	1210.5
490.568	1233.5
490.786	1256.5
491.003	1254.5
491.221	1278.5
491.439	1258.5
491.657	1262.5
491.874	1299.5
492.092	1261.5
492.31	1267.5
492.527	1306.5
492.745	1272.5
492.963	1258.5
493.18	1323.5
493.398	1311.5
493.615	1258.5
493.833	1296.5
494.05	1296.5
494.268	1324.5
494.485	1304.5
494.703	1303.5
494.92	1300.5
495.138	1326.5
495.355	1336.5
495.573	1368.5
495.79	1346.5
496.008	1346.5
496.225	1367.5
496.442	1379.5
496.66	1388.5
496.877	1366.5
497.094	1417.5
497.312	1442.5
497.529	1501.5
497.746	1480.5
497.963	1510.5
498.181	1498.5
498.398	1582.5
498.615	1575.5
498.832	1697.5
499.049	1693.5
499.267	1780.5
499.484	1872.5
499.701	1923.5
499.918	1951.5
500.135	2118.5
500.352	2182.5
500.569	2280.5
500.786	2238.5
501.003	2138.5
501.22	2122.5
501.437	1990.5
501.654	1893.5
501.871	1867.5
502.088	1772.5
502.305	1715.5
502.522	1685.5
502.739	1657.5
502.956	1603.5
503.172	1538.5
503.389	1541.5
503.606	1471.5
503.823	1506.5
504.04	1452.5
504.256	1403.5
504.473	1432.5
504.69	1412.5
504.907	1373.5
505.123	1388.5
505.34	1353.5
505.557	1314.5
505.773	1307.5
505.99	1276.5
506.207	1254.5
506.423	1220.5
506.64	1193.5
506.856	1219.5
507.073	1220.5
507.289	1207.5
507.506	1175.5
507.722	1196.5
507.939	1178.5
508.155	1163.5
508.372	1149.5
508.588	1149.5
508.805	1131.5
509.021	1150.5
509.238	1125.5
509.454	1147.5
509.67	1102.5
509.887	1138.5
510.103	1098.5
510.319	1116.5
510.536	1078.5
510.752	1106.5
510.968	1061.5
511.184	1055.5
511.401	1076.5
511.617	1111.5
511.833	1086.5
512.049	1063.5
512.265	1043.5
512.481	1090.5
512.698	1094.5
512.914	1075.5
513.13	1101.5
513.346	1082.5
513.562	1091.5
513.778	1085.5
513.994	1078.5
514.21	1097.5
514.426	1064.5
514.642	1102.5
514.858	1090.5
515.074	1081.5
515.29	1093.5
515.506	1132.5
515.721	1127.5
515.937	1133.5
516.153	1132.5
516.369	1128.5
516.585	1160.5
516.801	1158.5
517.016	1160.5
517.232	1195.5
517.448	1210.5
517.664	1215.5
517.879	1226.5
518.095	1221.5
518.311	1231.5
518.527	1181.5
518.742	1200.5
518.958	1132.5
519.173	1143.5
519.389	1141.5
519.605	1124.5
519.82	1100.5
520.036	1118.5
520.251	1075.5
520.467	1092.5
520.682	1068.5
520.898	1054.5
521.113	1057.5
521.329	1070.5
521.544	1038.5
521.76	1044.5
521.975	1012.5
522.19	1029.5
522.406	1007.5
522.621	1030.5
522.836	985.5
523.052	1004.5
523.267	1019.5
523.482	1021.5
523.698	989.5
523.913	1001.5
524.128	987.5
524.343	1004.5
524.559	1011.5
524.774	1008.5
524.989	982.5
525.204	998.5
525.419	969.5
525.634	986.5
525.849	993.5
526.064	975.5
526.28	980.5
526.495	998.5
526.71	986.5
526.925	950.5
527.14	969.5
527.355	974.5
527.57	964.5
527.785	992.5
527.999	946.5
528.214	960.5
528.429	952.5
528.644	955.5
528.859	981.5
529.074	1000.5
529.289	967.5
529.503	992.5
529.718	982.5
529.933	976.5
530.148	956.5
530.363	952.5
530.577	935.5
530.792	931.5
531.007	966.5
531.221	950.5
531.436	940.5
531.651	915.5
531.865	934.5
532.08	946.5
532.295	927.5
532.509	958.5
532.724	930.5
532.938	934.5
533.153	959.5
533.367	936.5
533.582	957.5
533.796	956.5
534.011	957.5
534.225	949.5
534.44	918.5
534.654	905.5
534.868	928.5
535.083	919.5
535.297	896.5
535.511	882.5
535.726	893.5
535.94	900.5
536.154	932.5
536.369	894.5
536.583	891.5
536.797	861.5
537.011	882.5
537.225	857.5
537.44	885.5
537.654	888.5
537.868	874.5
538.082	880.5
538.296	888.5
538.51	883.5
538.724	892.5
538.938	898.5
539.153	859.5
539.367	873.5
539.581	887.5
539.795	881.5
540.009	854.5
540.222	862.5
540.436	872.5
540.65	871.5
540.864	890.5
541.078	868.5
541.292	891.5
541.506	888.5
541.72	902.5
541.934	903.5
542.147	923.5
542.361	888.5
542.575	891.5
542.789	861.5
543.002	847.5
543.216	858.5
543.43	865.5
543.644	877.5
543.857	866.5
544.071	880.5
544.285	860.5
544.498	884.5
544.712	877.5
544.925	895.5
545.139	896.5
545.352	878.5
545.566	832.5
545.779	866.5
545.993	864.5
546.206	870.5
546.42	907.5
546.633	893.5
546.847	856.5
547.06	876.5
547.274	868.5
547.487	872.5
547.7	883.5
547.914	883.5
548.127	896.5
548.34	867.5
548.554	884.5
548.767	882.5
548.98	847.5
549.193	878.5
549.407	836.5
549.62	884.5
549.833	878.5
550.046	880.5
550.259	868.5
550.473	876.5
550.686	865.5
550.899	883.5
551.112	876.5
551.325	847.5
551.538	838.5
551.751	848.5
551.964	835.5
552.177	814.5
552.39	828.5
552.603	882.5
552.816	866.5
553.029	861.5
553.242	882.5
553.455	892.5
553.667	869.5
553.88	868.5
554.093	852.5
554.306	875.5
554.519	813.5
554.732	833.5
554.944	824.5
555.157	790.5
555.37	805.5
555.583	796.5
555.795	832.5
556.008	802.5
556.221	765.5
556.433	758.5
556.646	794.5
556.859	799.5
557.071	763.5
557.284	784.5
557.496	763.5
557.709	768.5
557.921	788.5
558.134	775.5
558.346	758.5
558.559	745.5
558.771	764.5
558.984	747.5
559.196	748.5
559.409	749.5
559.621	735.5
559.833	740.5
560.046	750.5
560.258	729.5
560.47	718.5
560.683	746.5
560.895	733.5
561.107	745.5
561.32	738.5
561.532	718.5
561.744	727.5
561.956	741.5
562.168	747.5
562.381	735.5
562.593	731.5
562.805	761.5
563.017	754.5
563.229	744.5
563.441	738.5
563.653	731.5
563.865	751.5
564.077	766.5
564.289	766.5
564.501	784.5
564.713	759.5
564.925	776.5
565.137	782.5
565.349	783.5
565.561	812.5
565.773	819.5
565.985	829.5
566.197	836.5
566.408	826.5
566.62	857.5
566.832	878.5
567.044	891.5
567.255	868.5
567.467	882.5
567.679	880.5
567.891	900.5
568.102	900.5
568.314	890.5
568.526	828.5
568.737	802.5
568.949	790.5
569.161	798.5
569.372	770.5
569.584	735.5
569.795	732.5
570.007	713.5
570.218	706.5
570.43	705.5
570.641	714.5
570.853	693.5
571.064	679.5
571.276	685.5
571.487	664.5
571.698	652.5
571.91	669.5
572.121	630.5
572.333	632.5
572.544	631.5
572.755	612.5
572.966	615.5
573.178	615.5
573.389	607.5
573.6	607.5
573.811	599.5
574.023	589.5
574.234	591.5
574.445	589.5
574.656	596.5
574.867	584.5
575.078	578.5
575.289	570.5
575.501	570.5
575.712	571.5
575.923	562.5
576.134	589.5
576.345	566.5
576.556	554.5
576.767	568.5
576.978	542.5
577.188	581.5
577.399	537.5
577.61	538.5
577.821	558.5
578.032	549.5
578.243	535.5
578.454	531.5
578.665	552.5
578.875	538.5
579.086	520.5
579.297	536.5
579.508	514.5
579.718	537.5
579.929	525.5
580.14	514.5
580.35	527.5
580.561	501.5
580.772	518.5
580.982	504.5
581.193	499.5
581.403	500.5
581.614	516.5
581.825	515.5
582.035	513.5
582.246	500.5
582.456	507.5
582.667	501.5
582.877	478.5
583.087	498.5
583.298	499.5
583.508	475.5
583.719	471.5
583.929	470.5
584.139	479.5
584.35	493.5
584.56	499.5
584.77	486.5
584.981	495.5
585.191	499.5
585.401	470.5
585.611	471.5
585.821	471.5
586.032	470.5
586.242	500.5
586.452	463.5
586.662	482.5
586.872	471.5
587.082	483.5
587.292	472.5
587.502	474.5
587.713	450.5
587.923	474.5
588.133	474.5
588.343	452.5
588.553	483.5
588.762	477.5
588.972	453.5
589.182	470.5
589.392	457.5
589.602	468.5
589.812	463.5
590.022	503.5
590.232	480.5
590.441	460.5
590.651	440.5
590.861	457.5
591.071	454.5
591.281	455.5
591.49	464.5
591.7	478.5
591.91	493.5
592.119	452.5
592.329	466.5
592.539	476.5
592.748	479.5
592.958	496.5
593.167	504.5
593.377	495.5
593.587	465.5
593.796	460.5
594.006	478.5
594.215	458.5
594.424	484.5
594.634	478.5
594.843	476.5
595.053	469.5
595.262	475.5
595.472	442.5
595.681	442.5
595.89	442.5
596.1	459.5
596.309	428.5
596.518	434.5
596.727	437.5
596.937	434.5
597.146	444.5
597.355	413.5
597.564	413.5
597.774	428.5
597.983	399.5
598.192	389.5
598.401	402.5
598.61	397.5
598.819	393.5
599.028	409.5
599.237	406.5
599.446	409.5
599.655	400.5
599.864	392.5
600.073	388.5
600.282	378.5
600.491	381.5
600.7	389.5
600.909	410.5
601.118	398.5
601.327	399.5
601.536	395.5
601.745	377.5
601.953	390.5
602.162	381.5
602.371	374.5
602.58	372.5
602.789	357.5
602.997	378.5
603.206	382.5
603.415	383.5
603.623	376.5
603.832	373.5
604.041	379.5
604.249	362.5
604.458	368.5
604.666	338.5
604.875	368.5
605.084	356.5
605.292	375.5
605.501	371.5
605.709	371.5
605.918	358.5
606.126	359.5
606.334	351.5
606.543	365.5
606.751	354.5
606.96	354.5
607.168	353.5
607.376	328.5
607.585	357.5
607.793	360.5
608.001	357.5
608.21	356.5
608.418	358.5
608.626	359.5
608.834	346.5
609.043	336.5
609.251	350.5
609.459	352.5
609.667	339.5
609.875	333.5
610.083	342.5
610.291	341.5
610.499	359.5
610.707	357.5
610.916	329.5
611.124	357.5
611.332	354.5
611.54	332.5
611.748	340.5
611.955	336.5
612.163	331.5
612.371	351.5
612.579	324.5
612.787	338.5
612.995	326.5
613.203	334.5
613.411	329.5
613.618	357.5
613.826	330.5
614.034	352.5
614.242	332.5
614.449	326.5
614.657	322.5
614.865	345.5
615.072	321.5
615.28	330.5
615.488	340.5
615.695	347.5
615.903	346.5
616.111	348.5
616.318	344.5
616.526	324.5
616.733	314.5
616.941	323.5
617.148	334.5
617.356	313.5
617.563	320.5
617.771	330.5
617.978	307.5
618.185	308.5
618.393	327.5
618.6	314.5
618.807	323.5
619.015	306.5
619.222	308.5
619.429	318.5
619.637	320.5
619.844	310.5
620.051	308.5
620.258	306.5
620.466	294.5
620.673	303.5
620.88	300.5
621.087	288.5
621.294	309.5
621.501	284.5
621.708	306.5
621.915	302.5
622.122	302.5
622.329	292.5
622.536	310.5
622.743	300.5
622.95	312.5
623.157	300.5
623.364	306.5
623.571	296.5
623.778	304.5
623.985	303.5
624.192	291.5
624.399	272.5
624.606	290.5
624.812	276.5
625.019	288.5
625.226	273.5
625.433	293.5
625.639	271.5
625.846	280.5
626.053	268.5
626.259	291.5
626.466	290.5
626.673	276.5
626.879	267.5
627.086	276.5
627.293	272.5
627.499	269.5
627.706	285.5
627.912	283.5
628.119	283.5
628.325	289.5
628.532	278.5
628.738	276.5
628.945	264.5
629.151	278.5
629.357	256.5
629.564	251.5
629.77	271.5
629.976	273.5
630.183	273.5
630.389	257.5
630.595	267.5
630.802	262.5
631.008	270.5
631.214	268.5
631.42	262.5
631.627	266.5
631.833	254.5
632.039	258.5
632.245	252.5
632.451	236.5
632.657	250.5
632.863	265.5
633.069	231.5
633.275	252.5
633.481	242.5
633.688	260.5
633.893	244.5
634.099	254.5
634.305	244.5
634.511	248.5
634.717	238.5
634.923	248.5
635.129	255.5
635.335	251.5
635.541	234.5
635.747	242.5
635.952	231.5
636.158	224.5
636.364	235.5
636.57	234.5
636.775	247.5
636.981	239.5
637.187	248.5
637.392	251.5
637.598	227.5
637.804	233.5
638.009	211.5
638.215	229.5
638.421	215.5
638.626	231.5
638.832	222.5
639.037	229.5
639.243	212.5
639.448	223.5
639.654	235.5
639.859	236.5
640.065	222.5
640.27	226.5
640.475	228.5
640.681	230.5
640.886	228.5
641.091	228.5
641.297	232.5
641.502	216.5
641.707	216.5
641.913	216.5
642.118	218.5
642.323	212.5
642.528	237.5
642.733	232.5
642.939	227.5
643.144	227.5
643.349	225.5
643.554	217.5
643.759	226.5
643.964	233.5
644.169	225.5
644.374	220.5
644.579	235.5
644.784	226.5
644.989	217.5
645.194	217.5
645.399	226.5
645.604	215.5
645.809	222.5
646.014	219.5
646.219	217.5
646.423	219.5
646.628	224.5
646.833	217.5
647.038	230.5
647.243	215.5
647.447	208.5
647.652	231.5
647.857	220.5
648.062	208.5
648.266	223.5
648.471	217.5
648.676	214.5
648.88	219.5
649.085	220.5
649.289	212.5
649.494	207.5
649.698	198.5
649.903	206.5
650.107	226.5
650.312	204.5
650.516	207.5
650.721	232.5
650.925	195.5
651.13	200.5
651.334	203.5
651.539	178.5
651.743	182.5
651.947	189.5
652.152	184.5
652.356	179.5
652.56	183.5
652.764	182.5
652.969	181.5
653.173	172.5
653.377	170.5
653.581	182.5
653.785	183.5
653.99	188.5
654.194	167.5
654.398	164.5
654.602	160.5
654.806	167.5
655.01	165.5
655.214	171.5
655.418	175.5
655.622	161.5
655.826	150.5
656.03	157.5
656.234	153.5
656.438	153.5
656.642	137.5
656.846	144.5
657.049	160.5
657.253	140.5
657.457	148.5
657.661	130.5
657.865	136.5
658.068	130.5
658.272	118.5
658.476	125.5
658.68	129.5
658.883	118.5
659.087	127.5
659.291	121.5
659.494	98.5
659.698	117.5
659.901	110.5
660.105	104.5
660.309	91.5
660.512	91.5
660.716	106.5
660.919	103.5
661.123	103.5
661.326	95.5
661.53	101.5
661.733	87.5
661.936	89.5
662.14	103.5
662.343	90.5
662.546	103.5
662.75	92.5
662.953	99.5
663.156	91.5
663.36	85.5
663.563	92.5
663.766	94.5
663.969	79.5
664.173	89.5
664.376	88.5
664.579	86.5
664.782	94.5
664.985	85.5
665.188	98.5
665.391	88.5
665.594	84.5
665.797	86.5
666	88.5
666.203	95.5
666.406	85.5
666.609	89.5
666.812	95.5
667.015	84.5
667.218	93.5
667.421	94.5
667.624	71.5
667.827	78.5
668.03	71.5
668.232	96.5
668.435	87.5
668.638	90.5
668.841	78.5
669.043	82.5
669.246	68.5
669.449	71.5
669.651	80.5
669.854	70.5
670.057	67.5
670.259	82.5
670.462	94.5
670.665	84.5
670.867	99.5
671.07	88.5
671.272	80.5
671.475	72.5
671.677	85.5
671.88	83.5
672.082	97.5
672.284	75.5
672.487	96.5
672.689	84.5
672.892	79.5
