Data from Ni(NO3)2@0.0625M.TitratingCurve.Agarose3%dH2O.NegLispCup.LampEnergy10.LIBS07252019_HRD10591_18-15-16-570.txt Node
Date: Thu Jul 25 18:15:16 EDT 2019
User: cochatt
Spectrometer: HR+D1059
Trigger mode: 1
Integration Time (sec): 1.000000E-1
Scans to average: 1
Electric dark correction enabled: true
Nonlinearity correction enabled: false
Boxcar width: 0
XAxis mode: Wavelengths
Number of Pixels in Spectrum: 2048
>>>>>Begin Spectral Data<<<<<
223.165	-0.38
223.4	-0.38
223.635	-0.38
223.869	-16.38
224.104	-28.38
224.338	-11.38
224.573	-6.38
224.808	-10.38
225.042	-8.38
225.277	-10.38
225.511	-14.38
225.746	11.62
225.98	11.62
226.215	1.62
226.449	2.62
226.683	23.62
226.918	28.62
227.152	26.62
227.387	37.62
227.621	30.62
227.856	46.62
228.09	52.62
228.324	49.62
228.559	60.62
228.793	73.62
229.027	117.62
229.262	109.62
229.496	128.62
229.73	125.62
229.964	123.62
230.199	124.62
230.433	147.62
230.667	141.62
230.901	135.62
231.136	141.62
231.37	149.62
231.604	142.62
231.838	136.62
232.072	151.62
232.306	141.62
232.541	149.62
232.775	151.62
233.009	147.62
233.243	162.62
233.477	160.62
233.711	178.62
233.945	152.62
234.179	136.62
234.413	165.62
234.647	172.62
234.881	163.62
235.115	160.62
235.349	167.62
235.583	172.62
235.817	169.62
236.051	150.62
236.285	150.62
236.519	159.62
236.753	146.62
236.987	168.62
237.221	173.62
237.455	179.62
237.689	163.62
237.922	182.62
238.156	183.62
238.39	173.62
238.624	188.62
238.858	182.62
239.091	186.62
239.325	184.62
239.559	183.62
239.793	185.62
240.027	189.62
240.26	202.62
240.494	193.62
240.728	192.62
240.961	196.62
241.195	198.62
241.429	205.62
241.662	213.62
241.896	196.62
242.13	204.62
242.363	213.62
242.597	215.62
242.83	198.62
243.064	218.62
243.298	214.62
243.531	214.62
243.765	226.62
243.998	229.62
244.232	207.62
244.465	205.62
244.699	212.62
244.932	241.62
245.166	218.62
245.399	226.62
245.633	232.62
245.866	228.62
246.099	236.62
246.333	260.62
246.566	242.62
246.8	241.62
247.033	268.62
247.266	241.62
247.5	234.62
247.733	262.62
247.966	253.62
248.2	248.62
248.433	252.62
248.666	259.62
248.899	264.62
249.133	263.62
249.366	255.62
249.599	246.62
249.832	281.62
250.066	280.62
250.299	272.62
250.532	270.62
250.765	277.62
250.998	292.62
251.231	285.62
251.465	260.62
251.698	291.62
251.931	272.62
252.164	290.62
252.397	284.62
252.63	303.62
252.863	302.62
253.096	299.62
253.329	296.62
253.562	291.62
253.795	291.62
254.028	294.62
254.261	302.62
254.494	307.62
254.727	304.62
254.96	297.62
255.193	312.62
255.426	305.62
255.659	320.62
255.892	315.62
256.124	302.62
256.357	312.62
256.59	311.62
256.823	306.62
257.056	313.62
257.289	328.62
257.521	343.62
257.754	316.62
257.987	338.62
258.22	329.62
258.452	343.62
258.685	346.62
258.918	330.62
259.151	332.62
259.383	359.62
259.616	341.62
259.849	337.62
260.081	329.62
260.314	345.62
260.547	351.62
260.779	340.62
261.012	346.62
261.244	344.62
261.477	342.62
261.71	347.62
261.942	358.62
262.175	352.62
262.407	357.62
262.64	361.62
262.872	360.62
263.105	372.62
263.337	366.62
263.57	377.62
263.802	359.62
264.035	379.62
264.267	364.62
264.499	378.62
264.732	376.62
264.964	373.62
265.197	378.62
265.429	382.62
265.661	383.62
265.894	409.62
266.126	410.62
266.358	376.62
266.591	403.62
266.823	408.62
267.055	385.62
267.287	408.62
267.52	404.62
267.752	390.62
267.984	401.62
268.216	391.62
268.448	411.62
268.681	407.62
268.913	407.62
269.145	400.62
269.377	429.62
269.609	395.62
269.841	407.62
270.073	416.62
270.306	413.62
270.538	423.62
270.77	403.62
271.002	404.62
271.234	401.62
271.466	425.62
271.698	415.62
271.93	427.62
272.162	418.62
272.394	419.62
272.626	406.62
272.858	420.62
273.09	443.62
273.322	432.62
273.553	425.62
273.785	445.62
274.017	450.62
274.249	447.62
274.481	431.62
274.713	432.62
274.945	452.62
275.176	421.62
275.408	452.62
275.64	461.62
275.872	457.62
276.104	455.62
276.335	459.62
276.567	453.62
276.799	434.62
277.031	452.62
277.262	458.62
277.494	451.62
277.726	463.62
277.957	469.62
278.189	472.62
278.421	477.62
278.652	475.62
278.884	457.62
279.115	473.62
279.347	484.62
279.579	487.62
279.81	484.62
280.042	474.62
280.273	483.62
280.505	458.62
280.736	501.62
280.968	487.62
281.199	485.62
281.431	500.62
281.662	487.62
281.894	490.62
282.125	510.62
282.356	537.62
282.588	521.62
282.819	511.62
283.051	519.62
283.282	515.62
283.513	523.62
283.745	528.62
283.976	518.62
284.207	502.62
284.439	528.62
284.67	549.62
284.901	516.62
285.132	524.62
285.364	543.62
285.595	507.62
285.826	547.62
286.057	544.62
286.288	552.62
286.52	536.62
286.751	569.62
286.982	556.62
287.213	551.62
287.444	542.62
287.675	568.62
287.906	561.62
288.138	562.62
288.369	554.62
288.6	574.62
288.831	567.62
289.062	555.62
289.293	571.62
289.524	570.62
289.755	585.62
289.986	591.62
290.217	571.62
290.448	563.62
290.679	580.62
290.91	584.62
291.141	569.62
291.371	570.62
291.602	571.62
291.833	579.62
292.064	569.62
292.295	590.62
292.526	572.62
292.757	528.62
292.987	578.62
293.218	573.62
293.449	603.62
293.68	578.62
293.91	592.62
294.141	593.62
294.372	587.62
294.603	601.62
294.833	610.62
295.064	622.62
295.295	612.62
295.525	599.62
295.756	591.62
295.987	600.62
296.217	574.62
296.448	608.62
296.679	600.62
296.909	591.62
297.14	604.62
297.37	614.62
297.601	628.62
297.831	615.62
298.062	645.62
298.292	616.62
298.523	645.62
298.753	661.62
298.984	641.62
299.214	649.62
299.445	628.62
299.675	602.62
299.905	629.62
300.136	645.62
300.366	623.62
300.597	659.62
300.827	653.62
301.057	653.62
301.288	672.62
301.518	666.62
301.748	667.62
301.979	678.62
302.209	667.62
302.439	658.62
302.669	661.62
302.9	667.62
303.13	646.62
303.36	657.62
303.59	658.62
303.82	649.62
304.051	648.62
304.281	649.62
304.511	649.62
304.741	637.62
304.971	653.62
305.201	651.62
305.431	645.62
305.661	642.62
305.891	631.62
306.121	631.62
306.352	643.62
306.582	650.62
306.812	642.62
307.042	648.62
307.272	637.62
307.502	642.62
307.731	623.62
307.961	623.62
308.191	640.62
308.421	636.62
308.651	637.62
308.881	641.62
309.111	654.62
309.341	633.62
309.571	628.62
309.8	624.62
310.03	642.62
310.26	666.62
310.49	634.62
310.72	648.62
310.949	651.62
311.179	648.62
311.409	626.62
311.639	649.62
311.868	674.62
312.098	630.62
312.328	632.62
312.557	646.62
312.787	645.62
313.017	679.62
313.246	676.62
313.476	682.62
313.706	690.62
313.935	684.62
314.165	700.62
314.394	703.62
314.624	696.62
314.853	667.62
315.083	672.62
315.312	678.62
315.542	677.62
315.771	659.62
316.001	647.62
316.23	666.62
316.46	687.62
316.689	673.62
316.919	644.62
317.148	665.62
317.377	676.62
317.607	663.62
317.836	665.62
318.065	654.62
318.295	641.62
318.524	680.62
318.753	684.62
318.983	650.62
319.212	659.62
319.441	693.62
319.67	659.62
319.9	640.62
320.129	651.62
320.358	674.62
320.587	645.62
320.816	639.62
321.046	661.62
321.275	671.62
321.504	650.62
321.733	647.62
321.962	677.62
322.191	700.62
322.42	680.62
322.649	659.62
322.878	652.62
323.108	684.62
323.337	691.62
323.566	701.62
323.795	671.62
324.024	688.62
324.253	672.62
324.482	679.62
324.71	675.62
324.939	689.62
325.168	687.62
325.397	676.62
325.626	680.62
325.855	712.62
326.084	712.62
326.313	714.62
326.542	748.62
326.77	755.62
326.999	726.62
327.228	711.62
327.457	705.62
327.686	730.62
327.914	718.62
328.143	728.62
328.372	728.62
328.6	730.62
328.829	712.62
329.058	742.62
329.287	733.62
329.515	737.62
329.744	724.62
329.972	721.62
330.201	722.62
330.43	747.62
330.658	749.62
330.887	771.62
331.115	765.62
331.344	773.62
331.572	802.62
331.801	784.62
332.03	813.62
332.258	833.62
332.486	860.62
332.715	912.62
332.943	945.62
333.172	945.62
333.4	1012.62
333.629	1008.62
333.857	1036.62
334.085	989.62
334.314	996.62
334.542	978.62
334.771	906.62
334.999	908.62
335.227	928.62
335.455	902.62
335.684	908.62
335.912	907.62
336.14	889.62
336.369	876.62
336.597	888.62
336.825	895.62
337.053	886.62
337.281	888.62
337.51	844.62
337.738	841.62
337.966	802.62
338.194	844.62
338.422	818.62
338.65	785.62
338.878	787.62
339.106	777.62
339.334	777.62
339.562	792.62
339.79	780.62
340.018	770.62
340.246	743.62
340.474	757.62
340.702	782.62
340.93	800.62
341.158	777.62
341.386	782.62
341.614	785.62
341.842	759.62
342.07	769.62
342.298	723.62
342.526	753.62
342.754	746.62
342.981	769.62
343.209	767.62
343.437	812.62
343.665	871.62
343.893	928.62
344.12	973.62
344.348	935.62
344.576	880.62
344.804	827.62
345.031	810.62
345.259	815.62
345.487	786.62
345.714	748.62
345.942	783.62
346.17	760.62
346.397	770.62
346.625	764.62
346.853	743.62
347.08	733.62
347.308	760.62
347.535	759.62
347.763	777.62
347.99	794.62
348.218	753.62
348.445	778.62
348.673	763.62
348.9	763.62
349.128	724.62
349.355	729.62
349.583	753.62
349.81	731.62
350.037	742.62
350.265	720.62
350.492	712.62
350.72	731.62
350.947	710.62
351.174	726.62
351.402	714.62
351.629	701.62
351.856	700.62
352.083	708.62
352.311	716.62
352.538	710.62
352.765	740.62
352.992	712.62
353.22	713.62
353.447	716.62
353.674	700.62
353.901	704.62
354.128	716.62
354.355	698.62
354.583	698.62
354.81	716.62
355.037	742.62
355.264	714.62
355.491	718.62
355.718	725.62
355.945	730.62
356.172	723.62
356.399	723.62
356.626	736.62
356.853	739.62
357.08	728.62
357.307	705.62
357.534	713.62
357.761	729.62
357.988	740.62
358.215	721.62
358.441	729.62
358.668	721.62
358.895	697.62
359.122	726.62
359.349	717.62
359.576	729.62
359.802	706.62
360.029	692.62
360.256	710.62
360.483	728.62
360.709	697.62
360.936	696.62
361.163	705.62
361.39	700.62
361.616	707.62
361.843	689.62
362.07	732.62
362.296	692.62
362.523	688.62
362.749	706.62
362.976	722.62
363.203	703.62
363.429	700.62
363.656	700.62
363.882	707.62
364.109	721.62
364.335	715.62
364.562	695.62
364.788	704.62
365.015	731.62
365.241	699.62
365.468	717.62
365.694	706.62
365.92	708.62
366.147	716.62
366.373	715.62
366.599	709.62
366.826	704.62
367.052	688.62
367.278	716.62
367.505	731.62
367.731	722.62
367.957	715.62
368.184	732.62
368.41	729.62
368.636	723.62
368.862	728.62
369.089	710.62
369.315	733.62
369.541	723.62
369.767	735.62
369.993	730.62
370.219	751.62
370.445	733.62
370.672	769.62
370.898	756.62
371.124	772.62
371.35	765.62
371.576	776.62
371.802	803.62
372.028	772.62
372.254	770.62
372.48	779.62
372.706	795.62
372.932	821.62
373.158	801.62
373.384	805.62
373.61	785.62
373.835	803.62
374.061	774.62
374.287	806.62
374.513	808.62
374.739	826.62
374.965	833.62
375.191	852.62
375.416	857.62
375.642	832.62
375.868	825.62
376.094	828.62
376.319	807.62
376.545	812.62
376.771	775.62
376.997	767.62
377.222	781.62
377.448	785.62
377.674	771.62
377.899	753.62
378.125	777.62
378.35	773.62
378.576	770.62
378.802	768.62
379.027	776.62
379.253	752.62
379.478	767.62
379.704	792.62
379.929	776.62
380.155	782.62
380.38	764.62
380.606	762.62
380.831	784.62
381.057	797.62
381.282	796.62
381.507	788.62
381.733	803.62
381.958	773.62
382.184	806.62
382.409	829.62
382.634	825.62
382.86	808.62
383.085	828.62
383.31	826.62
383.535	866.62
383.761	865.62
383.986	901.62
384.211	901.62
384.436	889.62
384.662	928.62
384.887	931.62
385.112	942.62
385.337	969.62
385.562	945.62
385.787	958.62
386.013	990.62
386.238	975.62
386.463	942.62
386.688	951.62
386.913	928.62
387.138	919.62
387.363	935.62
387.588	901.62
387.813	892.62
388.038	920.62
388.263	926.62
388.488	920.62
388.713	952.62
388.938	917.62
389.163	916.62
389.387	943.62
389.612	947.62
389.837	897.62
390.062	929.62
390.287	917.62
390.512	950.62
390.736	919.62
390.961	953.62
391.186	958.62
391.411	982.62
391.636	994.62
391.86	1074.62
392.085	1088.62
392.31	1080.62
392.534	1032.62
392.759	1007.62
392.984	996.62
393.208	970.62
393.433	974.62
393.658	986.62
393.882	1002.62
394.107	996.62
394.331	1001.62
394.556	1028.62
394.78	1016.62
395.005	1000.62
395.229	1039.62
395.454	1042.62
395.678	1048.62
395.903	1075.62
396.127	1068.62
396.352	1023.62
396.576	976.62
396.801	982.62
397.025	984.62
397.249	1016.62
397.474	1032.62
397.698	1024.62
397.922	1064.62
398.147	1063.62
398.371	1080.62
398.595	1095.62
398.82	1132.62
399.044	1216.62
399.268	1357.62
399.492	1619.62
399.717	1913.62
399.941	1903.62
400.165	1613.62
400.389	1421.62
400.613	1301.62
400.837	1223.62
401.062	1187.62
401.286	1164.62
401.51	1177.62
401.734	1191.62
401.958	1185.62
402.182	1201.62
402.406	1220.62
402.63	1245.62
402.854	1252.62
403.078	1301.62
403.302	1340.62
403.526	1368.62
403.75	1360.62
403.974	1436.62
404.198	1435.62
404.422	1436.62
404.645	1401.62
404.869	1391.62
405.093	1377.62
405.317	1325.62
405.541	1320.62
405.765	1273.62
405.988	1310.62
406.212	1268.62
406.436	1315.62
406.66	1363.62
406.883	1329.62
407.107	1434.62
407.331	1487.62
407.555	1547.62
407.778	1559.62
408.002	1552.62
408.226	1465.62
408.449	1433.62
408.673	1398.62
408.896	1391.62
409.12	1342.62
409.344	1366.62
409.567	1348.62
409.791	1400.62
410.014	1351.62
410.238	1341.62
410.461	1359.62
410.685	1355.62
410.908	1319.62
411.132	1265.62
411.355	1233.62
411.578	1240.62
411.802	1214.62
412.025	1213.62
412.249	1287.62
412.472	1292.62
412.695	1239.62
412.919	1188.62
413.142	1137.62
413.365	1182.62
413.589	1189.62
413.812	1161.62
414.035	1152.62
414.258	1173.62
414.482	1185.62
414.705	1209.62
414.928	1235.62
415.151	1236.62
415.374	1152.62
415.597	1203.62
415.821	1188.62
416.044	1155.62
416.267	1177.62
416.49	1132.62
416.713	1148.62
416.936	1151.62
417.159	1132.62
417.382	1154.62
417.605	1177.62
417.828	1173.62
418.051	1159.62
418.274	1172.62
418.497	1173.62
418.72	1201.62
418.943	1228.62
419.166	1288.62
419.389	1376.62
419.611	1368.62
419.834	1303.62
420.057	1249.62
420.28	1183.62
420.503	1155.62
420.726	1145.62
420.948	1141.62
421.171	1147.62
421.394	1175.62
421.617	1147.62
421.839	1169.62
422.062	1186.62
422.285	1161.62
422.507	1216.62
422.73	1200.62
422.953	1204.62
423.175	1241.62
423.398	1264.62
423.621	1257.62
423.843	1282.62
424.066	1260.62
424.288	1257.62
424.511	1267.62
424.733	1247.62
424.956	1207.62
425.178	1189.62
425.401	1168.62
425.623	1155.62
425.846	1131.62
426.068	1096.62
426.291	1102.62
426.513	1131.62
426.735	1079.62
426.958	1091.62
427.18	1063.62
427.402	1057.62
427.625	1053.62
427.847	1048.62
428.069	1055.62
428.292	1054.62
428.514	1006.62
428.736	1012.62
428.958	1045.62
429.181	1018.62
429.403	1031.62
429.625	1012.62
429.847	978.62
430.069	1008.62
430.292	1025.62
430.514	993.62
430.736	1021.62
430.958	1019.62
431.18	995.62
431.402	1008.62
431.624	1029.62
431.846	1052.62
432.068	1063.62
432.29	1064.62
432.512	1023.62
432.734	1048.62
432.956	1038.62
433.178	1056.62
433.4	1051.62
433.622	1064.62
433.844	1071.62
434.066	1066.62
434.287	1073.62
434.509	1129.62
434.731	1179.62
434.953	1171.62
435.175	1193.62
435.397	1142.62
435.618	1123.62
435.84	1073.62
436.062	1083.62
436.284	1052.62
436.505	1034.62
436.727	1020.62
436.949	1026.62
437.17	1034.62
437.392	1004.62
437.614	1020.62
437.835	983.62
438.057	1000.62
438.278	977.62
438.5	991.62
438.721	993.62
438.943	982.62
439.165	1023.62
439.386	1013.62
439.608	1029.62
439.829	1033.62
440.05	1025.62
440.272	1044.62
440.493	1047.62
440.715	1065.62
440.936	1080.62
441.158	1059.62
441.379	1103.62
441.6	1188.62
441.822	1199.62
442.043	1200.62
442.264	1168.62
442.486	1153.62
442.707	1115.62
442.928	1130.62
443.149	1177.62
443.371	1165.62
443.592	1159.62
443.813	1192.62
444.034	1208.62
444.255	1213.62
444.476	1289.62
444.698	1415.62
444.919	1451.62
445.14	1478.62
445.361	1339.62
445.582	1228.62
445.803	1118.62
446.024	1088.62
446.245	1081.62
446.466	1072.62
446.687	1037.62
446.908	1055.62
447.129	1020.62
447.35	984.62
447.571	979.62
447.792	975.62
448.013	996.62
448.234	963.62
448.455	962.62
448.675	946.62
448.896	960.62
449.117	943.62
449.338	930.62
449.559	933.62
449.779	965.62
450	942.62
450.221	947.62
450.442	970.62
450.662	976.62
450.883	964.62
451.104	1009.62
451.324	994.62
451.545	972.62
451.766	976.62
451.986	961.62
452.207	958.62
452.428	991.62
452.648	976.62
452.869	959.62
453.089	951.62
453.31	964.62
453.53	938.62
453.751	965.62
453.971	927.62
454.192	927.62
454.412	899.62
454.633	909.62
454.853	923.62
455.073	917.62
455.294	910.62
455.514	893.62
455.734	901.62
455.955	885.62
456.175	892.62
456.395	893.62
456.616	887.62
456.836	901.62
457.056	901.62
457.276	908.62
457.497	879.62
457.717	886.62
457.937	893.62
458.157	923.62
458.377	935.62
458.598	920.62
458.818	980.62
459.038	1024.62
459.258	1017.62
459.478	1048.62
459.698	1050.62
459.918	1127.62
460.138	1164.62
460.358	1234.62
460.578	1234.62
460.798	1252.62
461.018	1281.62
461.238	1278.62
461.458	1229.62
461.678	1195.62
461.898	1266.62
462.118	1256.62
462.338	1299.62
462.558	1368.62
462.777	1371.62
462.997	1545.62
463.217	1723.62
463.437	1777.62
463.657	1595.62
463.876	1500.62
464.096	1467.62
464.316	1480.62
464.536	1493.62
464.755	1462.62
464.975	1399.62
465.195	1298.62
465.414	1217.62
465.634	1145.62
465.854	1125.62
466.073	1096.62
466.293	1059.62
466.512	1052.62
466.732	1019.62
466.951	1019.62
467.171	1021.62
467.391	1021.62
467.61	1013.62
467.829	993.62
468.049	981.62
468.268	948.62
468.488	943.62
468.707	968.62
468.927	943.62
469.146	948.62
469.365	993.62
469.585	965.62
469.804	1032.62
470.023	1028.62
470.243	1032.62
470.462	1046.62
470.681	1052.62
470.901	1038.62
471.12	1032.62
471.339	971.62
471.558	962.62
471.777	955.62
471.997	959.62
472.216	969.62
472.435	935.62
472.654	960.62
472.873	920.62
473.092	941.62
473.311	908.62
473.53	940.62
473.749	923.62
473.968	929.62
474.187	929.62
474.406	948.62
474.625	911.62
474.844	940.62
475.063	945.62
475.282	940.62
475.501	954.62
475.72	956.62
475.939	968.62
476.158	926.62
476.377	945.62
476.596	975.62
476.814	1007.62
477.033	976.62
477.252	979.62
477.471	1013.62
477.69	1034.62
477.908	1101.62
478.127	1130.62
478.346	1139.62
478.564	1148.62
478.783	1145.62
479.002	1185.62
479.22	1201.62
479.439	1155.62
479.658	1179.62
479.876	1159.62
480.095	1181.62
480.313	1260.62
480.532	1323.62
480.751	1314.62
480.969	1187.62
481.188	1175.62
481.406	1149.62
481.624	1099.62
481.843	1077.62
482.061	1074.62
482.28	1074.62
482.498	1060.62
482.717	1039.62
482.935	1041.62
483.153	1073.62
483.372	1058.62
483.59	1066.62
483.808	1059.62
484.027	1079.62
484.245	1073.62
484.463	1079.62
484.681	1095.62
484.9	1091.62
485.118	1082.62
485.336	1108.62
485.554	1125.62
485.772	1148.62
485.99	1138.62
486.209	1132.62
486.427	1137.62
486.645	1153.62
486.863	1175.62
487.081	1132.62
487.299	1140.62
487.517	1135.62
487.735	1146.62
487.953	1106.62
488.171	1107.62
488.389	1111.62
488.607	1065.62
488.825	1085.62
489.043	1096.62
489.261	1109.62
489.479	1110.62
489.696	1104.62
489.914	1111.62
490.132	1116.62
490.35	1130.62
490.568	1101.62
490.786	1155.62
491.003	1115.62
491.221	1163.62
491.439	1120.62
491.657	1096.62
491.874	1105.62
492.092	1119.62
492.31	1142.62
492.527	1148.62
492.745	1146.62
492.963	1148.62
493.18	1136.62
493.398	1193.62
493.615	1173.62
493.833	1163.62
494.05	1171.62
494.268	1195.62
494.485	1209.62
494.703	1183.62
494.92	1203.62
495.138	1189.62
495.355	1163.62
495.573	1195.62
495.79	1196.62
496.008	1197.62
496.225	1155.62
496.442	1180.62
496.66	1243.62
496.877	1215.62
497.094	1246.62
497.312	1240.62
497.529	1282.62
497.746	1349.62
497.963	1396.62
498.181	1418.62
498.398	1499.62
498.615	1588.62
498.832	1691.62
499.049	1785.62
499.267	2009.62
499.484	2196.62
499.701	2456.62
499.918	2739.62
500.135	3170.62
500.352	3667.62
500.569	3940.62
500.786	3871.62
501.003	3569.62
501.22	3201.62
501.437	2723.62
501.654	2354.62
501.871	2150.62
502.088	1949.62
502.305	1790.62
502.522	1700.62
502.739	1668.62
502.956	1535.62
503.172	1483.62
503.389	1407.62
503.606	1367.62
503.823	1369.62
504.04	1391.62
504.256	1371.62
504.473	1403.62
504.69	1491.62
504.907	1443.62
505.123	1337.62
505.34	1252.62
505.557	1175.62
505.773	1172.62
505.99	1133.62
506.207	1126.62
506.423	1076.62
506.64	1055.62
506.856	1062.62
507.073	1076.62
507.289	1063.62
507.506	1043.62
507.722	1106.62
507.939	1037.62
508.155	1025.62
508.372	989.62
508.588	1013.62
508.805	981.62
509.021	993.62
509.238	992.62
509.454	989.62
509.67	967.62
509.887	963.62
510.103	952.62
510.319	957.62
510.536	967.62
510.752	959.62
510.968	941.62
511.184	967.62
511.401	984.62
511.617	956.62
511.833	959.62
512.049	955.62
512.265	953.62
512.481	953.62
512.698	953.62
512.914	981.62
513.13	954.62
513.346	956.62
513.562	949.62
513.778	964.62
513.994	965.62
514.21	963.62
514.426	968.62
514.642	949.62
514.858	968.62
515.074	985.62
515.29	1002.62
515.506	999.62
515.721	1004.62
515.937	1027.62
516.153	1031.62
516.369	1093.62
516.585	1130.62
516.801	1151.62
517.016	1229.62
517.232	1243.62
517.448	1350.62
517.664	1368.62
517.879	1386.62
518.095	1395.62
518.311	1349.62
518.527	1295.62
518.742	1250.62
518.958	1177.62
519.173	1123.62
519.389	1094.62
519.605	1061.62
519.82	1043.62
520.036	1023.62
520.251	982.62
520.467	982.62
520.682	976.62
520.898	971.62
521.113	970.62
521.329	939.62
521.544	944.62
521.76	938.62
521.975	927.62
522.19	927.62
522.406	920.62
522.621	901.62
522.836	905.62
523.052	900.62
523.267	871.62
523.482	902.62
523.698	869.62
523.913	870.62
524.128	901.62
524.343	875.62
524.559	891.62
524.774	887.62
524.989	886.62
525.204	867.62
525.419	890.62
525.634	871.62
525.849	884.62
526.064	884.62
526.28	874.62
526.495	837.62
526.71	867.62
526.925	888.62
527.14	858.62
527.355	863.62
527.57	884.62
527.785	857.62
527.999	864.62
528.214	870.62
528.429	891.62
528.644	895.62
528.859	899.62
529.074	899.62
529.289	858.62
529.503	852.62
529.718	872.62
529.933	864.62
530.148	865.62
530.363	859.62
530.577	852.62
530.792	841.62
531.007	879.62
531.221	872.62
531.436	872.62
531.651	880.62
531.865	859.62
532.08	876.62
532.295	897.62
532.509	870.62
532.724	865.62
532.938	879.62
533.153	905.62
533.367	870.62
533.582	866.62
533.796	885.62
534.011	853.62
534.225	864.62
534.44	864.62
534.654	867.62
534.868	853.62
535.083	881.62
535.297	872.62
535.511	850.62
535.726	873.62
535.94	824.62
536.154	799.62
536.369	809.62
536.583	801.62
536.797	837.62
537.011	818.62
537.225	812.62
537.44	811.62
537.654	795.62
537.868	799.62
538.082	809.62
538.296	782.62
538.51	765.62
538.724	794.62
538.938	818.62
539.153	798.62
539.367	781.62
539.581	795.62
539.795	777.62
540.009	790.62
540.222	784.62
540.436	786.62
540.65	770.62
540.864	771.62
541.078	774.62
541.292	772.62
541.506	778.62
541.72	779.62
541.934	767.62
542.147	803.62
542.361	784.62
542.575	753.62
542.789	772.62
543.002	765.62
543.216	782.62
543.43	770.62
543.644	768.62
543.857	756.62
544.071	766.62
544.285	786.62
544.498	778.62
544.712	765.62
544.925	784.62
545.139	800.62
545.352	805.62
545.566	787.62
545.779	823.62
545.993	788.62
546.206	804.62
546.42	786.62
546.633	756.62
546.847	790.62
547.06	771.62
547.274	784.62
547.487	781.62
547.7	791.62
547.914	807.62
548.127	819.62
548.34	807.62
548.554	800.62
548.767	787.62
548.98	812.62
549.193	804.62
549.407	800.62
549.62	828.62
549.833	829.62
550.046	817.62
550.259	819.62
550.473	781.62
550.686	779.62
550.899	777.62
551.112	796.62
551.325	772.62
551.538	759.62
551.751	767.62
551.964	801.62
552.177	801.62
552.39	789.62
552.603	796.62
552.816	835.62
553.029	844.62
553.242	874.62
553.455	896.62
553.667	899.62
553.88	895.62
554.093	867.62
554.306	825.62
554.519	826.62
554.732	788.62
554.944	778.62
555.157	774.62
555.37	777.62
555.583	742.62
555.795	783.62
556.008	724.62
556.221	724.62
556.433	705.62
556.646	716.62
556.859	688.62
557.071	705.62
557.284	709.62
557.496	688.62
557.709	662.62
557.921	691.62
558.134	682.62
558.346	669.62
558.559	685.62
558.771	665.62
558.984	673.62
559.196	652.62
559.409	663.62
559.621	654.62
559.833	675.62
560.046	653.62
560.258	657.62
560.47	649.62
560.683	653.62
560.895	663.62
561.107	645.62
561.32	651.62
561.532	661.62
561.744	668.62
561.956	657.62
562.168	666.62
562.381	640.62
562.593	664.62
562.805	678.62
563.017	678.62
563.229	650.62
563.441	655.62
563.653	663.62
563.865	669.62
564.077	656.62
564.289	674.62
564.501	691.62
564.713	706.62
564.925	699.62
565.137	709.62
565.349	728.62
565.561	734.62
565.773	782.62
565.985	816.62
566.197	890.62
566.408	914.62
566.62	1042.62
566.832	1115.62
567.044	1135.62
567.255	1123.62
567.467	1136.62
567.679	1238.62
567.891	1351.62
568.102	1425.62
568.314	1347.62
568.526	1161.62
568.737	1078.62
568.949	941.62
569.161	863.62
569.372	801.62
569.584	744.62
569.795	735.62
570.007	706.62
570.218	698.62
570.43	673.62
570.641	686.62
570.853	714.62
571.064	705.62
571.276	677.62
571.487	688.62
571.698	655.62
571.91	622.62
572.121	606.62
572.333	598.62
572.544	586.62
572.755	556.62
572.966	545.62
573.178	578.62
573.389	586.62
573.6	586.62
573.811	555.62
574.023	539.62
574.234	569.62
574.445	551.62
574.656	549.62
574.867	545.62
575.078	545.62
575.289	537.62
575.501	552.62
575.712	528.62
575.923	547.62
576.134	530.62
576.345	540.62
576.556	531.62
576.767	515.62
576.978	518.62
577.188	500.62
577.399	503.62
577.61	484.62
577.821	506.62
578.032	472.62
578.243	487.62
578.454	502.62
578.665	504.62
578.875	472.62
579.086	486.62
579.297	464.62
579.508	485.62
579.718	483.62
579.929	487.62
580.14	458.62
580.35	469.62
580.561	474.62
580.772	480.62
580.982	474.62
581.193	466.62
581.403	458.62
581.614	465.62
581.825	463.62
582.035	461.62
582.246	475.62
582.456	461.62
582.667	450.62
582.877	454.62
583.087	448.62
583.298	476.62
583.508	452.62
583.719	461.62
583.929	445.62
584.139	462.62
584.35	443.62
584.56	444.62
584.77	463.62
584.981	456.62
585.191	455.62
585.401	443.62
585.611	435.62
585.821	430.62
586.032	440.62
586.242	435.62
586.452	435.62
586.662	454.62
586.872	462.62
587.082	434.62
587.292	458.62
587.502	426.62
587.713	435.62
587.923	443.62
588.133	434.62
588.343	433.62
588.553	421.62
588.762	430.62
588.972	436.62
589.182	436.62
589.392	448.62
589.602	438.62
589.812	450.62
590.022	437.62
590.232	446.62
590.441	458.62
590.651	454.62
590.861	437.62
591.071	433.62
591.281	435.62
591.49	433.62
591.7	433.62
591.91	464.62
592.119	451.62
592.329	475.62
592.539	493.62
592.748	532.62
592.958	578.62
593.167	578.62
593.377	572.62
593.587	587.62
593.796	583.62
594.006	572.62
594.215	609.62
594.424	613.62
594.634	580.62
594.843	524.62
595.053	519.62
595.262	491.62
595.472	483.62
595.681	468.62
595.89	448.62
596.1	432.62
596.309	432.62
596.518	432.62
596.727	426.62
596.937	416.62
597.146	399.62
597.355	408.62
597.564	388.62
597.774	398.62
597.983	392.62
598.192	389.62
598.401	388.62
598.61	410.62
598.819	386.62
599.028	381.62
599.237	388.62
599.446	375.62
599.655	375.62
599.864	376.62
600.073	370.62
600.282	371.62
600.491	375.62
600.7	384.62
600.909	363.62
601.118	371.62
601.327	359.62
601.536	372.62
601.745	351.62
601.953	360.62
602.162	362.62
602.371	370.62
602.58	331.62
602.789	357.62
602.997	357.62
603.206	371.62
603.415	367.62
603.623	359.62
603.832	350.62
604.041	361.62
604.249	331.62
604.458	343.62
604.666	340.62
604.875	352.62
605.084	339.62
605.292	343.62
605.501	356.62
605.709	373.62
605.918	331.62
606.126	341.62
606.334	353.62
606.543	330.62
606.751	318.62
606.96	315.62
607.168	334.62
607.376	315.62
607.585	342.62
607.793	328.62
608.001	328.62
608.21	334.62
608.418	331.62
608.626	333.62
608.834	329.62
609.043	328.62
609.251	324.62
609.459	332.62
609.667	326.62
609.875	330.62
610.083	330.62
610.291	336.62
610.499	339.62
610.707	325.62
610.916	336.62
611.124	322.62
611.332	323.62
611.54	336.62
611.748	327.62
611.955	334.62
612.163	327.62
612.371	316.62
612.579	315.62
612.787	339.62
612.995	307.62
613.203	312.62
613.411	311.62
613.618	325.62
613.826	321.62
614.034	326.62
614.242	335.62
614.449	323.62
614.657	317.62
614.865	322.62
615.072	333.62
615.28	327.62
615.488	336.62
615.695	320.62
615.903	329.62
616.111	332.62
616.318	330.62
616.526	339.62
616.733	317.62
616.941	317.62
617.148	321.62
617.356	323.62
617.563	327.62
617.771	340.62
617.978	313.62
618.185	317.62
618.393	320.62
618.6	324.62
618.807	310.62
619.015	311.62
619.222	300.62
619.429	324.62
619.637	316.62
619.844	312.62
620.051	304.62
620.258	319.62
620.466	300.62
620.673	287.62
620.88	275.62
621.087	277.62
621.294	292.62
621.501	294.62
621.708	295.62
621.915	310.62
622.122	279.62
622.329	300.62
622.536	306.62
622.743	295.62
622.95	287.62
623.157	284.62
623.364	288.62
623.571	280.62
623.778	307.62
623.985	291.62
624.192	270.62
624.399	262.62
624.606	298.62
624.812	298.62
625.019	272.62
625.226	272.62
625.433	283.62
625.639	278.62
625.846	290.62
626.053	279.62
626.259	268.62
626.466	273.62
626.673	265.62
626.879	269.62
627.086	272.62
627.293	265.62
627.499	247.62
627.706	266.62
627.912	278.62
628.119	245.62
628.325	273.62
628.532	255.62
628.738	270.62
628.945	256.62
629.151	240.62
629.357	247.62
629.564	260.62
629.77	253.62
629.976	260.62
630.183	273.62
630.389	261.62
630.595	244.62
630.802	250.62
631.008	223.62
631.214	236.62
631.42	232.62
631.627	250.62
631.833	242.62
632.039	250.62
632.245	225.62
632.451	234.62
632.657	225.62
632.863	225.62
633.069	228.62
633.275	234.62
633.481	245.62
633.688	239.62
633.893	241.62
634.099	244.62
634.305	228.62
634.511	220.62
634.717	219.62
634.923	227.62
635.129	226.62
635.335	221.62
635.541	225.62
635.747	224.62
635.952	224.62
636.158	232.62
636.364	225.62
636.57	227.62
636.775	219.62
636.981	238.62
637.187	226.62
637.392	217.62
637.598	202.62
637.804	223.62
638.009	222.62
638.215	226.62
638.421	214.62
638.626	232.62
638.832	219.62
639.037	225.62
639.243	207.62
639.448	219.62
639.654	223.62
639.859	200.62
640.065	194.62
640.27	236.62
640.475	217.62
640.681	203.62
640.886	203.62
641.091	213.62
641.297	224.62
641.502	211.62
641.707	201.62
641.913	233.62
642.118	213.62
642.323	196.62
642.528	208.62
642.733	204.62
642.939	177.62
643.144	208.62
643.349	207.62
643.554	205.62
643.759	204.62
643.964	194.62
644.169	207.62
644.374	193.62
644.579	204.62
644.784	207.62
644.989	213.62
645.194	212.62
645.399	200.62
645.604	204.62
645.809	217.62
646.014	212.62
646.219	206.62
646.423	208.62
646.628	209.62
646.833	210.62
647.038	211.62
647.243	212.62
647.447	231.62
647.652	218.62
647.857	220.62
648.062	216.62
648.266	230.62
648.471	220.62
648.676	233.62
648.88	224.62
649.085	215.62
649.289	197.62
649.494	207.62
649.698	213.62
649.903	201.62
650.107	213.62
650.312	194.62
650.516	206.62
650.721	186.62
650.925	178.62
651.13	180.62
651.334	184.62
651.539	173.62
651.743	194.62
651.947	175.62
652.152	177.62
652.356	157.62
652.56	161.62
652.764	161.62
652.969	167.62
653.173	159.62
653.377	156.62
653.581	148.62
653.785	163.62
653.99	151.62
654.194	149.62
654.398	155.62
654.602	140.62
654.806	164.62
655.01	155.62
655.214	141.62
655.418	155.62
655.622	157.62
655.826	130.62
656.03	155.62
656.234	148.62
656.438	147.62
656.642	141.62
656.846	150.62
657.049	143.62
657.253	112.62
657.457	138.62
657.661	104.62
657.865	106.62
658.068	128.62
658.272	122.62
658.476	110.62
658.68	123.62
658.883	89.62
659.087	129.62
659.291	106.62
659.494	87.62
659.698	116.62
659.901	118.62
660.105	109.62
660.309	83.62
660.512	90.62
660.716	98.62
660.919	105.62
661.123	98.62
661.326	93.62
661.53	97.62
661.733	81.62
661.936	89.62
662.14	86.62
662.343	99.62
662.546	84.62
662.75	73.62
662.953	82.62
663.156	86.62
663.36	89.62
663.563	100.62
663.766	78.62
663.969	83.62
664.173	76.62
664.376	86.62
664.579	80.62
664.782	84.62
664.985	88.62
665.188	88.62
665.391	87.62
665.594	79.62
665.797	89.62
666	79.62
666.203	85.62
666.406	83.62
666.609	69.62
666.812	83.62
667.015	75.62
667.218	95.62
667.421	84.62
667.624	83.62
667.827	72.62
668.03	77.62
668.232	77.62
668.435	78.62
668.638	93.62
668.841	88.62
669.043	84.62
669.246	79.62
669.449	89.62
669.651	87.62
669.854	85.62
670.057	53.62
670.259	86.62
670.462	78.62
670.665	79.62
670.867	87.62
671.07	76.62
671.272	93.62
671.475	88.62
671.677	78.62
671.88	76.62
672.082	87.62
672.284	96.62
672.487	81.62
672.689	69.62
672.892	79.62
