Data from Ni(NO3)2@0.125M.TitratingCurve.Agarose3%dH2O.NegLispCup.LampEnergy10.LIBS07252019_HRD10591_18-08-51-567.txt Node
Date: Thu Jul 25 18:08:51 EDT 2019
User: cochatt
Spectrometer: HR+D1059
Trigger mode: 1
Integration Time (sec): 1.000000E-1
Scans to average: 1
Electric dark correction enabled: true
Nonlinearity correction enabled: false
Boxcar width: 0
XAxis mode: Wavelengths
Number of Pixels in Spectrum: 2048
>>>>>Begin Spectral Data<<<<<
223.165	-21.75
223.4	-21.75
223.635	-21.75
223.869	-6.75
224.104	-7.75
224.338	-11.75
224.573	-10.75
224.808	-25.75
225.042	-8.75
225.277	-16.75
225.511	6.25
225.746	7.25
225.98	-0.75
226.215	16.25
226.449	8.25
226.683	19.25
226.918	24.25
227.152	29.25
227.387	33.25
227.621	40.25
227.856	46.25
228.09	56.25
228.324	42.25
228.559	55.25
228.793	67.25
229.027	92.25
229.262	110.25
229.496	104.25
229.73	123.25
229.964	116.25
230.199	126.25
230.433	130.25
230.667	114.25
230.901	124.25
231.136	129.25
231.37	136.25
231.604	143.25
231.838	147.25
232.072	123.25
232.306	143.25
232.541	149.25
232.775	146.25
233.009	130.25
233.243	142.25
233.477	165.25
233.711	148.25
233.945	135.25
234.179	159.25
234.413	137.25
234.647	142.25
234.881	150.25
235.115	149.25
235.349	150.25
235.583	146.25
235.817	153.25
236.051	155.25
236.285	153.25
236.519	149.25
236.753	154.25
236.987	151.25
237.221	141.25
237.455	152.25
237.689	148.25
237.922	153.25
238.156	160.25
238.39	161.25
238.624	174.25
238.858	176.25
239.091	164.25
239.325	180.25
239.559	167.25
239.793	172.25
240.027	174.25
240.26	177.25
240.494	166.25
240.728	174.25
240.961	175.25
241.195	197.25
241.429	172.25
241.662	189.25
241.896	188.25
242.13	197.25
242.363	201.25
242.597	197.25
242.83	191.25
243.064	189.25
243.298	205.25
243.531	210.25
243.765	193.25
243.998	205.25
244.232	184.25
244.465	204.25
244.699	210.25
244.932	208.25
245.166	203.25
245.399	213.25
245.633	218.25
245.866	212.25
246.099	214.25
246.333	225.25
246.566	225.25
246.8	203.25
247.033	213.25
247.266	220.25
247.5	226.25
247.733	225.25
247.966	230.25
248.2	215.25
248.433	239.25
248.666	222.25
248.899	236.25
249.133	231.25
249.366	249.25
249.599	234.25
249.832	230.25
250.066	251.25
250.299	249.25
250.532	254.25
250.765	242.25
250.998	260.25
251.231	271.25
251.465	261.25
251.698	239.25
251.931	253.25
252.164	265.25
252.397	262.25
252.63	262.25
252.863	271.25
253.096	289.25
253.329	267.25
253.562	280.25
253.795	265.25
254.028	267.25
254.261	276.25
254.494	271.25
254.727	267.25
254.96	259.25
255.193	270.25
255.426	298.25
255.659	278.25
255.892	305.25
256.124	287.25
256.357	286.25
256.59	270.25
256.823	301.25
257.056	299.25
257.289	289.25
257.521	327.25
257.754	320.25
257.987	307.25
258.22	310.25
258.452	292.25
258.685	294.25
258.918	340.25
259.151	314.25
259.383	307.25
259.616	306.25
259.849	305.25
260.081	300.25
260.314	312.25
260.547	339.25
260.779	329.25
261.012	319.25
261.244	327.25
261.477	326.25
261.71	327.25
261.942	329.25
262.175	331.25
262.407	343.25
262.64	319.25
262.872	314.25
263.105	313.25
263.337	342.25
263.57	358.25
263.802	341.25
264.035	343.25
264.267	334.25
264.499	330.25
264.732	341.25
264.964	361.25
265.197	356.25
265.429	360.25
265.661	351.25
265.894	349.25
266.126	365.25
266.358	359.25
266.591	385.25
266.823	374.25
267.055	357.25
267.287	359.25
267.52	371.25
267.752	383.25
267.984	365.25
268.216	366.25
268.448	373.25
268.681	375.25
268.913	371.25
269.145	383.25
269.377	365.25
269.609	385.25
269.841	375.25
270.073	368.25
270.306	385.25
270.538	394.25
270.77	360.25
271.002	361.25
271.234	372.25
271.466	379.25
271.698	385.25
271.93	408.25
272.162	380.25
272.394	383.25
272.626	396.25
272.858	376.25
273.09	412.25
273.322	397.25
273.553	393.25
273.785	405.25
274.017	398.25
274.249	407.25
274.481	399.25
274.713	422.25
274.945	411.25
275.176	410.25
275.408	405.25
275.64	423.25
275.872	427.25
276.104	444.25
276.335	388.25
276.567	410.25
276.799	418.25
277.031	443.25
277.262	427.25
277.494	422.25
277.726	437.25
277.957	438.25
278.189	442.25
278.421	442.25
278.652	423.25
278.884	413.25
279.115	411.25
279.347	430.25
279.579	446.25
279.81	452.25
280.042	447.25
280.273	442.25
280.505	431.25
280.736	428.25
280.968	444.25
281.199	430.25
281.431	449.25
281.662	431.25
281.894	463.25
282.125	459.25
282.356	454.25
282.588	445.25
282.819	438.25
283.051	449.25
283.282	467.25
283.513	470.25
283.745	461.25
283.976	466.25
284.207	473.25
284.439	466.25
284.67	475.25
284.901	486.25
285.132	473.25
285.364	465.25
285.595	474.25
285.826	490.25
286.057	475.25
286.288	466.25
286.52	500.25
286.751	482.25
286.982	489.25
287.213	490.25
287.444	505.25
287.675	491.25
287.906	491.25
288.138	487.25
288.369	502.25
288.6	501.25
288.831	526.25
289.062	493.25
289.293	505.25
289.524	509.25
289.755	498.25
289.986	505.25
290.217	499.25
290.448	503.25
290.679	503.25
290.91	505.25
291.141	487.25
291.371	507.25
291.602	502.25
291.833	495.25
292.064	509.25
292.295	518.25
292.526	517.25
292.757	524.25
292.987	522.25
293.218	514.25
293.449	516.25
293.68	514.25
293.91	497.25
294.141	513.25
294.372	510.25
294.603	523.25
294.833	533.25
295.064	535.25
295.295	524.25
295.525	525.25
295.756	525.25
295.987	522.25
296.217	523.25
296.448	538.25
296.679	534.25
296.909	539.25
297.14	526.25
297.37	549.25
297.601	569.25
297.831	537.25
298.062	549.25
298.292	561.25
298.523	574.25
298.753	575.25
298.984	561.25
299.214	581.25
299.445	540.25
299.675	558.25
299.905	571.25
300.136	534.25
300.366	557.25
300.597	579.25
300.827	581.25
301.057	577.25
301.288	575.25
301.518	581.25
301.748	579.25
301.979	577.25
302.209	599.25
302.439	581.25
302.669	595.25
302.9	565.25
303.13	561.25
303.36	568.25
303.59	573.25
303.82	562.25
304.051	572.25
304.281	587.25
304.511	584.25
304.741	579.25
304.971	591.25
305.201	578.25
305.431	594.25
305.661	567.25
305.891	578.25
306.121	546.25
306.352	569.25
306.582	566.25
306.812	561.25
307.042	558.25
307.272	556.25
307.502	556.25
307.731	565.25
307.961	556.25
308.191	564.25
308.421	561.25
308.651	570.25
308.881	557.25
309.111	571.25
309.341	557.25
309.571	566.25
309.8	559.25
310.03	554.25
310.26	543.25
310.49	553.25
310.72	578.25
310.949	569.25
311.179	561.25
311.409	563.25
311.639	572.25
311.868	561.25
312.098	589.25
312.328	607.25
312.557	610.25
312.787	600.25
313.017	585.25
313.246	584.25
313.476	609.25
313.706	590.25
313.935	601.25
314.165	614.25
314.394	641.25
314.624	627.25
314.853	618.25
315.083	618.25
315.312	634.25
315.542	600.25
315.771	616.25
316.001	594.25
316.23	597.25
316.46	607.25
316.689	591.25
316.919	590.25
317.148	578.25
317.377	591.25
317.607	608.25
317.836	589.25
318.065	609.25
318.295	589.25
318.524	602.25
318.753	589.25
318.983	592.25
319.212	598.25
319.441	600.25
319.67	612.25
319.9	598.25
320.129	596.25
320.358	596.25
320.587	588.25
320.816	590.25
321.046	619.25
321.275	598.25
321.504	617.25
321.733	604.25
321.962	607.25
322.191	612.25
322.42	627.25
322.649	612.25
322.878	625.25
323.108	616.25
323.337	627.25
323.566	627.25
323.795	623.25
324.024	629.25
324.253	635.25
324.482	622.25
324.71	614.25
324.939	648.25
325.168	631.25
325.397	642.25
325.626	644.25
325.855	660.25
326.084	668.25
326.313	678.25
326.542	700.25
326.77	700.25
326.999	649.25
327.228	670.25
327.457	663.25
327.686	661.25
327.914	650.25
328.143	654.25
328.372	673.25
328.6	683.25
328.829	674.25
329.058	656.25
329.287	691.25
329.515	684.25
329.744	672.25
329.972	690.25
330.201	700.25
330.43	701.25
330.658	705.25
330.887	709.25
331.115	725.25
331.344	720.25
331.572	737.25
331.801	717.25
332.03	753.25
332.258	769.25
332.486	802.25
332.715	828.25
332.943	872.25
333.172	892.25
333.4	920.25
333.629	938.25
333.857	955.25
334.085	940.25
334.314	862.25
334.542	889.25
334.771	860.25
334.999	835.25
335.227	870.25
335.455	878.25
335.684	847.25
335.912	844.25
336.14	839.25
336.369	818.25
336.597	824.25
336.825	872.25
337.053	827.25
337.281	807.25
337.51	789.25
337.738	799.25
337.966	776.25
338.194	760.25
338.422	737.25
338.65	740.25
338.878	733.25
339.106	759.25
339.334	756.25
339.562	766.25
339.79	731.25
340.018	727.25
340.246	717.25
340.474	720.25
340.702	723.25
340.93	701.25
341.158	733.25
341.386	733.25
341.614	720.25
341.842	729.25
342.07	710.25
342.298	732.25
342.526	709.25
342.754	730.25
342.981	717.25
343.209	744.25
343.437	774.25
343.665	827.25
343.893	870.25
344.12	949.25
344.348	859.25
344.576	844.25
344.804	822.25
345.031	761.25
345.259	731.25
345.487	708.25
345.714	731.25
345.942	711.25
346.17	723.25
346.397	707.25
346.625	729.25
346.853	713.25
347.08	693.25
347.308	729.25
347.535	712.25
347.763	711.25
347.99	721.25
348.218	727.25
348.445	724.25
348.673	709.25
348.9	716.25
349.128	704.25
349.355	685.25
349.583	708.25
349.81	700.25
350.037	681.25
350.265	686.25
350.492	658.25
350.72	674.25
350.947	665.25
351.174	679.25
351.402	686.25
351.629	683.25
351.856	686.25
352.083	660.25
352.311	675.25
352.538	681.25
352.765	679.25
352.992	680.25
353.22	640.25
353.447	662.25
353.674	641.25
353.901	669.25
354.128	671.25
354.355	665.25
354.583	654.25
354.81	682.25
355.037	679.25
355.264	677.25
355.491	672.25
355.718	670.25
355.945	676.25
356.172	688.25
356.399	672.25
356.626	681.25
356.853	691.25
357.08	678.25
357.307	671.25
357.534	695.25
357.761	676.25
357.988	659.25
358.215	653.25
358.441	653.25
358.668	664.25
358.895	670.25
359.122	653.25
359.349	653.25
359.576	658.25
359.802	691.25
360.029	653.25
360.256	681.25
360.483	676.25
360.709	671.25
360.936	679.25
361.163	681.25
361.39	681.25
361.616	693.25
361.843	677.25
362.07	656.25
362.296	683.25
362.523	682.25
362.749	677.25
362.976	645.25
363.203	659.25
363.429	662.25
363.656	652.25
363.882	663.25
364.109	647.25
364.335	671.25
364.562	652.25
364.788	648.25
365.015	677.25
365.241	669.25
365.468	667.25
365.694	665.25
365.92	647.25
366.147	673.25
366.373	673.25
366.599	668.25
366.826	663.25
367.052	669.25
367.278	650.25
367.505	673.25
367.731	666.25
367.957	655.25
368.184	645.25
368.41	685.25
368.636	673.25
368.862	676.25
369.089	677.25
369.315	669.25
369.541	680.25
369.767	682.25
369.993	697.25
370.219	702.25
370.445	714.25
370.672	682.25
370.898	709.25
371.124	719.25
371.35	734.25
371.576	747.25
371.802	720.25
372.028	725.25
372.254	721.25
372.48	731.25
372.706	744.25
372.932	754.25
373.158	753.25
373.384	729.25
373.61	731.25
373.835	727.25
374.061	717.25
374.287	729.25
374.513	754.25
374.739	780.25
374.965	791.25
375.191	823.25
375.416	803.25
375.642	773.25
375.868	763.25
376.094	742.25
376.319	746.25
376.545	737.25
376.771	754.25
376.997	727.25
377.222	736.25
377.448	720.25
377.674	741.25
377.899	701.25
378.125	694.25
378.35	724.25
378.576	729.25
378.802	714.25
379.027	733.25
379.253	715.25
379.478	700.25
379.704	703.25
379.929	713.25
380.155	706.25
380.38	719.25
380.606	717.25
380.831	706.25
381.057	694.25
381.282	696.25
381.507	697.25
381.733	732.25
381.958	738.25
382.184	713.25
382.409	743.25
382.634	732.25
382.86	745.25
383.085	775.25
383.31	788.25
383.535	806.25
383.761	786.25
383.986	818.25
384.211	805.25
384.436	813.25
384.662	844.25
384.887	849.25
385.112	858.25
385.337	865.25
385.562	871.25
385.787	878.25
386.013	890.25
386.238	879.25
386.463	861.25
386.688	892.25
386.913	840.25
387.138	824.25
387.363	827.25
387.588	817.25
387.813	837.25
388.038	861.25
388.263	838.25
388.488	847.25
388.713	845.25
388.938	811.25
389.163	830.25
389.387	832.25
389.612	825.25
389.837	839.25
390.062	837.25
390.287	821.25
390.512	850.25
390.736	855.25
390.961	844.25
391.186	857.25
391.411	907.25
391.636	945.25
391.86	942.25
392.085	979.25
392.31	959.25
392.534	951.25
392.759	918.25
392.984	899.25
393.208	902.25
393.433	904.25
393.658	923.25
393.882	893.25
394.107	939.25
394.331	959.25
394.556	962.25
394.78	919.25
395.005	931.25
395.229	907.25
395.454	964.25
395.678	975.25
395.903	971.25
396.127	936.25
396.352	928.25
396.576	912.25
396.801	881.25
397.025	908.25
397.249	904.25
397.474	956.25
397.698	939.25
397.922	958.25
398.147	955.25
398.371	972.25
398.595	1006.25
398.82	1033.25
399.044	1115.25
399.268	1260.25
399.492	1429.25
399.717	1673.25
399.941	1693.25
400.165	1449.25
400.389	1285.25
400.613	1191.25
400.837	1110.25
401.062	1106.25
401.286	1074.25
401.51	1046.25
401.734	1061.25
401.958	1068.25
402.182	1092.25
402.406	1103.25
402.63	1107.25
402.854	1134.25
403.078	1164.25
403.302	1193.25
403.526	1223.25
403.75	1242.25
403.974	1299.25
404.198	1272.25
404.422	1290.25
404.645	1309.25
404.869	1296.25
405.093	1241.25
405.317	1212.25
405.541	1194.25
405.765	1231.25
405.988	1152.25
406.212	1191.25
406.436	1184.25
406.66	1218.25
406.883	1205.25
407.107	1283.25
407.331	1375.25
407.555	1454.25
407.778	1405.25
408.002	1383.25
408.226	1315.25
408.449	1308.25
408.673	1253.25
408.896	1227.25
409.12	1221.25
409.344	1239.25
409.567	1260.25
409.791	1260.25
410.014	1230.25
410.238	1267.25
410.461	1231.25
410.685	1193.25
410.908	1168.25
411.132	1165.25
411.355	1145.25
411.578	1126.25
411.802	1101.25
412.025	1137.25
412.249	1139.25
412.472	1128.25
412.695	1121.25
412.919	1085.25
413.142	1090.25
413.365	1079.25
413.589	1109.25
413.812	1094.25
414.035	1029.25
414.258	1065.25
414.482	1095.25
414.705	1094.25
414.928	1120.25
415.151	1094.25
415.374	1090.25
415.597	1081.25
415.821	1076.25
416.044	1067.25
416.267	1067.25
416.49	1065.25
416.713	1077.25
416.936	1047.25
417.159	1090.25
417.382	1079.25
417.605	1078.25
417.828	1084.25
418.051	1074.25
418.274	1087.25
418.497	1095.25
418.72	1126.25
418.943	1112.25
419.166	1189.25
419.389	1287.25
419.611	1242.25
419.834	1166.25
420.057	1123.25
420.28	1094.25
420.503	1075.25
420.726	1080.25
420.948	1079.25
421.171	1057.25
421.394	1083.25
421.617	1095.25
421.839	1085.25
422.062	1098.25
422.285	1070.25
422.507	1129.25
422.73	1117.25
422.953	1124.25
423.175	1154.25
423.398	1182.25
423.621	1171.25
423.843	1182.25
424.066	1190.25
424.288	1177.25
424.511	1161.25
424.733	1150.25
424.956	1164.25
425.178	1131.25
425.401	1121.25
425.623	1105.25
425.846	1038.25
426.068	1035.25
426.291	1033.25
426.513	1044.25
426.735	1010.25
426.958	1049.25
427.18	989.25
427.402	986.25
427.625	1010.25
427.847	977.25
428.069	979.25
428.292	993.25
428.514	963.25
428.736	957.25
428.958	953.25
429.181	953.25
429.403	963.25
429.625	958.25
429.847	921.25
430.069	935.25
430.292	942.25
430.514	947.25
430.736	954.25
430.958	967.25
431.18	933.25
431.402	937.25
431.624	958.25
431.846	973.25
432.068	988.25
432.29	1004.25
432.512	951.25
432.734	980.25
432.956	959.25
433.178	982.25
433.4	988.25
433.622	1011.25
433.844	1018.25
434.066	994.25
434.287	1001.25
434.509	1028.25
434.731	1078.25
434.953	1122.25
435.175	1131.25
435.397	1122.25
435.618	1050.25
435.84	1028.25
436.062	1000.25
436.284	977.25
436.505	976.25
436.727	1002.25
436.949	993.25
437.17	988.25
437.392	990.25
437.614	967.25
437.835	977.25
438.057	945.25
438.278	946.25
438.5	962.25
438.721	963.25
438.943	949.25
439.165	961.25
439.386	963.25
439.608	1007.25
439.829	997.25
440.05	995.25
440.272	1002.25
440.493	975.25
440.715	1010.25
440.936	1035.25
441.158	1071.25
441.379	1082.25
441.6	1132.25
441.822	1169.25
442.043	1181.25
442.264	1134.25
442.486	1103.25
442.707	1119.25
442.928	1081.25
443.149	1093.25
443.371	1103.25
443.592	1115.25
443.813	1109.25
444.034	1139.25
444.255	1173.25
444.476	1230.25
444.698	1319.25
444.919	1371.25
445.14	1474.25
445.361	1249.25
445.582	1154.25
445.803	1102.25
446.024	1062.25
446.245	1043.25
446.466	1039.25
446.687	1010.25
446.908	1041.25
447.129	965.25
447.35	938.25
447.571	971.25
447.792	937.25
448.013	934.25
448.234	928.25
448.455	961.25
448.675	934.25
448.896	940.25
449.117	908.25
449.338	932.25
449.559	920.25
449.779	897.25
450	900.25
450.221	918.25
450.442	950.25
450.662	930.25
450.883	940.25
451.104	977.25
451.324	949.25
451.545	937.25
451.766	950.25
451.986	917.25
452.207	920.25
452.428	903.25
452.648	925.25
452.869	902.25
453.089	896.25
453.31	907.25
453.53	904.25
453.751	891.25
453.971	906.25
454.192	920.25
454.412	894.25
454.633	919.25
454.853	894.25
455.073	876.25
455.294	887.25
455.514	871.25
455.734	861.25
455.955	849.25
456.175	849.25
456.395	847.25
456.616	818.25
456.836	845.25
457.056	843.25
457.276	825.25
457.497	831.25
457.717	871.25
457.937	883.25
458.157	854.25
458.377	844.25
458.598	885.25
458.818	915.25
459.038	954.25
459.258	997.25
459.478	1032.25
459.698	1021.25
459.918	1075.25
460.138	1129.25
460.358	1174.25
460.578	1205.25
460.798	1142.25
461.018	1224.25
461.238	1185.25
461.458	1164.25
461.678	1184.25
461.898	1213.25
462.118	1211.25
462.338	1282.25
462.558	1329.25
462.777	1340.25
462.997	1469.25
463.217	1646.25
463.437	1649.25
463.657	1481.25
463.876	1417.25
464.096	1396.25
464.316	1409.25
464.536	1388.25
464.755	1347.25
464.975	1305.25
465.195	1223.25
465.414	1155.25
465.634	1087.25
465.854	1068.25
466.073	1013.25
466.293	1010.25
466.512	965.25
466.732	978.25
466.951	973.25
467.171	950.25
467.391	973.25
467.61	961.25
467.829	962.25
468.049	983.25
468.268	903.25
468.488	907.25
468.707	937.25
468.927	926.25
469.146	913.25
469.365	953.25
469.585	942.25
469.804	964.25
470.023	960.25
470.243	1009.25
470.462	995.25
470.681	1027.25
470.901	1028.25
471.12	999.25
471.339	970.25
471.558	969.25
471.777	952.25
471.997	956.25
472.216	929.25
472.435	919.25
472.654	893.25
472.873	892.25
473.092	917.25
473.311	898.25
473.53	891.25
473.749	903.25
473.968	912.25
474.187	887.25
474.406	895.25
474.625	888.25
474.844	897.25
475.063	893.25
475.282	941.25
475.501	898.25
475.72	925.25
475.939	942.25
476.158	912.25
476.377	921.25
476.596	930.25
476.814	917.25
477.033	928.25
477.252	975.25
477.471	978.25
477.69	1013.25
477.908	1024.25
478.127	1070.25
478.346	1096.25
478.564	1091.25
478.783	1124.25
479.002	1125.25
479.22	1137.25
479.439	1136.25
479.658	1117.25
479.876	1132.25
480.095	1163.25
480.313	1190.25
480.532	1214.25
480.751	1227.25
480.969	1170.25
481.188	1113.25
481.406	1102.25
481.624	1076.25
481.843	1024.25
482.061	1010.25
482.28	1035.25
482.498	1008.25
482.717	994.25
482.935	1005.25
483.153	1026.25
483.372	1043.25
483.59	1049.25
483.808	1048.25
484.027	1015.25
484.245	1021.25
484.463	1037.25
484.681	1074.25
484.9	1079.25
485.118	1093.25
485.336	1082.25
485.554	1073.25
485.772	1104.25
485.99	1102.25
486.209	1087.25
486.427	1106.25
486.645	1087.25
486.863	1112.25
487.081	1123.25
487.299	1078.25
487.517	1075.25
487.735	1051.25
487.953	1082.25
488.171	1090.25
488.389	1094.25
488.607	1078.25
488.825	1054.25
489.043	1067.25
489.261	1077.25
489.479	1123.25
489.696	1080.25
489.914	1073.25
490.132	1096.25
490.35	1062.25
490.568	1066.25
490.786	1086.25
491.003	1081.25
491.221	1108.25
491.439	1119.25
491.657	1091.25
491.874	1075.25
492.092	1090.25
492.31	1146.25
492.527	1139.25
492.745	1139.25
492.963	1123.25
493.18	1101.25
493.398	1100.25
493.615	1154.25
493.833	1134.25
494.05	1152.25
494.268	1180.25
494.485	1171.25
494.703	1154.25
494.92	1156.25
495.138	1137.25
495.355	1159.25
495.573	1179.25
495.79	1159.25
496.008	1177.25
496.225	1198.25
496.442	1173.25
496.66	1167.25
496.877	1194.25
497.094	1245.25
497.312	1246.25
497.529	1254.25
497.746	1250.25
497.963	1313.25
498.181	1394.25
498.398	1437.25
498.615	1576.25
498.832	1657.25
499.049	1756.25
499.267	1894.25
499.484	2070.25
499.701	2357.25
499.918	2560.25
500.135	2992.25
500.352	3524.25
500.569	3747.25
500.786	3687.25
501.003	3421.25
501.22	3011.25
501.437	2601.25
501.654	2252.25
501.871	2025.25
502.088	1847.25
502.305	1750.25
502.522	1649.25
502.739	1564.25
502.956	1497.25
503.172	1454.25
503.389	1349.25
503.606	1340.25
503.823	1324.25
504.04	1331.25
504.256	1343.25
504.473	1352.25
504.69	1415.25
504.907	1400.25
505.123	1257.25
505.34	1220.25
505.557	1150.25
505.773	1143.25
505.99	1117.25
506.207	1095.25
506.423	1077.25
506.64	1069.25
506.856	1079.25
507.073	1043.25
507.289	1031.25
507.506	1014.25
507.722	1012.25
507.939	1006.25
508.155	958.25
508.372	985.25
508.588	961.25
508.805	969.25
509.021	965.25
509.238	957.25
509.454	932.25
509.67	958.25
509.887	966.25
510.103	971.25
510.319	954.25
510.536	945.25
510.752	933.25
510.968	939.25
511.184	923.25
511.401	934.25
511.617	939.25
511.833	905.25
512.049	910.25
512.265	960.25
512.481	933.25
512.698	923.25
512.914	926.25
513.13	947.25
513.346	923.25
513.562	935.25
513.778	921.25
513.994	929.25
514.21	925.25
514.426	906.25
514.642	947.25
514.858	954.25
515.074	986.25
515.29	966.25
515.506	983.25
515.721	972.25
515.937	982.25
516.153	1002.25
516.369	1055.25
516.585	1075.25
516.801	1109.25
517.016	1151.25
517.232	1219.25
517.448	1265.25
517.664	1352.25
517.879	1326.25
518.095	1359.25
518.311	1331.25
518.527	1235.25
518.742	1185.25
518.958	1119.25
519.173	1102.25
519.389	1079.25
519.605	1003.25
519.82	1014.25
520.036	1025.25
520.251	977.25
520.467	959.25
520.682	949.25
520.898	961.25
521.113	955.25
521.329	907.25
521.544	930.25
521.76	918.25
521.975	878.25
522.19	883.25
522.406	915.25
522.621	878.25
522.836	878.25
523.052	898.25
523.267	892.25
523.482	864.25
523.698	868.25
523.913	868.25
524.128	869.25
524.343	865.25
524.559	861.25
524.774	848.25
524.989	865.25
525.204	868.25
525.419	864.25
525.634	871.25
525.849	884.25
526.064	868.25
526.28	852.25
526.495	828.25
526.71	841.25
526.925	859.25
527.14	841.25
527.355	845.25
527.57	866.25
527.785	883.25
527.999	853.25
528.214	851.25
528.429	866.25
528.644	848.25
528.859	861.25
529.074	865.25
529.289	870.25
529.503	845.25
529.718	893.25
529.933	853.25
530.148	848.25
530.363	823.25
530.577	859.25
530.792	844.25
531.007	841.25
531.221	843.25
531.436	860.25
531.651	869.25
531.865	853.25
532.08	847.25
532.295	854.25
532.509	854.25
532.724	828.25
532.938	856.25
533.153	869.25
533.367	854.25
533.582	869.25
533.796	847.25
534.011	875.25
534.225	857.25
534.44	867.25
534.654	829.25
534.868	847.25
535.083	837.25
535.297	811.25
535.511	829.25
535.726	793.25
535.94	827.25
536.154	846.25
536.369	819.25
536.583	797.25
536.797	809.25
537.011	797.25
537.225	788.25
537.44	779.25
537.654	791.25
537.868	762.25
538.082	753.25
538.296	749.25
538.51	763.25
538.724	791.25
538.938	797.25
539.153	772.25
539.367	767.25
539.581	801.25
539.795	779.25
540.009	779.25
540.222	763.25
540.436	763.25
540.65	739.25
540.864	761.25
541.078	768.25
541.292	774.25
541.506	767.25
541.72	770.25
541.934	809.25
542.147	786.25
542.361	749.25
542.575	772.25
542.789	794.25
543.002	747.25
543.216	772.25
543.43	767.25
543.644	751.25
543.857	746.25
544.071	771.25
544.285	770.25
544.498	773.25
544.712	777.25
544.925	776.25
545.139	773.25
545.352	796.25
545.566	830.25
545.779	798.25
545.993	794.25
546.206	782.25
546.42	780.25
546.633	777.25
546.847	780.25
547.06	746.25
547.274	795.25
547.487	769.25
547.7	795.25
547.914	773.25
548.127	781.25
548.34	778.25
548.554	782.25
548.767	795.25
548.98	788.25
549.193	807.25
549.407	817.25
549.62	804.25
549.833	846.25
550.046	826.25
550.259	776.25
550.473	787.25
550.686	780.25
550.899	757.25
551.112	757.25
551.325	764.25
551.538	791.25
551.751	764.25
551.964	761.25
552.177	781.25
552.39	806.25
552.603	809.25
552.816	834.25
553.029	821.25
553.242	852.25
553.455	893.25
553.667	870.25
553.88	842.25
554.093	834.25
554.306	823.25
554.519	795.25
554.732	781.25
554.944	739.25
555.157	772.25
555.37	743.25
555.583	734.25
555.795	710.25
556.008	695.25
556.221	687.25
556.433	711.25
556.646	702.25
556.859	701.25
557.071	700.25
557.284	674.25
557.496	682.25
557.709	696.25
557.921	665.25
558.134	650.25
558.346	661.25
558.559	652.25
558.771	685.25
558.984	676.25
559.196	651.25
559.409	667.25
559.621	660.25
559.833	662.25
560.046	659.25
560.258	645.25
560.47	638.25
560.683	634.25
560.895	620.25
561.107	651.25
561.32	619.25
561.532	660.25
561.744	641.25
561.956	628.25
562.168	666.25
562.381	665.25
562.593	659.25
562.805	680.25
563.017	664.25
563.229	648.25
563.441	657.25
563.653	645.25
563.865	675.25
564.077	689.25
564.289	686.25
564.501	684.25
564.713	677.25
564.925	699.25
565.137	720.25
565.349	716.25
565.561	730.25
565.773	763.25
565.985	797.25
566.197	846.25
566.408	890.25
566.62	989.25
566.832	1073.25
567.044	1092.25
567.255	1071.25
567.467	1125.25
567.679	1167.25
567.891	1270.25
568.102	1326.25
568.314	1297.25
568.526	1114.25
568.737	1005.25
568.949	923.25
569.161	831.25
569.372	778.25
569.584	745.25
569.795	707.25
570.007	689.25
570.218	654.25
570.43	661.25
570.641	656.25
570.853	656.25
571.064	683.25
571.276	668.25
571.487	683.25
571.698	617.25
571.91	628.25
572.121	597.25
572.333	573.25
572.544	578.25
572.755	577.25
572.966	586.25
573.178	579.25
573.389	556.25
573.6	554.25
573.811	532.25
574.023	550.25
574.234	546.25
574.445	529.25
574.656	561.25
574.867	558.25
575.078	564.25
575.289	535.25
575.501	534.25
575.712	519.25
575.923	502.25
576.134	511.25
576.345	497.25
576.556	522.25
576.767	514.25
576.978	492.25
577.188	503.25
577.399	513.25
577.61	504.25
577.821	507.25
578.032	517.25
578.243	487.25
578.454	475.25
578.665	485.25
578.875	475.25
579.086	483.25
579.297	499.25
579.508	481.25
579.718	459.25
579.929	470.25
580.14	480.25
580.35	456.25
580.561	469.25
580.772	460.25
580.982	491.25
581.193	462.25
581.403	466.25
581.614	469.25
581.825	443.25
582.035	453.25
582.246	460.25
582.456	462.25
582.667	463.25
582.877	441.25
583.087	445.25
583.298	457.25
583.508	442.25
583.719	439.25
583.929	450.25
584.139	441.25
584.35	471.25
584.56	459.25
584.77	449.25
584.981	416.25
585.191	427.25
585.401	452.25
585.611	437.25
585.821	413.25
586.032	448.25
586.242	450.25
586.452	450.25
586.662	427.25
586.872	439.25
587.082	426.25
587.292	441.25
587.502	418.25
587.713	443.25
587.923	436.25
588.133	394.25
588.343	411.25
588.553	419.25
588.762	445.25
588.972	430.25
589.182	434.25
589.392	443.25
589.602	428.25
589.812	417.25
590.022	431.25
590.232	439.25
590.441	432.25
590.651	439.25
590.861	446.25
591.071	437.25
591.281	440.25
591.49	467.25
591.7	451.25
591.91	457.25
592.119	463.25
592.329	459.25
592.539	519.25
592.748	508.25
592.958	513.25
593.167	536.25
593.377	569.25
593.587	567.25
593.796	584.25
594.006	597.25
594.215	593.25
594.424	573.25
594.634	561.25
594.843	524.25
595.053	517.25
595.262	506.25
595.472	463.25
595.681	445.25
595.89	438.25
596.1	413.25
596.309	430.25
596.518	429.25
596.727	412.25
596.937	424.25
597.146	387.25
597.355	399.25
597.564	404.25
597.774	381.25
597.983	384.25
598.192	391.25
598.401	392.25
598.61	388.25
598.819	382.25
599.028	365.25
599.237	373.25
599.446	366.25
599.655	363.25
599.864	375.25
600.073	349.25
600.282	377.25
600.491	364.25
600.7	378.25
600.909	378.25
601.118	378.25
601.327	366.25
601.536	369.25
601.745	359.25
601.953	363.25
602.162	364.25
602.371	360.25
602.58	348.25
602.789	354.25
602.997	372.25
603.206	353.25
603.415	359.25
603.623	361.25
603.832	362.25
604.041	365.25
604.249	360.25
604.458	350.25
604.666	347.25
604.875	345.25
605.084	344.25
605.292	317.25
605.501	349.25
605.709	345.25
605.918	336.25
606.126	339.25
606.334	354.25
606.543	350.25
606.751	340.25
606.96	340.25
607.168	333.25
607.376	333.25
607.585	349.25
607.793	345.25
608.001	338.25
608.21	331.25
608.418	309.25
608.626	326.25
608.834	322.25
609.043	326.25
609.251	346.25
609.459	317.25
609.667	318.25
609.875	322.25
610.083	323.25
610.291	325.25
610.499	335.25
610.707	341.25
610.916	343.25
611.124	316.25
611.332	341.25
611.54	335.25
611.748	313.25
611.955	310.25
612.163	304.25
612.371	323.25
612.579	336.25
612.787	332.25
612.995	291.25
613.203	315.25
613.411	311.25
613.618	302.25
613.826	313.25
614.034	327.25
614.242	321.25
614.449	305.25
614.657	343.25
614.865	322.25
615.072	326.25
615.28	310.25
615.488	319.25
615.695	322.25
615.903	311.25
616.111	318.25
616.318	325.25
616.526	294.25
616.733	314.25
616.941	308.25
617.148	334.25
617.356	328.25
617.563	333.25
617.771	321.25
617.978	322.25
618.185	316.25
618.393	291.25
618.6	316.25
618.807	307.25
619.015	318.25
619.222	318.25
619.429	323.25
619.637	321.25
619.844	307.25
620.051	295.25
620.258	310.25
620.466	313.25
620.673	286.25
620.88	287.25
621.087	298.25
621.294	302.25
621.501	293.25
621.708	278.25
621.915	294.25
622.122	295.25
622.329	283.25
622.536	297.25
622.743	292.25
622.95	301.25
623.157	286.25
623.364	278.25
623.571	281.25
623.778	306.25
623.985	285.25
624.192	266.25
624.399	289.25
624.606	260.25
624.812	275.25
625.019	267.25
625.226	262.25
625.433	267.25
625.639	277.25
625.846	257.25
626.053	280.25
626.259	257.25
626.466	271.25
626.673	282.25
626.879	277.25
627.086	285.25
627.293	270.25
627.499	286.25
627.706	276.25
627.912	261.25
628.119	265.25
628.325	245.25
628.532	265.25
628.738	255.25
628.945	263.25
629.151	251.25
629.357	258.25
629.564	233.25
629.77	235.25
629.976	263.25
630.183	244.25
630.389	258.25
630.595	254.25
630.802	241.25
631.008	230.25
631.214	253.25
631.42	242.25
631.627	251.25
631.833	262.25
632.039	244.25
632.245	235.25
632.451	253.25
632.657	241.25
632.863	242.25
633.069	235.25
633.275	231.25
633.481	247.25
633.688	243.25
633.893	244.25
634.099	226.25
634.305	228.25
634.511	223.25
634.717	235.25
634.923	211.25
635.129	229.25
635.335	224.25
635.541	223.25
635.747	229.25
635.952	217.25
636.158	224.25
636.364	217.25
636.57	227.25
636.775	230.25
636.981	231.25
637.187	238.25
637.392	228.25
637.598	217.25
637.804	233.25
638.009	241.25
638.215	239.25
638.421	210.25
638.626	217.25
638.832	223.25
639.037	228.25
639.243	227.25
639.448	209.25
639.654	201.25
639.859	203.25
640.065	206.25
640.27	216.25
640.475	224.25
640.681	211.25
640.886	197.25
641.091	207.25
641.297	206.25
641.502	214.25
641.707	210.25
641.913	206.25
642.118	212.25
642.323	221.25
642.528	211.25
642.733	208.25
642.939	206.25
643.144	209.25
643.349	196.25
643.554	202.25
643.759	190.25
643.964	202.25
644.169	217.25
644.374	205.25
644.579	189.25
644.784	207.25
644.989	206.25
645.194	205.25
645.399	210.25
645.604	202.25
645.809	199.25
646.014	206.25
646.219	213.25
646.423	205.25
646.628	212.25
646.833	184.25
647.038	198.25
647.243	209.25
647.447	216.25
647.652	208.25
647.857	225.25
648.062	200.25
648.266	215.25
648.471	213.25
648.676	213.25
648.88	206.25
649.085	207.25
649.289	192.25
649.494	188.25
649.698	191.25
649.903	173.25
650.107	196.25
650.312	186.25
650.516	185.25
650.721	197.25
650.925	202.25
651.13	182.25
651.334	187.25
651.539	190.25
651.743	177.25
651.947	173.25
652.152	172.25
652.356	162.25
652.56	162.25
652.764	168.25
652.969	170.25
653.173	174.25
653.377	165.25
653.581	154.25
653.785	156.25
653.99	159.25
654.194	151.25
654.398	144.25
654.602	160.25
654.806	149.25
655.01	141.25
655.214	147.25
655.418	125.25
655.622	126.25
655.826	139.25
656.03	140.25
656.234	142.25
656.438	130.25
656.642	139.25
656.846	134.25
657.049	133.25
657.253	144.25
657.457	129.25
657.661	127.25
657.865	123.25
658.068	122.25
658.272	119.25
658.476	119.25
658.68	111.25
658.883	103.25
659.087	108.25
659.291	113.25
659.494	105.25
659.698	105.25
659.901	108.25
660.105	108.25
660.309	106.25
660.512	78.25
660.716	103.25
660.919	92.25
661.123	91.25
661.326	100.25
661.53	92.25
661.733	104.25
661.936	89.25
662.14	89.25
662.343	87.25
662.546	77.25
662.75	105.25
662.953	90.25
663.156	82.25
663.36	86.25
663.563	87.25
663.766	85.25
663.969	101.25
664.173	83.25
664.376	85.25
664.579	88.25
664.782	99.25
664.985	89.25
665.188	90.25
665.391	70.25
665.594	83.25
665.797	82.25
666	82.25
666.203	86.25
666.406	95.25
666.609	80.25
666.812	88.25
667.015	87.25
667.218	83.25
667.421	92.25
667.624	85.25
667.827	81.25
668.03	77.25
668.232	95.25
668.435	89.25
668.638	68.25
668.841	90.25
669.043	79.25
669.246	78.25
669.449	80.25
669.651	76.25
669.854	85.25
670.057	92.25
670.259	75.25
670.462	96.25
670.665	96.25
670.867	83.25
671.07	90.25
671.272	89.25
671.475	93.25
671.677	71.25
671.88	83.25
672.082	95.25
672.284	83.25
672.487	84.25
672.689	84.25
672.892	85.25
