Data from Ni(NO3)2@0.0625M.TitratingCurve.Agarose3%dH2O.NegLispCup.LampEnergy10.LIBS07252019_HRD10591_18-15-08-569.txt Node
Date: Thu Jul 25 18:15:08 EDT 2019
User: cochatt
Spectrometer: HR+D1059
Trigger mode: 1
Integration Time (sec): 1.000000E-1
Scans to average: 1
Electric dark correction enabled: true
Nonlinearity correction enabled: false
Boxcar width: 0
XAxis mode: Wavelengths
Number of Pixels in Spectrum: 2048
>>>>>Begin Spectral Data<<<<<
223.165	-25.5
223.4	-25.5
223.635	-25.5
223.869	-8.5
224.104	-25.5
224.338	-9.5
224.573	-14.5
224.808	-10.5
225.042	-10.5
225.277	-6.5
225.511	-21.5
225.746	-4.5
225.98	17.5
226.215	14.5
226.449	22.5
226.683	21.5
226.918	39.5
227.152	21.5
227.387	41.5
227.621	45.5
227.856	41.5
228.09	42.5
228.324	44.5
228.559	58.5
228.793	62.5
229.027	93.5
229.262	107.5
229.496	93.5
229.73	106.5
229.964	106.5
230.199	116.5
230.433	121.5
230.667	115.5
230.901	108.5
231.136	118.5
231.37	111.5
231.604	127.5
231.838	124.5
232.072	129.5
232.306	130.5
232.541	134.5
232.775	116.5
233.009	129.5
233.243	129.5
233.477	122.5
233.711	135.5
233.945	123.5
234.179	128.5
234.413	127.5
234.647	142.5
234.881	126.5
235.115	129.5
235.349	123.5
235.583	137.5
235.817	126.5
236.051	133.5
236.285	121.5
236.519	130.5
236.753	131.5
236.987	144.5
237.221	126.5
237.455	138.5
237.689	138.5
237.922	133.5
238.156	141.5
238.39	142.5
238.624	133.5
238.858	133.5
239.091	134.5
239.325	139.5
239.559	144.5
239.793	152.5
240.027	142.5
240.26	152.5
240.494	158.5
240.728	132.5
240.961	149.5
241.195	137.5
241.429	152.5
241.662	162.5
241.896	162.5
242.13	147.5
242.363	155.5
242.597	152.5
242.83	163.5
243.064	153.5
243.298	142.5
243.531	149.5
243.765	162.5
243.998	166.5
244.232	169.5
244.465	163.5
244.699	153.5
244.932	174.5
245.166	170.5
245.399	176.5
245.633	177.5
245.866	169.5
246.099	184.5
246.333	161.5
246.566	171.5
246.8	179.5
247.033	172.5
247.266	163.5
247.5	172.5
247.733	174.5
247.966	174.5
248.2	190.5
248.433	185.5
248.666	199.5
248.899	186.5
249.133	178.5
249.366	190.5
249.599	195.5
249.832	185.5
250.066	201.5
250.299	182.5
250.532	195.5
250.765	195.5
250.998	199.5
251.231	194.5
251.465	221.5
251.698	201.5
251.931	203.5
252.164	198.5
252.397	218.5
252.63	213.5
252.863	210.5
253.096	211.5
253.329	210.5
253.562	198.5
253.795	212.5
254.028	216.5
254.261	220.5
254.494	204.5
254.727	203.5
254.96	204.5
255.193	216.5
255.426	231.5
255.659	224.5
255.892	211.5
256.124	205.5
256.357	229.5
256.59	208.5
256.823	218.5
257.056	215.5
257.289	211.5
257.521	230.5
257.754	227.5
257.987	232.5
258.22	225.5
258.452	229.5
258.685	220.5
258.918	223.5
259.151	214.5
259.383	231.5
259.616	232.5
259.849	239.5
260.081	231.5
260.314	240.5
260.547	241.5
260.779	256.5
261.012	259.5
261.244	260.5
261.477	253.5
261.71	246.5
261.942	233.5
262.175	248.5
262.407	234.5
262.64	246.5
262.872	252.5
263.105	241.5
263.337	251.5
263.57	238.5
263.802	267.5
264.035	252.5
264.267	269.5
264.499	265.5
264.732	258.5
264.964	269.5
265.197	275.5
265.429	275.5
265.661	267.5
265.894	265.5
266.126	254.5
266.358	267.5
266.591	267.5
266.823	277.5
267.055	267.5
267.287	256.5
267.52	275.5
267.752	257.5
267.984	272.5
268.216	282.5
268.448	281.5
268.681	277.5
268.913	282.5
269.145	271.5
269.377	283.5
269.609	298.5
269.841	299.5
270.073	289.5
270.306	293.5
270.538	307.5
270.77	296.5
271.002	274.5
271.234	266.5
271.466	285.5
271.698	294.5
271.93	290.5
272.162	270.5
272.394	284.5
272.626	295.5
272.858	305.5
273.09	301.5
273.322	308.5
273.553	306.5
273.785	288.5
274.017	293.5
274.249	311.5
274.481	293.5
274.713	299.5
274.945	285.5
275.176	307.5
275.408	295.5
275.64	291.5
275.872	316.5
276.104	311.5
276.335	316.5
276.567	316.5
276.799	298.5
277.031	315.5
277.262	315.5
277.494	314.5
277.726	334.5
277.957	318.5
278.189	327.5
278.421	339.5
278.652	327.5
278.884	315.5
279.115	333.5
279.347	345.5
279.579	341.5
279.81	326.5
280.042	341.5
280.273	335.5
280.505	346.5
280.736	349.5
280.968	322.5
281.199	339.5
281.431	347.5
281.662	333.5
281.894	350.5
282.125	359.5
282.356	354.5
282.588	341.5
282.819	338.5
283.051	362.5
283.282	336.5
283.513	344.5
283.745	346.5
283.976	342.5
284.207	339.5
284.439	366.5
284.67	356.5
284.901	352.5
285.132	359.5
285.364	361.5
285.595	359.5
285.826	364.5
286.057	369.5
286.288	354.5
286.52	385.5
286.751	365.5
286.982	360.5
287.213	380.5
287.444	383.5
287.675	367.5
287.906	388.5
288.138	377.5
288.369	366.5
288.6	395.5
288.831	393.5
289.062	381.5
289.293	377.5
289.524	385.5
289.755	361.5
289.986	365.5
290.217	394.5
290.448	371.5
290.679	393.5
290.91	380.5
291.141	374.5
291.371	380.5
291.602	384.5
291.833	389.5
292.064	398.5
292.295	382.5
292.526	394.5
292.757	389.5
292.987	392.5
293.218	404.5
293.449	405.5
293.68	393.5
293.91	388.5
294.141	386.5
294.372	393.5
294.603	402.5
294.833	398.5
295.064	391.5
295.295	390.5
295.525	391.5
295.756	411.5
295.987	402.5
296.217	408.5
296.448	413.5
296.679	411.5
296.909	386.5
297.14	393.5
297.37	428.5
297.601	415.5
297.831	421.5
298.062	441.5
298.292	437.5
298.523	435.5
298.753	447.5
298.984	440.5
299.214	436.5
299.445	414.5
299.675	435.5
299.905	427.5
300.136	429.5
300.366	450.5
300.597	460.5
300.827	447.5
301.057	462.5
301.288	468.5
301.518	475.5
301.748	443.5
301.979	454.5
302.209	471.5
302.439	459.5
302.669	455.5
302.9	443.5
303.13	435.5
303.36	439.5
303.59	439.5
303.82	438.5
304.051	454.5
304.281	435.5
304.511	444.5
304.741	446.5
304.971	447.5
305.201	439.5
305.431	446.5
305.661	442.5
305.891	436.5
306.121	426.5
306.352	426.5
306.582	437.5
306.812	433.5
307.042	446.5
307.272	436.5
307.502	437.5
307.731	432.5
307.961	430.5
308.191	421.5
308.421	437.5
308.651	451.5
308.881	422.5
309.111	444.5
309.341	445.5
309.571	450.5
309.8	437.5
310.03	449.5
310.26	455.5
310.49	463.5
310.72	466.5
310.949	435.5
311.179	435.5
311.409	464.5
311.639	471.5
311.868	448.5
312.098	440.5
312.328	458.5
312.557	460.5
312.787	449.5
313.017	444.5
313.246	472.5
313.476	480.5
313.706	476.5
313.935	492.5
314.165	472.5
314.394	466.5
314.624	454.5
314.853	486.5
315.083	471.5
315.312	469.5
315.542	450.5
315.771	469.5
316.001	445.5
316.23	460.5
316.46	464.5
316.689	453.5
316.919	459.5
317.148	450.5
317.377	456.5
317.607	446.5
317.836	437.5
318.065	444.5
318.295	442.5
318.524	462.5
318.753	447.5
318.983	444.5
319.212	457.5
319.441	452.5
319.67	459.5
319.9	482.5
320.129	455.5
320.358	486.5
320.587	439.5
320.816	459.5
321.046	474.5
321.275	440.5
321.504	464.5
321.733	478.5
321.962	448.5
322.191	453.5
322.42	470.5
322.649	460.5
322.878	475.5
323.108	476.5
323.337	471.5
323.566	481.5
323.795	469.5
324.024	471.5
324.253	463.5
324.482	448.5
324.71	474.5
324.939	478.5
325.168	475.5
325.397	482.5
325.626	473.5
325.855	497.5
326.084	489.5
326.313	492.5
326.542	492.5
326.77	506.5
326.999	500.5
327.228	494.5
327.457	511.5
327.686	503.5
327.914	503.5
328.143	503.5
328.372	494.5
328.6	494.5
328.829	500.5
329.058	492.5
329.287	499.5
329.515	515.5
329.744	503.5
329.972	493.5
330.201	507.5
330.43	494.5
330.658	521.5
330.887	517.5
331.115	517.5
331.344	524.5
331.572	534.5
331.801	544.5
332.03	567.5
332.258	558.5
332.486	581.5
332.715	584.5
332.943	608.5
333.172	602.5
333.4	642.5
333.629	637.5
333.857	683.5
334.085	638.5
334.314	668.5
334.542	649.5
334.771	646.5
334.999	637.5
335.227	619.5
335.455	602.5
335.684	617.5
335.912	624.5
336.14	590.5
336.369	607.5
336.597	642.5
336.825	611.5
337.053	613.5
337.281	610.5
337.51	575.5
337.738	573.5
337.966	584.5
338.194	590.5
338.422	556.5
338.65	567.5
338.878	553.5
339.106	557.5
339.334	551.5
339.562	556.5
339.79	548.5
340.018	530.5
340.246	519.5
340.474	506.5
340.702	539.5
340.93	540.5
341.158	547.5
341.386	557.5
341.614	584.5
341.842	553.5
342.07	542.5
342.298	530.5
342.526	549.5
342.754	536.5
342.981	531.5
343.209	538.5
343.437	556.5
343.665	614.5
343.893	633.5
344.12	653.5
344.348	608.5
344.576	617.5
344.804	589.5
345.031	565.5
345.259	547.5
345.487	549.5
345.714	553.5
345.942	551.5
346.17	555.5
346.397	567.5
346.625	526.5
346.853	525.5
347.08	527.5
347.308	534.5
347.535	571.5
347.763	551.5
347.99	542.5
348.218	521.5
348.445	526.5
348.673	508.5
348.9	517.5
349.128	545.5
349.355	533.5
349.583	523.5
349.81	518.5
350.037	507.5
350.265	539.5
350.492	508.5
350.72	514.5
350.947	513.5
351.174	511.5
351.402	524.5
351.629	513.5
351.856	543.5
352.083	486.5
352.311	523.5
352.538	533.5
352.765	539.5
352.992	513.5
353.22	501.5
353.447	497.5
353.674	482.5
353.901	494.5
354.128	488.5
354.355	483.5
354.583	480.5
354.81	515.5
355.037	506.5
355.264	492.5
355.491	497.5
355.718	480.5
355.945	517.5
356.172	531.5
356.399	528.5
356.626	539.5
356.853	530.5
357.08	505.5
357.307	513.5
357.534	505.5
357.761	501.5
357.988	502.5
358.215	480.5
358.441	497.5
358.668	486.5
358.895	480.5
359.122	501.5
359.349	485.5
359.576	493.5
359.802	504.5
360.029	515.5
360.256	493.5
360.483	514.5
360.709	493.5
360.936	515.5
361.163	509.5
361.39	530.5
361.616	520.5
361.843	512.5
362.07	538.5
362.296	537.5
362.523	517.5
362.749	511.5
362.976	488.5
363.203	507.5
363.429	486.5
363.656	501.5
363.882	490.5
364.109	485.5
364.335	499.5
364.562	497.5
364.788	503.5
365.015	485.5
365.241	502.5
365.468	501.5
365.694	501.5
365.92	512.5
366.147	508.5
366.373	500.5
366.599	488.5
366.826	502.5
367.052	470.5
367.278	495.5
367.505	483.5
367.731	500.5
367.957	495.5
368.184	513.5
368.41	513.5
368.636	493.5
368.862	537.5
369.089	499.5
369.315	524.5
369.541	532.5
369.767	538.5
369.993	534.5
370.219	538.5
370.445	524.5
370.672	515.5
370.898	531.5
371.124	537.5
371.35	555.5
371.576	551.5
371.802	551.5
372.028	528.5
372.254	531.5
372.48	535.5
372.706	558.5
372.932	567.5
373.158	528.5
373.384	547.5
373.61	534.5
373.835	537.5
374.061	540.5
374.287	549.5
374.513	563.5
374.739	581.5
374.965	604.5
375.191	607.5
375.416	590.5
375.642	591.5
375.868	573.5
376.094	551.5
376.319	545.5
376.545	535.5
376.771	539.5
376.997	565.5
377.222	554.5
377.448	542.5
377.674	568.5
377.899	544.5
378.125	556.5
378.35	548.5
378.576	533.5
378.802	551.5
379.027	547.5
379.253	556.5
379.478	549.5
379.704	551.5
379.929	526.5
380.155	551.5
380.38	541.5
380.606	526.5
380.831	556.5
381.057	552.5
381.282	533.5
381.507	567.5
381.733	570.5
381.958	546.5
382.184	543.5
382.409	563.5
382.634	571.5
382.86	587.5
383.085	569.5
383.31	573.5
383.535	585.5
383.761	573.5
383.986	609.5
384.211	616.5
384.436	641.5
384.662	625.5
384.887	631.5
385.112	642.5
385.337	640.5
385.562	665.5
385.787	645.5
386.013	647.5
386.238	674.5
386.463	655.5
386.688	624.5
386.913	641.5
387.138	666.5
387.363	637.5
387.588	629.5
387.813	629.5
388.038	644.5
388.263	652.5
388.488	650.5
388.713	635.5
388.938	639.5
389.163	630.5
389.387	622.5
389.612	623.5
389.837	608.5
390.062	645.5
390.287	620.5
390.512	638.5
390.736	641.5
390.961	657.5
391.186	663.5
391.411	681.5
391.636	690.5
391.86	714.5
392.085	729.5
392.31	711.5
392.534	704.5
392.759	693.5
392.984	683.5
393.208	655.5
393.433	698.5
393.658	683.5
393.882	691.5
394.107	670.5
394.331	701.5
394.556	685.5
394.78	677.5
395.005	693.5
395.229	684.5
395.454	695.5
395.678	738.5
395.903	706.5
396.127	691.5
396.352	665.5
396.576	670.5
396.801	671.5
397.025	708.5
397.249	699.5
397.474	722.5
397.698	718.5
397.922	724.5
398.147	728.5
398.371	759.5
398.595	743.5
398.82	790.5
399.044	830.5
399.268	912.5
399.492	1043.5
399.717	1233.5
399.941	1168.5
400.165	1041.5
400.389	970.5
400.613	857.5
400.837	814.5
401.062	778.5
401.286	783.5
401.51	797.5
401.734	791.5
401.958	794.5
402.182	810.5
402.406	805.5
402.63	831.5
402.854	869.5
403.078	858.5
403.302	869.5
403.526	901.5
403.75	890.5
403.974	953.5
404.198	904.5
404.422	938.5
404.645	937.5
404.869	918.5
405.093	886.5
405.317	887.5
405.541	870.5
405.765	873.5
405.988	906.5
406.212	872.5
406.436	870.5
406.66	888.5
406.883	900.5
407.107	953.5
407.331	1043.5
407.555	1045.5
407.778	1049.5
408.002	1010.5
408.226	989.5
408.449	968.5
408.673	911.5
408.896	918.5
409.12	900.5
409.344	909.5
409.567	924.5
409.791	939.5
410.014	940.5
410.238	934.5
410.461	912.5
410.685	949.5
410.908	898.5
411.132	862.5
411.355	836.5
411.578	830.5
411.802	841.5
412.025	832.5
412.249	823.5
412.472	843.5
412.695	835.5
412.919	792.5
413.142	785.5
413.365	801.5
413.589	821.5
413.812	791.5
414.035	787.5
414.258	794.5
414.482	826.5
414.705	836.5
414.928	819.5
415.151	813.5
415.374	805.5
415.597	817.5
415.821	826.5
416.044	755.5
416.267	780.5
416.49	787.5
416.713	772.5
416.936	801.5
417.159	774.5
417.382	769.5
417.605	786.5
417.828	806.5
418.051	807.5
418.274	808.5
418.497	786.5
418.72	809.5
418.943	823.5
419.166	845.5
419.389	912.5
419.611	884.5
419.834	839.5
420.057	828.5
420.28	808.5
420.503	780.5
420.726	790.5
420.948	776.5
421.171	782.5
421.394	775.5
421.617	784.5
421.839	806.5
422.062	802.5
422.285	767.5
422.507	796.5
422.73	811.5
422.953	790.5
423.175	821.5
423.398	823.5
423.621	813.5
423.843	834.5
424.066	845.5
424.288	839.5
424.511	830.5
424.733	824.5
424.956	803.5
425.178	814.5
425.401	799.5
425.623	782.5
425.846	783.5
426.068	773.5
426.291	740.5
426.513	769.5
426.735	727.5
426.958	710.5
427.18	722.5
427.402	719.5
427.625	721.5
427.847	717.5
428.069	729.5
428.292	724.5
428.514	693.5
428.736	698.5
428.958	716.5
429.181	699.5
429.403	700.5
429.625	693.5
429.847	712.5
430.069	708.5
430.292	711.5
430.514	693.5
430.736	718.5
430.958	702.5
431.18	690.5
431.402	677.5
431.624	697.5
431.846	711.5
432.068	734.5
432.29	731.5
432.512	720.5
432.734	724.5
432.956	685.5
433.178	707.5
433.4	711.5
433.622	717.5
433.844	729.5
434.066	747.5
434.287	753.5
434.509	739.5
434.731	764.5
434.953	795.5
435.175	805.5
435.397	817.5
435.618	784.5
435.84	730.5
436.062	719.5
436.284	718.5
436.505	715.5
436.727	724.5
436.949	726.5
437.17	731.5
437.392	696.5
437.614	691.5
437.835	682.5
438.057	698.5
438.278	678.5
438.5	684.5
438.721	708.5
438.943	692.5
439.165	701.5
439.386	701.5
439.608	705.5
439.829	711.5
440.05	699.5
440.272	735.5
440.493	709.5
440.715	718.5
440.936	734.5
441.158	739.5
441.379	782.5
441.6	795.5
441.822	817.5
442.043	820.5
442.264	795.5
442.486	792.5
442.707	794.5
442.928	782.5
443.149	787.5
443.371	773.5
443.592	773.5
443.813	801.5
444.034	811.5
444.255	838.5
444.476	877.5
444.698	925.5
444.919	968.5
445.14	1039.5
445.361	909.5
445.582	828.5
445.803	773.5
446.024	769.5
446.245	729.5
446.466	721.5
446.687	719.5
446.908	731.5
447.129	707.5
447.35	711.5
447.571	690.5
447.792	701.5
448.013	677.5
448.234	661.5
448.455	681.5
448.675	661.5
448.896	677.5
449.117	642.5
449.338	633.5
449.559	655.5
449.779	647.5
450	628.5
450.221	663.5
450.442	678.5
450.662	665.5
450.883	651.5
451.104	702.5
451.324	679.5
451.545	685.5
451.766	676.5
451.986	642.5
452.207	664.5
452.428	654.5
452.648	662.5
452.869	645.5
453.089	650.5
453.31	633.5
453.53	638.5
453.751	650.5
453.971	649.5
454.192	646.5
454.412	631.5
454.633	643.5
454.853	629.5
455.073	607.5
455.294	627.5
455.514	633.5
455.734	638.5
455.955	626.5
456.175	625.5
456.395	616.5
456.616	626.5
456.836	630.5
457.056	641.5
457.276	610.5
457.497	594.5
457.717	632.5
457.937	639.5
458.157	635.5
458.377	633.5
458.598	635.5
458.818	669.5
459.038	693.5
459.258	720.5
459.478	715.5
459.698	757.5
459.918	779.5
460.138	780.5
460.358	843.5
460.578	860.5
460.798	833.5
461.018	849.5
461.238	829.5
461.458	840.5
461.678	823.5
461.898	852.5
462.118	852.5
462.338	901.5
462.558	923.5
462.777	954.5
462.997	1036.5
463.217	1157.5
463.437	1170.5
463.657	1057.5
463.876	984.5
464.096	963.5
464.316	1004.5
464.536	1025.5
464.755	933.5
464.975	914.5
465.195	877.5
465.414	815.5
465.634	755.5
465.854	736.5
466.073	735.5
466.293	729.5
466.512	695.5
466.732	711.5
466.951	722.5
467.171	709.5
467.391	703.5
467.61	675.5
467.829	693.5
468.049	660.5
468.268	684.5
468.488	639.5
468.707	656.5
468.927	656.5
469.146	671.5
469.365	676.5
469.585	680.5
469.804	699.5
470.023	708.5
470.243	737.5
470.462	722.5
470.681	714.5
470.901	725.5
471.12	703.5
471.339	686.5
471.558	678.5
471.777	662.5
471.997	678.5
472.216	652.5
472.435	663.5
472.654	657.5
472.873	626.5
473.092	634.5
473.311	641.5
473.53	659.5
473.749	682.5
473.968	656.5
474.187	666.5
474.406	642.5
474.625	674.5
474.844	659.5
475.063	668.5
475.282	682.5
475.501	671.5
475.72	664.5
475.939	684.5
476.158	671.5
476.377	702.5
476.596	686.5
476.814	700.5
477.033	701.5
477.252	705.5
477.471	722.5
477.69	734.5
477.908	775.5
478.127	765.5
478.346	763.5
478.564	787.5
478.783	789.5
479.002	838.5
479.22	813.5
479.439	803.5
479.658	823.5
479.876	796.5
480.095	837.5
480.313	840.5
480.532	874.5
480.751	881.5
480.969	831.5
481.188	837.5
481.406	798.5
481.624	795.5
481.843	753.5
482.061	753.5
482.28	802.5
482.498	743.5
482.717	747.5
482.935	753.5
483.153	761.5
483.372	754.5
483.59	771.5
483.808	771.5
484.027	763.5
484.245	770.5
484.463	774.5
484.681	801.5
484.9	798.5
485.118	801.5
485.336	808.5
485.554	821.5
485.772	844.5
485.99	831.5
486.209	827.5
486.427	840.5
486.645	834.5
486.863	809.5
487.081	810.5
487.299	791.5
487.517	805.5
487.735	812.5
487.953	810.5
488.171	813.5
488.389	807.5
488.607	807.5
488.825	805.5
489.043	776.5
489.261	810.5
489.479	795.5
489.696	813.5
489.914	804.5
490.132	782.5
490.35	812.5
490.568	786.5
490.786	804.5
491.003	792.5
491.221	809.5
491.439	803.5
491.657	771.5
491.874	800.5
492.092	820.5
492.31	811.5
492.527	810.5
492.745	811.5
492.963	802.5
493.18	809.5
493.398	835.5
493.615	845.5
493.833	832.5
494.05	858.5
494.268	801.5
494.485	821.5
494.703	830.5
494.92	852.5
495.138	838.5
495.355	841.5
495.573	846.5
495.79	822.5
496.008	850.5
496.225	854.5
496.442	867.5
496.66	840.5
496.877	857.5
497.094	870.5
497.312	883.5
497.529	909.5
497.746	927.5
497.963	974.5
498.181	978.5
498.398	1022.5
498.615	1084.5
498.832	1167.5
499.049	1214.5
499.267	1327.5
499.484	1457.5
499.701	1609.5
499.918	1795.5
500.135	2073.5
500.352	2312.5
500.569	2465.5
500.786	2403.5
501.003	2275.5
501.22	1947.5
501.437	1739.5
501.654	1534.5
501.871	1386.5
502.088	1309.5
502.305	1237.5
502.522	1177.5
502.739	1124.5
502.956	1073.5
503.172	996.5
503.389	957.5
503.606	961.5
503.823	943.5
504.04	917.5
504.256	946.5
504.473	975.5
504.69	974.5
504.907	944.5
505.123	932.5
505.34	861.5
505.557	833.5
505.773	789.5
505.99	782.5
506.207	782.5
506.423	752.5
506.64	799.5
506.856	753.5
507.073	762.5
507.289	759.5
507.506	733.5
507.722	731.5
507.939	735.5
508.155	718.5
508.372	737.5
508.588	706.5
508.805	709.5
509.021	701.5
509.238	702.5
509.454	692.5
509.67	686.5
509.887	680.5
510.103	673.5
510.319	671.5
510.536	668.5
510.752	675.5
510.968	684.5
511.184	683.5
511.401	683.5
511.617	660.5
511.833	699.5
512.049	687.5
512.265	653.5
512.481	677.5
512.698	684.5
512.914	668.5
513.13	644.5
513.346	665.5
513.562	666.5
513.778	686.5
513.994	650.5
514.21	661.5
514.426	693.5
514.642	677.5
514.858	681.5
515.074	677.5
515.29	699.5
515.506	699.5
515.721	699.5
515.937	717.5
516.153	735.5
516.369	730.5
516.585	742.5
516.801	760.5
517.016	801.5
517.232	858.5
517.448	893.5
517.664	955.5
517.879	929.5
518.095	936.5
518.311	892.5
518.527	856.5
518.742	823.5
518.958	801.5
519.173	744.5
519.389	762.5
519.605	730.5
519.82	676.5
520.036	709.5
520.251	705.5
520.467	695.5
520.682	684.5
520.898	660.5
521.113	686.5
521.329	661.5
521.544	636.5
521.76	653.5
521.975	639.5
522.19	640.5
522.406	653.5
522.621	648.5
522.836	649.5
523.052	631.5
523.267	639.5
523.482	633.5
523.698	618.5
523.913	622.5
524.128	616.5
524.343	634.5
524.559	638.5
524.774	641.5
524.989	622.5
525.204	629.5
525.419	629.5
525.634	604.5
525.849	613.5
526.064	628.5
526.28	617.5
526.495	610.5
526.71	606.5
526.925	600.5
527.14	627.5
527.355	605.5
527.57	615.5
527.785	614.5
527.999	609.5
528.214	606.5
528.429	614.5
528.644	632.5
528.859	616.5
529.074	607.5
529.289	620.5
529.503	627.5
529.718	612.5
529.933	616.5
530.148	603.5
530.363	620.5
530.577	632.5
530.792	618.5
531.007	633.5
531.221	612.5
531.436	624.5
531.651	626.5
531.865	615.5
532.08	629.5
532.295	607.5
532.509	601.5
532.724	627.5
532.938	639.5
533.153	635.5
533.367	623.5
533.582	608.5
533.796	617.5
534.011	631.5
534.225	617.5
534.44	618.5
534.654	595.5
534.868	603.5
535.083	610.5
535.297	606.5
535.511	578.5
535.726	599.5
535.94	617.5
536.154	601.5
536.369	595.5
536.583	572.5
536.797	577.5
537.011	569.5
537.225	571.5
537.44	575.5
537.654	567.5
537.868	571.5
538.082	545.5
538.296	563.5
538.51	556.5
538.724	563.5
538.938	562.5
539.153	559.5
539.367	561.5
539.581	573.5
539.795	560.5
540.009	565.5
540.222	562.5
540.436	546.5
540.65	545.5
540.864	547.5
541.078	558.5
541.292	536.5
541.506	559.5
541.72	547.5
541.934	554.5
542.147	540.5
542.361	561.5
542.575	541.5
542.789	539.5
543.002	543.5
543.216	550.5
543.43	527.5
543.644	569.5
543.857	560.5
544.071	558.5
544.285	538.5
544.498	561.5
544.712	546.5
544.925	581.5
545.139	563.5
545.352	573.5
545.566	573.5
545.779	582.5
545.993	577.5
546.206	581.5
546.42	558.5
546.633	572.5
546.847	551.5
547.06	555.5
547.274	562.5
547.487	567.5
547.7	538.5
547.914	591.5
548.127	548.5
548.34	580.5
548.554	574.5
548.767	567.5
548.98	586.5
549.193	583.5
549.407	558.5
549.62	566.5
549.833	588.5
550.046	586.5
550.259	570.5
550.473	573.5
550.686	538.5
550.899	548.5
551.112	539.5
551.325	554.5
551.538	546.5
551.751	541.5
551.964	539.5
552.177	547.5
552.39	550.5
552.603	564.5
552.816	586.5
553.029	584.5
553.242	600.5
553.455	605.5
553.667	613.5
553.88	607.5
554.093	601.5
554.306	565.5
554.519	563.5
554.732	559.5
554.944	556.5
555.157	552.5
555.37	523.5
555.583	513.5
555.795	500.5
556.008	536.5
556.221	494.5
556.433	488.5
556.646	503.5
556.859	482.5
557.071	484.5
557.284	470.5
557.496	470.5
557.709	476.5
557.921	485.5
558.134	480.5
558.346	457.5
558.559	469.5
558.771	479.5
558.984	482.5
559.196	491.5
559.409	468.5
559.621	467.5
559.833	467.5
560.046	471.5
560.258	488.5
560.47	476.5
560.683	461.5
560.895	461.5
561.107	462.5
561.32	456.5
561.532	458.5
561.744	466.5
561.956	468.5
562.168	462.5
562.381	470.5
562.593	486.5
562.805	475.5
563.017	471.5
563.229	468.5
563.441	472.5
563.653	465.5
563.865	484.5
564.077	474.5
564.289	474.5
564.501	476.5
564.713	511.5
564.925	490.5
565.137	493.5
565.349	522.5
565.561	542.5
565.773	516.5
565.985	573.5
566.197	583.5
566.408	641.5
566.62	664.5
566.832	721.5
567.044	750.5
567.255	727.5
567.467	762.5
567.679	821.5
567.891	866.5
568.102	868.5
568.314	854.5
568.526	772.5
568.737	685.5
568.949	637.5
569.161	586.5
569.372	538.5
569.584	518.5
569.795	522.5
570.007	521.5
570.218	472.5
570.43	490.5
570.641	478.5
570.853	460.5
571.064	504.5
571.276	513.5
571.487	475.5
571.698	473.5
571.91	445.5
572.121	428.5
572.333	417.5
572.544	419.5
572.755	425.5
572.966	422.5
573.178	424.5
573.389	404.5
573.6	423.5
573.811	399.5
574.023	405.5
574.234	381.5
574.445	399.5
574.656	390.5
574.867	420.5
575.078	406.5
575.289	411.5
575.501	402.5
575.712	390.5
575.923	357.5
576.134	381.5
576.345	390.5
576.556	379.5
576.767	375.5
576.978	385.5
577.188	375.5
577.399	385.5
577.61	363.5
577.821	375.5
578.032	345.5
578.243	351.5
578.454	354.5
578.665	346.5
578.875	358.5
579.086	358.5
579.297	362.5
579.508	367.5
579.718	355.5
579.929	368.5
580.14	341.5
580.35	351.5
580.561	348.5
580.772	353.5
580.982	344.5
581.193	337.5
581.403	347.5
581.614	353.5
581.825	342.5
582.035	353.5
582.246	345.5
582.456	332.5
582.667	352.5
582.877	334.5
583.087	327.5
583.298	355.5
583.508	340.5
583.719	342.5
583.929	335.5
584.139	335.5
584.35	312.5
584.56	335.5
584.77	321.5
584.981	329.5
585.191	357.5
585.401	337.5
585.611	317.5
585.821	329.5
586.032	312.5
586.242	317.5
586.452	340.5
586.662	318.5
586.872	349.5
587.082	317.5
587.292	326.5
587.502	327.5
587.713	306.5
587.923	331.5
588.133	326.5
588.343	325.5
588.553	332.5
588.762	331.5
588.972	346.5
589.182	345.5
589.392	340.5
589.602	324.5
589.812	334.5
590.022	317.5
590.232	332.5
590.441	307.5
590.651	321.5
590.861	323.5
591.071	333.5
591.281	321.5
591.49	345.5
591.7	336.5
591.91	360.5
592.119	340.5
592.329	333.5
592.539	362.5
592.748	370.5
592.958	390.5
593.167	389.5
593.377	380.5
593.587	401.5
593.796	374.5
594.006	398.5
594.215	411.5
594.424	398.5
594.634	396.5
594.843	375.5
595.053	350.5
595.262	363.5
595.472	358.5
595.681	338.5
595.89	329.5
596.1	331.5
596.309	315.5
596.518	327.5
596.727	320.5
596.937	300.5
597.146	318.5
597.355	293.5
597.564	283.5
597.774	298.5
597.983	286.5
598.192	291.5
598.401	271.5
598.61	289.5
598.819	272.5
599.028	272.5
599.237	284.5
599.446	285.5
599.655	284.5
599.864	281.5
600.073	290.5
600.282	277.5
600.491	281.5
600.7	279.5
600.909	275.5
601.118	282.5
601.327	263.5
601.536	279.5
601.745	273.5
601.953	272.5
602.162	277.5
602.371	284.5
602.58	278.5
602.789	263.5
602.997	271.5
603.206	261.5
603.415	249.5
603.623	265.5
603.832	253.5
604.041	257.5
604.249	260.5
604.458	270.5
604.666	270.5
604.875	265.5
605.084	260.5
605.292	259.5
605.501	277.5
605.709	253.5
605.918	262.5
606.126	263.5
606.334	265.5
606.543	245.5
606.751	263.5
606.96	265.5
607.168	245.5
607.376	250.5
607.585	249.5
607.793	273.5
608.001	245.5
608.21	265.5
608.418	249.5
608.626	246.5
608.834	254.5
609.043	278.5
609.251	253.5
609.459	238.5
609.667	257.5
609.875	259.5
610.083	261.5
610.291	242.5
610.499	248.5
610.707	237.5
610.916	242.5
611.124	239.5
611.332	266.5
611.54	246.5
611.748	236.5
611.955	259.5
612.163	238.5
612.371	248.5
612.579	263.5
612.787	237.5
612.995	231.5
613.203	266.5
613.411	237.5
613.618	252.5
613.826	244.5
614.034	240.5
614.242	252.5
614.449	255.5
614.657	239.5
614.865	246.5
615.072	238.5
615.28	235.5
615.488	232.5
615.695	253.5
615.903	251.5
616.111	249.5
616.318	250.5
616.526	251.5
616.733	244.5
616.941	255.5
617.148	257.5
617.356	254.5
617.563	235.5
617.771	230.5
617.978	247.5
618.185	251.5
618.393	248.5
618.6	235.5
618.807	235.5
619.015	250.5
619.222	245.5
619.429	237.5
619.637	229.5
619.844	234.5
620.051	254.5
620.258	223.5
620.466	219.5
620.673	238.5
620.88	229.5
621.087	228.5
621.294	243.5
621.501	227.5
621.708	228.5
621.915	218.5
622.122	218.5
622.329	212.5
622.536	212.5
622.743	247.5
622.95	234.5
623.157	245.5
623.364	212.5
623.571	228.5
623.778	220.5
623.985	231.5
624.192	230.5
624.399	233.5
624.606	215.5
624.812	228.5
625.019	215.5
625.226	213.5
625.433	227.5
625.639	203.5
625.846	232.5
626.053	228.5
626.259	211.5
626.466	206.5
626.673	230.5
626.879	211.5
627.086	223.5
627.293	217.5
627.499	217.5
627.706	205.5
627.912	209.5
628.119	197.5
628.325	188.5
628.532	198.5
628.738	205.5
628.945	178.5
629.151	189.5
629.357	196.5
629.564	191.5
629.77	203.5
629.976	194.5
630.183	180.5
630.389	202.5
630.595	203.5
630.802	182.5
631.008	191.5
631.214	180.5
631.42	192.5
631.627	199.5
631.833	184.5
632.039	191.5
632.245	173.5
632.451	179.5
632.657	183.5
632.863	194.5
633.069	212.5
633.275	205.5
633.481	189.5
633.688	184.5
633.893	209.5
634.099	205.5
634.305	178.5
634.511	169.5
634.717	197.5
634.923	188.5
635.129	182.5
635.335	203.5
635.541	183.5
635.747	186.5
635.952	177.5
636.158	188.5
636.364	189.5
636.57	183.5
636.775	194.5
636.981	188.5
637.187	187.5
637.392	181.5
637.598	170.5
637.804	170.5
638.009	188.5
638.215	174.5
638.421	178.5
638.626	178.5
638.832	171.5
639.037	153.5
639.243	196.5
639.448	170.5
639.654	187.5
639.859	172.5
640.065	172.5
640.27	173.5
640.475	173.5
640.681	181.5
640.886	182.5
641.091	194.5
641.297	188.5
641.502	170.5
641.707	172.5
641.913	179.5
642.118	172.5
642.323	171.5
642.528	184.5
642.733	177.5
642.939	168.5
643.144	170.5
643.349	169.5
643.554	187.5
643.759	165.5
643.964	176.5
644.169	175.5
644.374	177.5
644.579	183.5
644.784	181.5
644.989	167.5
645.194	162.5
645.399	160.5
645.604	167.5
645.809	167.5
646.014	179.5
646.219	166.5
646.423	166.5
646.628	169.5
646.833	181.5
647.038	170.5
647.243	187.5
647.447	169.5
647.652	168.5
647.857	178.5
648.062	177.5
648.266	181.5
648.471	175.5
648.676	188.5
648.88	179.5
649.085	177.5
649.289	174.5
649.494	170.5
649.698	163.5
649.903	156.5
650.107	170.5
650.312	191.5
650.516	174.5
650.721	162.5
650.925	153.5
651.13	158.5
651.334	157.5
651.539	169.5
651.743	154.5
651.947	167.5
652.152	147.5
652.356	150.5
652.56	156.5
652.764	149.5
652.969	157.5
653.173	140.5
653.377	142.5
653.581	138.5
653.785	154.5
653.99	156.5
654.194	150.5
654.398	152.5
654.602	144.5
654.806	140.5
655.01	145.5
655.214	150.5
655.418	150.5
655.622	163.5
655.826	147.5
656.03	145.5
656.234	158.5
656.438	156.5
656.642	155.5
656.846	155.5
657.049	151.5
657.253	135.5
657.457	130.5
657.661	128.5
657.865	130.5
658.068	116.5
658.272	114.5
658.476	136.5
658.68	106.5
658.883	101.5
659.087	114.5
659.291	117.5
659.494	107.5
659.698	118.5
659.901	102.5
660.105	86.5
660.309	102.5
660.512	89.5
660.716	94.5
660.919	93.5
661.123	99.5
661.326	93.5
661.53	97.5
661.733	104.5
661.936	91.5
662.14	107.5
662.343	94.5
662.546	72.5
662.75	89.5
662.953	92.5
663.156	85.5
663.36	90.5
663.563	89.5
663.766	76.5
663.969	65.5
664.173	83.5
664.376	98.5
664.579	97.5
664.782	76.5
664.985	94.5
665.188	79.5
665.391	74.5
665.594	82.5
665.797	80.5
666	91.5
666.203	95.5
666.406	100.5
666.609	78.5
666.812	83.5
667.015	76.5
667.218	90.5
667.421	88.5
667.624	91.5
667.827	83.5
668.03	79.5
668.232	84.5
668.435	77.5
668.638	87.5
668.841	85.5
669.043	84.5
669.246	75.5
669.449	89.5
669.651	81.5
669.854	82.5
670.057	92.5
670.259	91.5
670.462	84.5
670.665	76.5
670.867	93.5
671.07	83.5
671.272	88.5
671.475	90.5
671.677	80.5
671.88	87.5
672.082	73.5
672.284	79.5
672.487	88.5
672.689	71.5
672.892	90.5
