Data from Ni(NO3)2@0.5M.TitratingCurve.Agarose3%dH2O.NegLispCup.LampEnergy10.LIBS07252019_HRD10591_17-57-11-564.txt Node
Date: Thu Jul 25 17:57:11 EDT 2019
User: cochatt
Spectrometer: HR+D1059
Trigger mode: 1
Integration Time (sec): 1.000000E-1
Scans to average: 1
Electric dark correction enabled: true
Nonlinearity correction enabled: false
Boxcar width: 0
XAxis mode: Wavelengths
Number of Pixels in Spectrum: 2048
>>>>>Begin Spectral Data<<<<<
223.165	-11.19
223.4	-11.19
223.635	-11.19
223.869	-19.19
224.104	-19.19
224.338	-2.19
224.573	-26.19
224.808	-15.19
225.042	-14.19
225.277	-1.19
225.511	-0.19
225.746	-3.19
225.98	-0.19
226.215	17.81
226.449	11.81
226.683	29.81
226.918	28.81
227.152	23.81
227.387	29.81
227.621	42.81
227.856	44.81
228.09	51.81
228.324	51.81
228.559	57.81
228.793	79.81
229.027	118.81
229.262	140.81
229.496	141.81
229.73	130.81
229.964	159.81
230.199	185.81
230.433	187.81
230.667	180.81
230.901	183.81
231.136	147.81
231.37	160.81
231.604	177.81
231.838	197.81
232.072	181.81
232.306	187.81
232.541	171.81
232.775	164.81
233.009	167.81
233.243	159.81
233.477	155.81
233.711	170.81
233.945	169.81
234.179	155.81
234.413	160.81
234.647	180.81
234.881	170.81
235.115	171.81
235.349	161.81
235.583	172.81
235.817	169.81
236.051	172.81
236.285	177.81
236.519	181.81
236.753	173.81
236.987	172.81
237.221	173.81
237.455	187.81
237.689	172.81
237.922	196.81
238.156	189.81
238.39	203.81
238.624	197.81
238.858	194.81
239.091	167.81
239.325	178.81
239.559	211.81
239.793	231.81
240.027	215.81
240.26	198.81
240.494	203.81
240.728	194.81
240.961	195.81
241.195	203.81
241.429	199.81
241.662	213.81
241.896	221.81
242.13	223.81
242.363	216.81
242.597	212.81
242.83	212.81
243.064	208.81
243.298	229.81
243.531	229.81
243.765	212.81
243.998	229.81
244.232	248.81
244.465	247.81
244.699	244.81
244.932	244.81
245.166	255.81
245.399	239.81
245.633	260.81
245.866	234.81
246.099	259.81
246.333	260.81
246.566	257.81
246.8	244.81
247.033	254.81
247.266	249.81
247.5	253.81
247.733	258.81
247.966	286.81
248.2	284.81
248.433	299.81
248.666	289.81
248.899	276.81
249.133	278.81
249.366	259.81
249.599	259.81
249.832	279.81
250.066	300.81
250.299	293.81
250.532	281.81
250.765	307.81
250.998	301.81
251.231	307.81
251.465	304.81
251.698	319.81
251.931	329.81
252.164	321.81
252.397	307.81
252.63	319.81
252.863	298.81
253.096	318.81
253.329	334.81
253.562	332.81
253.795	335.81
254.028	323.81
254.261	328.81
254.494	343.81
254.727	336.81
254.96	353.81
255.193	346.81
255.426	344.81
255.659	333.81
255.892	350.81
256.124	343.81
256.357	353.81
256.59	359.81
256.823	348.81
257.056	391.81
257.289	364.81
257.521	371.81
257.754	387.81
257.987	383.81
258.22	351.81
258.452	374.81
258.685	395.81
258.918	380.81
259.151	390.81
259.383	381.81
259.616	391.81
259.849	404.81
260.081	397.81
260.314	415.81
260.547	410.81
260.779	413.81
261.012	426.81
261.244	419.81
261.477	430.81
261.71	419.81
261.942	412.81
262.175	404.81
262.407	419.81
262.64	424.81
262.872	439.81
263.105	423.81
263.337	413.81
263.57	417.81
263.802	419.81
264.035	433.81
264.267	438.81
264.499	445.81
264.732	468.81
264.964	459.81
265.197	431.81
265.429	446.81
265.661	445.81
265.894	460.81
266.126	445.81
266.358	465.81
266.591	454.81
266.823	444.81
267.055	469.81
267.287	470.81
267.52	450.81
267.752	462.81
267.984	445.81
268.216	456.81
268.448	466.81
268.681	479.81
268.913	483.81
269.145	470.81
269.377	499.81
269.609	477.81
269.841	465.81
270.073	476.81
270.306	478.81
270.538	492.81
270.77	517.81
271.002	491.81
271.234	479.81
271.466	500.81
271.698	479.81
271.93	502.81
272.162	498.81
272.394	507.81
272.626	498.81
272.858	510.81
273.09	496.81
273.322	540.81
273.553	516.81
273.785	505.81
274.017	518.81
274.249	513.81
274.481	525.81
274.713	521.81
274.945	525.81
275.176	524.81
275.408	507.81
275.64	548.81
275.872	535.81
276.104	533.81
276.335	518.81
276.567	548.81
276.799	547.81
277.031	552.81
277.262	552.81
277.494	542.81
277.726	562.81
277.957	564.81
278.189	550.81
278.421	546.81
278.652	543.81
278.884	563.81
279.115	565.81
279.347	563.81
279.579	569.81
279.81	544.81
280.042	561.81
280.273	563.81
280.505	560.81
280.736	581.81
280.968	581.81
281.199	569.81
281.431	600.81
281.662	586.81
281.894	571.81
282.125	576.81
282.356	572.81
282.588	602.81
282.819	580.81
283.051	585.81
283.282	588.81
283.513	585.81
283.745	591.81
283.976	606.81
284.207	581.81
284.439	587.81
284.67	564.81
284.901	611.81
285.132	606.81
285.364	629.81
285.595	618.81
285.826	620.81
286.057	601.81
286.288	604.81
286.52	606.81
286.751	632.81
286.982	615.81
287.213	633.81
287.444	630.81
287.675	612.81
287.906	617.81
288.138	632.81
288.369	635.81
288.6	625.81
288.831	617.81
289.062	612.81
289.293	633.81
289.524	629.81
289.755	624.81
289.986	644.81
290.217	634.81
290.448	642.81
290.679	635.81
290.91	629.81
291.141	650.81
291.371	661.81
291.602	654.81
291.833	627.81
292.064	637.81
292.295	641.81
292.526	653.81
292.757	681.81
292.987	655.81
293.218	651.81
293.449	652.81
293.68	649.81
293.91	628.81
294.141	646.81
294.372	625.81
294.603	647.81
294.833	663.81
295.064	648.81
295.295	652.81
295.525	666.81
295.756	653.81
295.987	642.81
296.217	659.81
296.448	644.81
296.679	665.81
296.909	680.81
297.14	675.81
297.37	675.81
297.601	689.81
297.831	661.81
298.062	659.81
298.292	672.81
298.523	702.81
298.753	692.81
298.984	687.81
299.214	704.81
299.445	665.81
299.675	691.81
299.905	701.81
300.136	714.81
300.366	707.81
300.597	751.81
300.827	730.81
301.057	703.81
301.288	729.81
301.518	717.81
301.748	699.81
301.979	724.81
302.209	704.81
302.439	716.81
302.669	743.81
302.9	697.81
303.13	711.81
303.36	748.81
303.59	733.81
303.82	763.81
304.051	736.81
304.281	739.81
304.511	715.81
304.741	774.81
304.971	755.81
305.201	774.81
305.431	782.81
305.661	769.81
305.891	756.81
306.121	735.81
306.352	751.81
306.582	754.81
306.812	751.81
307.042	727.81
307.272	747.81
307.502	745.81
307.731	747.81
307.961	764.81
308.191	771.81
308.421	767.81
308.651	732.81
308.881	753.81
309.111	763.81
309.341	746.81
309.571	780.81
309.8	768.81
310.03	779.81
310.26	811.81
310.49	825.81
310.72	803.81
310.949	771.81
311.179	796.81
311.409	777.81
311.639	772.81
311.868	787.81
312.098	780.81
312.328	774.81
312.557	820.81
312.787	800.81
313.017	817.81
313.246	819.81
313.476	838.81
313.706	836.81
313.935	825.81
314.165	807.81
314.394	857.81
314.624	829.81
314.853	805.81
315.083	819.81
315.312	837.81
315.542	829.81
315.771	836.81
316.001	842.81
316.23	849.81
316.46	845.81
316.689	858.81
316.919	859.81
317.148	876.81
317.377	882.81
317.607	847.81
317.836	852.81
318.065	844.81
318.295	874.81
318.524	884.81
318.753	883.81
318.983	852.81
319.212	868.81
319.441	874.81
319.67	895.81
319.9	884.81
320.129	900.81
320.358	885.81
320.587	871.81
320.816	925.81
321.046	924.81
321.275	897.81
321.504	933.81
321.733	923.81
321.962	913.81
322.191	920.81
322.42	927.81
322.649	904.81
322.878	961.81
323.108	938.81
323.337	947.81
323.566	949.81
323.795	956.81
324.024	939.81
324.253	951.81
324.482	965.81
324.71	966.81
324.939	944.81
325.168	938.81
325.397	984.81
325.626	950.81
325.855	968.81
326.084	1001.81
326.313	986.81
326.542	966.81
326.77	992.81
326.999	957.81
327.228	971.81
327.457	1000.81
327.686	998.81
327.914	977.81
328.143	1025.81
328.372	1001.81
328.6	1011.81
328.829	993.81
329.058	1004.81
329.287	1010.81
329.515	987.81
329.744	1029.81
329.972	998.81
330.201	1031.81
330.43	1061.81
330.658	1040.81
330.887	1036.81
331.115	1032.81
331.344	1041.81
331.572	1044.81
331.801	1030.81
332.03	1077.81
332.258	1037.81
332.486	1051.81
332.715	1075.81
332.943	1099.81
333.172	1091.81
333.4	1044.81
333.629	1096.81
333.857	1093.81
334.085	1093.81
334.314	1109.81
334.542	1097.81
334.771	1136.81
334.999	1099.81
335.227	1131.81
335.455	1127.81
335.684	1123.81
335.912	1159.81
336.14	1130.81
336.369	1155.81
336.597	1164.81
336.825	1175.81
337.053	1160.81
337.281	1161.81
337.51	1152.81
337.738	1139.81
337.966	1143.81
338.194	1177.81
338.422	1153.81
338.65	1099.81
338.878	1131.81
339.106	1145.81
339.334	1155.81
339.562	1157.81
339.79	1085.81
340.018	1073.81
340.246	1093.81
340.474	1124.81
340.702	1108.81
340.93	1117.81
341.158	1092.81
341.386	1120.81
341.614	1183.81
341.842	1141.81
342.07	1139.81
342.298	1115.81
342.526	1111.81
342.754	1121.81
342.981	1110.81
343.209	1122.81
343.437	1079.81
343.665	1171.81
343.893	1174.81
344.12	1146.81
344.348	1130.81
344.576	1130.81
344.804	1156.81
345.031	1127.81
345.259	1105.81
345.487	1138.81
345.714	1115.81
345.942	1140.81
346.17	1160.81
346.397	1150.81
346.625	1127.81
346.853	1113.81
347.08	1085.81
347.308	1102.81
347.535	1103.81
347.763	1028.81
347.99	1073.81
348.218	1069.81
348.445	1062.81
348.673	1068.81
348.9	1086.81
349.128	1105.81
349.355	1097.81
349.583	1090.81
349.81	1062.81
350.037	1047.81
350.265	1074.81
350.492	1059.81
350.72	1063.81
350.947	1069.81
351.174	1160.81
351.402	1097.81
351.629	1088.81
351.856	1087.81
352.083	1058.81
352.311	1088.81
352.538	1117.81
352.765	1135.81
352.992	1081.81
353.22	1043.81
353.447	1054.81
353.674	1030.81
353.901	1040.81
354.128	1048.81
354.355	1029.81
354.583	1031.81
354.81	1060.81
355.037	1035.81
355.264	1045.81
355.491	1051.81
355.718	1039.81
355.945	1002.81
356.172	1067.81
356.399	1048.81
356.626	1087.81
356.853	1073.81
357.08	1083.81
357.307	1022.81
357.534	1013.81
357.761	1042.81
357.988	1051.81
358.215	1043.81
358.441	1073.81
358.668	1046.81
358.895	1055.81
359.122	1041.81
359.349	1029.81
359.576	1047.81
359.802	1063.81
360.029	1051.81
360.256	1025.81
360.483	1055.81
360.709	1037.81
360.936	1055.81
361.163	1066.81
361.39	1046.81
361.616	1057.81
361.843	1085.81
362.07	1105.81
362.296	1093.81
362.523	1068.81
362.749	1054.81
362.976	1058.81
363.203	1078.81
363.429	1044.81
363.656	1066.81
363.882	1071.81
364.109	1036.81
364.335	1036.81
364.562	1041.81
364.788	1067.81
365.015	1080.81
365.241	1068.81
365.468	1060.81
365.694	1023.81
365.92	1042.81
366.147	1043.81
366.373	1073.81
366.599	1096.81
366.826	1047.81
367.052	1065.81
367.278	1065.81
367.505	1060.81
367.731	1053.81
367.957	1049.81
368.184	1075.81
368.41	1075.81
368.636	1063.81
368.862	1052.81
369.089	1069.81
369.315	1077.81
369.541	1087.81
369.767	1073.81
369.993	1088.81
370.219	1090.81
370.445	1106.81
370.672	1081.81
370.898	1110.81
371.124	1089.81
371.35	1057.81
371.576	1090.81
371.802	1088.81
372.028	1119.81
372.254	1119.81
372.48	1113.81
372.706	1098.81
372.932	1090.81
373.158	1087.81
373.384	1107.81
373.61	1133.81
373.835	1082.81
374.061	1105.81
374.287	1117.81
374.513	1108.81
374.739	1086.81
374.965	1130.81
375.191	1111.81
375.416	1101.81
375.642	1088.81
375.868	1081.81
376.094	1052.81
376.319	1071.81
376.545	1081.81
376.771	1087.81
376.997	1059.81
377.222	1095.81
377.448	1050.81
377.674	1119.81
377.899	1075.81
378.125	1078.81
378.35	1052.81
378.576	1092.81
378.802	1072.81
379.027	1078.81
379.253	1084.81
379.478	1060.81
379.704	1061.81
379.929	1036.81
380.155	1059.81
380.38	1061.81
380.606	1066.81
380.831	1055.81
381.057	1083.81
381.282	1091.81
381.507	1057.81
381.733	1069.81
381.958	1089.81
382.184	1081.81
382.409	1079.81
382.634	1093.81
382.86	1103.81
383.085	1107.81
383.31	1090.81
383.535	1123.81
383.761	1097.81
383.986	1087.81
384.211	1116.81
384.436	1107.81
384.662	1139.81
384.887	1123.81
385.112	1145.81
385.337	1120.81
385.562	1128.81
385.787	1116.81
386.013	1151.81
386.238	1149.81
386.463	1155.81
386.688	1141.81
386.913	1145.81
387.138	1157.81
387.363	1162.81
387.588	1149.81
387.813	1154.81
388.038	1144.81
388.263	1154.81
388.488	1167.81
388.713	1195.81
388.938	1158.81
389.163	1157.81
389.387	1176.81
389.612	1170.81
389.837	1130.81
390.062	1135.81
390.287	1171.81
390.512	1187.81
390.736	1189.81
390.961	1203.81
391.186	1203.81
391.411	1195.81
391.636	1196.81
391.86	1168.81
392.085	1176.81
392.31	1195.81
392.534	1200.81
392.759	1209.81
392.984	1195.81
393.208	1195.81
393.433	1185.81
393.658	1170.81
393.882	1193.81
394.107	1186.81
394.331	1166.81
394.556	1185.81
394.78	1189.81
395.005	1199.81
395.229	1209.81
395.454	1209.81
395.678	1193.81
395.903	1189.81
396.127	1206.81
396.352	1224.81
396.576	1222.81
396.801	1230.81
397.025	1249.81
397.249	1226.81
397.474	1250.81
397.698	1251.81
397.922	1268.81
398.147	1246.81
398.371	1247.81
398.595	1263.81
398.82	1292.81
399.044	1324.81
399.268	1315.81
399.492	1349.81
399.717	1345.81
399.941	1366.81
400.165	1359.81
400.389	1357.81
400.613	1368.81
400.837	1348.81
401.062	1315.81
401.286	1305.81
401.51	1320.81
401.734	1266.81
401.958	1307.81
402.182	1311.81
402.406	1321.81
402.63	1272.81
402.854	1297.81
403.078	1294.81
403.302	1302.81
403.526	1291.81
403.75	1315.81
403.974	1304.81
404.198	1297.81
404.422	1312.81
404.645	1280.81
404.869	1305.81
405.093	1313.81
405.317	1306.81
405.541	1333.81
405.765	1303.81
405.988	1303.81
406.212	1332.81
406.436	1330.81
406.66	1347.81
406.883	1356.81
407.107	1377.81
407.331	1429.81
407.555	1431.81
407.778	1368.81
408.002	1415.81
408.226	1387.81
408.449	1441.81
408.673	1381.81
408.896	1391.81
409.12	1397.81
409.344	1375.81
409.567	1385.81
409.791	1384.81
410.014	1393.81
410.238	1373.81
410.461	1385.81
410.685	1360.81
410.908	1355.81
411.132	1369.81
411.355	1345.81
411.578	1337.81
411.802	1362.81
412.025	1335.81
412.249	1348.81
412.472	1371.81
412.695	1313.81
412.919	1327.81
413.142	1323.81
413.365	1344.81
413.589	1348.81
413.812	1320.81
414.035	1317.81
414.258	1301.81
414.482	1317.81
414.705	1307.81
414.928	1331.81
415.151	1313.81
415.374	1323.81
415.597	1290.81
415.821	1251.81
416.044	1256.81
416.267	1266.81
416.49	1298.81
416.713	1275.81
416.936	1287.81
417.159	1290.81
417.382	1241.81
417.605	1250.81
417.828	1234.81
418.051	1274.81
418.274	1233.81
418.497	1227.81
418.72	1264.81
418.943	1248.81
419.166	1297.81
419.389	1356.81
419.611	1331.81
419.834	1335.81
420.057	1319.81
420.28	1273.81
420.503	1252.81
420.726	1229.81
420.948	1258.81
421.171	1256.81
421.394	1263.81
421.617	1243.81
421.839	1267.81
422.062	1269.81
422.285	1253.81
422.507	1275.81
422.73	1269.81
422.953	1261.81
423.175	1244.81
423.398	1286.81
423.621	1265.81
423.843	1265.81
424.066	1276.81
424.288	1242.81
424.511	1255.81
424.733	1253.81
424.956	1255.81
425.178	1237.81
425.401	1236.81
425.623	1261.81
425.846	1237.81
426.068	1273.81
426.291	1261.81
426.513	1284.81
426.735	1285.81
426.958	1277.81
427.18	1226.81
427.402	1257.81
427.625	1265.81
427.847	1254.81
428.069	1252.81
428.292	1252.81
428.514	1243.81
428.736	1251.81
428.958	1233.81
429.181	1248.81
429.403	1210.81
429.625	1252.81
429.847	1200.81
430.069	1244.81
430.292	1223.81
430.514	1237.81
430.736	1274.81
430.958	1246.81
431.18	1230.81
431.402	1244.81
431.624	1233.81
431.846	1223.81
432.068	1228.81
432.29	1247.81
432.512	1226.81
432.734	1249.81
432.956	1251.81
433.178	1301.81
433.4	1304.81
433.622	1324.81
433.844	1300.81
434.066	1276.81
434.287	1256.81
434.509	1298.81
434.731	1276.81
434.953	1263.81
435.175	1303.81
435.397	1296.81
435.618	1267.81
435.84	1269.81
436.062	1247.81
436.284	1255.81
436.505	1268.81
436.727	1279.81
436.949	1243.81
437.17	1234.81
437.392	1250.81
437.614	1254.81
437.835	1229.81
438.057	1225.81
438.278	1193.81
438.5	1232.81
438.721	1253.81
438.943	1211.81
439.165	1215.81
439.386	1199.81
439.608	1256.81
439.829	1251.81
440.05	1235.81
440.272	1278.81
440.493	1245.81
440.715	1260.81
440.936	1248.81
441.158	1260.81
441.379	1258.81
441.6	1300.81
441.822	1289.81
442.043	1286.81
442.264	1274.81
442.486	1269.81
442.707	1289.81
442.928	1288.81
443.149	1314.81
443.371	1301.81
443.592	1344.81
443.813	1324.81
444.034	1267.81
444.255	1299.81
444.476	1249.81
444.698	1289.81
444.919	1327.81
445.14	1420.81
445.361	1365.81
445.582	1281.81
445.803	1236.81
446.024	1235.81
446.245	1245.81
446.466	1252.81
446.687	1226.81
446.908	1239.81
447.129	1194.81
447.35	1220.81
447.571	1209.81
447.792	1161.81
448.013	1196.81
448.234	1183.81
448.455	1185.81
448.675	1166.81
448.896	1185.81
449.117	1186.81
449.338	1149.81
449.559	1158.81
449.779	1177.81
450	1148.81
450.221	1147.81
450.442	1131.81
450.662	1165.81
450.883	1145.81
451.104	1171.81
451.324	1159.81
451.545	1177.81
451.766	1140.81
451.986	1148.81
452.207	1131.81
452.428	1120.81
452.648	1140.81
452.869	1125.81
453.089	1119.81
453.31	1161.81
453.53	1128.81
453.751	1117.81
453.971	1111.81
454.192	1119.81
454.412	1118.81
454.633	1129.81
454.853	1094.81
455.073	1116.81
455.294	1124.81
455.514	1125.81
455.734	1136.81
455.955	1144.81
456.175	1117.81
456.395	1104.81
456.616	1064.81
456.836	1092.81
457.056	1093.81
457.276	1085.81
457.497	1131.81
457.717	1167.81
457.937	1125.81
458.157	1127.81
458.377	1156.81
458.598	1156.81
458.818	1126.81
459.038	1187.81
459.258	1159.81
459.478	1217.81
459.698	1257.81
459.918	1274.81
460.138	1257.81
460.358	1249.81
460.578	1218.81
460.798	1296.81
461.018	1289.81
461.238	1281.81
461.458	1269.81
461.678	1276.81
461.898	1255.81
462.118	1292.81
462.338	1314.81
462.558	1324.81
462.777	1363.81
462.997	1337.81
463.217	1341.81
463.437	1428.81
463.657	1395.81
463.876	1332.81
464.096	1356.81
464.316	1356.81
464.536	1288.81
464.755	1301.81
464.975	1301.81
465.195	1279.81
465.414	1243.81
465.634	1273.81
465.854	1235.81
466.073	1242.81
466.293	1201.81
466.512	1181.81
466.732	1199.81
466.951	1192.81
467.171	1201.81
467.391	1192.81
467.61	1229.81
467.829	1189.81
468.049	1179.81
468.268	1174.81
468.488	1201.81
468.707	1204.81
468.927	1177.81
469.146	1183.81
469.365	1224.81
469.585	1177.81
469.804	1203.81
470.023	1205.81
470.243	1208.81
470.462	1165.81
470.681	1203.81
470.901	1210.81
471.12	1219.81
471.339	1200.81
471.558	1210.81
471.777	1235.81
471.997	1219.81
472.216	1242.81
472.435	1225.81
472.654	1201.81
472.873	1192.81
473.092	1194.81
473.311	1201.81
473.53	1259.81
473.749	1236.81
473.968	1237.81
474.187	1221.81
474.406	1239.81
474.625	1256.81
474.844	1231.81
475.063	1269.81
475.282	1267.81
475.501	1253.81
475.72	1264.81
475.939	1234.81
476.158	1275.81
476.377	1273.81
476.596	1271.81
476.814	1303.81
477.033	1269.81
477.252	1257.81
477.471	1309.81
477.69	1339.81
477.908	1324.81
478.127	1350.81
478.346	1356.81
478.564	1407.81
478.783	1346.81
479.002	1446.81
479.22	1435.81
479.439	1411.81
479.658	1401.81
479.876	1392.81
480.095	1405.81
480.313	1448.81
480.532	1398.81
480.751	1403.81
480.969	1419.81
481.188	1405.81
481.406	1419.81
481.624	1401.81
481.843	1399.81
482.061	1400.81
482.28	1400.81
482.498	1430.81
482.717	1432.81
482.935	1436.81
483.153	1458.81
483.372	1514.81
483.59	1520.81
483.808	1480.81
484.027	1457.81
484.245	1474.81
484.463	1456.81
484.681	1475.81
484.9	1465.81
485.118	1506.81
485.336	1483.81
485.554	1480.81
485.772	1446.81
485.99	1442.81
486.209	1475.81
486.427	1445.81
486.645	1498.81
486.863	1506.81
487.081	1509.81
487.299	1497.81
487.517	1467.81
487.735	1517.81
487.953	1521.81
488.171	1563.81
488.389	1520.81
488.607	1515.81
488.825	1485.81
489.043	1484.81
489.261	1506.81
489.479	1516.81
489.696	1486.81
489.914	1505.81
490.132	1466.81
490.35	1500.81
490.568	1538.81
490.786	1521.81
491.003	1533.81
491.221	1525.81
491.439	1515.81
491.657	1563.81
491.874	1533.81
492.092	1591.81
492.31	1560.81
492.527	1576.81
492.745	1582.81
492.963	1557.81
493.18	1571.81
493.398	1548.81
493.615	1599.81
493.833	1553.81
494.05	1549.81
494.268	1579.81
494.485	1551.81
494.703	1561.81
494.92	1568.81
495.138	1589.81
495.355	1611.81
495.573	1594.81
495.79	1599.81
496.008	1618.81
496.225	1621.81
496.442	1596.81
496.66	1625.81
496.877	1647.81
497.094	1654.81
497.312	1677.81
497.529	1688.81
497.746	1682.81
497.963	1656.81
498.181	1724.81
498.398	1711.81
498.615	1763.81
498.832	1756.81
499.049	1819.81
499.267	1873.81
499.484	1922.81
499.701	1914.81
499.918	1907.81
500.135	1970.81
500.352	1982.81
500.569	2006.81
500.786	1992.81
501.003	1964.81
501.22	1980.81
501.437	1947.81
501.654	1929.81
501.871	1919.81
502.088	1858.81
502.305	1814.81
502.522	1772.81
502.739	1756.81
502.956	1712.81
503.172	1684.81
503.389	1658.81
503.606	1655.81
503.823	1626.81
504.04	1571.81
504.256	1600.81
504.473	1557.81
504.69	1576.81
504.907	1528.81
505.123	1503.81
505.34	1520.81
505.557	1503.81
505.773	1483.81
505.99	1478.81
506.207	1461.81
506.423	1431.81
506.64	1443.81
506.856	1412.81
507.073	1402.81
507.289	1387.81
507.506	1374.81
507.722	1408.81
507.939	1369.81
508.155	1379.81
508.372	1362.81
508.588	1339.81
508.805	1353.81
509.021	1344.81
509.238	1344.81
509.454	1300.81
509.67	1324.81
509.887	1322.81
510.103	1316.81
510.319	1271.81
510.536	1325.81
510.752	1242.81
510.968	1275.81
511.184	1290.81
511.401	1297.81
511.617	1275.81
511.833	1266.81
512.049	1229.81
512.265	1250.81
512.481	1285.81
512.698	1267.81
512.914	1262.81
513.13	1285.81
513.346	1296.81
513.562	1267.81
513.778	1244.81
513.994	1245.81
514.21	1238.81
514.426	1240.81
514.642	1256.81
514.858	1259.81
515.074	1268.81
515.29	1255.81
515.506	1253.81
515.721	1277.81
515.937	1304.81
516.153	1278.81
516.369	1278.81
516.585	1307.81
516.801	1325.81
517.016	1283.81
517.232	1288.81
517.448	1289.81
517.664	1309.81
517.879	1305.81
518.095	1309.81
518.311	1301.81
518.527	1291.81
518.742	1279.81
518.958	1291.81
519.173	1283.81
519.389	1281.81
519.605	1259.81
519.82	1259.81
520.036	1272.81
520.251	1227.81
520.467	1236.81
520.682	1215.81
520.898	1166.81
521.113	1202.81
521.329	1192.81
521.544	1193.81
521.76	1193.81
521.975	1179.81
522.19	1176.81
522.406	1176.81
522.621	1187.81
522.836	1183.81
523.052	1187.81
523.267	1166.81
523.482	1144.81
523.698	1154.81
523.913	1117.81
524.128	1153.81
524.343	1153.81
524.559	1153.81
524.774	1157.81
524.989	1169.81
525.204	1168.81
525.419	1170.81
525.634	1171.81
525.849	1160.81
526.064	1117.81
526.28	1128.81
526.495	1117.81
526.71	1133.81
526.925	1097.81
527.14	1092.81
527.355	1132.81
527.57	1113.81
527.785	1096.81
527.999	1098.81
528.214	1112.81
528.429	1126.81
528.644	1137.81
528.859	1142.81
529.074	1130.81
529.289	1123.81
529.503	1114.81
529.718	1121.81
529.933	1114.81
530.148	1088.81
530.363	1088.81
530.577	1091.81
530.792	1051.81
531.007	1086.81
531.221	1127.81
531.436	1089.81
531.651	1060.81
531.865	1025.81
532.08	1063.81
532.295	1047.81
532.509	1059.81
532.724	1059.81
532.938	1075.81
533.153	1079.81
533.367	1075.81
533.582	1088.81
533.796	1049.81
534.011	1042.81
534.225	1049.81
534.44	1057.81
534.654	1032.81
534.868	1045.81
535.083	1035.81
535.297	1055.81
535.511	1035.81
535.726	1039.81
535.94	1041.81
536.154	1039.81
536.369	1015.81
536.583	1009.81
536.797	1008.81
537.011	1010.81
537.225	1030.81
537.44	1013.81
537.654	1011.81
537.868	1016.81
538.082	1006.81
538.296	1019.81
538.51	990.81
538.724	1000.81
538.938	993.81
539.153	989.81
539.367	1003.81
539.581	975.81
539.795	977.81
540.009	991.81
540.222	974.81
540.436	987.81
540.65	956.81
540.864	989.81
541.078	976.81
541.292	981.81
541.506	991.81
541.72	998.81
541.934	1015.81
542.147	1029.81
542.361	995.81
542.575	985.81
542.789	979.81
543.002	992.81
543.216	939.81
543.43	996.81
543.644	945.81
543.857	971.81
544.071	985.81
544.285	979.81
544.498	944.81
544.712	956.81
544.925	986.81
545.139	968.81
545.352	969.81
545.566	968.81
545.779	957.81
545.993	994.81
546.206	1007.81
546.42	981.81
546.633	976.81
546.847	970.81
547.06	961.81
547.274	953.81
547.487	977.81
547.7	964.81
547.914	975.81
548.127	983.81
548.34	959.81
548.554	969.81
548.767	959.81
548.98	993.81
549.193	958.81
549.407	939.81
549.62	925.81
549.833	921.81
550.046	943.81
550.259	914.81
550.473	935.81
550.686	952.81
550.899	946.81
551.112	930.81
551.325	933.81
551.538	972.81
551.751	926.81
551.964	931.81
552.177	919.81
552.39	939.81
552.603	926.81
552.816	943.81
553.029	920.81
553.242	959.81
553.455	915.81
553.667	944.81
553.88	918.81
554.093	906.81
554.306	899.81
554.519	908.81
554.732	924.81
554.944	864.81
555.157	906.81
555.37	895.81
555.583	899.81
555.795	888.81
556.008	881.81
556.221	866.81
556.433	875.81
556.646	867.81
556.859	862.81
557.071	860.81
557.284	849.81
557.496	850.81
557.709	845.81
557.921	842.81
558.134	813.81
558.346	834.81
558.559	845.81
558.771	793.81
558.984	826.81
559.196	810.81
559.409	821.81
559.621	816.81
559.833	823.81
560.046	808.81
560.258	830.81
560.47	808.81
560.683	796.81
560.895	785.81
561.107	810.81
561.32	808.81
561.532	797.81
561.744	812.81
561.956	808.81
562.168	788.81
562.381	798.81
562.593	804.81
562.805	797.81
563.017	804.81
563.229	812.81
563.441	804.81
563.653	816.81
563.865	812.81
564.077	791.81
564.289	796.81
564.501	818.81
564.713	849.81
564.925	824.81
565.137	804.81
565.349	822.81
565.561	810.81
565.773	808.81
565.985	840.81
566.197	827.81
566.408	838.81
566.62	856.81
566.832	865.81
567.044	849.81
567.255	855.81
567.467	857.81
567.679	834.81
567.891	830.81
568.102	832.81
568.314	824.81
568.526	807.81
568.737	826.81
568.949	795.81
569.161	779.81
569.372	764.81
569.584	752.81
569.795	773.81
570.007	740.81
570.218	740.81
570.43	759.81
570.641	738.81
570.853	701.81
571.064	711.81
571.276	728.81
571.487	681.81
571.698	707.81
571.91	668.81
572.121	677.81
572.333	687.81
572.544	647.81
572.755	667.81
572.966	635.81
573.178	669.81
573.389	674.81
573.6	647.81
573.811	660.81
574.023	647.81
574.234	641.81
574.445	639.81
574.656	647.81
574.867	629.81
575.078	609.81
575.289	619.81
575.501	630.81
575.712	612.81
575.923	605.81
576.134	627.81
576.345	592.81
576.556	607.81
576.767	582.81
576.978	593.81
577.188	599.81
577.399	597.81
577.61	597.81
577.821	588.81
578.032	606.81
578.243	577.81
578.454	610.81
578.665	583.81
578.875	579.81
579.086	578.81
579.297	568.81
579.508	565.81
579.718	576.81
579.929	567.81
580.14	552.81
580.35	547.81
580.561	571.81
580.772	546.81
580.982	553.81
581.193	553.81
581.403	547.81
581.614	554.81
581.825	548.81
582.035	534.81
582.246	531.81
582.456	543.81
582.667	532.81
582.877	535.81
583.087	539.81
583.298	537.81
583.508	532.81
583.719	533.81
583.929	521.81
584.139	534.81
584.35	537.81
584.56	532.81
584.77	512.81
584.981	520.81
585.191	494.81
585.401	516.81
585.611	505.81
585.821	511.81
586.032	533.81
586.242	515.81
586.452	526.81
586.662	544.81
586.872	477.81
587.082	506.81
587.292	513.81
587.502	527.81
587.713	514.81
587.923	499.81
588.133	483.81
588.343	507.81
588.553	515.81
588.762	497.81
588.972	517.81
589.182	591.81
589.392	543.81
589.602	502.81
589.812	523.81
590.022	515.81
590.232	510.81
590.441	499.81
590.651	482.81
590.861	499.81
591.071	495.81
591.281	501.81
591.49	476.81
591.7	478.81
591.91	479.81
592.119	493.81
592.329	476.81
592.539	487.81
592.748	497.81
592.958	499.81
593.167	487.81
593.377	515.81
593.587	497.81
593.796	472.81
594.006	479.81
594.215	481.81
594.424	474.81
594.634	491.81
594.843	470.81
595.053	478.81
595.262	472.81
595.472	455.81
595.681	474.81
595.89	477.81
596.1	455.81
596.309	457.81
596.518	460.81
596.727	448.81
596.937	455.81
597.146	467.81
597.355	444.81
597.564	417.81
597.774	443.81
597.983	437.81
598.192	425.81
598.401	416.81
598.61	405.81
598.819	425.81
599.028	440.81
599.237	426.81
599.446	442.81
599.655	419.81
599.864	420.81
600.073	442.81
600.282	420.81
600.491	425.81
600.7	425.81
600.909	412.81
601.118	420.81
601.327	405.81
601.536	428.81
601.745	419.81
601.953	395.81
602.162	418.81
602.371	409.81
602.58	407.81
602.789	405.81
602.997	418.81
603.206	393.81
603.415	404.81
603.623	386.81
603.832	384.81
604.041	396.81
604.249	392.81
604.458	418.81
604.666	381.81
604.875	387.81
605.084	384.81
605.292	377.81
605.501	416.81
605.709	390.81
605.918	396.81
606.126	405.81
606.334	377.81
606.543	389.81
606.751	378.81
606.96	387.81
607.168	395.81
607.376	387.81
607.585	361.81
607.793	371.81
608.001	402.81
608.21	405.81
608.418	370.81
608.626	376.81
608.834	391.81
609.043	383.81
609.251	388.81
609.459	362.81
609.667	369.81
609.875	383.81
610.083	374.81
610.291	379.81
610.499	389.81
610.707	365.81
610.916	354.81
611.124	358.81
611.332	367.81
611.54	356.81
611.748	376.81
611.955	367.81
612.163	344.81
612.371	361.81
612.579	387.81
612.787	375.81
612.995	360.81
613.203	354.81
613.411	361.81
613.618	366.81
613.826	355.81
614.034	342.81
614.242	362.81
614.449	373.81
614.657	328.81
614.865	354.81
615.072	356.81
615.28	347.81
615.488	356.81
615.695	329.81
615.903	337.81
616.111	361.81
616.318	370.81
616.526	361.81
616.733	358.81
616.941	358.81
617.148	344.81
617.356	346.81
617.563	362.81
617.771	336.81
617.978	321.81
618.185	327.81
618.393	311.81
618.6	332.81
618.807	342.81
619.015	345.81
619.222	341.81
619.429	330.81
619.637	332.81
619.844	325.81
620.051	324.81
620.258	342.81
620.466	317.81
620.673	313.81
620.88	319.81
621.087	322.81
621.294	316.81
621.501	315.81
621.708	340.81
621.915	333.81
622.122	332.81
622.329	327.81
622.536	324.81
622.743	330.81
622.95	320.81
623.157	326.81
623.364	327.81
623.571	313.81
623.778	312.81
623.985	307.81
624.192	309.81
624.399	310.81
624.606	327.81
624.812	306.81
625.019	336.81
625.226	294.81
625.433	303.81
625.639	292.81
625.846	303.81
626.053	297.81
626.259	296.81
626.466	283.81
626.673	315.81
626.879	279.81
627.086	293.81
627.293	286.81
627.499	298.81
627.706	322.81
627.912	298.81
628.119	292.81
628.325	291.81
628.532	294.81
628.738	291.81
628.945	284.81
629.151	296.81
629.357	285.81
629.564	288.81
629.77	297.81
629.976	286.81
630.183	287.81
630.389	287.81
630.595	300.81
630.802	279.81
631.008	264.81
631.214	283.81
631.42	289.81
631.627	279.81
631.833	267.81
632.039	258.81
632.245	281.81
632.451	263.81
632.657	269.81
632.863	274.81
633.069	265.81
633.275	268.81
633.481	281.81
633.688	270.81
633.893	275.81
634.099	272.81
634.305	282.81
634.511	271.81
634.717	259.81
634.923	239.81
635.129	265.81
635.335	261.81
635.541	259.81
635.747	263.81
635.952	249.81
636.158	267.81
636.364	264.81
636.57	253.81
636.775	259.81
636.981	281.81
637.187	267.81
637.392	253.81
637.598	267.81
637.804	258.81
638.009	252.81
638.215	256.81
638.421	254.81
638.626	257.81
638.832	241.81
639.037	257.81
639.243	250.81
639.448	243.81
639.654	265.81
639.859	240.81
640.065	244.81
640.27	248.81
640.475	254.81
640.681	234.81
640.886	234.81
641.091	258.81
641.297	253.81
641.502	245.81
641.707	245.81
641.913	252.81
642.118	242.81
642.323	245.81
642.528	261.81
642.733	268.81
642.939	263.81
643.144	253.81
643.349	266.81
643.554	242.81
643.759	244.81
643.964	262.81
644.169	251.81
644.374	245.81
644.579	225.81
644.784	232.81
644.989	234.81
645.194	225.81
645.399	232.81
645.604	249.81
645.809	246.81
646.014	246.81
646.219	248.81
646.423	245.81
646.628	258.81
646.833	237.81
647.038	241.81
647.243	257.81
647.447	248.81
647.652	248.81
647.857	238.81
648.062	255.81
648.266	241.81
648.471	250.81
648.676	252.81
648.88	231.81
649.085	240.81
649.289	256.81
649.494	247.81
649.698	226.81
649.903	249.81
650.107	247.81
650.312	258.81
650.516	250.81
650.721	241.81
650.925	244.81
651.13	232.81
651.334	232.81
651.539	220.81
651.743	234.81
651.947	224.81
652.152	220.81
652.356	218.81
652.56	234.81
652.764	225.81
652.969	239.81
653.173	211.81
653.377	232.81
653.581	225.81
653.785	240.81
653.99	212.81
654.194	232.81
654.398	224.81
654.602	229.81
654.806	222.81
655.01	220.81
655.214	231.81
655.418	236.81
655.622	226.81
655.826	236.81
656.03	235.81
656.234	231.81
656.438	225.81
656.642	246.81
656.846	228.81
657.049	214.81
657.253	200.81
657.457	195.81
657.661	194.81
657.865	194.81
658.068	182.81
658.272	168.81
658.476	167.81
658.68	155.81
658.883	153.81
659.087	131.81
659.291	121.81
659.494	135.81
659.698	129.81
659.901	145.81
660.105	125.81
660.309	125.81
660.512	119.81
660.716	112.81
660.919	112.81
661.123	111.81
661.326	122.81
661.53	114.81
661.733	117.81
661.936	104.81
662.14	95.81
662.343	90.81
662.546	89.81
662.75	92.81
662.953	87.81
663.156	85.81
663.36	86.81
663.563	95.81
663.766	88.81
663.969	84.81
664.173	82.81
664.376	83.81
664.579	69.81
664.782	65.81
664.985	77.81
665.188	83.81
665.391	82.81
665.594	80.81
665.797	89.81
666	93.81
666.203	91.81
666.406	86.81
666.609	83.81
666.812	99.81
667.015	80.81
667.218	81.81
667.421	74.81
667.624	79.81
667.827	64.81
668.03	73.81
668.232	71.81
668.435	86.81
668.638	82.81
668.841	94.81
669.043	78.81
669.246	89.81
669.449	81.81
669.651	76.81
669.854	67.81
670.057	73.81
670.259	77.81
670.462	71.81
670.665	82.81
670.867	81.81
671.07	84.81
671.272	84.81
671.475	85.81
671.677	75.81
671.88	83.81
672.082	88.81
672.284	79.81
672.487	80.81
672.689	69.81
672.892	65.81
