Data from Ni(NO3)2@0.5M.TitratingCurve.Agarose3%dH2O.NegLispCup.LampEnergy10.LIBS07252019_HRD10591_18-01-33-565.txt Node
Date: Thu Jul 25 18:01:33 EDT 2019
User: cochatt
Spectrometer: HR+D1059
Trigger mode: 1
Integration Time (sec): 1.000000E-1
Scans to average: 1
Electric dark correction enabled: true
Nonlinearity correction enabled: false
Boxcar width: 0
XAxis mode: Wavelengths
Number of Pixels in Spectrum: 2048
>>>>>Begin Spectral Data<<<<<
223.165	-30.31
223.4	-30.31
223.635	-30.31
223.869	-25.31
224.104	-14.31
224.338	-9.31
224.573	-22.31
224.808	-15.31
225.042	-10.31
225.277	3.69
225.511	-5.31
225.746	14.69
225.98	13.69
226.215	12.69
226.449	16.69
226.683	22.69
226.918	30.69
227.152	17.69
227.387	20.69
227.621	33.69
227.856	31.69
228.09	41.69
228.324	50.69
228.559	71.69
228.793	48.69
229.027	63.69
229.262	52.69
229.496	61.69
229.73	74.69
229.964	55.69
230.199	73.69
230.433	65.69
230.667	70.69
230.901	74.69
231.136	91.69
231.37	75.69
231.604	85.69
231.838	87.69
232.072	71.69
232.306	92.69
232.541	80.69
232.775	82.69
233.009	76.69
233.243	80.69
233.477	79.69
233.711	86.69
233.945	82.69
234.179	71.69
234.413	87.69
234.647	83.69
234.881	75.69
235.115	84.69
235.349	79.69
235.583	82.69
235.817	74.69
236.051	73.69
236.285	69.69
236.519	74.69
236.753	75.69
236.987	79.69
237.221	73.69
237.455	64.69
237.689	88.69
237.922	69.69
238.156	56.69
238.39	69.69
238.624	81.69
238.858	74.69
239.091	77.69
239.325	73.69
239.559	58.69
239.793	57.69
240.027	73.69
240.26	54.69
240.494	64.69
240.728	82.69
240.961	78.69
241.195	62.69
241.429	71.69
241.662	68.69
241.896	75.69
242.13	69.69
242.363	75.69
242.597	84.69
242.83	78.69
243.064	75.69
243.298	71.69
243.531	69.69
243.765	72.69
243.998	71.69
244.232	68.69
244.465	73.69
244.699	74.69
244.932	65.69
245.166	65.69
245.399	73.69
245.633	79.69
245.866	78.69
246.099	78.69
246.333	81.69
246.566	73.69
246.8	72.69
247.033	79.69
247.266	89.69
247.5	81.69
247.733	77.69
247.966	73.69
248.2	71.69
248.433	75.69
248.666	76.69
248.899	64.69
249.133	63.69
249.366	79.69
249.599	87.69
249.832	71.69
250.066	65.69
250.299	76.69
250.532	87.69
250.765	69.69
250.998	73.69
251.231	57.69
251.465	82.69
251.698	82.69
251.931	76.69
252.164	73.69
252.397	56.69
252.63	85.69
252.863	71.69
253.096	81.69
253.329	71.69
253.562	62.69
253.795	61.69
254.028	84.69
254.261	73.69
254.494	79.69
254.727	78.69
254.96	80.69
255.193	63.69
255.426	83.69
255.659	63.69
255.892	83.69
256.124	88.69
256.357	74.69
256.59	98.69
256.823	58.69
257.056	78.69
257.289	75.69
257.521	88.69
257.754	73.69
257.987	78.69
258.22	70.69
258.452	67.69
258.685	79.69
258.918	75.69
259.151	80.69
259.383	86.69
259.616	65.69
259.849	87.69
260.081	80.69
260.314	73.69
260.547	67.69
260.779	72.69
261.012	72.69
261.244	79.69
261.477	76.69
261.71	69.69
261.942	64.69
262.175	80.69
262.407	79.69
262.64	76.69
262.872	86.69
263.105	75.69
263.337	59.69
263.57	72.69
263.802	82.69
264.035	100.69
264.267	86.69
264.499	77.69
264.732	72.69
264.964	85.69
265.197	74.69
265.429	87.69
265.661	90.69
265.894	70.69
266.126	75.69
266.358	81.69
266.591	76.69
266.823	83.69
267.055	79.69
267.287	76.69
267.52	62.69
267.752	86.69
267.984	85.69
268.216	90.69
268.448	90.69
268.681	74.69
268.913	71.69
269.145	66.69
269.377	81.69
269.609	67.69
269.841	84.69
270.073	71.69
270.306	69.69
270.538	86.69
270.77	74.69
271.002	69.69
271.234	81.69
271.466	84.69
271.698	78.69
271.93	79.69
272.162	87.69
272.394	73.69
272.626	75.69
272.858	73.69
273.09	92.69
273.322	73.69
273.553	65.69
273.785	87.69
274.017	75.69
274.249	71.69
274.481	82.69
274.713	86.69
274.945	75.69
275.176	80.69
275.408	86.69
275.64	77.69
275.872	78.69
276.104	78.69
276.335	83.69
276.567	82.69
276.799	87.69
277.031	82.69
277.262	79.69
277.494	75.69
277.726	80.69
277.957	74.69
278.189	82.69
278.421	77.69
278.652	79.69
278.884	72.69
279.115	71.69
279.347	66.69
279.579	85.69
279.81	76.69
280.042	83.69
280.273	88.69
280.505	82.69
280.736	77.69
280.968	83.69
281.199	84.69
281.431	72.69
281.662	70.69
281.894	77.69
282.125	86.69
282.356	76.69
282.588	77.69
282.819	82.69
283.051	76.69
283.282	74.69
283.513	89.69
283.745	84.69
283.976	73.69
284.207	82.69
284.439	79.69
284.67	97.69
284.901	89.69
285.132	77.69
285.364	81.69
285.595	81.69
285.826	83.69
286.057	71.69
286.288	84.69
286.52	89.69
286.751	87.69
286.982	72.69
287.213	75.69
287.444	77.69
287.675	70.69
287.906	86.69
288.138	82.69
288.369	83.69
288.6	60.69
288.831	67.69
289.062	88.69
289.293	76.69
289.524	87.69
289.755	77.69
289.986	89.69
290.217	83.69
290.448	91.69
290.679	91.69
290.91	92.69
291.141	79.69
291.371	80.69
291.602	80.69
291.833	79.69
292.064	80.69
292.295	79.69
292.526	90.69
292.757	84.69
292.987	94.69
293.218	81.69
293.449	75.69
293.68	82.69
293.91	78.69
294.141	74.69
294.372	89.69
294.603	79.69
294.833	81.69
295.064	83.69
295.295	80.69
295.525	92.69
295.756	74.69
295.987	80.69
296.217	92.69
296.448	84.69
296.679	83.69
296.909	84.69
297.14	83.69
297.37	91.69
297.601	81.69
297.831	84.69
298.062	96.69
298.292	90.69
298.523	74.69
298.753	88.69
298.984	90.69
299.214	73.69
299.445	87.69
299.675	69.69
299.905	90.69
300.136	80.69
300.366	82.69
300.597	73.69
300.827	74.69
301.057	65.69
301.288	72.69
301.518	79.69
301.748	67.69
301.979	76.69
302.209	82.69
302.439	85.69
302.669	78.69
302.9	75.69
303.13	82.69
303.36	88.69
303.59	87.69
303.82	70.69
304.051	83.69
304.281	83.69
304.511	61.69
304.741	80.69
304.971	72.69
305.201	89.69
305.431	89.69
305.661	76.69
305.891	91.69
306.121	89.69
306.352	81.69
306.582	91.69
306.812	95.69
307.042	81.69
307.272	83.69
307.502	84.69
307.731	87.69
307.961	54.69
308.191	74.69
308.421	87.69
308.651	90.69
308.881	79.69
309.111	78.69
309.341	64.69
309.571	85.69
309.8	75.69
310.03	73.69
310.26	78.69
310.49	75.69
310.72	96.69
310.949	87.69
311.179	87.69
311.409	83.69
311.639	72.69
311.868	88.69
312.098	71.69
312.328	75.69
312.557	72.69
312.787	72.69
313.017	87.69
313.246	82.69
313.476	77.69
313.706	69.69
313.935	81.69
314.165	64.69
314.394	81.69
314.624	77.69
314.853	89.69
315.083	80.69
315.312	62.69
315.542	78.69
315.771	81.69
316.001	77.69
316.23	71.69
316.46	86.69
316.689	75.69
316.919	81.69
317.148	85.69
317.377	94.69
317.607	90.69
317.836	80.69
318.065	66.69
318.295	69.69
318.524	88.69
318.753	76.69
318.983	80.69
319.212	75.69
319.441	99.69
319.67	89.69
319.9	82.69
320.129	80.69
320.358	82.69
320.587	90.69
320.816	73.69
321.046	87.69
321.275	72.69
321.504	88.69
321.733	92.69
321.962	87.69
322.191	90.69
322.42	89.69
322.649	77.69
322.878	79.69
323.108	96.69
323.337	70.69
323.566	64.69
323.795	94.69
324.024	80.69
324.253	89.69
324.482	73.69
324.71	86.69
324.939	83.69
325.168	79.69
325.397	78.69
325.626	83.69
325.855	75.69
326.084	78.69
326.313	75.69
326.542	86.69
326.77	72.69
326.999	91.69
327.228	73.69
327.457	84.69
327.686	76.69
327.914	73.69
328.143	69.69
328.372	81.69
328.6	86.69
328.829	82.69
329.058	85.69
329.287	86.69
329.515	77.69
329.744	80.69
329.972	90.69
330.201	74.69
330.43	83.69
330.658	85.69
330.887	89.69
331.115	91.69
331.344	89.69
331.572	92.69
331.801	89.69
332.03	81.69
332.258	76.69
332.486	83.69
332.715	80.69
332.943	76.69
333.172	90.69
333.4	73.69
333.629	90.69
333.857	76.69
334.085	71.69
334.314	86.69
334.542	100.69
334.771	97.69
334.999	88.69
335.227	76.69
335.455	84.69
335.684	71.69
335.912	83.69
336.14	87.69
336.369	88.69
336.597	81.69
336.825	81.69
337.053	77.69
337.281	97.69
337.51	86.69
337.738	88.69
337.966	89.69
338.194	82.69
338.422	71.69
338.65	83.69
338.878	94.69
339.106	80.69
339.334	77.69
339.562	98.69
339.79	94.69
340.018	80.69
340.246	88.69
340.474	89.69
340.702	83.69
340.93	83.69
341.158	81.69
341.386	90.69
341.614	87.69
341.842	78.69
342.07	75.69
342.298	107.69
342.526	78.69
342.754	75.69
342.981	91.69
343.209	81.69
343.437	96.69
343.665	89.69
343.893	76.69
344.12	83.69
344.348	70.69
344.576	73.69
344.804	74.69
345.031	88.69
345.259	79.69
345.487	82.69
345.714	75.69
345.942	81.69
346.17	90.69
346.397	85.69
346.625	74.69
346.853	63.69
347.08	91.69
347.308	81.69
347.535	87.69
347.763	80.69
347.99	79.69
348.218	83.69
348.445	86.69
348.673	75.69
348.9	83.69
349.128	81.69
349.355	84.69
349.583	72.69
349.81	75.69
350.037	77.69
350.265	73.69
350.492	78.69
350.72	75.69
350.947	74.69
351.174	80.69
351.402	70.69
351.629	90.69
351.856	81.69
352.083	82.69
352.311	71.69
352.538	75.69
352.765	78.69
352.992	74.69
353.22	78.69
353.447	86.69
353.674	90.69
353.901	84.69
354.128	86.69
354.355	70.69
354.583	76.69
354.81	79.69
355.037	79.69
355.264	81.69
355.491	85.69
355.718	81.69
355.945	80.69
356.172	76.69
356.399	70.69
356.626	74.69
356.853	75.69
357.08	66.69
357.307	83.69
357.534	77.69
357.761	74.69
357.988	95.69
358.215	85.69
358.441	80.69
358.668	68.69
358.895	83.69
359.122	78.69
359.349	73.69
359.576	68.69
359.802	94.69
360.029	88.69
360.256	76.69
360.483	80.69
360.709	77.69
360.936	76.69
361.163	82.69
361.39	78.69
361.616	76.69
361.843	68.69
362.07	77.69
362.296	85.69
362.523	73.69
362.749	86.69
362.976	87.69
363.203	81.69
363.429	73.69
363.656	87.69
363.882	80.69
364.109	79.69
364.335	80.69
364.562	74.69
364.788	76.69
365.015	72.69
365.241	79.69
365.468	96.69
365.694	85.69
365.92	83.69
366.147	74.69
366.373	90.69
366.599	68.69
366.826	85.69
367.052	82.69
367.278	71.69
367.505	90.69
367.731	84.69
367.957	67.69
368.184	88.69
368.41	91.69
368.636	83.69
368.862	95.69
369.089	84.69
369.315	88.69
369.541	105.69
369.767	55.69
369.993	78.69
370.219	102.69
370.445	75.69
370.672	80.69
370.898	76.69
371.124	88.69
371.35	75.69
371.576	83.69
371.802	75.69
372.028	87.69
372.254	85.69
372.48	88.69
372.706	87.69
372.932	75.69
373.158	84.69
373.384	86.69
373.61	84.69
373.835	99.69
374.061	76.69
374.287	99.69
374.513	76.69
374.739	72.69
374.965	80.69
375.191	96.69
375.416	84.69
375.642	88.69
375.868	76.69
376.094	79.69
376.319	86.69
376.545	91.69
376.771	80.69
376.997	79.69
377.222	87.69
377.448	81.69
377.674	74.69
377.899	89.69
378.125	89.69
378.35	84.69
378.576	95.69
378.802	106.69
379.027	91.69
379.253	84.69
379.478	79.69
379.704	89.69
379.929	86.69
380.155	77.69
380.38	91.69
380.606	97.69
380.831	85.69
381.057	93.69
381.282	86.69
381.507	91.69
381.733	88.69
381.958	74.69
382.184	88.69
382.409	84.69
382.634	94.69
382.86	91.69
383.085	107.69
383.31	94.69
383.535	76.69
383.761	81.69
383.986	90.69
384.211	81.69
384.436	80.69
384.662	80.69
384.887	85.69
385.112	79.69
385.337	84.69
385.562	89.69
385.787	101.69
386.013	87.69
386.238	92.69
386.463	99.69
386.688	102.69
386.913	80.69
387.138	84.69
387.363	83.69
387.588	99.69
387.813	89.69
388.038	95.69
388.263	95.69
388.488	86.69
388.713	82.69
388.938	85.69
389.163	92.69
389.387	80.69
389.612	96.69
389.837	96.69
390.062	84.69
390.287	82.69
390.512	83.69
390.736	91.69
390.961	96.69
391.186	74.69
391.411	94.69
391.636	99.69
391.86	81.69
392.085	80.69
392.31	82.69
392.534	103.69
392.759	94.69
392.984	99.69
393.208	86.69
393.433	90.69
393.658	105.69
393.882	79.69
394.107	85.69
394.331	90.69
394.556	90.69
394.78	87.69
395.005	75.69
395.229	101.69
395.454	94.69
395.678	95.69
395.903	107.69
396.127	98.69
396.352	94.69
396.576	83.69
396.801	102.69
397.025	103.69
397.249	112.69
397.474	87.69
397.698	99.69
397.922	99.69
398.147	95.69
398.371	104.69
398.595	99.69
398.82	87.69
399.044	101.69
399.268	104.69
399.492	89.69
399.717	93.69
399.941	92.69
400.165	99.69
400.389	94.69
400.613	87.69
400.837	103.69
401.062	102.69
401.286	100.69
401.51	86.69
401.734	81.69
401.958	94.69
402.182	99.69
402.406	87.69
402.63	99.69
402.854	104.69
403.078	99.69
403.302	99.69
403.526	92.69
403.75	99.69
403.974	95.69
404.198	99.69
404.422	98.69
404.645	93.69
404.869	91.69
405.093	95.69
405.317	91.69
405.541	96.69
405.765	102.69
405.988	107.69
406.212	108.69
406.436	112.69
406.66	97.69
406.883	98.69
407.107	90.69
407.331	95.69
407.555	108.69
407.778	108.69
408.002	97.69
408.226	114.69
408.449	102.69
408.673	121.69
408.896	96.69
409.12	96.69
409.344	91.69
409.567	107.69
409.791	107.69
410.014	97.69
410.238	105.69
410.461	104.69
410.685	88.69
410.908	90.69
411.132	99.69
411.355	102.69
411.578	96.69
411.802	107.69
412.025	107.69
412.249	100.69
412.472	109.69
412.695	96.69
412.919	109.69
413.142	111.69
413.365	110.69
413.589	99.69
413.812	104.69
414.035	104.69
414.258	91.69
414.482	104.69
414.705	103.69
414.928	108.69
415.151	120.69
415.374	102.69
415.597	84.69
415.821	110.69
416.044	118.69
416.267	115.69
416.49	117.69
416.713	110.69
416.936	97.69
417.159	116.69
417.382	119.69
417.605	108.69
417.828	100.69
418.051	114.69
418.274	116.69
418.497	123.69
418.72	108.69
418.943	109.69
419.166	110.69
419.389	115.69
419.611	107.69
419.834	101.69
420.057	117.69
420.28	118.69
420.503	116.69
420.726	103.69
420.948	101.69
421.171	110.69
421.394	106.69
421.617	122.69
421.839	102.69
422.062	126.69
422.285	132.69
422.507	114.69
422.73	97.69
422.953	115.69
423.175	105.69
423.398	100.69
423.621	111.69
423.843	110.69
424.066	107.69
424.288	124.69
424.511	135.69
424.733	117.69
424.956	109.69
425.178	114.69
425.401	117.69
425.623	122.69
425.846	124.69
426.068	122.69
426.291	128.69
426.513	132.69
426.735	107.69
426.958	130.69
427.18	122.69
427.402	134.69
427.625	116.69
427.847	117.69
428.069	118.69
428.292	121.69
428.514	131.69
428.736	115.69
428.958	105.69
429.181	120.69
429.403	123.69
429.625	96.69
429.847	113.69
430.069	126.69
430.292	116.69
430.514	122.69
430.736	125.69
430.958	110.69
431.18	99.69
431.402	111.69
431.624	118.69
431.846	99.69
432.068	90.69
432.29	90.69
432.512	113.69
432.734	98.69
432.956	136.69
433.178	117.69
433.4	124.69
433.622	111.69
433.844	128.69
434.066	116.69
434.287	98.69
434.509	86.69
434.731	95.69
434.953	94.69
435.175	112.69
435.397	127.69
435.618	114.69
435.84	105.69
436.062	116.69
436.284	116.69
436.505	137.69
436.727	118.69
436.949	126.69
437.17	126.69
437.392	123.69
437.614	107.69
437.835	124.69
438.057	99.69
438.278	94.69
438.5	110.69
438.721	123.69
438.943	129.69
439.165	134.69
439.386	142.69
439.608	134.69
439.829	153.69
440.05	137.69
440.272	143.69
440.493	131.69
440.715	134.69
440.936	146.69
441.158	153.69
441.379	131.69
441.6	143.69
441.822	137.69
442.043	131.69
442.264	130.69
442.486	134.69
442.707	141.69
442.928	140.69
443.149	131.69
443.371	132.69
443.592	129.69
443.813	128.69
444.034	134.69
444.255	135.69
444.476	142.69
444.698	135.69
444.919	128.69
445.14	266.69
445.361	185.69
445.582	148.69
445.803	151.69
446.024	160.69
446.245	130.69
446.466	143.69
446.687	148.69
446.908	152.69
447.129	145.69
447.35	132.69
447.571	145.69
447.792	142.69
448.013	138.69
448.234	119.69
448.455	145.69
448.675	148.69
448.896	139.69
449.117	129.69
449.338	124.69
449.559	145.69
449.779	126.69
450	137.69
450.221	134.69
450.442	125.69
450.662	133.69
450.883	120.69
451.104	126.69
451.324	122.69
451.545	122.69
451.766	127.69
451.986	131.69
452.207	123.69
452.428	115.69
452.648	139.69
452.869	120.69
453.089	110.69
453.31	109.69
453.53	100.69
453.751	91.69
453.971	104.69
454.192	98.69
454.412	112.69
454.633	115.69
454.853	100.69
455.073	122.69
455.294	114.69
455.514	111.69
455.734	120.69
455.955	111.69
456.175	105.69
456.395	108.69
456.616	99.69
456.836	94.69
457.056	97.69
457.276	90.69
457.497	104.69
457.717	97.69
457.937	106.69
458.157	101.69
458.377	112.69
458.598	96.69
458.818	96.69
459.038	96.69
459.258	83.69
459.478	86.69
459.698	83.69
459.918	97.69
460.138	93.69
460.358	92.69
460.578	104.69
460.798	107.69
461.018	112.69
461.238	111.69
461.458	108.69
461.678	102.69
461.898	110.69
462.118	104.69
462.338	98.69
462.558	104.69
462.777	99.69
462.997	108.69
463.217	104.69
463.437	105.69
463.657	91.69
463.876	113.69
464.096	99.69
464.316	99.69
464.536	91.69
464.755	99.69
464.975	115.69
465.195	121.69
465.414	102.69
465.634	116.69
465.854	116.69
466.073	99.69
466.293	131.69
466.512	122.69
466.732	122.69
466.951	124.69
467.171	136.69
467.391	125.69
467.61	115.69
467.829	117.69
468.049	123.69
468.268	137.69
468.488	120.69
468.707	128.69
468.927	147.69
469.146	124.69
469.365	128.69
469.585	130.69
469.804	132.69
470.023	124.69
470.243	136.69
470.462	152.69
470.681	134.69
470.901	146.69
471.12	137.69
471.339	140.69
471.558	122.69
471.777	145.69
471.997	121.69
472.216	109.69
472.435	100.69
472.654	91.69
472.873	108.69
473.092	101.69
473.311	116.69
473.53	94.69
473.749	113.69
473.968	111.69
474.187	113.69
474.406	122.69
474.625	108.69
474.844	115.69
475.063	119.69
475.282	121.69
475.501	102.69
475.72	114.69
475.939	114.69
476.158	121.69
476.377	108.69
476.596	120.69
476.814	100.69
477.033	102.69
477.252	99.69
477.471	105.69
477.69	135.69
477.908	118.69
478.127	120.69
478.346	121.69
478.564	130.69
478.783	149.69
479.002	117.69
479.22	117.69
479.439	120.69
479.658	119.69
479.876	108.69
480.095	93.69
480.313	118.69
480.532	99.69
480.751	91.69
480.969	91.69
481.188	94.69
481.406	78.69
481.624	75.69
481.843	86.69
482.061	101.69
482.28	99.69
482.498	94.69
482.717	83.69
482.935	108.69
483.153	115.69
483.372	122.69
483.59	139.69
483.808	120.69
484.027	114.69
484.245	101.69
484.463	116.69
484.681	140.69
484.9	121.69
485.118	127.69
485.336	115.69
485.554	102.69
485.772	93.69
485.99	90.69
486.209	105.69
486.427	83.69
486.645	94.69
486.863	105.69
487.081	113.69
487.299	116.69
487.517	141.69
487.735	162.69
487.953	170.69
488.171	159.69
488.389	159.69
488.607	142.69
488.825	107.69
489.043	122.69
489.261	111.69
489.479	121.69
489.696	131.69
489.914	122.69
490.132	132.69
490.35	138.69
490.568	162.69
490.786	149.69
491.003	165.69
491.221	166.69
491.439	180.69
491.657	191.69
491.874	190.69
492.092	201.69
492.31	229.69
492.527	199.69
492.745	192.69
492.963	183.69
493.18	175.69
493.398	169.69
493.615	172.69
493.833	172.69
494.05	154.69
494.268	178.69
494.485	164.69
494.703	149.69
494.92	160.69
495.138	150.69
495.355	143.69
495.573	169.69
495.79	148.69
496.008	176.69
496.225	161.69
496.442	146.69
496.66	158.69
496.877	151.69
497.094	144.69
497.312	138.69
497.529	150.69
497.746	135.69
497.963	130.69
498.181	113.69
498.398	108.69
498.615	110.69
498.832	105.69
499.049	118.69
499.267	109.69
499.484	103.69
499.701	126.69
499.918	112.69
500.135	118.69
500.352	132.69
500.569	140.69
500.786	135.69
501.003	126.69
501.22	132.69
501.437	124.69
501.654	135.69
501.871	129.69
502.088	129.69
502.305	123.69
502.522	102.69
502.739	120.69
502.956	123.69
503.172	110.69
503.389	122.69
503.606	90.69
503.823	123.69
504.04	110.69
504.256	120.69
504.473	104.69
504.69	109.69
504.907	106.69
505.123	114.69
505.34	114.69
505.557	129.69
505.773	122.69
505.99	116.69
506.207	113.69
506.423	107.69
506.64	113.69
506.856	128.69
507.073	128.69
507.289	118.69
507.506	114.69
507.722	98.69
507.939	113.69
508.155	98.69
508.372	112.69
508.588	97.69
508.805	110.69
509.021	92.69
509.238	94.69
509.454	95.69
509.67	90.69
509.887	84.69
510.103	102.69
510.319	90.69
510.536	89.69
510.752	76.69
510.968	85.69
511.184	94.69
511.401	89.69
511.617	89.69
511.833	96.69
512.049	85.69
512.265	93.69
512.481	94.69
512.698	91.69
512.914	84.69
513.13	102.69
513.346	96.69
513.562	94.69
513.778	91.69
513.994	82.69
514.21	79.69
514.426	91.69
514.642	87.69
514.858	90.69
515.074	96.69
515.29	103.69
515.506	80.69
515.721	85.69
515.937	89.69
516.153	84.69
516.369	88.69
516.585	92.69
516.801	77.69
517.016	101.69
517.232	97.69
517.448	95.69
517.664	87.69
517.879	82.69
518.095	89.69
518.311	89.69
518.527	70.69
518.742	78.69
518.958	99.69
519.173	94.69
519.389	86.69
519.605	93.69
519.82	106.69
520.036	94.69
520.251	84.69
520.467	89.69
520.682	88.69
520.898	82.69
521.113	86.69
521.329	91.69
521.544	101.69
521.76	81.69
521.975	87.69
522.19	86.69
522.406	79.69
522.621	118.69
522.836	97.69
523.052	116.69
523.267	91.69
523.482	101.69
523.698	98.69
523.913	97.69
524.128	115.69
524.343	102.69
524.559	110.69
524.774	121.69
524.989	118.69
525.204	103.69
525.419	97.69
525.634	111.69
525.849	112.69
526.064	99.69
526.28	78.69
526.495	87.69
526.71	78.69
526.925	74.69
527.14	92.69
527.355	84.69
527.57	103.69
527.785	91.69
527.999	86.69
528.214	105.69
528.429	107.69
528.644	105.69
528.859	134.69
529.074	127.69
529.289	138.69
529.503	116.69
529.718	115.69
529.933	94.69
530.148	84.69
530.363	92.69
530.577	92.69
530.792	97.69
531.007	91.69
531.221	92.69
531.436	84.69
531.651	89.69
531.865	90.69
532.08	87.69
532.295	89.69
532.509	88.69
532.724	88.69
532.938	92.69
533.153	98.69
533.367	110.69
533.582	116.69
533.796	107.69
534.011	104.69
534.225	98.69
534.44	82.69
534.654	80.69
534.868	83.69
535.083	96.69
535.297	100.69
535.511	101.69
535.726	99.69
535.94	91.69
536.154	79.69
536.369	96.69
536.583	97.69
536.797	83.69
537.011	92.69
537.225	97.69
537.44	94.69
537.654	91.69
537.868	92.69
538.082	91.69
538.296	95.69
538.51	91.69
538.724	105.69
538.938	115.69
539.153	113.69
539.367	107.69
539.581	106.69
539.795	111.69
540.009	99.69
540.222	91.69
540.436	111.69
540.65	105.69
540.864	124.69
541.078	122.69
541.292	122.69
541.506	147.69
541.72	142.69
541.934	167.69
542.147	160.69
542.361	153.69
542.575	138.69
542.789	134.69
543.002	126.69
543.216	113.69
543.43	98.69
543.644	130.69
543.857	119.69
544.071	136.69
544.285	133.69
544.498	137.69
544.712	138.69
544.925	143.69
545.139	148.69
545.352	156.69
545.566	159.69
545.779	157.69
545.993	159.69
546.206	157.69
546.42	145.69
546.633	156.69
546.847	160.69
547.06	140.69
547.274	151.69
547.487	147.69
547.7	168.69
547.914	164.69
548.127	150.69
548.34	146.69
548.554	154.69
548.767	146.69
548.98	149.69
549.193	139.69
549.407	158.69
549.62	147.69
549.833	145.69
550.046	152.69
550.259	142.69
550.473	133.69
550.686	150.69
550.899	154.69
551.112	155.69
551.325	139.69
551.538	137.69
551.751	125.69
551.964	120.69
552.177	126.69
552.39	118.69
552.603	146.69
552.816	143.69
553.029	140.69
553.242	135.69
553.455	162.69
553.667	134.69
553.88	144.69
554.093	148.69
554.306	144.69
554.519	137.69
554.732	134.69
554.944	137.69
555.157	132.69
555.37	141.69
555.583	122.69
555.795	124.69
556.008	128.69
556.221	128.69
556.433	137.69
556.646	130.69
556.859	122.69
557.071	132.69
557.284	128.69
557.496	137.69
557.709	127.69
557.921	137.69
558.134	118.69
558.346	135.69
558.559	121.69
558.771	128.69
558.984	132.69
559.196	112.69
559.409	107.69
559.621	119.69
559.833	135.69
560.046	128.69
560.258	116.69
560.47	129.69
560.683	126.69
560.895	130.69
561.107	120.69
561.32	116.69
561.532	116.69
561.744	136.69
561.956	132.69
562.168	122.69
562.381	117.69
562.593	112.69
562.805	126.69
563.017	118.69
563.229	111.69
563.441	124.69
563.653	118.69
563.865	128.69
564.077	103.69
564.289	124.69
564.501	113.69
564.713	105.69
564.925	107.69
565.137	106.69
565.349	103.69
565.561	111.69
565.773	95.69
565.985	117.69
566.197	104.69
566.408	96.69
566.62	91.69
566.832	111.69
567.044	110.69
567.255	110.69
567.467	111.69
567.679	117.69
567.891	84.69
568.102	97.69
568.314	85.69
568.526	83.69
568.737	90.69
568.949	88.69
569.161	85.69
569.372	74.69
569.584	84.69
569.795	84.69
570.007	81.69
570.218	92.69
570.43	89.69
570.641	97.69
570.853	86.69
571.064	86.69
571.276	97.69
571.487	104.69
571.698	113.69
571.91	95.69
572.121	100.69
572.333	90.69
572.544	92.69
572.755	80.69
572.966	85.69
573.178	94.69
573.389	84.69
573.6	94.69
573.811	89.69
574.023	88.69
574.234	80.69
574.445	98.69
574.656	80.69
574.867	86.69
575.078	99.69
575.289	83.69
575.501	79.69
575.712	99.69
575.923	96.69
576.134	91.69
576.345	94.69
576.556	92.69
576.767	80.69
576.978	99.69
577.188	98.69
577.399	82.69
577.61	79.69
577.821	105.69
578.032	87.69
578.243	94.69
578.454	89.69
578.665	78.69
578.875	83.69
579.086	81.69
579.297	83.69
579.508	84.69
579.718	89.69
579.929	87.69
580.14	107.69
580.35	95.69
580.561	79.69
580.772	82.69
580.982	94.69
581.193	105.69
581.403	96.69
581.614	96.69
581.825	89.69
582.035	94.69
582.246	89.69
582.456	83.69
582.667	69.69
582.877	89.69
583.087	68.69
583.298	84.69
583.508	89.69
583.719	82.69
583.929	83.69
584.139	89.69
584.35	94.69
584.56	93.69
584.77	93.69
584.981	76.69
585.191	93.69
585.401	101.69
585.611	88.69
585.821	92.69
586.032	100.69
586.242	79.69
586.452	90.69
586.662	89.69
586.872	89.69
587.082	85.69
587.292	90.69
587.502	97.69
587.713	94.69
587.923	88.69
588.133	74.69
588.343	99.69
588.553	87.69
588.762	81.69
588.972	78.69
589.182	86.69
589.392	89.69
589.602	78.69
589.812	85.69
590.022	71.69
590.232	87.69
590.441	91.69
590.651	86.69
590.861	82.69
591.071	83.69
591.281	85.69
591.49	83.69
591.7	92.69
591.91	79.69
592.119	80.69
592.329	85.69
592.539	79.69
592.748	90.69
592.958	83.69
593.167	85.69
593.377	88.69
593.587	90.69
593.796	100.69
594.006	88.69
594.215	75.69
594.424	97.69
594.634	80.69
594.843	73.69
595.053	78.69
595.262	101.69
595.472	88.69
595.681	83.69
595.89	90.69
596.1	82.69
596.309	105.69
596.518	88.69
596.727	85.69
596.937	87.69
597.146	78.69
597.355	103.69
597.564	92.69
597.774	95.69
597.983	86.69
598.192	95.69
598.401	91.69
598.61	83.69
598.819	76.69
599.028	75.69
599.237	72.69
599.446	74.69
599.655	86.69
599.864	91.69
600.073	89.69
600.282	74.69
600.491	87.69
600.7	80.69
600.909	84.69
601.118	82.69
601.327	88.69
601.536	95.69
601.745	97.69
601.953	92.69
602.162	96.69
602.371	81.69
602.58	75.69
602.789	85.69
602.997	107.69
603.206	81.69
603.415	94.69
603.623	101.69
603.832	97.69
604.041	101.69
604.249	99.69
604.458	82.69
604.666	102.69
604.875	87.69
605.084	84.69
605.292	90.69
605.501	90.69
605.709	111.69
605.918	96.69
606.126	106.69
606.334	92.69
606.543	97.69
606.751	103.69
606.96	106.69
607.168	104.69
607.376	88.69
607.585	111.69
607.793	80.69
608.001	103.69
608.21	101.69
608.418	101.69
608.626	91.69
608.834	81.69
609.043	100.69
609.251	91.69
609.459	97.69
609.667	104.69
609.875	106.69
610.083	117.69
610.291	100.69
610.499	105.69
610.707	85.69
610.916	101.69
611.124	114.69
611.332	97.69
611.54	99.69
611.748	110.69
611.955	103.69
612.163	102.69
612.371	99.69
612.579	101.69
612.787	96.69
612.995	123.69
613.203	102.69
613.411	101.69
613.618	107.69
613.826	91.69
614.034	97.69
614.242	105.69
614.449	105.69
614.657	105.69
614.865	91.69
615.072	98.69
615.28	98.69
615.488	99.69
615.695	103.69
615.903	101.69
616.111	104.69
616.318	95.69
616.526	107.69
616.733	108.69
616.941	95.69
617.148	95.69
617.356	94.69
617.563	101.69
617.771	80.69
617.978	83.69
618.185	90.69
618.393	101.69
618.6	100.69
618.807	87.69
619.015	95.69
619.222	98.69
619.429	98.69
619.637	95.69
619.844	99.69
620.051	95.69
620.258	95.69
620.466	103.69
620.673	100.69
620.88	85.69
621.087	83.69
621.294	88.69
621.501	95.69
621.708	94.69
621.915	88.69
622.122	97.69
622.329	120.69
622.536	98.69
622.743	88.69
622.95	85.69
623.157	92.69
623.364	100.69
623.571	103.69
623.778	98.69
623.985	93.69
624.192	84.69
624.399	78.69
624.606	98.69
624.812	86.69
625.019	92.69
625.226	94.69
625.433	94.69
625.639	84.69
625.846	85.69
626.053	100.69
626.259	87.69
626.466	89.69
626.673	91.69
626.879	91.69
627.086	78.69
627.293	89.69
627.499	88.69
627.706	90.69
627.912	90.69
628.119	101.69
628.325	87.69
628.532	95.69
628.738	99.69
628.945	95.69
629.151	76.69
629.357	94.69
629.564	97.69
629.77	104.69
629.976	107.69
630.183	88.69
630.389	64.69
630.595	77.69
630.802	92.69
631.008	91.69
631.214	91.69
631.42	88.69
631.627	88.69
631.833	90.69
632.039	95.69
632.245	94.69
632.451	92.69
632.657	102.69
632.863	76.69
633.069	82.69
633.275	80.69
633.481	88.69
633.688	95.69
633.893	100.69
634.099	97.69
634.305	88.69
634.511	98.69
634.717	79.69
634.923	79.69
635.129	82.69
635.335	87.69
635.541	86.69
635.747	88.69
635.952	99.69
636.158	81.69
636.364	88.69
636.57	98.69
636.775	85.69
636.981	75.69
637.187	90.69
637.392	99.69
637.598	84.69
637.804	88.69
638.009	90.69
638.215	74.69
638.421	95.69
638.626	103.69
638.832	97.69
639.037	101.69
639.243	88.69
639.448	88.69
639.654	95.69
639.859	80.69
640.065	76.69
640.27	97.69
640.475	100.69
640.681	106.69
640.886	100.69
641.091	88.69
641.297	93.69
641.502	100.69
641.707	88.69
641.913	86.69
642.118	79.69
642.323	85.69
642.528	91.69
642.733	104.69
642.939	99.69
643.144	89.69
643.349	88.69
643.554	77.69
643.759	89.69
643.964	85.69
644.169	111.69
644.374	98.69
644.579	98.69
644.784	90.69
644.989	86.69
645.194	79.69
645.399	87.69
645.604	80.69
645.809	95.69
646.014	95.69
646.219	83.69
646.423	89.69
646.628	93.69
646.833	84.69
647.038	76.69
647.243	91.69
647.447	93.69
647.652	82.69
647.857	87.69
648.062	107.69
648.266	81.69
648.471	91.69
648.676	82.69
648.88	87.69
649.085	91.69
649.289	90.69
649.494	92.69
649.698	92.69
649.903	82.69
650.107	76.69
650.312	94.69
650.516	81.69
650.721	81.69
650.925	94.69
651.13	85.69
651.334	84.69
651.539	69.69
651.743	88.69
651.947	97.69
652.152	92.69
652.356	88.69
652.56	75.69
652.764	82.69
652.969	89.69
653.173	79.69
653.377	80.69
653.581	78.69
653.785	88.69
653.99	77.69
654.194	79.69
654.398	92.69
654.602	87.69
654.806	73.69
655.01	83.69
655.214	88.69
655.418	87.69
655.622	86.69
655.826	83.69
656.03	96.69
656.234	88.69
656.438	80.69
656.642	86.69
656.846	67.69
657.049	88.69
657.253	82.69
657.457	87.69
657.661	81.69
657.865	87.69
658.068	90.69
658.272	75.69
658.476	74.69
658.68	76.69
658.883	87.69
659.087	75.69
659.291	97.69
659.494	70.69
659.698	76.69
659.901	83.69
660.105	80.69
660.309	90.69
660.512	75.69
660.716	78.69
660.919	82.69
661.123	77.69
661.326	74.69
661.53	72.69
661.733	95.69
661.936	87.69
662.14	79.69
662.343	83.69
662.546	81.69
662.75	76.69
662.953	91.69
663.156	87.69
663.36	90.69
663.563	66.69
663.766	70.69
663.969	97.69
664.173	76.69
664.376	73.69
664.579	83.69
664.782	69.69
664.985	74.69
665.188	94.69
665.391	86.69
665.594	71.69
665.797	82.69
666	78.69
666.203	75.69
666.406	76.69
666.609	70.69
666.812	98.69
667.015	88.69
667.218	92.69
667.421	87.69
667.624	84.69
667.827	77.69
668.03	68.69
668.232	87.69
668.435	74.69
668.638	73.69
668.841	83.69
669.043	89.69
669.246	82.69
669.449	83.69
669.651	84.69
669.854	88.69
670.057	82.69
670.259	68.69
670.462	89.69
670.665	91.69
670.867	68.69
671.07	76.69
671.272	89.69
671.475	77.69
671.677	70.69
671.88	82.69
672.082	66.69
672.284	78.69
672.487	89.69
672.689	82.69
672.892	82.69
