Data from Ni(NO3)2@0.5M.TitratingCurve.Agarose3%dH2O.NegLispCup.LampEnergy10.LIBS07252019_HRD10591_17-58-23-563.txt Node
Date: Thu Jul 25 17:58:23 EDT 2019
User: cochatt
Spectrometer: HR+D1059
Trigger mode: 1
Integration Time (sec): 1.000000E-1
Scans to average: 1
Electric dark correction enabled: true
Nonlinearity correction enabled: false
Boxcar width: 0
XAxis mode: Wavelengths
Number of Pixels in Spectrum: 2048
>>>>>Begin Spectral Data<<<<<
223.165	-18.75
223.4	-18.75
223.635	-18.75
223.869	-20.75
224.104	-19.75
224.338	-20.75
224.573	6.25
224.808	-3.75
225.042	-14.75
225.277	-1.75
225.511	-5.75
225.746	7.25
225.98	-0.75
226.215	4.25
226.449	15.25
226.683	13.25
226.918	25.25
227.152	35.25
227.387	29.25
227.621	36.25
227.856	37.25
228.09	32.25
228.324	41.25
228.559	45.25
228.793	57.25
229.027	113.25
229.262	119.25
229.496	129.25
229.73	135.25
229.964	135.25
230.199	162.25
230.433	160.25
230.667	156.25
230.901	153.25
231.136	149.25
231.37	151.25
231.604	151.25
231.838	154.25
232.072	183.25
232.306	173.25
232.541	148.25
232.775	156.25
233.009	159.25
233.243	159.25
233.477	132.25
233.711	146.25
233.945	161.25
234.179	132.25
234.413	147.25
234.647	140.25
234.881	150.25
235.115	169.25
235.349	138.25
235.583	143.25
235.817	148.25
236.051	151.25
236.285	139.25
236.519	143.25
236.753	132.25
236.987	151.25
237.221	149.25
237.455	145.25
237.689	154.25
237.922	163.25
238.156	143.25
238.39	142.25
238.624	154.25
238.858	157.25
239.091	156.25
239.325	170.25
239.559	177.25
239.793	188.25
240.027	178.25
240.26	150.25
240.494	174.25
240.728	167.25
240.961	171.25
241.195	158.25
241.429	179.25
241.662	168.25
241.896	197.25
242.13	209.25
242.363	175.25
242.597	184.25
242.83	156.25
243.064	181.25
243.298	178.25
243.531	195.25
243.765	192.25
243.998	195.25
244.232	204.25
244.465	204.25
244.699	173.25
244.932	189.25
245.166	194.25
245.399	203.25
245.633	195.25
245.866	215.25
246.099	195.25
246.333	192.25
246.566	209.25
246.8	181.25
247.033	211.25
247.266	213.25
247.5	200.25
247.733	224.25
247.966	218.25
248.2	212.25
248.433	196.25
248.666	221.25
248.899	217.25
249.133	205.25
249.366	213.25
249.599	222.25
249.832	218.25
250.066	226.25
250.299	226.25
250.532	209.25
250.765	239.25
250.998	231.25
251.231	255.25
251.465	267.25
251.698	262.25
251.931	237.25
252.164	248.25
252.397	227.25
252.63	239.25
252.863	220.25
253.096	227.25
253.329	244.25
253.562	246.25
253.795	242.25
254.028	245.25
254.261	252.25
254.494	243.25
254.727	253.25
254.96	243.25
255.193	231.25
255.426	258.25
255.659	253.25
255.892	267.25
256.124	259.25
256.357	275.25
256.59	267.25
256.823	254.25
257.056	258.25
257.289	279.25
257.521	285.25
257.754	273.25
257.987	272.25
258.22	277.25
258.452	281.25
258.685	271.25
258.918	263.25
259.151	287.25
259.383	277.25
259.616	281.25
259.849	285.25
260.081	287.25
260.314	289.25
260.547	296.25
260.779	283.25
261.012	307.25
261.244	291.25
261.477	296.25
261.71	292.25
261.942	304.25
262.175	309.25
262.407	315.25
262.64	306.25
262.872	321.25
263.105	311.25
263.337	312.25
263.57	310.25
263.802	319.25
264.035	340.25
264.267	315.25
264.499	328.25
264.732	319.25
264.964	338.25
265.197	313.25
265.429	315.25
265.661	339.25
265.894	320.25
266.126	302.25
266.358	343.25
266.591	342.25
266.823	342.25
267.055	331.25
267.287	333.25
267.52	329.25
267.752	341.25
267.984	343.25
268.216	343.25
268.448	369.25
268.681	333.25
268.913	348.25
269.145	355.25
269.377	367.25
269.609	340.25
269.841	349.25
270.073	348.25
270.306	356.25
270.538	342.25
270.77	347.25
271.002	355.25
271.234	361.25
271.466	359.25
271.698	368.25
271.93	357.25
272.162	357.25
272.394	372.25
272.626	359.25
272.858	357.25
273.09	364.25
273.322	361.25
273.553	365.25
273.785	364.25
274.017	365.25
274.249	367.25
274.481	385.25
274.713	386.25
274.945	387.25
275.176	371.25
275.408	375.25
275.64	379.25
275.872	381.25
276.104	383.25
276.335	383.25
276.567	390.25
276.799	401.25
277.031	374.25
277.262	367.25
277.494	408.25
277.726	385.25
277.957	392.25
278.189	401.25
278.421	393.25
278.652	397.25
278.884	383.25
279.115	407.25
279.347	414.25
279.579	417.25
279.81	399.25
280.042	409.25
280.273	408.25
280.505	411.25
280.736	398.25
280.968	397.25
281.199	433.25
281.431	455.25
281.662	411.25
281.894	437.25
282.125	429.25
282.356	436.25
282.588	421.25
282.819	427.25
283.051	443.25
283.282	416.25
283.513	423.25
283.745	426.25
283.976	435.25
284.207	443.25
284.439	441.25
284.67	451.25
284.901	452.25
285.132	449.25
285.364	424.25
285.595	447.25
285.826	434.25
286.057	433.25
286.288	435.25
286.52	456.25
286.751	447.25
286.982	467.25
287.213	455.25
287.444	461.25
287.675	447.25
287.906	450.25
288.138	467.25
288.369	455.25
288.6	453.25
288.831	459.25
289.062	491.25
289.293	469.25
289.524	501.25
289.755	469.25
289.986	453.25
290.217	475.25
290.448	475.25
290.679	480.25
290.91	481.25
291.141	473.25
291.371	471.25
291.602	463.25
291.833	468.25
292.064	478.25
292.295	469.25
292.526	466.25
292.757	479.25
292.987	477.25
293.218	488.25
293.449	473.25
293.68	471.25
293.91	463.25
294.141	470.25
294.372	469.25
294.603	478.25
294.833	496.25
295.064	495.25
295.295	477.25
295.525	473.25
295.756	490.25
295.987	455.25
296.217	488.25
296.448	493.25
296.679	481.25
296.909	459.25
297.14	471.25
297.37	492.25
297.601	498.25
297.831	504.25
298.062	502.25
298.292	502.25
298.523	535.25
298.753	505.25
298.984	496.25
299.214	518.25
299.445	525.25
299.675	510.25
299.905	524.25
300.136	521.25
300.366	561.25
300.597	562.25
300.827	560.25
301.057	542.25
301.288	548.25
301.518	573.25
301.748	539.25
301.979	523.25
302.209	545.25
302.439	544.25
302.669	530.25
302.9	557.25
303.13	532.25
303.36	549.25
303.59	538.25
303.82	556.25
304.051	573.25
304.281	543.25
304.511	551.25
304.741	530.25
304.971	569.25
305.201	565.25
305.431	596.25
305.661	588.25
305.891	592.25
306.121	566.25
306.352	573.25
306.582	531.25
306.812	546.25
307.042	568.25
307.272	552.25
307.502	533.25
307.731	548.25
307.961	561.25
308.191	529.25
308.421	560.25
308.651	577.25
308.881	536.25
309.111	545.25
309.341	555.25
309.571	561.25
309.8	572.25
310.03	602.25
310.26	603.25
310.49	604.25
310.72	589.25
310.949	572.25
311.179	585.25
311.409	562.25
311.639	565.25
311.868	575.25
312.098	579.25
312.328	588.25
312.557	565.25
312.787	562.25
313.017	590.25
313.246	618.25
313.476	607.25
313.706	619.25
313.935	602.25
314.165	601.25
314.394	599.25
314.624	590.25
314.853	615.25
315.083	595.25
315.312	595.25
315.542	585.25
315.771	601.25
316.001	623.25
316.23	586.25
316.46	592.25
316.689	608.25
316.919	604.25
317.148	610.25
317.377	607.25
317.607	599.25
317.836	615.25
318.065	606.25
318.295	620.25
318.524	622.25
318.753	630.25
318.983	637.25
319.212	598.25
319.441	620.25
319.67	595.25
319.9	637.25
320.129	639.25
320.358	635.25
320.587	637.25
320.816	619.25
321.046	659.25
321.275	661.25
321.504	641.25
321.733	659.25
321.962	660.25
322.191	643.25
322.42	671.25
322.649	646.25
322.878	630.25
323.108	650.25
323.337	664.25
323.566	676.25
323.795	680.25
324.024	663.25
324.253	667.25
324.482	666.25
324.71	667.25
324.939	658.25
325.168	692.25
325.397	698.25
325.626	665.25
325.855	687.25
326.084	694.25
326.313	685.25
326.542	671.25
326.77	680.25
326.999	683.25
327.228	686.25
327.457	688.25
327.686	706.25
327.914	677.25
328.143	696.25
328.372	689.25
328.6	683.25
328.829	714.25
329.058	689.25
329.287	673.25
329.515	712.25
329.744	714.25
329.972	716.25
330.201	713.25
330.43	709.25
330.658	715.25
330.887	717.25
331.115	722.25
331.344	747.25
331.572	731.25
331.801	748.25
332.03	744.25
332.258	751.25
332.486	771.25
332.715	755.25
332.943	768.25
333.172	788.25
333.4	778.25
333.629	785.25
333.857	823.25
334.085	818.25
334.314	802.25
334.542	818.25
334.771	823.25
334.999	792.25
335.227	821.25
335.455	840.25
335.684	839.25
335.912	835.25
336.14	844.25
336.369	840.25
336.597	835.25
336.825	851.25
337.053	856.25
337.281	834.25
337.51	833.25
337.738	832.25
337.966	823.25
338.194	856.25
338.422	816.25
338.65	788.25
338.878	783.25
339.106	796.25
339.334	834.25
339.562	815.25
339.79	816.25
340.018	765.25
340.246	796.25
340.474	771.25
340.702	772.25
340.93	780.25
341.158	790.25
341.386	831.25
341.614	858.25
341.842	854.25
342.07	799.25
342.298	798.25
342.526	801.25
342.754	795.25
342.981	792.25
343.209	771.25
343.437	822.25
343.665	827.25
343.893	843.25
344.12	823.25
344.348	804.25
344.576	833.25
344.804	834.25
345.031	799.25
345.259	809.25
345.487	841.25
345.714	827.25
345.942	835.25
346.17	839.25
346.397	806.25
346.625	802.25
346.853	768.25
347.08	791.25
347.308	775.25
347.535	770.25
347.763	748.25
347.99	747.25
348.218	737.25
348.445	760.25
348.673	744.25
348.9	753.25
349.128	737.25
349.355	783.25
349.583	793.25
349.81	757.25
350.037	749.25
350.265	732.25
350.492	752.25
350.72	755.25
350.947	764.25
351.174	781.25
351.402	813.25
351.629	816.25
351.856	803.25
352.083	763.25
352.311	767.25
352.538	856.25
352.765	823.25
352.992	748.25
353.22	721.25
353.447	711.25
353.674	725.25
353.901	706.25
354.128	708.25
354.355	690.25
354.583	711.25
354.81	725.25
355.037	717.25
355.264	716.25
355.491	729.25
355.718	745.25
355.945	723.25
356.172	724.25
356.399	748.25
356.626	733.25
356.853	781.25
357.08	757.25
357.307	738.25
357.534	738.25
357.761	716.25
357.988	732.25
358.215	722.25
358.441	712.25
358.668	716.25
358.895	737.25
359.122	707.25
359.349	720.25
359.576	720.25
359.802	720.25
360.029	714.25
360.256	726.25
360.483	745.25
360.709	745.25
360.936	746.25
361.163	747.25
361.39	755.25
361.616	755.25
361.843	802.25
362.07	806.25
362.296	836.25
362.523	729.25
362.749	740.25
362.976	720.25
363.203	746.25
363.429	745.25
363.656	725.25
363.882	751.25
364.109	736.25
364.335	730.25
364.562	727.25
364.788	738.25
365.015	724.25
365.241	726.25
365.468	732.25
365.694	737.25
365.92	753.25
366.147	735.25
366.373	725.25
366.599	749.25
366.826	746.25
367.052	738.25
367.278	760.25
367.505	737.25
367.731	753.25
367.957	761.25
368.184	746.25
368.41	749.25
368.636	758.25
368.862	742.25
369.089	772.25
369.315	759.25
369.541	757.25
369.767	749.25
369.993	751.25
370.219	751.25
370.445	747.25
370.672	775.25
370.898	744.25
371.124	781.25
371.35	769.25
371.576	760.25
371.802	776.25
372.028	788.25
372.254	798.25
372.48	775.25
372.706	786.25
372.932	787.25
373.158	785.25
373.384	779.25
373.61	781.25
373.835	796.25
374.061	792.25
374.287	781.25
374.513	825.25
374.739	800.25
374.965	812.25
375.191	802.25
375.416	800.25
375.642	811.25
375.868	796.25
376.094	797.25
376.319	788.25
376.545	773.25
376.771	800.25
376.997	786.25
377.222	762.25
377.448	780.25
377.674	780.25
377.899	771.25
378.125	792.25
378.35	796.25
378.576	793.25
378.802	769.25
379.027	791.25
379.253	767.25
379.478	758.25
379.704	775.25
379.929	783.25
380.155	758.25
380.38	731.25
380.606	770.25
380.831	808.25
381.057	799.25
381.282	773.25
381.507	781.25
381.733	786.25
381.958	807.25
382.184	817.25
382.409	775.25
382.634	792.25
382.86	803.25
383.085	811.25
383.31	790.25
383.535	806.25
383.761	827.25
383.986	828.25
384.211	822.25
384.436	858.25
384.662	829.25
384.887	845.25
385.112	840.25
385.337	840.25
385.562	830.25
385.787	874.25
386.013	880.25
386.238	873.25
386.463	853.25
386.688	860.25
386.913	891.25
387.138	881.25
387.363	878.25
387.588	863.25
387.813	870.25
388.038	862.25
388.263	869.25
388.488	912.25
388.713	883.25
388.938	867.25
389.163	847.25
389.387	895.25
389.612	887.25
389.837	884.25
390.062	874.25
390.287	889.25
390.512	879.25
390.736	895.25
390.961	905.25
391.186	900.25
391.411	902.25
391.636	921.25
391.86	895.25
392.085	919.25
392.31	938.25
392.534	938.25
392.759	927.25
392.984	917.25
393.208	935.25
393.433	907.25
393.658	921.25
393.882	919.25
394.107	931.25
394.331	920.25
394.556	941.25
394.78	919.25
395.005	915.25
395.229	944.25
395.454	934.25
395.678	932.25
395.903	955.25
396.127	933.25
396.352	933.25
396.576	951.25
396.801	952.25
397.025	965.25
397.249	983.25
397.474	962.25
397.698	933.25
397.922	980.25
398.147	995.25
398.371	1020.25
398.595	1027.25
398.82	1028.25
399.044	1096.25
399.268	1108.25
399.492	1155.25
399.717	1179.25
399.941	1222.25
400.165	1204.25
400.389	1130.25
400.613	1124.25
400.837	1125.25
401.062	1094.25
401.286	1076.25
401.51	1037.25
401.734	1031.25
401.958	1048.25
402.182	1029.25
402.406	1023.25
402.63	1031.25
402.854	1046.25
403.078	1041.25
403.302	1052.25
403.526	1064.25
403.75	1053.25
403.974	1100.25
404.198	1086.25
404.422	1071.25
404.645	1083.25
404.869	1058.25
405.093	1078.25
405.317	1085.25
405.541	1075.25
405.765	1103.25
405.988	1095.25
406.212	1092.25
406.436	1112.25
406.66	1167.25
406.883	1137.25
407.107	1181.25
407.331	1183.25
407.555	1194.25
407.778	1182.25
408.002	1168.25
408.226	1177.25
408.449	1172.25
408.673	1139.25
408.896	1135.25
409.12	1141.25
409.344	1149.25
409.567	1128.25
409.791	1073.25
410.014	1111.25
410.238	1120.25
410.461	1087.25
410.685	1099.25
410.908	1095.25
411.132	1083.25
411.355	1087.25
411.578	1092.25
411.802	1086.25
412.025	1073.25
412.249	1079.25
412.472	1097.25
412.695	1051.25
412.919	1057.25
413.142	1061.25
413.365	1078.25
413.589	1063.25
413.812	1063.25
414.035	1066.25
414.258	1056.25
414.482	1081.25
414.705	1052.25
414.928	1063.25
415.151	1052.25
415.374	1039.25
415.597	1056.25
415.821	1027.25
416.044	1045.25
416.267	988.25
416.49	1017.25
416.713	996.25
416.936	1041.25
417.159	1004.25
417.382	1001.25
417.605	1007.25
417.828	1021.25
418.051	1021.25
418.274	1013.25
418.497	1016.25
418.72	1023.25
418.943	989.25
419.166	1057.25
419.389	1102.25
419.611	1114.25
419.834	1088.25
420.057	1085.25
420.28	1045.25
420.503	991.25
420.726	1004.25
420.948	1024.25
421.171	1009.25
421.394	1025.25
421.617	1008.25
421.839	982.25
422.062	1029.25
422.285	1015.25
422.507	1033.25
422.73	1032.25
422.953	999.25
423.175	1002.25
423.398	1032.25
423.621	991.25
423.843	1017.25
424.066	1045.25
424.288	1031.25
424.511	1037.25
424.733	1033.25
424.956	964.25
425.178	996.25
425.401	1019.25
425.623	1019.25
425.846	1005.25
426.068	1007.25
426.291	985.25
426.513	991.25
426.735	988.25
426.958	998.25
427.18	973.25
427.402	1002.25
427.625	962.25
427.847	986.25
428.069	983.25
428.292	976.25
428.514	983.25
428.736	996.25
428.958	974.25
429.181	986.25
429.403	991.25
429.625	959.25
429.847	968.25
430.069	977.25
430.292	979.25
430.514	956.25
430.736	953.25
430.958	995.25
431.18	974.25
431.402	981.25
431.624	964.25
431.846	945.25
432.068	965.25
432.29	1007.25
432.512	951.25
432.734	1010.25
432.956	983.25
433.178	999.25
433.4	1032.25
433.622	1029.25
433.844	1020.25
434.066	1004.25
434.287	1008.25
434.509	1021.25
434.731	1011.25
434.953	1009.25
435.175	1029.25
435.397	1066.25
435.618	1045.25
435.84	1016.25
436.062	985.25
436.284	985.25
436.505	989.25
436.727	999.25
436.949	960.25
437.17	991.25
437.392	999.25
437.614	1016.25
437.835	913.25
438.057	944.25
438.278	951.25
438.5	961.25
438.721	965.25
438.943	944.25
439.165	961.25
439.386	986.25
439.608	974.25
439.829	950.25
440.05	975.25
440.272	967.25
440.493	1001.25
440.715	968.25
440.936	1010.25
441.158	989.25
441.379	1023.25
441.6	1046.25
441.822	1032.25
442.043	1016.25
442.264	1055.25
442.486	1031.25
442.707	1018.25
442.928	1027.25
443.149	1050.25
443.371	1057.25
443.592	1090.25
443.813	1085.25
444.034	1065.25
444.255	1074.25
444.476	1087.25
444.698	1077.25
444.919	1097.25
445.14	1146.25
445.361	1117.25
445.582	1101.25
445.803	1014.25
446.024	1033.25
446.245	1021.25
446.466	1024.25
446.687	983.25
446.908	997.25
447.129	964.25
447.35	987.25
447.571	965.25
447.792	948.25
448.013	946.25
448.234	919.25
448.455	922.25
448.675	922.25
448.896	937.25
449.117	883.25
449.338	895.25
449.559	901.25
449.779	887.25
450	877.25
450.221	905.25
450.442	908.25
450.662	925.25
450.883	904.25
451.104	934.25
451.324	899.25
451.545	909.25
451.766	919.25
451.986	935.25
452.207	872.25
452.428	899.25
452.648	915.25
452.869	886.25
453.089	885.25
453.31	915.25
453.53	875.25
453.751	858.25
453.971	865.25
454.192	893.25
454.412	887.25
454.633	895.25
454.853	871.25
455.073	887.25
455.294	850.25
455.514	874.25
455.734	927.25
455.955	923.25
456.175	901.25
456.395	849.25
456.616	862.25
456.836	858.25
457.056	882.25
457.276	876.25
457.497	911.25
457.717	911.25
457.937	929.25
458.157	895.25
458.377	900.25
458.598	902.25
458.818	901.25
459.038	950.25
459.258	967.25
459.478	1003.25
459.698	1060.25
459.918	1046.25
460.138	1034.25
460.358	1077.25
460.578	1090.25
460.798	1076.25
461.018	1089.25
461.238	1054.25
461.458	1073.25
461.678	1057.25
461.898	1098.25
462.118	1101.25
462.338	1081.25
462.558	1128.25
462.777	1161.25
462.997	1183.25
463.217	1228.25
463.437	1247.25
463.657	1210.25
463.876	1212.25
464.096	1172.25
464.316	1165.25
464.536	1124.25
464.755	1138.25
464.975	1119.25
465.195	1077.25
465.414	1086.25
465.634	1060.25
465.854	1041.25
466.073	991.25
466.293	965.25
466.512	992.25
466.732	963.25
466.951	991.25
467.171	945.25
467.391	932.25
467.61	957.25
467.829	951.25
468.049	931.25
468.268	920.25
468.488	924.25
468.707	940.25
468.927	943.25
469.146	950.25
469.365	980.25
469.585	982.25
469.804	948.25
470.023	951.25
470.243	929.25
470.462	953.25
470.681	934.25
470.901	947.25
471.12	951.25
471.339	949.25
471.558	945.25
471.777	976.25
471.997	937.25
472.216	945.25
472.435	935.25
472.654	910.25
472.873	913.25
473.092	952.25
473.311	943.25
473.53	933.25
473.749	915.25
473.968	927.25
474.187	930.25
474.406	935.25
474.625	940.25
474.844	943.25
475.063	921.25
475.282	969.25
475.501	963.25
475.72	955.25
475.939	994.25
476.158	941.25
476.377	975.25
476.596	983.25
476.814	994.25
477.033	1013.25
477.252	1000.25
477.471	1028.25
477.69	1034.25
477.908	1066.25
478.127	1040.25
478.346	1031.25
478.564	1068.25
478.783	1069.25
479.002	1124.25
479.22	1147.25
479.439	1121.25
479.658	1093.25
479.876	1100.25
480.095	1120.25
480.313	1120.25
480.532	1121.25
480.751	1121.25
480.969	1135.25
481.188	1096.25
481.406	1093.25
481.624	1091.25
481.843	1064.25
482.061	1052.25
482.28	1052.25
482.498	1068.25
482.717	1083.25
482.935	1105.25
483.153	1103.25
483.372	1103.25
483.59	1145.25
483.808	1118.25
484.027	1116.25
484.245	1120.25
484.463	1086.25
484.681	1095.25
484.9	1110.25
485.118	1083.25
485.336	1098.25
485.554	1135.25
485.772	1122.25
485.99	1071.25
486.209	1121.25
486.427	1076.25
486.645	1121.25
486.863	1113.25
487.081	1105.25
487.299	1103.25
487.517	1124.25
487.735	1160.25
487.953	1175.25
488.171	1128.25
488.389	1116.25
488.607	1148.25
488.825	1128.25
489.043	1113.25
489.261	1147.25
489.479	1103.25
489.696	1113.25
489.914	1080.25
490.132	1106.25
490.35	1161.25
490.568	1151.25
490.786	1135.25
491.003	1139.25
491.221	1130.25
491.439	1155.25
491.657	1151.25
491.874	1180.25
492.092	1191.25
492.31	1179.25
492.527	1201.25
492.745	1179.25
492.963	1201.25
493.18	1178.25
493.398	1203.25
493.615	1201.25
493.833	1205.25
494.05	1193.25
494.268	1177.25
494.485	1183.25
494.703	1173.25
494.92	1210.25
495.138	1212.25
495.355	1194.25
495.573	1208.25
495.79	1240.25
496.008	1234.25
496.225	1244.25
496.442	1226.25
496.66	1277.25
496.877	1265.25
497.094	1300.25
497.312	1315.25
497.529	1315.25
497.746	1331.25
497.963	1365.25
498.181	1414.25
498.398	1429.25
498.615	1464.25
498.832	1516.25
499.049	1555.25
499.267	1626.25
499.484	1709.25
499.701	1786.25
499.918	1872.25
500.135	1932.25
500.352	1982.25
500.569	2018.25
500.786	2003.25
501.003	1953.25
501.22	1921.25
501.437	1831.25
501.654	1774.25
501.871	1689.25
502.088	1623.25
502.305	1593.25
502.522	1541.25
502.739	1508.25
502.956	1442.25
503.172	1410.25
503.389	1357.25
503.606	1378.25
503.823	1309.25
504.04	1295.25
504.256	1285.25
504.473	1284.25
504.69	1271.25
504.907	1245.25
505.123	1229.25
505.34	1216.25
505.557	1159.25
505.773	1170.25
505.99	1171.25
506.207	1140.25
506.423	1110.25
506.64	1112.25
506.856	1091.25
507.073	1120.25
507.289	1071.25
507.506	1103.25
507.722	1100.25
507.939	1065.25
508.155	1064.25
508.372	1059.25
508.588	1023.25
508.805	1034.25
509.021	1013.25
509.238	1050.25
509.454	989.25
509.67	995.25
509.887	983.25
510.103	1011.25
510.319	1003.25
510.536	989.25
510.752	955.25
510.968	977.25
511.184	968.25
511.401	977.25
511.617	966.25
511.833	971.25
512.049	962.25
512.265	964.25
512.481	957.25
512.698	958.25
512.914	948.25
513.13	1000.25
513.346	987.25
513.562	962.25
513.778	958.25
513.994	970.25
514.21	944.25
514.426	938.25
514.642	941.25
514.858	972.25
515.074	972.25
515.29	984.25
515.506	987.25
515.721	1005.25
515.937	1012.25
516.153	1010.25
516.369	1025.25
516.585	1039.25
516.801	1026.25
517.016	1041.25
517.232	1090.25
517.448	1084.25
517.664	1100.25
517.879	1080.25
518.095	1105.25
518.311	1054.25
518.527	1072.25
518.742	1056.25
518.958	1016.25
519.173	1036.25
519.389	1000.25
519.605	997.25
519.82	979.25
520.036	985.25
520.251	957.25
520.467	957.25
520.682	919.25
520.898	957.25
521.113	921.25
521.329	936.25
521.544	921.25
521.76	906.25
521.975	908.25
522.19	907.25
522.406	921.25
522.621	909.25
522.836	925.25
523.052	898.25
523.267	912.25
523.482	903.25
523.698	856.25
523.913	875.25
524.128	854.25
524.343	885.25
524.559	879.25
524.774	883.25
524.989	910.25
525.204	885.25
525.419	864.25
525.634	863.25
525.849	894.25
526.064	863.25
526.28	885.25
526.495	848.25
526.71	871.25
526.925	873.25
527.14	842.25
527.355	868.25
527.57	879.25
527.785	847.25
527.999	818.25
528.214	857.25
528.429	837.25
528.644	874.25
528.859	860.25
529.074	851.25
529.289	833.25
529.503	867.25
529.718	843.25
529.933	848.25
530.148	859.25
530.363	815.25
530.577	820.25
530.792	828.25
531.007	823.25
531.221	823.25
531.436	832.25
531.651	829.25
531.865	817.25
532.08	832.25
532.295	837.25
532.509	839.25
532.724	817.25
532.938	825.25
533.153	835.25
533.367	826.25
533.582	795.25
533.796	819.25
534.011	831.25
534.225	833.25
534.44	806.25
534.654	787.25
534.868	780.25
535.083	793.25
535.297	795.25
535.511	813.25
535.726	789.25
535.94	806.25
536.154	813.25
536.369	806.25
536.583	780.25
536.797	781.25
537.011	777.25
537.225	764.25
537.44	773.25
537.654	776.25
537.868	786.25
538.082	767.25
538.296	787.25
538.51	769.25
538.724	793.25
538.938	780.25
539.153	778.25
539.367	788.25
539.581	780.25
539.795	781.25
540.009	759.25
540.222	761.25
540.436	790.25
540.65	778.25
540.864	741.25
541.078	769.25
541.292	769.25
541.506	793.25
541.72	772.25
541.934	773.25
542.147	770.25
542.361	769.25
542.575	768.25
542.789	775.25
543.002	726.25
543.216	761.25
543.43	749.25
543.644	741.25
543.857	782.25
544.071	752.25
544.285	773.25
544.498	754.25
544.712	765.25
544.925	779.25
545.139	755.25
545.352	746.25
545.566	755.25
545.779	761.25
545.993	760.25
546.206	787.25
546.42	756.25
546.633	763.25
546.847	785.25
547.06	751.25
547.274	763.25
547.487	768.25
547.7	780.25
547.914	776.25
548.127	781.25
548.34	778.25
548.554	735.25
548.767	732.25
548.98	758.25
549.193	777.25
549.407	746.25
549.62	786.25
549.833	775.25
550.046	780.25
550.259	747.25
550.473	767.25
550.686	744.25
550.899	779.25
551.112	736.25
551.325	743.25
551.538	751.25
551.751	738.25
551.964	737.25
552.177	744.25
552.39	754.25
552.603	766.25
552.816	760.25
553.029	748.25
553.242	765.25
553.455	776.25
553.667	767.25
553.88	760.25
554.093	750.25
554.306	731.25
554.519	721.25
554.732	727.25
554.944	717.25
555.157	726.25
555.37	700.25
555.583	706.25
555.795	705.25
556.008	695.25
556.221	700.25
556.433	671.25
556.646	679.25
556.859	683.25
557.071	664.25
557.284	671.25
557.496	677.25
557.709	652.25
557.921	643.25
558.134	673.25
558.346	679.25
558.559	657.25
558.771	656.25
558.984	667.25
559.196	639.25
559.409	648.25
559.621	650.25
559.833	648.25
560.046	655.25
560.258	644.25
560.47	630.25
560.683	643.25
560.895	625.25
561.107	637.25
561.32	641.25
561.532	628.25
561.744	612.25
561.956	635.25
562.168	649.25
562.381	627.25
562.593	652.25
562.805	668.25
563.017	658.25
563.229	649.25
563.441	651.25
563.653	649.25
563.865	660.25
564.077	636.25
564.289	679.25
564.501	662.25
564.713	676.25
564.925	665.25
565.137	677.25
565.349	697.25
565.561	689.25
565.773	713.25
565.985	725.25
566.197	732.25
566.408	737.25
566.62	754.25
566.832	781.25
567.044	777.25
567.255	788.25
567.467	785.25
567.679	812.25
567.891	800.25
568.102	785.25
568.314	790.25
568.526	771.25
568.737	724.25
568.949	697.25
569.161	677.25
569.372	657.25
569.584	670.25
569.795	623.25
570.007	659.25
570.218	640.25
570.43	611.25
570.641	604.25
570.853	598.25
571.064	604.25
571.276	598.25
571.487	581.25
571.698	574.25
571.91	579.25
572.121	576.25
572.333	549.25
572.544	546.25
572.755	548.25
572.966	552.25
573.178	548.25
573.389	520.25
573.6	535.25
573.811	517.25
574.023	522.25
574.234	527.25
574.445	496.25
574.656	515.25
574.867	492.25
575.078	517.25
575.289	517.25
575.501	496.25
575.712	483.25
575.923	489.25
576.134	506.25
576.345	492.25
576.556	497.25
576.767	473.25
576.978	487.25
577.188	488.25
577.399	487.25
577.61	475.25
577.821	465.25
578.032	489.25
578.243	496.25
578.454	494.25
578.665	469.25
578.875	466.25
579.086	451.25
579.297	461.25
579.508	462.25
579.718	457.25
579.929	459.25
580.14	451.25
580.35	451.25
580.561	441.25
580.772	455.25
580.982	462.25
581.193	442.25
581.403	454.25
581.614	443.25
581.825	453.25
582.035	437.25
582.246	436.25
582.456	437.25
582.667	449.25
582.877	428.25
583.087	457.25
583.298	428.25
583.508	440.25
583.719	435.25
583.929	435.25
584.139	418.25
584.35	431.25
584.56	430.25
584.77	427.25
584.981	417.25
585.191	423.25
585.401	443.25
585.611	426.25
585.821	414.25
586.032	399.25
586.242	406.25
586.452	411.25
586.662	425.25
586.872	424.25
587.082	412.25
587.292	437.25
587.502	417.25
587.713	415.25
587.923	423.25
588.133	426.25
588.343	410.25
588.553	421.25
588.762	423.25
588.972	428.25
589.182	494.25
589.392	495.25
589.602	436.25
589.812	443.25
590.022	428.25
590.232	411.25
590.441	418.25
590.651	419.25
590.861	421.25
591.071	422.25
591.281	424.25
591.49	438.25
591.7	411.25
591.91	427.25
592.119	419.25
592.329	409.25
592.539	426.25
592.748	417.25
592.958	435.25
593.167	439.25
593.377	418.25
593.587	436.25
593.796	426.25
594.006	432.25
594.215	427.25
594.424	425.25
594.634	437.25
594.843	417.25
595.053	424.25
595.262	407.25
595.472	401.25
595.681	392.25
595.89	395.25
596.1	395.25
596.309	381.25
596.518	389.25
596.727	408.25
596.937	364.25
597.146	398.25
597.355	379.25
597.564	367.25
597.774	372.25
597.983	378.25
598.192	375.25
598.401	364.25
598.61	354.25
598.819	374.25
599.028	349.25
599.237	341.25
599.446	352.25
599.655	362.25
599.864	357.25
600.073	339.25
600.282	352.25
600.491	348.25
600.7	356.25
600.909	365.25
601.118	340.25
601.327	361.25
601.536	347.25
601.745	341.25
601.953	372.25
602.162	331.25
602.371	360.25
602.58	339.25
602.789	327.25
602.997	335.25
603.206	341.25
603.415	337.25
603.623	326.25
603.832	324.25
604.041	332.25
604.249	317.25
604.458	330.25
604.666	331.25
604.875	325.25
605.084	335.25
605.292	318.25
605.501	315.25
605.709	327.25
605.918	316.25
606.126	316.25
606.334	326.25
606.543	348.25
606.751	337.25
606.96	335.25
607.168	332.25
607.376	327.25
607.585	312.25
607.793	318.25
608.001	318.25
608.21	323.25
608.418	315.25
608.626	321.25
608.834	307.25
609.043	328.25
609.251	301.25
609.459	332.25
609.667	301.25
609.875	321.25
610.083	319.25
610.291	316.25
610.499	317.25
610.707	300.25
610.916	318.25
611.124	309.25
611.332	316.25
611.54	304.25
611.748	305.25
611.955	291.25
612.163	307.25
612.371	304.25
612.579	306.25
612.787	312.25
612.995	317.25
613.203	317.25
613.411	307.25
613.618	304.25
613.826	312.25
614.034	320.25
614.242	329.25
614.449	299.25
614.657	300.25
614.865	283.25
615.072	284.25
615.28	299.25
615.488	313.25
615.695	295.25
615.903	288.25
616.111	282.25
616.318	297.25
616.526	296.25
616.733	268.25
616.941	289.25
617.148	300.25
617.356	293.25
617.563	291.25
617.771	300.25
617.978	284.25
618.185	292.25
618.393	280.25
618.6	275.25
618.807	296.25
619.015	278.25
619.222	281.25
619.429	287.25
619.637	280.25
619.844	287.25
620.051	267.25
620.258	275.25
620.466	275.25
620.673	278.25
620.88	279.25
621.087	269.25
621.294	266.25
621.501	270.25
621.708	276.25
621.915	284.25
622.122	272.25
622.329	291.25
622.536	280.25
622.743	281.25
622.95	264.25
623.157	270.25
623.364	289.25
623.571	294.25
623.778	262.25
623.985	284.25
624.192	260.25
624.399	273.25
624.606	263.25
624.812	247.25
625.019	242.25
625.226	278.25
625.433	245.25
625.639	259.25
625.846	262.25
626.053	259.25
626.259	271.25
626.466	259.25
626.673	267.25
626.879	261.25
627.086	258.25
627.293	255.25
627.499	269.25
627.706	274.25
627.912	250.25
628.119	243.25
628.325	260.25
628.532	243.25
628.738	244.25
628.945	252.25
629.151	265.25
629.357	274.25
629.564	256.25
629.77	246.25
629.976	245.25
630.183	227.25
630.389	240.25
630.595	239.25
630.802	231.25
631.008	234.25
631.214	218.25
631.42	244.25
631.627	231.25
631.833	239.25
632.039	239.25
632.245	239.25
632.451	231.25
632.657	242.25
632.863	247.25
633.069	243.25
633.275	219.25
633.481	241.25
633.688	246.25
633.893	234.25
634.099	223.25
634.305	235.25
634.511	244.25
634.717	232.25
634.923	223.25
635.129	222.25
635.335	217.25
635.541	221.25
635.747	227.25
635.952	216.25
636.158	218.25
636.364	232.25
636.57	218.25
636.775	215.25
636.981	229.25
637.187	211.25
637.392	231.25
637.598	239.25
637.804	209.25
638.009	210.25
638.215	217.25
638.421	220.25
638.626	216.25
638.832	220.25
639.037	212.25
639.243	229.25
639.448	223.25
639.654	230.25
639.859	215.25
640.065	209.25
640.27	223.25
640.475	217.25
640.681	207.25
640.886	211.25
641.091	225.25
641.297	208.25
641.502	211.25
641.707	205.25
641.913	212.25
642.118	217.25
642.323	216.25
642.528	212.25
642.733	220.25
642.939	213.25
643.144	220.25
643.349	215.25
643.554	217.25
643.759	218.25
643.964	208.25
644.169	202.25
644.374	188.25
644.579	215.25
644.784	219.25
644.989	214.25
645.194	203.25
645.399	205.25
645.604	209.25
645.809	202.25
646.014	208.25
646.219	212.25
646.423	190.25
646.628	225.25
646.833	216.25
647.038	217.25
647.243	219.25
647.447	213.25
647.652	197.25
647.857	205.25
648.062	202.25
648.266	211.25
648.471	203.25
648.676	215.25
648.88	216.25
649.085	213.25
649.289	206.25
649.494	218.25
649.698	211.25
649.903	207.25
650.107	187.25
650.312	205.25
650.516	207.25
650.721	211.25
650.925	211.25
651.13	207.25
651.334	205.25
651.539	192.25
651.743	203.25
651.947	200.25
652.152	210.25
652.356	200.25
652.56	200.25
652.764	195.25
652.969	180.25
653.173	178.25
653.377	183.25
653.581	192.25
653.785	180.25
653.99	183.25
654.194	179.25
654.398	175.25
654.602	176.25
654.806	180.25
655.01	173.25
655.214	189.25
655.418	176.25
655.622	161.25
655.826	175.25
656.03	168.25
656.234	179.25
656.438	171.25
656.642	171.25
656.846	159.25
657.049	152.25
657.253	163.25
657.457	167.25
657.661	160.25
657.865	156.25
658.068	164.25
658.272	141.25
658.476	125.25
658.68	116.25
658.883	123.25
659.087	127.25
659.291	131.25
659.494	140.25
659.698	123.25
659.901	124.25
660.105	108.25
660.309	98.25
660.512	101.25
660.716	97.25
660.919	100.25
661.123	97.25
661.326	106.25
661.53	93.25
661.733	104.25
661.936	99.25
662.14	81.25
662.343	90.25
662.546	73.25
662.75	85.25
662.953	92.25
663.156	83.25
663.36	86.25
663.563	93.25
663.766	89.25
663.969	96.25
664.173	81.25
664.376	89.25
664.579	77.25
664.782	77.25
664.985	75.25
665.188	77.25
665.391	86.25
665.594	75.25
665.797	84.25
666	69.25
666.203	90.25
666.406	85.25
666.609	72.25
666.812	75.25
667.015	65.25
667.218	78.25
667.421	73.25
667.624	78.25
667.827	83.25
668.03	83.25
668.232	77.25
668.435	83.25
668.638	83.25
668.841	76.25
669.043	67.25
669.246	86.25
669.449	84.25
669.651	86.25
669.854	77.25
670.057	73.25
670.259	74.25
670.462	97.25
670.665	57.25
670.867	91.25
671.07	73.25
671.272	90.25
671.475	85.25
671.677	90.25
671.88	82.25
672.082	73.25
672.284	77.25
672.487	94.25
672.689	71.25
672.892	78.25
