Data from Ni(NO3)2@0.5M.TitratingCurve.Agarose3%dH2O.NegLispCup.LampEnergy10.LIBS07252019_HRD10591_17-58-02-564.txt Node
Date: Thu Jul 25 17:58:02 EDT 2019
User: cochatt
Spectrometer: HR+D1059
Trigger mode: 1
Integration Time (sec): 1.000000E-1
Scans to average: 1
Electric dark correction enabled: true
Nonlinearity correction enabled: false
Boxcar width: 0
XAxis mode: Wavelengths
Number of Pixels in Spectrum: 2048
>>>>>Begin Spectral Data<<<<<
223.165	-10.31
223.4	-10.31
223.635	-10.31
223.869	-6.31
224.104	-4.31
224.338	-18.31
224.573	-6.31
224.808	-14.31
225.042	-7.31
225.277	-9.31
225.511	3.69
225.746	3.69
225.98	7.69
226.215	-8.31
226.449	11.69
226.683	21.69
226.918	18.69
227.152	17.69
227.387	21.69
227.621	32.69
227.856	41.69
228.09	46.69
228.324	51.69
228.559	62.69
228.793	88.69
229.027	125.69
229.262	129.69
229.496	123.69
229.73	137.69
229.964	166.69
230.199	194.69
230.433	196.69
230.667	177.69
230.901	177.69
231.136	152.69
231.37	169.69
231.604	189.69
231.838	195.69
232.072	210.69
232.306	200.69
232.541	183.69
232.775	174.69
233.009	177.69
233.243	177.69
233.477	172.69
233.711	164.69
233.945	158.69
234.179	166.69
234.413	171.69
234.647	173.69
234.881	178.69
235.115	192.69
235.349	165.69
235.583	168.69
235.817	174.69
236.051	158.69
236.285	164.69
236.519	166.69
236.753	159.69
236.987	169.69
237.221	185.69
237.455	177.69
237.689	203.69
237.922	181.69
238.156	188.69
238.39	186.69
238.624	178.69
238.858	189.69
239.091	181.69
239.325	181.69
239.559	202.69
239.793	215.69
240.027	221.69
240.26	193.69
240.494	172.69
240.728	183.69
240.961	200.69
241.195	185.69
241.429	182.69
241.662	199.69
241.896	255.69
242.13	243.69
242.363	227.69
242.597	196.69
242.83	193.69
243.064	204.69
243.298	206.69
243.531	197.69
243.765	225.69
243.998	234.69
244.232	237.69
244.465	228.69
244.699	225.69
244.932	214.69
245.166	214.69
245.399	215.69
245.633	230.69
245.866	244.69
246.099	228.69
246.333	253.69
246.566	233.69
246.8	230.69
247.033	248.69
247.266	234.69
247.5	246.69
247.733	245.69
247.966	243.69
248.2	258.69
248.433	238.69
248.666	258.69
248.899	242.69
249.133	272.69
249.366	266.69
249.599	271.69
249.832	265.69
250.066	278.69
250.299	286.69
250.532	277.69
250.765	298.69
250.998	303.69
251.231	315.69
251.465	303.69
251.698	316.69
251.931	305.69
252.164	316.69
252.397	308.69
252.63	314.69
252.863	318.69
253.096	316.69
253.329	325.69
253.562	313.69
253.795	321.69
254.028	316.69
254.261	319.69
254.494	311.69
254.727	321.69
254.96	325.69
255.193	344.69
255.426	348.69
255.659	338.69
255.892	364.69
256.124	366.69
256.357	349.69
256.59	366.69
256.823	348.69
257.056	362.69
257.289	350.69
257.521	353.69
257.754	356.69
257.987	364.69
258.22	362.69
258.452	377.69
258.685	385.69
258.918	374.69
259.151	387.69
259.383	390.69
259.616	380.69
259.849	378.69
260.081	388.69
260.314	363.69
260.547	391.69
260.779	395.69
261.012	376.69
261.244	391.69
261.477	405.69
261.71	392.69
261.942	407.69
262.175	391.69
262.407	391.69
262.64	408.69
262.872	403.69
263.105	420.69
263.337	405.69
263.57	396.69
263.802	425.69
264.035	419.69
264.267	423.69
264.499	420.69
264.732	426.69
264.964	437.69
265.197	426.69
265.429	451.69
265.661	421.69
265.894	435.69
266.126	438.69
266.358	430.69
266.591	442.69
266.823	442.69
267.055	434.69
267.287	450.69
267.52	444.69
267.752	441.69
267.984	441.69
268.216	458.69
268.448	456.69
268.681	461.69
268.913	450.69
269.145	469.69
269.377	460.69
269.609	453.69
269.841	463.69
270.073	454.69
270.306	482.69
270.538	463.69
270.77	439.69
271.002	442.69
271.234	460.69
271.466	466.69
271.698	472.69
271.93	464.69
272.162	486.69
272.394	488.69
272.626	479.69
272.858	477.69
273.09	461.69
273.322	503.69
273.553	507.69
273.785	505.69
274.017	496.69
274.249	497.69
274.481	502.69
274.713	509.69
274.945	505.69
275.176	487.69
275.408	505.69
275.64	503.69
275.872	508.69
276.104	523.69
276.335	508.69
276.567	509.69
276.799	528.69
277.031	529.69
277.262	523.69
277.494	531.69
277.726	532.69
277.957	525.69
278.189	537.69
278.421	521.69
278.652	542.69
278.884	521.69
279.115	547.69
279.347	547.69
279.579	546.69
279.81	530.69
280.042	546.69
280.273	534.69
280.505	533.69
280.736	544.69
280.968	553.69
281.199	544.69
281.431	571.69
281.662	566.69
281.894	573.69
282.125	558.69
282.356	564.69
282.588	554.69
282.819	557.69
283.051	561.69
283.282	551.69
283.513	571.69
283.745	566.69
283.976	557.69
284.207	573.69
284.439	571.69
284.67	589.69
284.901	565.69
285.132	574.69
285.364	588.69
285.595	566.69
285.826	583.69
286.057	581.69
286.288	573.69
286.52	597.69
286.751	591.69
286.982	582.69
287.213	593.69
287.444	571.69
287.675	605.69
287.906	579.69
288.138	597.69
288.369	613.69
288.6	621.69
288.831	612.69
289.062	602.69
289.293	597.69
289.524	602.69
289.755	598.69
289.986	611.69
290.217	617.69
290.448	576.69
290.679	597.69
290.91	632.69
291.141	626.69
291.371	600.69
291.602	616.69
291.833	605.69
292.064	603.69
292.295	618.69
292.526	621.69
292.757	606.69
292.987	637.69
293.218	607.69
293.449	629.69
293.68	633.69
293.91	617.69
294.141	629.69
294.372	621.69
294.603	627.69
294.833	610.69
295.064	620.69
295.295	622.69
295.525	609.69
295.756	609.69
295.987	596.69
296.217	639.69
296.448	619.69
296.679	651.69
296.909	637.69
297.14	640.69
297.37	656.69
297.601	645.69
297.831	657.69
298.062	625.69
298.292	627.69
298.523	653.69
298.753	659.69
298.984	635.69
299.214	623.69
299.445	633.69
299.675	661.69
299.905	674.69
300.136	669.69
300.366	679.69
300.597	698.69
300.827	699.69
301.057	709.69
301.288	704.69
301.518	695.69
301.748	670.69
301.979	689.69
302.209	679.69
302.439	679.69
302.669	669.69
302.9	688.69
303.13	697.69
303.36	709.69
303.59	697.69
303.82	709.69
304.051	714.69
304.281	723.69
304.511	674.69
304.741	689.69
304.971	706.69
305.201	740.69
305.431	741.69
305.661	717.69
305.891	723.69
306.121	709.69
306.352	724.69
306.582	692.69
306.812	682.69
307.042	714.69
307.272	698.69
307.502	705.69
307.731	699.69
307.961	733.69
308.191	734.69
308.421	689.69
308.651	711.69
308.881	708.69
309.111	721.69
309.341	719.69
309.571	707.69
309.8	730.69
310.03	747.69
310.26	763.69
310.49	782.69
310.72	740.69
310.949	746.69
311.179	746.69
311.409	770.69
311.639	743.69
311.868	733.69
312.098	756.69
312.328	770.69
312.557	773.69
312.787	771.69
313.017	774.69
313.246	782.69
313.476	795.69
313.706	816.69
313.935	791.69
314.165	787.69
314.394	797.69
314.624	761.69
314.853	767.69
315.083	806.69
315.312	799.69
315.542	782.69
315.771	789.69
316.001	750.69
316.23	793.69
316.46	798.69
316.689	805.69
316.919	811.69
317.148	790.69
317.377	829.69
317.607	810.69
317.836	835.69
318.065	803.69
318.295	833.69
318.524	807.69
318.753	830.69
318.983	841.69
319.212	836.69
319.441	846.69
319.67	852.69
319.9	843.69
320.129	860.69
320.358	840.69
320.587	850.69
320.816	855.69
321.046	852.69
321.275	831.69
321.504	876.69
321.733	862.69
321.962	891.69
322.191	864.69
322.42	901.69
322.649	871.69
322.878	857.69
323.108	890.69
323.337	903.69
323.566	900.69
323.795	898.69
324.024	924.69
324.253	899.69
324.482	902.69
324.71	903.69
324.939	914.69
325.168	913.69
325.397	914.69
325.626	920.69
325.855	914.69
326.084	919.69
326.313	890.69
326.542	952.69
326.77	924.69
326.999	937.69
327.228	934.69
327.457	951.69
327.686	918.69
327.914	949.69
328.143	967.69
328.372	956.69
328.6	907.69
328.829	936.69
329.058	935.69
329.287	914.69
329.515	941.69
329.744	936.69
329.972	947.69
330.201	980.69
330.43	953.69
330.658	950.69
330.887	993.69
331.115	975.69
331.344	980.69
331.572	1003.69
331.801	993.69
332.03	1009.69
332.258	1005.69
332.486	1009.69
332.715	1003.69
332.943	995.69
333.172	1032.69
333.4	999.69
333.629	1018.69
333.857	1059.69
334.085	1042.69
334.314	1044.69
334.542	1031.69
334.771	1058.69
334.999	1046.69
335.227	1047.69
335.455	1041.69
335.684	1077.69
335.912	1094.69
336.14	1066.69
336.369	1068.69
336.597	1097.69
336.825	1100.69
337.053	1118.69
337.281	1082.69
337.51	1088.69
337.738	1084.69
337.966	1078.69
338.194	1087.69
338.422	1083.69
338.65	1066.69
338.878	1067.69
339.106	1094.69
339.334	1102.69
339.562	1074.69
339.79	1040.69
340.018	1061.69
340.246	1024.69
340.474	1060.69
340.702	999.69
340.93	1057.69
341.158	1061.69
341.386	1089.69
341.614	1087.69
341.842	1078.69
342.07	1026.69
342.298	1041.69
342.526	1033.69
342.754	1077.69
342.981	1025.69
343.209	1062.69
343.437	1064.69
343.665	1061.69
343.893	1077.69
344.12	1059.69
344.348	1075.69
344.576	1081.69
344.804	1088.69
345.031	1081.69
345.259	1055.69
345.487	1085.69
345.714	1073.69
345.942	1079.69
346.17	1130.69
346.397	1045.69
346.625	1025.69
346.853	1059.69
347.08	1010.69
347.308	1042.69
347.535	1030.69
347.763	1036.69
347.99	1027.69
348.218	1021.69
348.445	1013.69
348.673	999.69
348.9	1009.69
349.128	1023.69
349.355	1032.69
349.583	1043.69
349.81	1030.69
350.037	1008.69
350.265	1021.69
350.492	1010.69
350.72	1011.69
350.947	1018.69
351.174	1069.69
351.402	1070.69
351.629	1046.69
351.856	1057.69
352.083	1041.69
352.311	1004.69
352.538	1061.69
352.765	1059.69
352.992	1016.69
353.22	973.69
353.447	983.69
353.674	963.69
353.901	1006.69
354.128	993.69
354.355	967.69
354.583	996.69
354.81	991.69
355.037	965.69
355.264	986.69
355.491	983.69
355.718	985.69
355.945	969.69
356.172	978.69
356.399	1006.69
356.626	1046.69
356.853	1001.69
357.08	1000.69
357.307	1017.69
357.534	992.69
357.761	982.69
357.988	1003.69
358.215	990.69
358.441	974.69
358.668	989.69
358.895	969.69
359.122	972.69
359.349	976.69
359.576	1007.69
359.802	1006.69
360.029	1005.69
360.256	992.69
360.483	978.69
360.709	1006.69
360.936	1003.69
361.163	1025.69
361.39	1025.69
361.616	1016.69
361.843	1050.69
362.07	1081.69
362.296	1065.69
362.523	993.69
362.749	1020.69
362.976	1002.69
363.203	1018.69
363.429	1012.69
363.656	988.69
363.882	1019.69
364.109	1005.69
364.335	1011.69
364.562	1029.69
364.788	1001.69
365.015	1032.69
365.241	1024.69
365.468	1012.69
365.694	979.69
365.92	958.69
366.147	1003.69
366.373	1012.69
366.599	991.69
366.826	1021.69
367.052	993.69
367.278	1027.69
367.505	997.69
367.731	1014.69
367.957	1020.69
368.184	1023.69
368.41	1034.69
368.636	998.69
368.862	1034.69
369.089	1037.69
369.315	1017.69
369.541	1024.69
369.767	1053.69
369.993	1033.69
370.219	1022.69
370.445	1020.69
370.672	1058.69
370.898	1056.69
371.124	1047.69
371.35	1052.69
371.576	1069.69
371.802	1045.69
372.028	1049.69
372.254	1064.69
372.48	1060.69
372.706	1046.69
372.932	1062.69
373.158	1064.69
373.384	1068.69
373.61	1058.69
373.835	1083.69
374.061	1036.69
374.287	1047.69
374.513	1050.69
374.739	1056.69
374.965	1077.69
375.191	1075.69
375.416	1038.69
375.642	1049.69
375.868	1033.69
376.094	1051.69
376.319	1042.69
376.545	1037.69
376.771	1039.69
376.997	1015.69
377.222	1038.69
377.448	1029.69
377.674	1060.69
377.899	997.69
378.125	1031.69
378.35	1022.69
378.576	1029.69
378.802	1009.69
379.027	985.69
379.253	1011.69
379.478	1013.69
379.704	974.69
379.929	990.69
380.155	996.69
380.38	1013.69
380.606	1045.69
380.831	1013.69
381.057	1044.69
381.282	1021.69
381.507	1014.69
381.733	1041.69
381.958	1048.69
382.184	1043.69
382.409	1064.69
382.634	1039.69
382.86	1045.69
383.085	1062.69
383.31	1050.69
383.535	1045.69
383.761	1037.69
383.986	1018.69
384.211	1072.69
384.436	1071.69
384.662	1066.69
384.887	1083.69
385.112	1087.69
385.337	1078.69
385.562	1075.69
385.787	1109.69
386.013	1112.69
386.238	1057.69
386.463	1089.69
386.688	1092.69
386.913	1074.69
387.138	1105.69
387.363	1096.69
387.588	1092.69
387.813	1108.69
388.038	1127.69
388.263	1077.69
388.488	1100.69
388.713	1104.69
388.938	1080.69
389.163	1105.69
389.387	1117.69
389.612	1111.69
389.837	1093.69
390.062	1138.69
390.287	1126.69
390.512	1104.69
390.736	1131.69
390.961	1124.69
391.186	1128.69
391.411	1145.69
391.636	1113.69
391.86	1130.69
392.085	1098.69
392.31	1130.69
392.534	1135.69
392.759	1143.69
392.984	1118.69
393.208	1145.69
393.433	1125.69
393.658	1133.69
393.882	1145.69
394.107	1115.69
394.331	1128.69
394.556	1169.69
394.78	1144.69
395.005	1141.69
395.229	1111.69
395.454	1152.69
395.678	1133.69
395.903	1110.69
396.127	1117.69
396.352	1154.69
396.576	1143.69
396.801	1133.69
397.025	1159.69
397.249	1163.69
397.474	1153.69
397.698	1166.69
397.922	1178.69
398.147	1157.69
398.371	1171.69
398.595	1198.69
398.82	1221.69
399.044	1241.69
399.268	1217.69
399.492	1296.69
399.717	1299.69
399.941	1284.69
400.165	1324.69
400.389	1286.69
400.613	1253.69
400.837	1286.69
401.062	1240.69
401.286	1264.69
401.51	1219.69
401.734	1224.69
401.958	1215.69
402.182	1220.69
402.406	1211.69
402.63	1225.69
402.854	1228.69
403.078	1225.69
403.302	1231.69
403.526	1221.69
403.75	1235.69
403.974	1215.69
404.198	1223.69
404.422	1242.69
404.645	1253.69
404.869	1253.69
405.093	1270.69
405.317	1224.69
405.541	1260.69
405.765	1253.69
405.988	1246.69
406.212	1283.69
406.436	1296.69
406.66	1306.69
406.883	1252.69
407.107	1348.69
407.331	1329.69
407.555	1284.69
407.778	1318.69
408.002	1334.69
408.226	1361.69
408.449	1310.69
408.673	1334.69
408.896	1322.69
409.12	1275.69
409.344	1279.69
409.567	1291.69
409.791	1319.69
410.014	1262.69
410.238	1283.69
410.461	1287.69
410.685	1265.69
410.908	1281.69
411.132	1309.69
411.355	1230.69
411.578	1275.69
411.802	1290.69
412.025	1257.69
412.249	1274.69
412.472	1238.69
412.695	1247.69
412.919	1236.69
413.142	1264.69
413.365	1226.69
413.589	1239.69
413.812	1228.69
414.035	1230.69
414.258	1262.69
414.482	1242.69
414.705	1246.69
414.928	1250.69
415.151	1237.69
415.374	1196.69
415.597	1230.69
415.821	1223.69
416.044	1213.69
416.267	1182.69
416.49	1185.69
416.713	1193.69
416.936	1210.69
417.159	1230.69
417.382	1222.69
417.605	1177.69
417.828	1203.69
418.051	1193.69
418.274	1215.69
418.497	1158.69
418.72	1201.69
418.943	1176.69
419.166	1230.69
419.389	1308.69
419.611	1267.69
419.834	1230.69
420.057	1230.69
420.28	1195.69
420.503	1180.69
420.726	1181.69
420.948	1166.69
421.171	1155.69
421.394	1189.69
421.617	1164.69
421.839	1216.69
422.062	1173.69
422.285	1176.69
422.507	1219.69
422.73	1172.69
422.953	1183.69
423.175	1205.69
423.398	1203.69
423.621	1207.69
423.843	1148.69
424.066	1206.69
424.288	1201.69
424.511	1178.69
424.733	1181.69
424.956	1225.69
425.178	1207.69
425.401	1161.69
425.623	1174.69
425.846	1189.69
426.068	1191.69
426.291	1197.69
426.513	1176.69
426.735	1187.69
426.958	1211.69
427.18	1189.69
427.402	1197.69
427.625	1181.69
427.847	1166.69
428.069	1177.69
428.292	1198.69
428.514	1149.69
428.736	1191.69
428.958	1195.69
429.181	1173.69
429.403	1171.69
429.625	1195.69
429.847	1166.69
430.069	1186.69
430.292	1152.69
430.514	1150.69
430.736	1165.69
430.958	1181.69
431.18	1152.69
431.402	1197.69
431.624	1171.69
431.846	1144.69
432.068	1150.69
432.29	1179.69
432.512	1174.69
432.734	1195.69
432.956	1171.69
433.178	1218.69
433.4	1241.69
433.622	1208.69
433.844	1213.69
434.066	1219.69
434.287	1204.69
434.509	1167.69
434.731	1196.69
434.953	1207.69
435.175	1219.69
435.397	1231.69
435.618	1202.69
435.84	1181.69
436.062	1196.69
436.284	1213.69
436.505	1199.69
436.727	1177.69
436.949	1171.69
437.17	1191.69
437.392	1217.69
437.614	1183.69
437.835	1142.69
438.057	1143.69
438.278	1154.69
438.5	1148.69
438.721	1155.69
438.943	1174.69
439.165	1173.69
439.386	1174.69
439.608	1193.69
439.829	1185.69
440.05	1171.69
440.272	1194.69
440.493	1176.69
440.715	1206.69
440.936	1186.69
441.158	1200.69
441.379	1190.69
441.6	1219.69
441.822	1191.69
442.043	1227.69
442.264	1178.69
442.486	1183.69
442.707	1230.69
442.928	1178.69
443.149	1243.69
443.371	1247.69
443.592	1281.69
443.813	1273.69
444.034	1216.69
444.255	1230.69
444.476	1257.69
444.698	1248.69
444.919	1272.69
445.14	1333.69
445.361	1286.69
445.582	1234.69
445.803	1214.69
446.024	1201.69
446.245	1177.69
446.466	1159.69
446.687	1180.69
446.908	1139.69
447.129	1149.69
447.35	1137.69
447.571	1176.69
447.792	1117.69
448.013	1110.69
448.234	1115.69
448.455	1134.69
448.675	1126.69
448.896	1126.69
449.117	1091.69
449.338	1116.69
449.559	1095.69
449.779	1091.69
450	1086.69
450.221	1089.69
450.442	1118.69
450.662	1083.69
450.883	1082.69
451.104	1122.69
451.324	1096.69
451.545	1108.69
451.766	1094.69
451.986	1099.69
452.207	1088.69
452.428	1073.69
452.648	1084.69
452.869	1086.69
453.089	1094.69
453.31	1090.69
453.53	1073.69
453.751	1078.69
453.971	1071.69
454.192	1101.69
454.412	1077.69
454.633	1069.69
454.853	1066.69
455.073	1076.69
455.294	1080.69
455.514	1078.69
455.734	1109.69
455.955	1099.69
456.175	1140.69
456.395	1077.69
456.616	1077.69
456.836	1079.69
457.056	1087.69
457.276	1039.69
457.497	1117.69
457.717	1101.69
457.937	1102.69
458.157	1103.69
458.377	1133.69
458.598	1109.69
458.818	1125.69
459.038	1102.69
459.258	1128.69
459.478	1186.69
459.698	1228.69
459.918	1266.69
460.138	1233.69
460.358	1265.69
460.578	1237.69
460.798	1247.69
461.018	1260.69
461.238	1233.69
461.458	1215.69
461.678	1211.69
461.898	1236.69
462.118	1234.69
462.338	1268.69
462.558	1267.69
462.777	1313.69
462.997	1317.69
463.217	1324.69
463.437	1353.69
463.657	1377.69
463.876	1307.69
464.096	1298.69
464.316	1281.69
464.536	1285.69
464.755	1256.69
464.975	1226.69
465.195	1226.69
465.414	1248.69
465.634	1179.69
465.854	1128.69
466.073	1169.69
466.293	1175.69
466.512	1171.69
466.732	1133.69
466.951	1180.69
467.171	1147.69
467.391	1164.69
467.61	1169.69
467.829	1128.69
468.049	1116.69
468.268	1116.69
468.488	1127.69
468.707	1143.69
468.927	1146.69
469.146	1135.69
469.365	1199.69
469.585	1122.69
469.804	1157.69
470.023	1157.69
470.243	1133.69
470.462	1119.69
470.681	1133.69
470.901	1145.69
471.12	1155.69
471.339	1145.69
471.558	1130.69
471.777	1189.69
471.997	1169.69
472.216	1150.69
472.435	1129.69
472.654	1141.69
472.873	1141.69
473.092	1164.69
473.311	1143.69
473.53	1156.69
473.749	1157.69
473.968	1155.69
474.187	1162.69
474.406	1153.69
474.625	1161.69
474.844	1145.69
475.063	1179.69
475.282	1185.69
475.501	1190.69
475.72	1198.69
475.939	1180.69
476.158	1205.69
476.377	1178.69
476.596	1201.69
476.814	1221.69
477.033	1219.69
477.252	1206.69
477.471	1233.69
477.69	1255.69
477.908	1283.69
478.127	1298.69
478.346	1267.69
478.564	1313.69
478.783	1307.69
479.002	1356.69
479.22	1405.69
479.439	1371.69
479.658	1344.69
479.876	1350.69
480.095	1336.69
480.313	1373.69
480.532	1335.69
480.751	1340.69
480.969	1334.69
481.188	1350.69
481.406	1359.69
481.624	1320.69
481.843	1332.69
482.061	1301.69
482.28	1347.69
482.498	1303.69
482.717	1341.69
482.935	1371.69
483.153	1426.69
483.372	1453.69
483.59	1441.69
483.808	1414.69
484.027	1404.69
484.245	1411.69
484.463	1386.69
484.681	1401.69
484.9	1383.69
485.118	1361.69
485.336	1391.69
485.554	1394.69
485.772	1370.69
485.99	1392.69
486.209	1393.69
486.427	1359.69
486.645	1387.69
486.863	1445.69
487.081	1433.69
487.299	1381.69
487.517	1414.69
487.735	1449.69
487.953	1479.69
488.171	1453.69
488.389	1446.69
488.607	1435.69
488.825	1422.69
489.043	1397.69
489.261	1421.69
489.479	1409.69
489.696	1437.69
489.914	1441.69
490.132	1411.69
490.35	1418.69
490.568	1416.69
490.786	1419.69
491.003	1430.69
491.221	1447.69
491.439	1474.69
491.657	1448.69
491.874	1449.69
492.092	1486.69
492.31	1478.69
492.527	1466.69
492.745	1439.69
492.963	1480.69
493.18	1459.69
493.398	1466.69
493.615	1494.69
493.833	1478.69
494.05	1484.69
494.268	1472.69
494.485	1482.69
494.703	1481.69
494.92	1468.69
495.138	1494.69
495.355	1483.69
495.573	1474.69
495.79	1528.69
496.008	1503.69
496.225	1517.69
496.442	1485.69
496.66	1512.69
496.877	1532.69
497.094	1547.69
497.312	1563.69
497.529	1582.69
497.746	1589.69
497.963	1598.69
498.181	1601.69
498.398	1595.69
498.615	1649.69
498.832	1666.69
499.049	1692.69
499.267	1754.69
499.484	1797.69
499.701	1830.69
499.918	1855.69
500.135	1921.69
500.352	1940.69
500.569	1974.69
500.786	1917.69
501.003	1932.69
501.22	1927.69
501.437	1852.69
501.654	1794.69
501.871	1765.69
502.088	1754.69
502.305	1753.69
502.522	1716.69
502.739	1677.69
502.956	1638.69
503.172	1587.69
503.389	1561.69
503.606	1578.69
503.823	1542.69
504.04	1506.69
504.256	1532.69
504.473	1497.69
504.69	1486.69
504.907	1479.69
505.123	1451.69
505.34	1436.69
505.557	1440.69
505.773	1406.69
505.99	1400.69
506.207	1378.69
506.423	1347.69
506.64	1356.69
506.856	1352.69
507.073	1332.69
507.289	1337.69
507.506	1296.69
507.722	1308.69
507.939	1308.69
508.155	1295.69
508.372	1304.69
508.588	1315.69
508.805	1287.69
509.021	1285.69
509.238	1265.69
509.454	1245.69
509.67	1276.69
509.887	1271.69
510.103	1256.69
510.319	1241.69
510.536	1211.69
510.752	1256.69
510.968	1231.69
511.184	1207.69
511.401	1203.69
511.617	1207.69
511.833	1195.69
512.049	1213.69
512.265	1194.69
512.481	1225.69
512.698	1199.69
512.914	1214.69
513.13	1207.69
513.346	1173.69
513.562	1212.69
513.778	1204.69
513.994	1235.69
514.21	1235.69
514.426	1179.69
514.642	1187.69
514.858	1206.69
515.074	1196.69
515.29	1252.69
515.506	1241.69
515.721	1228.69
515.937	1248.69
516.153	1173.69
516.369	1218.69
516.585	1237.69
516.801	1212.69
517.016	1233.69
517.232	1214.69
517.448	1225.69
517.664	1250.69
517.879	1285.69
518.095	1237.69
518.311	1249.69
518.527	1224.69
518.742	1208.69
518.958	1221.69
519.173	1227.69
519.389	1199.69
519.605	1204.69
519.82	1158.69
520.036	1166.69
520.251	1195.69
520.467	1186.69
520.682	1157.69
520.898	1178.69
521.113	1157.69
521.329	1175.69
521.544	1123.69
521.76	1129.69
521.975	1129.69
522.19	1152.69
522.406	1136.69
522.621	1126.69
522.836	1143.69
523.052	1147.69
523.267	1144.69
523.482	1108.69
523.698	1109.69
523.913	1061.69
524.128	1129.69
524.343	1099.69
524.559	1132.69
524.774	1116.69
524.989	1111.69
525.204	1141.69
525.419	1117.69
525.634	1099.69
525.849	1134.69
526.064	1098.69
526.28	1110.69
526.495	1078.69
526.71	1100.69
526.925	1082.69
527.14	1074.69
527.355	1090.69
527.57	1062.69
527.785	1065.69
527.999	1073.69
528.214	1094.69
528.429	1075.69
528.644	1079.69
528.859	1074.69
529.074	1052.69
529.289	1045.69
529.503	1062.69
529.718	1061.69
529.933	1050.69
530.148	1051.69
530.363	1049.69
530.577	1051.69
530.792	1065.69
531.007	1047.69
531.221	1051.69
531.436	1029.69
531.651	1029.69
531.865	1003.69
532.08	1045.69
532.295	1045.69
532.509	1018.69
532.724	1051.69
532.938	1039.69
533.153	1027.69
533.367	1026.69
533.582	1007.69
533.796	1009.69
534.011	1027.69
534.225	1002.69
534.44	996.69
534.654	1008.69
534.868	1013.69
535.083	1018.69
535.297	984.69
535.511	999.69
535.726	1000.69
535.94	988.69
536.154	985.69
536.369	983.69
536.583	976.69
536.797	980.69
537.011	975.69
537.225	965.69
537.44	969.69
537.654	966.69
537.868	959.69
538.082	949.69
538.296	966.69
538.51	974.69
538.724	959.69
538.938	969.69
539.153	973.69
539.367	987.69
539.581	976.69
539.795	917.69
540.009	960.69
540.222	938.69
540.436	942.69
540.65	969.69
540.864	967.69
541.078	967.69
541.292	967.69
541.506	971.69
541.72	950.69
541.934	955.69
542.147	972.69
542.361	971.69
542.575	934.69
542.789	911.69
543.002	912.69
543.216	963.69
543.43	934.69
543.644	902.69
543.857	922.69
544.071	922.69
544.285	920.69
544.498	946.69
544.712	921.69
544.925	935.69
545.139	909.69
545.352	945.69
545.566	931.69
545.779	928.69
545.993	937.69
546.206	951.69
546.42	938.69
546.633	933.69
546.847	929.69
547.06	963.69
547.274	926.69
547.487	936.69
547.7	963.69
547.914	941.69
548.127	922.69
548.34	954.69
548.554	921.69
548.767	887.69
548.98	927.69
549.193	909.69
549.407	890.69
549.62	906.69
549.833	897.69
550.046	890.69
550.259	911.69
550.473	882.69
550.686	905.69
550.899	887.69
551.112	887.69
551.325	878.69
551.538	871.69
551.751	872.69
551.964	866.69
552.177	872.69
552.39	856.69
552.603	886.69
552.816	903.69
553.029	878.69
553.242	901.69
553.455	910.69
553.667	918.69
553.88	873.69
554.093	847.69
554.306	874.69
554.519	851.69
554.732	850.69
554.944	847.69
555.157	852.69
555.37	865.69
555.583	838.69
555.795	840.69
556.008	853.69
556.221	811.69
556.433	803.69
556.646	814.69
556.859	798.69
557.071	828.69
557.284	819.69
557.496	817.69
557.709	807.69
557.921	811.69
558.134	790.69
558.346	796.69
558.559	814.69
558.771	804.69
558.984	796.69
559.196	806.69
559.409	805.69
559.621	789.69
559.833	777.69
560.046	795.69
560.258	790.69
560.47	782.69
560.683	753.69
560.895	740.69
561.107	763.69
561.32	766.69
561.532	754.69
561.744	778.69
561.956	783.69
562.168	779.69
562.381	774.69
562.593	771.69
562.805	774.69
563.017	771.69
563.229	780.69
563.441	740.69
563.653	743.69
563.865	782.69
564.077	793.69
564.289	776.69
564.501	771.69
564.713	777.69
564.925	803.69
565.137	789.69
565.349	803.69
565.561	821.69
565.773	812.69
565.985	792.69
566.197	822.69
566.408	814.69
566.62	826.69
566.832	816.69
567.044	822.69
567.255	831.69
567.467	820.69
567.679	814.69
567.891	834.69
568.102	827.69
568.314	803.69
568.526	795.69
568.737	816.69
568.949	753.69
569.161	746.69
569.372	725.69
569.584	695.69
569.795	729.69
570.007	714.69
570.218	699.69
570.43	679.69
570.641	695.69
570.853	707.69
571.064	696.69
571.276	678.69
571.487	653.69
571.698	666.69
571.91	660.69
572.121	663.69
572.333	676.69
572.544	640.69
572.755	649.69
572.966	642.69
573.178	663.69
573.389	631.69
573.6	632.69
573.811	623.69
574.023	641.69
574.234	603.69
574.445	602.69
574.656	601.69
574.867	604.69
575.078	611.69
575.289	602.69
575.501	629.69
575.712	588.69
575.923	595.69
576.134	589.69
576.345	609.69
576.556	592.69
576.767	589.69
576.978	571.69
577.188	577.69
577.399	574.69
577.61	591.69
577.821	565.69
578.032	569.69
578.243	558.69
578.454	549.69
578.665	557.69
578.875	577.69
579.086	593.69
579.297	563.69
579.508	581.69
579.718	549.69
579.929	539.69
580.14	547.69
580.35	527.69
580.561	532.69
580.772	544.69
580.982	553.69
581.193	513.69
581.403	543.69
581.614	541.69
581.825	536.69
582.035	543.69
582.246	506.69
582.456	527.69
582.667	525.69
582.877	504.69
583.087	503.69
583.298	517.69
583.508	511.69
583.719	488.69
583.929	509.69
584.139	504.69
584.35	499.69
584.56	521.69
584.77	507.69
584.981	524.69
585.191	514.69
585.401	507.69
585.611	521.69
585.821	488.69
586.032	499.69
586.242	493.69
586.452	496.69
586.662	524.69
586.872	522.69
587.082	506.69
587.292	486.69
587.502	475.69
587.713	491.69
587.923	469.69
588.133	491.69
588.343	483.69
588.553	490.69
588.762	482.69
588.972	505.69
589.182	540.69
589.392	536.69
589.602	466.69
589.812	515.69
590.022	500.69
590.232	473.69
590.441	487.69
590.651	471.69
590.861	478.69
591.071	492.69
591.281	497.69
591.49	488.69
591.7	472.69
591.91	494.69
592.119	492.69
592.329	502.69
592.539	479.69
592.748	476.69
592.958	485.69
593.167	489.69
593.377	493.69
593.587	491.69
593.796	493.69
594.006	505.69
594.215	474.69
594.424	481.69
594.634	485.69
594.843	449.69
595.053	454.69
595.262	474.69
595.472	455.69
595.681	459.69
595.89	463.69
596.1	463.69
596.309	450.69
596.518	429.69
596.727	457.69
596.937	462.69
597.146	452.69
597.355	454.69
597.564	434.69
597.774	441.69
597.983	415.69
598.192	437.69
598.401	418.69
598.61	403.69
598.819	423.69
599.028	435.69
599.237	414.69
599.446	391.69
599.655	427.69
599.864	410.69
600.073	400.69
600.282	416.69
600.491	404.69
600.7	411.69
600.909	426.69
601.118	411.69
601.327	414.69
601.536	413.69
601.745	390.69
601.953	405.69
602.162	417.69
602.371	395.69
602.58	389.69
602.789	397.69
602.997	399.69
603.206	386.69
603.415	393.69
603.623	382.69
603.832	358.69
604.041	405.69
604.249	389.69
604.458	390.69
604.666	383.69
604.875	364.69
605.084	395.69
605.292	369.69
605.501	391.69
605.709	374.69
605.918	389.69
606.126	390.69
606.334	393.69
606.543	382.69
606.751	387.69
606.96	386.69
607.168	395.69
607.376	374.69
607.585	375.69
607.793	380.69
608.001	377.69
608.21	378.69
608.418	370.69
608.626	366.69
608.834	376.69
609.043	377.69
609.251	351.69
609.459	369.69
609.667	369.69
609.875	378.69
610.083	354.69
610.291	350.69
610.499	362.69
610.707	370.69
610.916	350.69
611.124	363.69
611.332	381.69
611.54	354.69
611.748	374.69
611.955	351.69
612.163	344.69
612.371	358.69
612.579	376.69
612.787	353.69
612.995	357.69
613.203	363.69
613.411	357.69
613.618	344.69
613.826	358.69
614.034	354.69
614.242	356.69
614.449	356.69
614.657	352.69
614.865	352.69
615.072	351.69
615.28	346.69
615.488	338.69
615.695	336.69
615.903	349.69
616.111	335.69
616.318	341.69
616.526	354.69
616.733	333.69
616.941	325.69
617.148	347.69
617.356	329.69
617.563	333.69
617.771	332.69
617.978	328.69
618.185	345.69
618.393	333.69
618.6	351.69
618.807	350.69
619.015	341.69
619.222	338.69
619.429	332.69
619.637	343.69
619.844	314.69
620.051	323.69
620.258	330.69
620.466	328.69
620.673	325.69
620.88	326.69
621.087	324.69
621.294	333.69
621.501	314.69
621.708	321.69
621.915	333.69
622.122	326.69
622.329	332.69
622.536	321.69
622.743	323.69
622.95	340.69
623.157	319.69
623.364	297.69
623.571	301.69
623.778	302.69
623.985	319.69
624.192	321.69
624.399	307.69
624.606	303.69
624.812	312.69
625.019	315.69
625.226	317.69
625.433	290.69
625.639	287.69
625.846	301.69
626.053	282.69
626.259	306.69
626.466	302.69
626.673	282.69
626.879	267.69
627.086	299.69
627.293	277.69
627.499	300.69
627.706	288.69
627.912	287.69
628.119	284.69
628.325	315.69
628.532	283.69
628.738	294.69
628.945	285.69
629.151	282.69
629.357	285.69
629.564	271.69
629.77	288.69
629.976	292.69
630.183	280.69
630.389	307.69
630.595	287.69
630.802	280.69
631.008	257.69
631.214	280.69
631.42	279.69
631.627	277.69
631.833	271.69
632.039	274.69
632.245	262.69
632.451	272.69
632.657	285.69
632.863	257.69
633.069	261.69
633.275	271.69
633.481	265.69
633.688	266.69
633.893	276.69
634.099	290.69
634.305	264.69
634.511	264.69
634.717	285.69
634.923	273.69
635.129	261.69
635.335	281.69
635.541	269.69
635.747	264.69
635.952	278.69
636.158	251.69
636.364	253.69
636.57	269.69
636.775	267.69
636.981	249.69
637.187	253.69
637.392	255.69
637.598	279.69
637.804	248.69
638.009	261.69
638.215	249.69
638.421	253.69
638.626	252.69
638.832	243.69
639.037	231.69
639.243	228.69
639.448	256.69
639.654	249.69
639.859	246.69
640.065	234.69
640.27	248.69
640.475	251.69
640.681	253.69
640.886	253.69
641.091	260.69
641.297	270.69
641.502	238.69
641.707	261.69
641.913	241.69
642.118	244.69
642.323	259.69
642.528	257.69
642.733	247.69
642.939	225.69
643.144	237.69
643.349	246.69
643.554	249.69
643.759	253.69
643.964	246.69
644.169	263.69
644.374	237.69
644.579	235.69
644.784	249.69
644.989	239.69
645.194	245.69
645.399	262.69
645.604	248.69
645.809	234.69
646.014	235.69
646.219	238.69
646.423	245.69
646.628	250.69
646.833	245.69
647.038	242.69
647.243	262.69
647.447	244.69
647.652	241.69
647.857	253.69
648.062	245.69
648.266	239.69
648.471	258.69
648.676	246.69
648.88	254.69
649.085	237.69
649.289	246.69
649.494	242.69
649.698	235.69
649.903	230.69
650.107	266.69
650.312	235.69
650.516	235.69
650.721	239.69
650.925	223.69
651.13	237.69
651.334	224.69
651.539	222.69
651.743	224.69
651.947	234.69
652.152	220.69
652.356	229.69
652.56	240.69
652.764	230.69
652.969	220.69
653.173	222.69
653.377	222.69
653.581	216.69
653.785	207.69
653.99	220.69
654.194	208.69
654.398	219.69
654.602	214.69
654.806	208.69
655.01	211.69
655.214	198.69
655.418	198.69
655.622	195.69
655.826	200.69
656.03	201.69
656.234	214.69
656.438	185.69
656.642	198.69
656.846	180.69
657.049	206.69
657.253	183.69
657.457	172.69
657.661	172.69
657.865	157.69
658.068	165.69
658.272	133.69
658.476	146.69
658.68	161.69
658.883	155.69
659.087	142.69
659.291	135.69
659.494	130.69
659.698	121.69
659.901	122.69
660.105	114.69
660.309	127.69
660.512	117.69
660.716	118.69
660.919	114.69
661.123	105.69
661.326	107.69
661.53	106.69
661.733	102.69
661.936	102.69
662.14	103.69
662.343	107.69
662.546	87.69
662.75	97.69
662.953	87.69
663.156	92.69
663.36	81.69
663.563	86.69
663.766	87.69
663.969	84.69
664.173	96.69
664.376	73.69
664.579	76.69
664.782	83.69
664.985	91.69
665.188	79.69
665.391	91.69
665.594	94.69
665.797	84.69
666	89.69
666.203	80.69
666.406	65.69
666.609	79.69
666.812	90.69
667.015	80.69
667.218	85.69
667.421	77.69
667.624	73.69
667.827	86.69
668.03	78.69
668.232	75.69
668.435	87.69
668.638	79.69
668.841	64.69
669.043	92.69
669.246	78.69
669.449	71.69
669.651	87.69
669.854	86.69
670.057	79.69
670.259	83.69
670.462	79.69
670.665	100.69
670.867	84.69
671.07	91.69
671.272	76.69
671.475	77.69
671.677	83.69
671.88	74.69
672.082	82.69
672.284	84.69
672.487	90.69
672.689	78.69
672.892	89.69
