Data from Ni(NO3)2@0.5M.TitratingCurve.Agarose3%dH2O.NegLispCup.LampEnergy10.LIBS07252019_HRD10591_17-58-07-564.txt Node
Date: Thu Jul 25 17:58:07 EDT 2019
User: cochatt
Spectrometer: HR+D1059
Trigger mode: 1
Integration Time (sec): 1.000000E-1
Scans to average: 1
Electric dark correction enabled: true
Nonlinearity correction enabled: false
Boxcar width: 0
XAxis mode: Wavelengths
Number of Pixels in Spectrum: 2048
>>>>>Begin Spectral Data<<<<<
223.165	-28.06
223.4	-28.06
223.635	-28.06
223.869	-23.06
224.104	-19.06
224.338	-9.06
224.573	-18.06
224.808	-15.06
225.042	-25.06
225.277	3.94
225.511	3.94
225.746	4.94
225.98	8.94
226.215	10.94
226.449	13.94
226.683	33.94
226.918	31.94
227.152	24.94
227.387	42.94
227.621	13.94
227.856	38.94
228.09	36.94
228.324	48.94
228.559	35.94
228.793	84.94
229.027	135.94
229.262	153.94
229.496	153.94
229.73	159.94
229.964	206.94
230.199	241.94
230.433	221.94
230.667	208.94
230.901	191.94
231.136	177.94
231.37	183.94
231.604	208.94
231.838	230.94
232.072	234.94
232.306	226.94
232.541	206.94
232.775	200.94
233.009	196.94
233.243	187.94
233.477	189.94
233.711	196.94
233.945	218.94
234.179	198.94
234.413	207.94
234.647	206.94
234.881	198.94
235.115	219.94
235.349	188.94
235.583	182.94
235.817	188.94
236.051	194.94
236.285	183.94
236.519	197.94
236.753	189.94
236.987	209.94
237.221	203.94
237.455	206.94
237.689	212.94
237.922	231.94
238.156	221.94
238.39	216.94
238.624	211.94
238.858	214.94
239.091	223.94
239.325	233.94
239.559	221.94
239.793	267.94
240.027	277.94
240.26	240.94
240.494	223.94
240.728	234.94
240.961	232.94
241.195	233.94
241.429	228.94
241.662	259.94
241.896	263.94
242.13	297.94
242.363	262.94
242.597	261.94
242.83	252.94
243.064	261.94
243.298	259.94
243.531	278.94
243.765	268.94
243.998	285.94
244.232	284.94
244.465	285.94
244.699	280.94
244.932	269.94
245.166	304.94
245.399	279.94
245.633	272.94
245.866	269.94
246.099	294.94
246.333	282.94
246.566	281.94
246.8	289.94
247.033	310.94
247.266	296.94
247.5	296.94
247.733	309.94
247.966	323.94
248.2	309.94
248.433	323.94
248.666	306.94
248.899	328.94
249.133	313.94
249.366	341.94
249.599	347.94
249.832	329.94
250.066	351.94
250.299	329.94
250.532	344.94
250.765	370.94
250.998	352.94
251.231	401.94
251.465	403.94
251.698	413.94
251.931	376.94
252.164	361.94
252.397	374.94
252.63	399.94
252.863	379.94
253.096	397.94
253.329	401.94
253.562	384.94
253.795	398.94
254.028	386.94
254.261	438.94
254.494	419.94
254.727	409.94
254.96	417.94
255.193	411.94
255.426	425.94
255.659	436.94
255.892	417.94
256.124	428.94
256.357	435.94
256.59	429.94
256.823	438.94
257.056	458.94
257.289	443.94
257.521	460.94
257.754	460.94
257.987	464.94
258.22	453.94
258.452	483.94
258.685	484.94
258.918	484.94
259.151	450.94
259.383	482.94
259.616	483.94
259.849	476.94
260.081	488.94
260.314	496.94
260.547	498.94
260.779	521.94
261.012	511.94
261.244	518.94
261.477	513.94
261.71	513.94
261.942	525.94
262.175	503.94
262.407	503.94
262.64	504.94
262.872	523.94
263.105	530.94
263.337	519.94
263.57	534.94
263.802	556.94
264.035	543.94
264.267	538.94
264.499	513.94
264.732	555.94
264.964	537.94
265.197	553.94
265.429	544.94
265.661	556.94
265.894	541.94
266.126	567.94
266.358	560.94
266.591	563.94
266.823	561.94
267.055	559.94
267.287	578.94
267.52	556.94
267.752	572.94
267.984	569.94
268.216	577.94
268.448	596.94
268.681	600.94
268.913	580.94
269.145	601.94
269.377	589.94
269.609	615.94
269.841	605.94
270.073	588.94
270.306	611.94
270.538	585.94
270.77	586.94
271.002	593.94
271.234	591.94
271.466	615.94
271.698	637.94
271.93	620.94
272.162	615.94
272.394	624.94
272.626	630.94
272.858	613.94
273.09	630.94
273.322	631.94
273.553	617.94
273.785	626.94
274.017	653.94
274.249	637.94
274.481	637.94
274.713	657.94
274.945	656.94
275.176	661.94
275.408	662.94
275.64	645.94
275.872	665.94
276.104	647.94
276.335	669.94
276.567	679.94
276.799	689.94
277.031	693.94
277.262	688.94
277.494	666.94
277.726	687.94
277.957	683.94
278.189	674.94
278.421	673.94
278.652	685.94
278.884	695.94
279.115	678.94
279.347	700.94
279.579	717.94
279.81	700.94
280.042	713.94
280.273	722.94
280.505	733.94
280.736	732.94
280.968	724.94
281.199	712.94
281.431	712.94
281.662	730.94
281.894	721.94
282.125	701.94
282.356	727.94
282.588	725.94
282.819	720.94
283.051	741.94
283.282	748.94
283.513	725.94
283.745	731.94
283.976	756.94
284.207	725.94
284.439	746.94
284.67	745.94
284.901	761.94
285.132	737.94
285.364	753.94
285.595	741.94
285.826	735.94
286.057	746.94
286.288	760.94
286.52	769.94
286.751	781.94
286.982	784.94
287.213	744.94
287.444	781.94
287.675	767.94
287.906	758.94
288.138	788.94
288.369	756.94
288.6	760.94
288.831	765.94
289.062	772.94
289.293	781.94
289.524	789.94
289.755	773.94
289.986	791.94
290.217	786.94
290.448	800.94
290.679	793.94
290.91	790.94
291.141	781.94
291.371	792.94
291.602	789.94
291.833	809.94
292.064	799.94
292.295	796.94
292.526	777.94
292.757	819.94
292.987	810.94
293.218	774.94
293.449	795.94
293.68	809.94
293.91	794.94
294.141	789.94
294.372	781.94
294.603	787.94
294.833	802.94
295.064	799.94
295.295	806.94
295.525	810.94
295.756	790.94
295.987	788.94
296.217	815.94
296.448	807.94
296.679	802.94
296.909	788.94
297.14	809.94
297.37	828.94
297.601	808.94
297.831	853.94
298.062	813.94
298.292	854.94
298.523	850.94
298.753	852.94
298.984	845.94
299.214	865.94
299.445	832.94
299.675	852.94
299.905	871.94
300.136	861.94
300.366	889.94
300.597	883.94
300.827	890.94
301.057	871.94
301.288	899.94
301.518	881.94
301.748	899.94
301.979	874.94
302.209	906.94
302.439	887.94
302.669	892.94
302.9	876.94
303.13	892.94
303.36	923.94
303.59	904.94
303.82	903.94
304.051	909.94
304.281	938.94
304.511	922.94
304.741	876.94
304.971	950.94
305.201	951.94
305.431	944.94
305.661	935.94
305.891	917.94
306.121	910.94
306.352	920.94
306.582	914.94
306.812	892.94
307.042	916.94
307.272	913.94
307.502	947.94
307.731	948.94
307.961	900.94
308.191	920.94
308.421	939.94
308.651	940.94
308.881	950.94
309.111	947.94
309.341	946.94
309.571	976.94
309.8	952.94
310.03	975.94
310.26	1009.94
310.49	1004.94
310.72	976.94
310.949	991.94
311.179	956.94
311.409	961.94
311.639	949.94
311.868	977.94
312.098	979.94
312.328	967.94
312.557	1008.94
312.787	980.94
313.017	1030.94
313.246	1024.94
313.476	995.94
313.706	1034.94
313.935	1003.94
314.165	1034.94
314.394	1026.94
314.624	1028.94
314.853	988.94
315.083	1035.94
315.312	1035.94
315.542	1032.94
315.771	1022.94
316.001	1037.94
316.23	1059.94
316.46	1055.94
316.689	1033.94
316.919	1076.94
317.148	1081.94
317.377	1069.94
317.607	1081.94
317.836	1052.94
318.065	1073.94
318.295	1115.94
318.524	1082.94
318.753	1035.94
318.983	1069.94
319.212	1093.94
319.441	1116.94
319.67	1115.94
319.9	1109.94
320.129	1097.94
320.358	1112.94
320.587	1134.94
320.816	1149.94
321.046	1124.94
321.275	1118.94
321.504	1164.94
321.733	1118.94
321.962	1140.94
322.191	1137.94
322.42	1159.94
322.649	1157.94
322.878	1152.94
323.108	1161.94
323.337	1155.94
323.566	1183.94
323.795	1161.94
324.024	1216.94
324.253	1184.94
324.482	1219.94
324.71	1212.94
324.939	1198.94
325.168	1205.94
325.397	1201.94
325.626	1206.94
325.855	1211.94
326.084	1205.94
326.313	1200.94
326.542	1219.94
326.77	1233.94
326.999	1196.94
327.228	1179.94
327.457	1224.94
327.686	1243.94
327.914	1257.94
328.143	1226.94
328.372	1229.94
328.6	1203.94
328.829	1225.94
329.058	1233.94
329.287	1263.94
329.515	1297.94
329.744	1267.94
329.972	1269.94
330.201	1240.94
330.43	1297.94
330.658	1276.94
330.887	1303.94
331.115	1273.94
331.344	1324.94
331.572	1331.94
331.801	1319.94
332.03	1297.94
332.258	1305.94
332.486	1328.94
332.715	1269.94
332.943	1316.94
333.172	1311.94
333.4	1303.94
333.629	1333.94
333.857	1334.94
334.085	1355.94
334.314	1342.94
334.542	1382.94
334.771	1398.94
334.999	1372.94
335.227	1391.94
335.455	1375.94
335.684	1404.94
335.912	1453.94
336.14	1403.94
336.369	1458.94
336.597	1436.94
336.825	1430.94
337.053	1455.94
337.281	1439.94
337.51	1371.94
337.738	1431.94
337.966	1429.94
338.194	1423.94
338.422	1388.94
338.65	1382.94
338.878	1377.94
339.106	1422.94
339.334	1420.94
339.562	1399.94
339.79	1335.94
340.018	1381.94
340.246	1358.94
340.474	1378.94
340.702	1402.94
340.93	1364.94
341.158	1387.94
341.386	1432.94
341.614	1457.94
341.842	1435.94
342.07	1358.94
342.298	1388.94
342.526	1386.94
342.754	1344.94
342.981	1370.94
343.209	1367.94
343.437	1402.94
343.665	1411.94
343.893	1393.94
344.12	1410.94
344.348	1422.94
344.576	1417.94
344.804	1453.94
345.031	1419.94
345.259	1380.94
345.487	1421.94
345.714	1398.94
345.942	1411.94
346.17	1447.94
346.397	1384.94
346.625	1381.94
346.853	1336.94
347.08	1375.94
347.308	1365.94
347.535	1351.94
347.763	1360.94
347.99	1314.94
348.218	1333.94
348.445	1304.94
348.673	1367.94
348.9	1333.94
349.128	1335.94
349.355	1335.94
349.583	1363.94
349.81	1320.94
350.037	1306.94
350.265	1305.94
350.492	1335.94
350.72	1291.94
350.947	1304.94
351.174	1355.94
351.402	1346.94
351.629	1385.94
351.856	1355.94
352.083	1336.94
352.311	1339.94
352.538	1364.94
352.765	1397.94
352.992	1335.94
353.22	1293.94
353.447	1285.94
353.674	1305.94
353.901	1294.94
354.128	1306.94
354.355	1303.94
354.583	1256.94
354.81	1282.94
355.037	1322.94
355.264	1322.94
355.491	1264.94
355.718	1273.94
355.945	1295.94
356.172	1309.94
356.399	1321.94
356.626	1384.94
356.853	1365.94
357.08	1357.94
357.307	1320.94
357.534	1313.94
357.761	1280.94
357.988	1325.94
358.215	1294.94
358.441	1309.94
358.668	1300.94
358.895	1289.94
359.122	1311.94
359.349	1276.94
359.576	1307.94
359.802	1295.94
360.029	1317.94
360.256	1321.94
360.483	1313.94
360.709	1292.94
360.936	1353.94
361.163	1340.94
361.39	1316.94
361.616	1300.94
361.843	1346.94
362.07	1393.94
362.296	1351.94
362.523	1331.94
362.749	1322.94
362.976	1284.94
363.203	1297.94
363.429	1322.94
363.656	1288.94
363.882	1300.94
364.109	1304.94
364.335	1298.94
364.562	1339.94
364.788	1337.94
365.015	1335.94
365.241	1316.94
365.468	1332.94
365.694	1333.94
365.92	1331.94
366.147	1297.94
366.373	1291.94
366.599	1325.94
366.826	1317.94
367.052	1339.94
367.278	1346.94
367.505	1313.94
367.731	1343.94
367.957	1348.94
368.184	1347.94
368.41	1325.94
368.636	1311.94
368.862	1343.94
369.089	1336.94
369.315	1356.94
369.541	1351.94
369.767	1338.94
369.993	1329.94
370.219	1315.94
370.445	1366.94
370.672	1385.94
370.898	1351.94
371.124	1360.94
371.35	1392.94
371.576	1372.94
371.802	1396.94
372.028	1363.94
372.254	1398.94
372.48	1375.94
372.706	1360.94
372.932	1415.94
373.158	1353.94
373.384	1361.94
373.61	1364.94
373.835	1387.94
374.061	1369.94
374.287	1352.94
374.513	1360.94
374.739	1385.94
374.965	1355.94
375.191	1373.94
375.416	1374.94
375.642	1327.94
375.868	1359.94
376.094	1368.94
376.319	1343.94
376.545	1384.94
376.771	1355.94
376.997	1379.94
377.222	1322.94
377.448	1339.94
377.674	1349.94
377.899	1353.94
378.125	1324.94
378.35	1343.94
378.576	1367.94
378.802	1346.94
379.027	1334.94
379.253	1329.94
379.478	1312.94
379.704	1332.94
379.929	1336.94
380.155	1328.94
380.38	1316.94
380.606	1341.94
380.831	1316.94
381.057	1329.94
381.282	1327.94
381.507	1300.94
381.733	1321.94
381.958	1317.94
382.184	1335.94
382.409	1349.94
382.634	1380.94
382.86	1348.94
383.085	1365.94
383.31	1352.94
383.535	1380.94
383.761	1333.94
383.986	1337.94
384.211	1360.94
384.436	1376.94
384.662	1405.94
384.887	1401.94
385.112	1360.94
385.337	1398.94
385.562	1401.94
385.787	1419.94
386.013	1464.94
386.238	1429.94
386.463	1424.94
386.688	1433.94
386.913	1435.94
387.138	1426.94
387.363	1433.94
387.588	1435.94
387.813	1467.94
388.038	1448.94
388.263	1427.94
388.488	1456.94
388.713	1448.94
388.938	1463.94
389.163	1429.94
389.387	1451.94
389.612	1444.94
389.837	1449.94
390.062	1434.94
390.287	1462.94
390.512	1428.94
390.736	1479.94
390.961	1445.94
391.186	1430.94
391.411	1492.94
391.636	1471.94
391.86	1493.94
392.085	1491.94
392.31	1445.94
392.534	1440.94
392.759	1434.94
392.984	1497.94
393.208	1475.94
393.433	1480.94
393.658	1517.94
393.882	1459.94
394.107	1452.94
394.331	1497.94
394.556	1474.94
394.78	1473.94
395.005	1450.94
395.229	1476.94
395.454	1482.94
395.678	1492.94
395.903	1466.94
396.127	1480.94
396.352	1504.94
396.576	1498.94
396.801	1519.94
397.025	1519.94
397.249	1487.94
397.474	1511.94
397.698	1511.94
397.922	1567.94
398.147	1505.94
398.371	1560.94
398.595	1584.94
398.82	1577.94
399.044	1634.94
399.268	1638.94
399.492	1656.94
399.717	1658.94
399.941	1678.94
400.165	1701.94
400.389	1675.94
400.613	1685.94
400.837	1637.94
401.062	1597.94
401.286	1582.94
401.51	1635.94
401.734	1559.94
401.958	1615.94
402.182	1594.94
402.406	1616.94
402.63	1574.94
402.854	1576.94
403.078	1574.94
403.302	1603.94
403.526	1610.94
403.75	1563.94
403.974	1598.94
404.198	1579.94
404.422	1568.94
404.645	1576.94
404.869	1555.94
405.093	1607.94
405.317	1611.94
405.541	1603.94
405.765	1659.94
405.988	1607.94
406.212	1646.94
406.436	1627.94
406.66	1665.94
406.883	1626.94
407.107	1697.94
407.331	1697.94
407.555	1721.94
407.778	1740.94
408.002	1715.94
408.226	1706.94
408.449	1727.94
408.673	1723.94
408.896	1689.94
409.12	1684.94
409.344	1687.94
409.567	1643.94
409.791	1689.94
410.014	1657.94
410.238	1649.94
410.461	1688.94
410.685	1666.94
410.908	1608.94
411.132	1642.94
411.355	1615.94
411.578	1603.94
411.802	1649.94
412.025	1632.94
412.249	1650.94
412.472	1629.94
412.695	1612.94
412.919	1621.94
413.142	1611.94
413.365	1626.94
413.589	1608.94
413.812	1627.94
414.035	1607.94
414.258	1596.94
414.482	1588.94
414.705	1623.94
414.928	1583.94
415.151	1563.94
415.374	1618.94
415.597	1537.94
415.821	1536.94
416.044	1565.94
416.267	1551.94
416.49	1516.94
416.713	1524.94
416.936	1570.94
417.159	1535.94
417.382	1524.94
417.605	1533.94
417.828	1539.94
418.051	1507.94
418.274	1557.94
418.497	1475.94
418.72	1513.94
418.943	1514.94
419.166	1604.94
419.389	1651.94
419.611	1672.94
419.834	1613.94
420.057	1591.94
420.28	1519.94
420.503	1522.94
420.726	1500.94
420.948	1490.94
421.171	1497.94
421.394	1516.94
421.617	1494.94
421.839	1519.94
422.062	1555.94
422.285	1510.94
422.507	1563.94
422.73	1554.94
422.953	1490.94
423.175	1521.94
423.398	1525.94
423.621	1530.94
423.843	1550.94
424.066	1554.94
424.288	1528.94
424.511	1549.94
424.733	1536.94
424.956	1500.94
425.178	1540.94
425.401	1555.94
425.623	1541.94
425.846	1493.94
426.068	1553.94
426.291	1569.94
426.513	1526.94
426.735	1519.94
426.958	1491.94
427.18	1512.94
427.402	1536.94
427.625	1531.94
427.847	1514.94
428.069	1512.94
428.292	1539.94
428.514	1503.94
428.736	1537.94
428.958	1514.94
429.181	1503.94
429.403	1480.94
429.625	1493.94
429.847	1507.94
430.069	1504.94
430.292	1499.94
430.514	1510.94
430.736	1496.94
430.958	1539.94
431.18	1493.94
431.402	1529.94
431.624	1467.94
431.846	1497.94
432.068	1497.94
432.29	1516.94
432.512	1496.94
432.734	1524.94
432.956	1556.94
433.178	1589.94
433.4	1597.94
433.622	1568.94
433.844	1599.94
434.066	1593.94
434.287	1541.94
434.509	1529.94
434.731	1569.94
434.953	1549.94
435.175	1585.94
435.397	1572.94
435.618	1578.94
435.84	1513.94
436.062	1523.94
436.284	1549.94
436.505	1521.94
436.727	1489.94
436.949	1527.94
437.17	1543.94
437.392	1545.94
437.614	1498.94
437.835	1430.94
438.057	1500.94
438.278	1460.94
438.5	1460.94
438.721	1448.94
438.943	1495.94
439.165	1503.94
439.386	1508.94
439.608	1484.94
439.829	1509.94
440.05	1512.94
440.272	1526.94
440.493	1512.94
440.715	1524.94
440.936	1516.94
441.158	1526.94
441.379	1549.94
441.6	1554.94
441.822	1552.94
442.043	1533.94
442.264	1550.94
442.486	1512.94
442.707	1572.94
442.928	1543.94
443.149	1577.94
443.371	1542.94
443.592	1659.94
443.813	1608.94
444.034	1545.94
444.255	1551.94
444.476	1579.94
444.698	1595.94
444.919	1631.94
445.14	1661.94
445.361	1605.94
445.582	1588.94
445.803	1581.94
446.024	1501.94
446.245	1515.94
446.466	1492.94
446.687	1515.94
446.908	1516.94
447.129	1453.94
447.35	1459.94
447.571	1455.94
447.792	1426.94
448.013	1426.94
448.234	1402.94
448.455	1434.94
448.675	1424.94
448.896	1432.94
449.117	1416.94
449.338	1472.94
449.559	1410.94
449.779	1441.94
450	1392.94
450.221	1392.94
450.442	1392.94
450.662	1394.94
450.883	1395.94
451.104	1450.94
451.324	1408.94
451.545	1398.94
451.766	1407.94
451.986	1394.94
452.207	1383.94
452.428	1431.94
452.648	1380.94
452.869	1376.94
453.089	1381.94
453.31	1418.94
453.53	1355.94
453.751	1335.94
453.971	1377.94
454.192	1415.94
454.412	1416.94
454.633	1384.94
454.853	1347.94
455.073	1386.94
455.294	1378.94
455.514	1387.94
455.734	1448.94
455.955	1409.94
456.175	1435.94
456.395	1350.94
456.616	1360.94
456.836	1393.94
457.056	1369.94
457.276	1345.94
457.497	1387.94
457.717	1419.94
457.937	1387.94
458.157	1387.94
458.377	1330.94
458.598	1404.94
458.818	1404.94
459.038	1408.94
459.258	1429.94
459.478	1539.94
459.698	1604.94
459.918	1608.94
460.138	1605.94
460.358	1567.94
460.578	1557.94
460.798	1583.94
461.018	1571.94
461.238	1547.94
461.458	1523.94
461.678	1524.94
461.898	1567.94
462.118	1587.94
462.338	1614.94
462.558	1626.94
462.777	1652.94
462.997	1650.94
463.217	1657.94
463.437	1749.94
463.657	1733.94
463.876	1667.94
464.096	1664.94
464.316	1624.94
464.536	1651.94
464.755	1598.94
464.975	1605.94
465.195	1590.94
465.414	1569.94
465.634	1531.94
465.854	1503.94
466.073	1480.94
466.293	1471.94
466.512	1458.94
466.732	1436.94
466.951	1482.94
467.171	1492.94
467.391	1484.94
467.61	1481.94
467.829	1473.94
468.049	1463.94
468.268	1434.94
468.488	1432.94
468.707	1423.94
468.927	1466.94
469.146	1475.94
469.365	1467.94
469.585	1434.94
469.804	1439.94
470.023	1473.94
470.243	1454.94
470.462	1481.94
470.681	1488.94
470.901	1469.94
471.12	1449.94
471.339	1468.94
471.558	1502.94
471.777	1494.94
471.997	1475.94
472.216	1467.94
472.435	1481.94
472.654	1468.94
472.873	1474.94
473.092	1461.94
473.311	1480.94
473.53	1483.94
473.749	1506.94
473.968	1501.94
474.187	1495.94
474.406	1473.94
474.625	1497.94
474.844	1491.94
475.063	1543.94
475.282	1553.94
475.501	1531.94
475.72	1528.94
475.939	1567.94
476.158	1564.94
476.377	1605.94
476.596	1562.94
476.814	1583.94
477.033	1557.94
477.252	1594.94
477.471	1617.94
477.69	1633.94
477.908	1638.94
478.127	1659.94
478.346	1641.94
478.564	1671.94
478.783	1695.94
479.002	1787.94
479.22	1791.94
479.439	1745.94
479.658	1749.94
479.876	1729.94
480.095	1728.94
480.313	1738.94
480.532	1760.94
480.751	1813.94
480.969	1736.94
481.188	1769.94
481.406	1761.94
481.624	1738.94
481.843	1711.94
482.061	1747.94
482.28	1759.94
482.498	1751.94
482.717	1727.94
482.935	1808.94
483.153	1799.94
483.372	1836.94
483.59	1865.94
483.808	1818.94
484.027	1799.94
484.245	1835.94
484.463	1800.94
484.681	1808.94
484.9	1796.94
485.118	1831.94
485.336	1818.94
485.554	1819.94
485.772	1815.94
485.99	1815.94
486.209	1758.94
486.427	1784.94
486.645	1811.94
486.863	1806.94
487.081	1799.94
487.299	1847.94
487.517	1866.94
487.735	1854.94
487.953	1917.94
488.171	1843.94
488.389	1824.94
488.607	1823.94
488.825	1817.94
489.043	1819.94
489.261	1805.94
489.479	1850.94
489.696	1837.94
489.914	1816.94
490.132	1828.94
490.35	1839.94
490.568	1876.94
490.786	1835.94
491.003	1865.94
491.221	1860.94
491.439	1875.94
491.657	1905.94
491.874	1873.94
492.092	1885.94
492.31	1909.94
492.527	1883.94
492.745	1905.94
492.963	1851.94
493.18	1890.94
493.398	1874.94
493.615	1891.94
493.833	1925.94
494.05	1884.94
494.268	1897.94
494.485	1884.94
494.703	1922.94
494.92	1919.94
495.138	1938.94
495.355	1927.94
495.573	1942.94
495.79	1919.94
496.008	1938.94
496.225	1944.94
496.442	1931.94
496.66	1975.94
496.877	1985.94
497.094	2048.94
497.312	1970.94
497.529	1976.94
497.746	2037.94
497.963	2110.94
498.181	2139.94
498.398	2100.94
498.615	2156.94
498.832	2149.94
499.049	2226.94
499.267	2246.94
499.484	2311.94
499.701	2374.94
499.918	2355.94
500.135	2416.94
500.352	2453.94
500.569	2474.94
500.786	2498.94
501.003	2455.94
501.22	2463.94
501.437	2426.94
501.654	2315.94
501.871	2312.94
502.088	2296.94
502.305	2258.94
502.522	2206.94
502.739	2165.94
502.956	2096.94
503.172	2075.94
503.389	2033.94
503.606	2019.94
503.823	2003.94
504.04	2007.94
504.256	1963.94
504.473	1952.94
504.69	1913.94
504.907	1929.94
505.123	1884.94
505.34	1868.94
505.557	1841.94
505.773	1820.94
505.99	1787.94
506.207	1764.94
506.423	1752.94
506.64	1772.94
506.856	1750.94
507.073	1758.94
507.289	1760.94
507.506	1702.94
507.722	1688.94
507.939	1713.94
508.155	1685.94
508.372	1671.94
508.588	1728.94
508.805	1675.94
509.021	1677.94
509.238	1665.94
509.454	1637.94
509.67	1607.94
509.887	1603.94
510.103	1580.94
510.319	1602.94
510.536	1579.94
510.752	1586.94
510.968	1610.94
511.184	1587.94
511.401	1590.94
511.617	1555.94
511.833	1606.94
512.049	1609.94
512.265	1558.94
512.481	1555.94
512.698	1564.94
512.914	1550.94
513.13	1553.94
513.346	1540.94
513.562	1551.94
513.778	1549.94
513.994	1565.94
514.21	1568.94
514.426	1540.94
514.642	1564.94
514.858	1579.94
515.074	1568.94
515.29	1558.94
515.506	1573.94
515.721	1579.94
515.937	1576.94
516.153	1594.94
516.369	1562.94
516.585	1556.94
516.801	1604.94
517.016	1631.94
517.232	1601.94
517.448	1574.94
517.664	1595.94
517.879	1617.94
518.095	1591.94
518.311	1618.94
518.527	1581.94
518.742	1563.94
518.958	1551.94
519.173	1528.94
519.389	1560.94
519.605	1544.94
519.82	1536.94
520.036	1514.94
520.251	1490.94
520.467	1500.94
520.682	1491.94
520.898	1500.94
521.113	1499.94
521.329	1485.94
521.544	1488.94
521.76	1463.94
521.975	1497.94
522.19	1458.94
522.406	1472.94
522.621	1469.94
522.836	1439.94
523.052	1461.94
523.267	1406.94
523.482	1427.94
523.698	1399.94
523.913	1443.94
524.128	1444.94
524.343	1416.94
524.559	1409.94
524.774	1425.94
524.989	1407.94
525.204	1446.94
525.419	1400.94
525.634	1406.94
525.849	1417.94
526.064	1382.94
526.28	1350.94
526.495	1389.94
526.71	1425.94
526.925	1335.94
527.14	1355.94
527.355	1412.94
527.57	1385.94
527.785	1372.94
527.999	1394.94
528.214	1375.94
528.429	1384.94
528.644	1373.94
528.859	1380.94
529.074	1343.94
529.289	1370.94
529.503	1361.94
529.718	1367.94
529.933	1363.94
530.148	1336.94
530.363	1373.94
530.577	1375.94
530.792	1345.94
531.007	1365.94
531.221	1328.94
531.436	1317.94
531.651	1344.94
531.865	1322.94
532.08	1325.94
532.295	1316.94
532.509	1275.94
532.724	1316.94
532.938	1299.94
533.153	1312.94
533.367	1308.94
533.582	1304.94
533.796	1338.94
534.011	1320.94
534.225	1303.94
534.44	1316.94
534.654	1313.94
534.868	1286.94
535.083	1274.94
535.297	1265.94
535.511	1306.94
535.726	1290.94
535.94	1317.94
536.154	1280.94
536.369	1296.94
536.583	1266.94
536.797	1243.94
537.011	1275.94
537.225	1257.94
537.44	1247.94
537.654	1244.94
537.868	1246.94
538.082	1227.94
538.296	1235.94
538.51	1258.94
538.724	1243.94
538.938	1235.94
539.153	1239.94
539.367	1233.94
539.581	1235.94
539.795	1189.94
540.009	1207.94
540.222	1237.94
540.436	1225.94
540.65	1241.94
540.864	1224.94
541.078	1200.94
541.292	1212.94
541.506	1183.94
541.72	1244.94
541.934	1226.94
542.147	1206.94
542.361	1228.94
542.575	1221.94
542.789	1211.94
543.002	1210.94
543.216	1194.94
543.43	1201.94
543.644	1184.94
543.857	1197.94
544.071	1221.94
544.285	1180.94
544.498	1160.94
544.712	1177.94
544.925	1202.94
545.139	1188.94
545.352	1136.94
545.566	1181.94
545.779	1186.94
545.993	1206.94
546.206	1211.94
546.42	1169.94
546.633	1188.94
546.847	1173.94
547.06	1171.94
547.274	1195.94
547.487	1185.94
547.7	1169.94
547.914	1163.94
548.127	1212.94
548.34	1209.94
548.554	1169.94
548.767	1189.94
548.98	1151.94
549.193	1161.94
549.407	1141.94
549.62	1156.94
549.833	1150.94
550.046	1166.94
550.259	1142.94
550.473	1110.94
550.686	1149.94
550.899	1165.94
551.112	1160.94
551.325	1126.94
551.538	1149.94
551.751	1144.94
551.964	1128.94
552.177	1153.94
552.39	1098.94
552.603	1120.94
552.816	1141.94
553.029	1143.94
553.242	1101.94
553.455	1142.94
553.667	1122.94
553.88	1128.94
554.093	1123.94
554.306	1088.94
554.519	1105.94
554.732	1105.94
554.944	1100.94
555.157	1052.94
555.37	1085.94
555.583	1085.94
555.795	1065.94
556.008	1061.94
556.221	1057.94
556.433	1053.94
556.646	1043.94
556.859	1026.94
557.071	1015.94
557.284	1036.94
557.496	998.94
557.709	1042.94
557.921	1004.94
558.134	1035.94
558.346	1013.94
558.559	994.94
558.771	999.94
558.984	1003.94
559.196	993.94
559.409	997.94
559.621	982.94
559.833	997.94
560.046	980.94
560.258	994.94
560.47	995.94
560.683	957.94
560.895	972.94
561.107	959.94
561.32	990.94
561.532	955.94
561.744	993.94
561.956	997.94
562.168	1001.94
562.381	966.94
562.593	977.94
562.805	986.94
563.017	967.94
563.229	974.94
563.441	996.94
563.653	985.94
563.865	971.94
564.077	1003.94
564.289	967.94
564.501	972.94
564.713	992.94
564.925	964.94
565.137	972.94
565.349	1014.94
565.561	1013.94
565.773	1015.94
565.985	1015.94
566.197	1020.94
566.408	1020.94
566.62	1025.94
566.832	1021.94
567.044	1054.94
567.255	1025.94
567.467	1023.94
567.679	1022.94
567.891	1028.94
568.102	1031.94
568.314	1029.94
568.526	1023.94
568.737	994.94
568.949	955.94
569.161	931.94
569.372	935.94
569.584	933.94
569.795	945.94
570.007	924.94
570.218	926.94
570.43	902.94
570.641	893.94
570.853	867.94
571.064	867.94
571.276	885.94
571.487	863.94
571.698	833.94
571.91	847.94
572.121	837.94
572.333	837.94
572.544	826.94
572.755	826.94
572.966	799.94
573.178	785.94
573.389	787.94
573.6	809.94
573.811	793.94
574.023	788.94
574.234	781.94
574.445	804.94
574.656	751.94
574.867	776.94
575.078	752.94
575.289	755.94
575.501	753.94
575.712	742.94
575.923	738.94
576.134	709.94
576.345	736.94
576.556	736.94
576.767	714.94
576.978	745.94
577.188	735.94
577.399	733.94
577.61	731.94
577.821	731.94
578.032	715.94
578.243	712.94
578.454	712.94
578.665	715.94
578.875	709.94
579.086	702.94
579.297	707.94
579.508	705.94
579.718	692.94
579.929	684.94
580.14	715.94
580.35	666.94
580.561	691.94
580.772	671.94
580.982	675.94
581.193	680.94
581.403	683.94
581.614	673.94
581.825	661.94
582.035	684.94
582.246	672.94
582.456	652.94
582.667	654.94
582.877	645.94
583.087	668.94
583.298	660.94
583.508	657.94
583.719	666.94
583.929	646.94
584.139	641.94
584.35	616.94
584.56	637.94
584.77	633.94
584.981	638.94
585.191	631.94
585.401	623.94
585.611	633.94
585.821	629.94
586.032	624.94
586.242	633.94
586.452	611.94
586.662	641.94
586.872	625.94
587.082	616.94
587.292	614.94
587.502	627.94
587.713	637.94
587.923	639.94
588.133	605.94
588.343	611.94
588.553	631.94
588.762	633.94
588.972	656.94
589.182	674.94
589.392	650.94
589.602	612.94
589.812	661.94
590.022	636.94
590.232	601.94
590.441	613.94
590.651	585.94
590.861	607.94
591.071	599.94
591.281	606.94
591.49	626.94
591.7	602.94
591.91	627.94
592.119	589.94
592.329	595.94
592.539	610.94
592.748	603.94
592.958	600.94
593.167	589.94
593.377	589.94
593.587	610.94
593.796	607.94
594.006	585.94
594.215	588.94
594.424	584.94
594.634	580.94
594.843	594.94
595.053	588.94
595.262	581.94
595.472	573.94
595.681	559.94
595.89	579.94
596.1	565.94
596.309	536.94
596.518	552.94
596.727	559.94
596.937	575.94
597.146	547.94
597.355	540.94
597.564	567.94
597.774	525.94
597.983	526.94
598.192	521.94
598.401	536.94
598.61	513.94
598.819	528.94
599.028	518.94
599.237	492.94
599.446	504.94
599.655	508.94
599.864	528.94
600.073	500.94
600.282	507.94
600.491	496.94
600.7	492.94
600.909	506.94
601.118	485.94
601.327	495.94
601.536	495.94
601.745	488.94
601.953	499.94
602.162	513.94
602.371	493.94
602.58	502.94
602.789	494.94
602.997	483.94
603.206	485.94
603.415	478.94
603.623	485.94
603.832	482.94
604.041	468.94
604.249	485.94
604.458	468.94
604.666	463.94
604.875	465.94
605.084	485.94
605.292	470.94
605.501	472.94
605.709	465.94
605.918	460.94
606.126	464.94
606.334	467.94
606.543	456.94
606.751	472.94
606.96	451.94
607.168	451.94
607.376	458.94
607.585	469.94
607.793	435.94
608.001	458.94
608.21	444.94
608.418	453.94
608.626	433.94
608.834	452.94
609.043	448.94
609.251	445.94
609.459	444.94
609.667	469.94
609.875	450.94
610.083	428.94
610.291	451.94
610.499	435.94
610.707	433.94
610.916	436.94
611.124	427.94
611.332	437.94
611.54	449.94
611.748	451.94
611.955	443.94
612.163	421.94
612.371	436.94
612.579	441.94
612.787	429.94
612.995	419.94
613.203	447.94
613.411	421.94
613.618	431.94
613.826	443.94
614.034	424.94
614.242	433.94
614.449	411.94
614.657	435.94
614.865	423.94
615.072	437.94
615.28	399.94
615.488	418.94
615.695	422.94
615.903	418.94
616.111	436.94
616.318	418.94
616.526	421.94
616.733	453.94
616.941	428.94
617.148	417.94
617.356	415.94
617.563	413.94
617.771	417.94
617.978	414.94
618.185	403.94
618.393	404.94
618.6	396.94
618.807	401.94
619.015	399.94
619.222	424.94
619.429	417.94
619.637	413.94
619.844	387.94
620.051	393.94
620.258	402.94
620.466	376.94
620.673	401.94
620.88	396.94
621.087	371.94
621.294	375.94
621.501	381.94
621.708	357.94
621.915	381.94
622.122	383.94
622.329	387.94
622.536	387.94
622.743	378.94
622.95	388.94
623.157	383.94
623.364	367.94
623.571	380.94
623.778	396.94
623.985	370.94
624.192	370.94
624.399	351.94
624.606	367.94
624.812	365.94
625.019	394.94
625.226	374.94
625.433	389.94
625.639	367.94
625.846	351.94
626.053	355.94
626.259	352.94
626.466	361.94
626.673	354.94
626.879	366.94
627.086	354.94
627.293	359.94
627.499	352.94
627.706	336.94
627.912	363.94
628.119	351.94
628.325	358.94
628.532	346.94
628.738	344.94
628.945	345.94
629.151	344.94
629.357	326.94
629.564	358.94
629.77	328.94
629.976	328.94
630.183	341.94
630.389	332.94
630.595	347.94
630.802	336.94
631.008	333.94
631.214	338.94
631.42	326.94
631.627	322.94
631.833	313.94
632.039	317.94
632.245	332.94
632.451	330.94
632.657	338.94
632.863	321.94
633.069	338.94
633.275	326.94
633.481	321.94
633.688	329.94
633.893	321.94
634.099	315.94
634.305	294.94
634.511	321.94
634.717	320.94
634.923	315.94
635.129	332.94
635.335	305.94
635.541	316.94
635.747	326.94
635.952	311.94
636.158	306.94
636.364	328.94
636.57	304.94
636.775	293.94
636.981	311.94
637.187	306.94
637.392	289.94
637.598	326.94
637.804	312.94
638.009	295.94
638.215	305.94
638.421	311.94
638.626	291.94
638.832	299.94
639.037	306.94
639.243	309.94
639.448	301.94
639.654	295.94
639.859	307.94
640.065	317.94
640.27	301.94
640.475	308.94
640.681	317.94
640.886	319.94
641.091	280.94
641.297	291.94
641.502	305.94
641.707	296.94
641.913	307.94
642.118	302.94
642.323	281.94
642.528	303.94
642.733	288.94
642.939	315.94
643.144	288.94
643.349	278.94
643.554	284.94
643.759	305.94
643.964	295.94
644.169	286.94
644.374	285.94
644.579	303.94
644.784	285.94
644.989	281.94
645.194	275.94
645.399	305.94
645.604	300.94
645.809	294.94
646.014	280.94
646.219	284.94
646.423	305.94
646.628	291.94
646.833	297.94
647.038	301.94
647.243	281.94
647.447	299.94
647.652	282.94
647.857	283.94
648.062	279.94
648.266	315.94
648.471	279.94
648.676	298.94
648.88	290.94
649.085	279.94
649.289	281.94
649.494	291.94
649.698	299.94
649.903	289.94
650.107	305.94
650.312	291.94
650.516	277.94
650.721	278.94
650.925	272.94
651.13	279.94
651.334	269.94
651.539	274.94
651.743	271.94
651.947	289.94
652.152	265.94
652.356	264.94
652.56	271.94
652.764	264.94
652.969	280.94
653.173	251.94
653.377	275.94
653.581	263.94
653.785	249.94
653.99	260.94
654.194	240.94
654.398	254.94
654.602	244.94
654.806	229.94
655.01	259.94
655.214	240.94
655.418	232.94
655.622	256.94
655.826	248.94
656.03	256.94
656.234	234.94
656.438	257.94
656.642	236.94
656.846	238.94
657.049	238.94
657.253	215.94
657.457	219.94
657.661	202.94
657.865	214.94
658.068	185.94
658.272	180.94
658.476	191.94
658.68	173.94
658.883	158.94
659.087	152.94
659.291	153.94
659.494	160.94
659.698	137.94
659.901	138.94
660.105	121.94
660.309	119.94
660.512	120.94
660.716	136.94
660.919	109.94
661.123	127.94
661.326	106.94
661.53	103.94
661.733	90.94
661.936	100.94
662.14	88.94
662.343	89.94
662.546	94.94
662.75	91.94
662.953	93.94
663.156	92.94
663.36	82.94
663.563	95.94
663.766	91.94
663.969	93.94
664.173	90.94
664.376	92.94
664.579	84.94
664.782	88.94
664.985	72.94
665.188	81.94
665.391	74.94
665.594	89.94
665.797	85.94
666	83.94
666.203	87.94
666.406	81.94
666.609	82.94
666.812	80.94
667.015	78.94
667.218	94.94
667.421	93.94
667.624	83.94
667.827	82.94
668.03	72.94
668.232	74.94
668.435	77.94
668.638	85.94
668.841	75.94
669.043	88.94
669.246	72.94
669.449	75.94
669.651	75.94
669.854	75.94
670.057	88.94
670.259	99.94
670.462	81.94
670.665	69.94
670.867	92.94
671.07	77.94
671.272	85.94
671.475	87.94
671.677	72.94
671.88	72.94
672.082	90.94
672.284	83.94
672.487	76.94
672.689	75.94
672.892	84.94
