Data from Ni(NO3)2@0.5M.TitratingCurve.Agarose3%dH2O.NegLispCup.LampEnergy10.LIBS07252019_HRD10591_17-58-56-564.txt Node
Date: Thu Jul 25 17:58:56 EDT 2019
User: cochatt
Spectrometer: HR+D1059
Trigger mode: 1
Integration Time (sec): 1.000000E-1
Scans to average: 1
Electric dark correction enabled: true
Nonlinearity correction enabled: false
Boxcar width: 0
XAxis mode: Wavelengths
Number of Pixels in Spectrum: 2048
>>>>>Begin Spectral Data<<<<<
223.165	-16.31
223.4	-16.31
223.635	-16.31
223.869	-26.31
224.104	-14.31
224.338	-15.31
224.573	-17.31
224.808	-3.31
225.042	-1.31
225.277	-11.31
225.511	-8.31
225.746	-10.31
225.98	16.69
226.215	25.69
226.449	20.69
226.683	27.69
226.918	16.69
227.152	16.69
227.387	47.69
227.621	50.69
227.856	39.69
228.09	19.69
228.324	37.69
228.559	60.69
228.793	82.69
229.027	125.69
229.262	161.69
229.496	161.69
229.73	179.69
229.964	202.69
230.199	226.69
230.433	265.69
230.667	230.69
230.901	226.69
231.136	174.69
231.37	196.69
231.604	206.69
231.838	242.69
232.072	263.69
232.306	231.69
232.541	211.69
232.775	206.69
233.009	200.69
233.243	202.69
233.477	201.69
233.711	198.69
233.945	206.69
234.179	201.69
234.413	209.69
234.647	203.69
234.881	211.69
235.115	198.69
235.349	202.69
235.583	189.69
235.817	182.69
236.051	173.69
236.285	184.69
236.519	194.69
236.753	191.69
236.987	194.69
237.221	198.69
237.455	197.69
237.689	185.69
237.922	205.69
238.156	202.69
238.39	214.69
238.624	216.69
238.858	216.69
239.091	213.69
239.325	230.69
239.559	235.69
239.793	265.69
240.027	271.69
240.26	246.69
240.494	214.69
240.728	222.69
240.961	210.69
241.195	231.69
241.429	252.69
241.662	265.69
241.896	293.69
242.13	270.69
242.363	248.69
242.597	247.69
242.83	240.69
243.064	227.69
243.298	238.69
243.531	250.69
243.765	263.69
243.998	279.69
244.232	271.69
244.465	272.69
244.699	246.69
244.932	258.69
245.166	250.69
245.399	272.69
245.633	274.69
245.866	261.69
246.099	247.69
246.333	270.69
246.566	292.69
246.8	272.69
247.033	281.69
247.266	271.69
247.5	286.69
247.733	282.69
247.966	274.69
248.2	299.69
248.433	287.69
248.666	298.69
248.899	322.69
249.133	283.69
249.366	290.69
249.599	321.69
249.832	300.69
250.066	307.69
250.299	287.69
250.532	320.69
250.765	335.69
250.998	330.69
251.231	365.69
251.465	385.69
251.698	342.69
251.931	342.69
252.164	354.69
252.397	337.69
252.63	341.69
252.863	332.69
253.096	337.69
253.329	360.69
253.562	353.69
253.795	341.69
254.028	363.69
254.261	367.69
254.494	362.69
254.727	353.69
254.96	365.69
255.193	358.69
255.426	353.69
255.659	373.69
255.892	381.69
256.124	391.69
256.357	393.69
256.59	393.69
256.823	394.69
257.056	401.69
257.289	387.69
257.521	382.69
257.754	366.69
257.987	412.69
258.22	408.69
258.452	391.69
258.685	390.69
258.918	427.69
259.151	399.69
259.383	385.69
259.616	402.69
259.849	424.69
260.081	409.69
260.314	412.69
260.547	441.69
260.779	408.69
261.012	413.69
261.244	434.69
261.477	444.69
261.71	443.69
261.942	434.69
262.175	412.69
262.407	447.69
262.64	430.69
262.872	433.69
263.105	445.69
263.337	448.69
263.57	448.69
263.802	465.69
264.035	451.69
264.267	485.69
264.499	473.69
264.732	473.69
264.964	459.69
265.197	465.69
265.429	468.69
265.661	445.69
265.894	469.69
266.126	457.69
266.358	463.69
266.591	482.69
266.823	475.69
267.055	473.69
267.287	504.69
267.52	484.69
267.752	493.69
267.984	481.69
268.216	487.69
268.448	499.69
268.681	493.69
268.913	473.69
269.145	476.69
269.377	500.69
269.609	492.69
269.841	497.69
270.073	496.69
270.306	516.69
270.538	522.69
270.77	504.69
271.002	500.69
271.234	527.69
271.466	518.69
271.698	524.69
271.93	524.69
272.162	528.69
272.394	498.69
272.626	538.69
272.858	532.69
273.09	529.69
273.322	521.69
273.553	524.69
273.785	531.69
274.017	551.69
274.249	533.69
274.481	538.69
274.713	545.69
274.945	538.69
275.176	552.69
275.408	555.69
275.64	559.69
275.872	538.69
276.104	577.69
276.335	582.69
276.567	561.69
276.799	557.69
277.031	567.69
277.262	606.69
277.494	580.69
277.726	590.69
277.957	587.69
278.189	588.69
278.421	586.69
278.652	595.69
278.884	577.69
279.115	592.69
279.347	602.69
279.579	594.69
279.81	589.69
280.042	581.69
280.273	593.69
280.505	588.69
280.736	596.69
280.968	584.69
281.199	605.69
281.431	618.69
281.662	603.69
281.894	605.69
282.125	589.69
282.356	607.69
282.588	628.69
282.819	612.69
283.051	620.69
283.282	640.69
283.513	617.69
283.745	606.69
283.976	632.69
284.207	653.69
284.439	640.69
284.67	643.69
284.901	640.69
285.132	648.69
285.364	663.69
285.595	650.69
285.826	654.69
286.057	656.69
286.288	678.69
286.52	649.69
286.751	646.69
286.982	671.69
287.213	658.69
287.444	656.69
287.675	669.69
287.906	680.69
288.138	668.69
288.369	675.69
288.6	687.69
288.831	686.69
289.062	681.69
289.293	670.69
289.524	662.69
289.755	670.69
289.986	678.69
290.217	669.69
290.448	666.69
290.679	714.69
290.91	672.69
291.141	680.69
291.371	671.69
291.602	694.69
291.833	671.69
292.064	674.69
292.295	687.69
292.526	682.69
292.757	693.69
292.987	688.69
293.218	706.69
293.449	687.69
293.68	706.69
293.91	670.69
294.141	691.69
294.372	701.69
294.603	695.69
294.833	708.69
295.064	692.69
295.295	694.69
295.525	703.69
295.756	676.69
295.987	686.69
296.217	718.69
296.448	695.69
296.679	720.69
296.909	716.69
297.14	693.69
297.37	741.69
297.601	732.69
297.831	715.69
298.062	722.69
298.292	718.69
298.523	751.69
298.753	764.69
298.984	726.69
299.214	753.69
299.445	778.69
299.675	768.69
299.905	761.69
300.136	763.69
300.366	793.69
300.597	803.69
300.827	796.69
301.057	777.69
301.288	811.69
301.518	812.69
301.748	762.69
301.979	783.69
302.209	776.69
302.439	756.69
302.669	745.69
302.9	774.69
303.13	760.69
303.36	805.69
303.59	792.69
303.82	801.69
304.051	802.69
304.281	794.69
304.511	767.69
304.741	806.69
304.971	806.69
305.201	842.69
305.431	859.69
305.661	817.69
305.891	816.69
306.121	808.69
306.352	777.69
306.582	801.69
306.812	795.69
307.042	813.69
307.272	800.69
307.502	794.69
307.731	807.69
307.961	806.69
308.191	813.69
308.421	800.69
308.651	791.69
308.881	799.69
309.111	794.69
309.341	786.69
309.571	822.69
309.8	835.69
310.03	842.69
310.26	872.69
310.49	888.69
310.72	855.69
310.949	834.69
311.179	813.69
311.409	828.69
311.639	845.69
311.868	823.69
312.098	849.69
312.328	840.69
312.557	863.69
312.787	850.69
313.017	842.69
313.246	856.69
313.476	879.69
313.706	895.69
313.935	867.69
314.165	854.69
314.394	884.69
314.624	858.69
314.853	854.69
315.083	904.69
315.312	862.69
315.542	852.69
315.771	878.69
316.001	877.69
316.23	865.69
316.46	870.69
316.689	891.69
316.919	896.69
317.148	875.69
317.377	879.69
317.607	885.69
317.836	895.69
318.065	905.69
318.295	913.69
318.524	896.69
318.753	909.69
318.983	896.69
319.212	887.69
319.441	881.69
319.67	910.69
319.9	908.69
320.129	892.69
320.358	910.69
320.587	903.69
320.816	908.69
321.046	940.69
321.275	924.69
321.504	940.69
321.733	916.69
321.962	945.69
322.191	931.69
322.42	932.69
322.649	946.69
322.878	938.69
323.108	942.69
323.337	978.69
323.566	953.69
323.795	976.69
324.024	972.69
324.253	949.69
324.482	968.69
324.71	971.69
324.939	961.69
325.168	975.69
325.397	963.69
325.626	972.69
325.855	997.69
326.084	977.69
326.313	974.69
326.542	997.69
326.77	1013.69
326.999	990.69
327.228	1012.69
327.457	1009.69
327.686	975.69
327.914	997.69
328.143	992.69
328.372	1001.69
328.6	1018.69
328.829	1014.69
329.058	998.69
329.287	1015.69
329.515	1006.69
329.744	1042.69
329.972	1003.69
330.201	1038.69
330.43	1000.69
330.658	1034.69
330.887	1040.69
331.115	1029.69
331.344	1072.69
331.572	1047.69
331.801	1035.69
332.03	1103.69
332.258	1092.69
332.486	1069.69
332.715	1101.69
332.943	1098.69
333.172	1122.69
333.4	1103.69
333.629	1141.69
333.857	1151.69
334.085	1134.69
334.314	1120.69
334.542	1122.69
334.771	1170.69
334.999	1158.69
335.227	1134.69
335.455	1142.69
335.684	1181.69
335.912	1168.69
336.14	1152.69
336.369	1147.69
336.597	1194.69
336.825	1172.69
337.053	1182.69
337.281	1185.69
337.51	1190.69
337.738	1167.69
337.966	1158.69
338.194	1177.69
338.422	1168.69
338.65	1127.69
338.878	1127.69
339.106	1180.69
339.334	1161.69
339.562	1157.69
339.79	1105.69
340.018	1103.69
340.246	1094.69
340.474	1128.69
340.702	1089.69
340.93	1100.69
341.158	1134.69
341.386	1162.69
341.614	1193.69
341.842	1171.69
342.07	1102.69
342.298	1129.69
342.526	1117.69
342.754	1132.69
342.981	1103.69
343.209	1106.69
343.437	1117.69
343.665	1150.69
343.893	1176.69
344.12	1184.69
344.348	1159.69
344.576	1212.69
344.804	1209.69
345.031	1178.69
345.259	1140.69
345.487	1137.69
345.714	1142.69
345.942	1174.69
346.17	1196.69
346.397	1140.69
346.625	1103.69
346.853	1098.69
347.08	1063.69
347.308	1093.69
347.535	1080.69
347.763	1058.69
347.99	1021.69
348.218	1054.69
348.445	1059.69
348.673	1040.69
348.9	1084.69
349.128	1055.69
349.355	1130.69
349.583	1119.69
349.81	1061.69
350.037	1045.69
350.265	1067.69
350.492	1070.69
350.72	1054.69
350.947	1055.69
351.174	1070.69
351.402	1108.69
351.629	1124.69
351.856	1109.69
352.083	1099.69
352.311	1090.69
352.538	1124.69
352.765	1106.69
352.992	1036.69
353.22	1050.69
353.447	1019.69
353.674	1024.69
353.901	1009.69
354.128	1024.69
354.355	1042.69
354.583	1028.69
354.81	1001.69
355.037	1007.69
355.264	1009.69
355.491	1062.69
355.718	1020.69
355.945	1010.69
356.172	1017.69
356.399	1038.69
356.626	1052.69
356.853	1100.69
357.08	1037.69
357.307	1038.69
357.534	1044.69
357.761	1036.69
357.988	1026.69
358.215	1044.69
358.441	1007.69
358.668	1032.69
358.895	1040.69
359.122	1047.69
359.349	1032.69
359.576	1025.69
359.802	1024.69
360.029	1039.69
360.256	1028.69
360.483	1004.69
360.709	1011.69
360.936	1063.69
361.163	1063.69
361.39	1040.69
361.616	1045.69
361.843	1060.69
362.07	1124.69
362.296	1116.69
362.523	1062.69
362.749	1078.69
362.976	1068.69
363.203	1025.69
363.429	1036.69
363.656	1037.69
363.882	1005.69
364.109	1029.69
364.335	1044.69
364.562	1042.69
364.788	1039.69
365.015	1034.69
365.241	1037.69
365.468	1058.69
365.694	1037.69
365.92	1056.69
366.147	1043.69
366.373	1061.69
366.599	1060.69
366.826	1028.69
367.052	1062.69
367.278	1057.69
367.505	1052.69
367.731	1082.69
367.957	1034.69
368.184	1061.69
368.41	1079.69
368.636	1082.69
368.862	1081.69
369.089	1074.69
369.315	1070.69
369.541	1041.69
369.767	1081.69
369.993	1096.69
370.219	1062.69
370.445	1075.69
370.672	1109.69
370.898	1097.69
371.124	1131.69
371.35	1124.69
371.576	1098.69
371.802	1125.69
372.028	1103.69
372.254	1109.69
372.48	1104.69
372.706	1126.69
372.932	1128.69
373.158	1123.69
373.384	1134.69
373.61	1123.69
373.835	1129.69
374.061	1113.69
374.287	1140.69
374.513	1134.69
374.739	1132.69
374.965	1156.69
375.191	1149.69
375.416	1185.69
375.642	1120.69
375.868	1140.69
376.094	1110.69
376.319	1095.69
376.545	1100.69
376.771	1121.69
376.997	1151.69
377.222	1091.69
377.448	1117.69
377.674	1114.69
377.899	1078.69
378.125	1087.69
378.35	1100.69
378.576	1112.69
378.802	1079.69
379.027	1100.69
379.253	1068.69
379.478	1095.69
379.704	1130.69
379.929	1070.69
380.155	1096.69
380.38	1068.69
380.606	1102.69
380.831	1101.69
381.057	1099.69
381.282	1096.69
381.507	1092.69
381.733	1112.69
381.958	1117.69
382.184	1149.69
382.409	1125.69
382.634	1129.69
382.86	1142.69
383.085	1144.69
383.31	1165.69
383.535	1172.69
383.761	1146.69
383.986	1161.69
384.211	1137.69
384.436	1152.69
384.662	1177.69
384.887	1164.69
385.112	1197.69
385.337	1217.69
385.562	1241.69
385.787	1231.69
386.013	1225.69
386.238	1224.69
386.463	1234.69
386.688	1260.69
386.913	1215.69
387.138	1249.69
387.363	1263.69
387.588	1210.69
387.813	1248.69
388.038	1230.69
388.263	1260.69
388.488	1225.69
388.713	1261.69
388.938	1228.69
389.163	1240.69
389.387	1273.69
389.612	1231.69
389.837	1250.69
390.062	1231.69
390.287	1251.69
390.512	1235.69
390.736	1243.69
390.961	1305.69
391.186	1253.69
391.411	1290.69
391.636	1310.69
391.86	1289.69
392.085	1310.69
392.31	1319.69
392.534	1306.69
392.759	1284.69
392.984	1286.69
393.208	1306.69
393.433	1346.69
393.658	1313.69
393.882	1268.69
394.107	1253.69
394.331	1286.69
394.556	1280.69
394.78	1277.69
395.005	1316.69
395.229	1276.69
395.454	1313.69
395.678	1299.69
395.903	1344.69
396.127	1341.69
396.352	1292.69
396.576	1334.69
396.801	1351.69
397.025	1333.69
397.249	1378.69
397.474	1389.69
397.698	1365.69
397.922	1384.69
398.147	1357.69
398.371	1402.69
398.595	1397.69
398.82	1462.69
399.044	1488.69
399.268	1540.69
399.492	1608.69
399.717	1637.69
399.941	1616.69
400.165	1615.69
400.389	1611.69
400.613	1542.69
400.837	1534.69
401.062	1536.69
401.286	1504.69
401.51	1486.69
401.734	1460.69
401.958	1440.69
402.182	1413.69
402.406	1438.69
402.63	1446.69
402.854	1455.69
403.078	1458.69
403.302	1444.69
403.526	1465.69
403.75	1464.69
403.974	1466.69
404.198	1456.69
404.422	1446.69
404.645	1487.69
404.869	1475.69
405.093	1491.69
405.317	1479.69
405.541	1513.69
405.765	1501.69
405.988	1548.69
406.212	1543.69
406.436	1520.69
406.66	1588.69
406.883	1546.69
407.107	1628.69
407.331	1664.69
407.555	1678.69
407.778	1654.69
408.002	1633.69
408.226	1646.69
408.449	1677.69
408.673	1627.69
408.896	1607.69
409.12	1574.69
409.344	1608.69
409.567	1558.69
409.791	1576.69
410.014	1566.69
410.238	1522.69
410.461	1566.69
410.685	1547.69
410.908	1511.69
411.132	1585.69
411.355	1505.69
411.578	1526.69
411.802	1531.69
412.025	1541.69
412.249	1526.69
412.472	1508.69
412.695	1504.69
412.919	1495.69
413.142	1476.69
413.365	1503.69
413.589	1470.69
413.812	1460.69
414.035	1480.69
414.258	1490.69
414.482	1493.69
414.705	1475.69
414.928	1465.69
415.151	1476.69
415.374	1455.69
415.597	1467.69
415.821	1421.69
416.044	1419.69
416.267	1469.69
416.49	1425.69
416.713	1421.69
416.936	1419.69
417.159	1405.69
417.382	1405.69
417.605	1385.69
417.828	1396.69
418.051	1392.69
418.274	1377.69
418.497	1366.69
418.72	1447.69
418.943	1390.69
419.166	1468.69
419.389	1562.69
419.611	1516.69
419.834	1455.69
420.057	1425.69
420.28	1398.69
420.503	1368.69
420.726	1381.69
420.948	1392.69
421.171	1384.69
421.394	1412.69
421.617	1376.69
421.839	1369.69
422.062	1414.69
422.285	1381.69
422.507	1369.69
422.73	1373.69
422.953	1404.69
423.175	1370.69
423.398	1406.69
423.621	1383.69
423.843	1397.69
424.066	1387.69
424.288	1373.69
424.511	1360.69
424.733	1374.69
424.956	1389.69
425.178	1372.69
425.401	1353.69
425.623	1379.69
425.846	1381.69
426.068	1367.69
426.291	1348.69
426.513	1351.69
426.735	1388.69
426.958	1354.69
427.18	1372.69
427.402	1372.69
427.625	1365.69
427.847	1317.69
428.069	1362.69
428.292	1345.69
428.514	1360.69
428.736	1326.69
428.958	1382.69
429.181	1297.69
429.403	1316.69
429.625	1352.69
429.847	1322.69
430.069	1322.69
430.292	1341.69
430.514	1357.69
430.736	1320.69
430.958	1349.69
431.18	1358.69
431.402	1376.69
431.624	1302.69
431.846	1318.69
432.068	1316.69
432.29	1372.69
432.512	1343.69
432.734	1385.69
432.956	1372.69
433.178	1379.69
433.4	1420.69
433.622	1402.69
433.844	1404.69
434.066	1415.69
434.287	1391.69
434.509	1389.69
434.731	1403.69
434.953	1408.69
435.175	1482.69
435.397	1471.69
435.618	1390.69
435.84	1373.69
436.062	1376.69
436.284	1380.69
436.505	1378.69
436.727	1375.69
436.949	1371.69
437.17	1400.69
437.392	1343.69
437.614	1365.69
437.835	1327.69
438.057	1297.69
438.278	1317.69
438.5	1300.69
438.721	1291.69
438.943	1372.69
439.165	1337.69
439.386	1324.69
439.608	1342.69
439.829	1352.69
440.05	1327.69
440.272	1348.69
440.493	1356.69
440.715	1373.69
440.936	1367.69
441.158	1398.69
441.379	1399.69
441.6	1407.69
441.822	1436.69
442.043	1432.69
442.264	1417.69
442.486	1396.69
442.707	1412.69
442.928	1399.69
443.149	1417.69
443.371	1417.69
443.592	1530.69
443.813	1510.69
444.034	1420.69
444.255	1467.69
444.476	1487.69
444.698	1477.69
444.919	1522.69
445.14	1603.69
445.361	1544.69
445.582	1465.69
445.803	1460.69
446.024	1388.69
446.245	1408.69
446.466	1349.69
446.687	1298.69
446.908	1356.69
447.129	1307.69
447.35	1294.69
447.571	1315.69
447.792	1305.69
448.013	1271.69
448.234	1275.69
448.455	1242.69
448.675	1246.69
448.896	1245.69
449.117	1216.69
449.338	1242.69
449.559	1230.69
449.779	1254.69
450	1194.69
450.221	1241.69
450.442	1244.69
450.662	1247.69
450.883	1269.69
451.104	1313.69
451.324	1241.69
451.545	1244.69
451.766	1212.69
451.986	1212.69
452.207	1224.69
452.428	1178.69
452.648	1228.69
452.869	1227.69
453.089	1205.69
453.31	1275.69
453.53	1222.69
453.751	1204.69
453.971	1222.69
454.192	1249.69
454.412	1269.69
454.633	1242.69
454.853	1216.69
455.073	1200.69
455.294	1211.69
455.514	1196.69
455.734	1220.69
455.955	1240.69
456.175	1256.69
456.395	1206.69
456.616	1184.69
456.836	1176.69
457.056	1191.69
457.276	1206.69
457.497	1253.69
457.717	1244.69
457.937	1274.69
458.157	1238.69
458.377	1247.69
458.598	1239.69
458.818	1277.69
459.038	1294.69
459.258	1377.69
459.478	1424.69
459.698	1505.69
459.918	1469.69
460.138	1452.69
460.358	1472.69
460.578	1472.69
460.798	1529.69
461.018	1558.69
461.238	1473.69
461.458	1451.69
461.678	1419.69
461.898	1469.69
462.118	1484.69
462.338	1538.69
462.558	1550.69
462.777	1598.69
462.997	1626.69
463.217	1647.69
463.437	1729.69
463.657	1682.69
463.876	1586.69
464.096	1629.69
464.316	1598.69
464.536	1581.69
464.755	1497.69
464.975	1483.69
465.195	1445.69
465.414	1431.69
465.634	1406.69
465.854	1401.69
466.073	1343.69
466.293	1318.69
466.512	1328.69
466.732	1296.69
466.951	1297.69
467.171	1339.69
467.391	1337.69
467.61	1329.69
467.829	1314.69
468.049	1315.69
468.268	1321.69
468.488	1299.69
468.707	1280.69
468.927	1291.69
469.146	1307.69
469.365	1362.69
469.585	1302.69
469.804	1304.69
470.023	1270.69
470.243	1304.69
470.462	1304.69
470.681	1305.69
470.901	1317.69
471.12	1257.69
471.339	1312.69
471.558	1312.69
471.777	1308.69
471.997	1316.69
472.216	1303.69
472.435	1309.69
472.654	1270.69
472.873	1263.69
473.092	1293.69
473.311	1282.69
473.53	1336.69
473.749	1289.69
473.968	1300.69
474.187	1343.69
474.406	1268.69
474.625	1296.69
474.844	1288.69
475.063	1314.69
475.282	1360.69
475.501	1340.69
475.72	1323.69
475.939	1368.69
476.158	1365.69
476.377	1342.69
476.596	1371.69
476.814	1386.69
477.033	1354.69
477.252	1393.69
477.471	1412.69
477.69	1422.69
477.908	1445.69
478.127	1459.69
478.346	1422.69
478.564	1470.69
478.783	1511.69
479.002	1581.69
479.22	1603.69
479.439	1584.69
479.658	1551.69
479.876	1551.69
480.095	1499.69
480.313	1538.69
480.532	1518.69
480.751	1580.69
480.969	1527.69
481.188	1546.69
481.406	1540.69
481.624	1507.69
481.843	1499.69
482.061	1520.69
482.28	1526.69
482.498	1486.69
482.717	1503.69
482.935	1520.69
483.153	1588.69
483.372	1593.69
483.59	1595.69
483.808	1573.69
484.027	1538.69
484.245	1522.69
484.463	1525.69
484.681	1578.69
484.9	1551.69
485.118	1540.69
485.336	1539.69
485.554	1538.69
485.772	1540.69
485.99	1531.69
486.209	1566.69
486.427	1574.69
486.645	1582.69
486.863	1598.69
487.081	1555.69
487.299	1551.69
487.517	1597.69
487.735	1584.69
487.953	1636.69
488.171	1595.69
488.389	1563.69
488.607	1557.69
488.825	1585.69
489.043	1563.69
489.261	1565.69
489.479	1576.69
489.696	1548.69
489.914	1568.69
490.132	1585.69
490.35	1519.69
490.568	1570.69
490.786	1580.69
491.003	1551.69
491.221	1606.69
491.439	1607.69
491.657	1605.69
491.874	1613.69
492.092	1639.69
492.31	1639.69
492.527	1640.69
492.745	1607.69
492.963	1615.69
493.18	1590.69
493.398	1627.69
493.615	1612.69
493.833	1608.69
494.05	1652.69
494.268	1642.69
494.485	1626.69
494.703	1665.69
494.92	1662.69
495.138	1662.69
495.355	1646.69
495.573	1677.69
495.79	1695.69
496.008	1710.69
496.225	1696.69
496.442	1722.69
496.66	1726.69
496.877	1750.69
497.094	1758.69
497.312	1777.69
497.529	1833.69
497.746	1854.69
497.963	1858.69
498.181	1921.69
498.398	1952.69
498.615	1978.69
498.832	2048.69
499.049	2112.69
499.267	2177.69
499.484	2210.69
499.701	2374.69
499.918	2437.69
500.135	2562.69
500.352	2604.69
500.569	2622.69
500.786	2597.69
501.003	2567.69
501.22	2527.69
501.437	2411.69
501.654	2327.69
501.871	2268.69
502.088	2163.69
502.305	2154.69
502.522	2125.69
502.739	2057.69
502.956	1968.69
503.172	1946.69
503.389	1889.69
503.606	1837.69
503.823	1823.69
504.04	1804.69
504.256	1747.69
504.473	1750.69
504.69	1724.69
504.907	1706.69
505.123	1646.69
505.34	1640.69
505.557	1612.69
505.773	1592.69
505.99	1596.69
506.207	1541.69
506.423	1536.69
506.64	1521.69
506.856	1492.69
507.073	1464.69
507.289	1457.69
507.506	1428.69
507.722	1484.69
507.939	1437.69
508.155	1441.69
508.372	1426.69
508.588	1409.69
508.805	1408.69
509.021	1393.69
509.238	1367.69
509.454	1370.69
509.67	1381.69
509.887	1362.69
510.103	1381.69
510.319	1357.69
510.536	1333.69
510.752	1307.69
510.968	1304.69
511.184	1343.69
511.401	1308.69
511.617	1340.69
511.833	1342.69
512.049	1310.69
512.265	1351.69
512.481	1323.69
512.698	1297.69
512.914	1357.69
513.13	1326.69
513.346	1355.69
513.562	1340.69
513.778	1307.69
513.994	1320.69
514.21	1328.69
514.426	1342.69
514.642	1327.69
514.858	1338.69
515.074	1338.69
515.29	1349.69
515.506	1352.69
515.721	1356.69
515.937	1342.69
516.153	1377.69
516.369	1391.69
516.585	1393.69
516.801	1423.69
517.016	1403.69
517.232	1447.69
517.448	1447.69
517.664	1481.69
517.879	1417.69
518.095	1455.69
518.311	1462.69
518.527	1406.69
518.742	1426.69
518.958	1399.69
519.173	1375.69
519.389	1388.69
519.605	1351.69
519.82	1346.69
520.036	1372.69
520.251	1308.69
520.467	1293.69
520.682	1252.69
520.898	1269.69
521.113	1234.69
521.329	1264.69
521.544	1253.69
521.76	1254.69
521.975	1232.69
522.19	1249.69
522.406	1205.69
522.621	1214.69
522.836	1214.69
523.052	1217.69
523.267	1195.69
523.482	1205.69
523.698	1180.69
523.913	1199.69
524.128	1206.69
524.343	1212.69
524.559	1152.69
524.774	1193.69
524.989	1147.69
525.204	1201.69
525.419	1165.69
525.634	1222.69
525.849	1180.69
526.064	1169.69
526.28	1154.69
526.495	1172.69
526.71	1180.69
526.925	1148.69
527.14	1149.69
527.355	1140.69
527.57	1128.69
527.785	1164.69
527.999	1129.69
528.214	1144.69
528.429	1151.69
528.644	1146.69
528.859	1161.69
529.074	1145.69
529.289	1151.69
529.503	1132.69
529.718	1108.69
529.933	1125.69
530.148	1123.69
530.363	1145.69
530.577	1131.69
530.792	1122.69
531.007	1106.69
531.221	1120.69
531.436	1118.69
531.651	1113.69
531.865	1148.69
532.08	1112.69
532.295	1135.69
532.509	1101.69
532.724	1112.69
532.938	1128.69
533.153	1096.69
533.367	1112.69
533.582	1079.69
533.796	1132.69
534.011	1108.69
534.225	1130.69
534.44	1072.69
534.654	1085.69
534.868	1122.69
535.083	1105.69
535.297	1084.69
535.511	1082.69
535.726	1070.69
535.94	1076.69
536.154	1069.69
536.369	1054.69
536.583	1070.69
536.797	1051.69
537.011	1051.69
537.225	1067.69
537.44	1006.69
537.654	1047.69
537.868	1030.69
538.082	1035.69
538.296	1028.69
538.51	1007.69
538.724	1057.69
538.938	1036.69
539.153	1005.69
539.367	1053.69
539.581	1007.69
539.795	1006.69
540.009	1022.69
540.222	1034.69
540.436	1010.69
540.65	1003.69
540.864	1021.69
541.078	1003.69
541.292	1040.69
541.506	995.69
541.72	1017.69
541.934	1014.69
542.147	1034.69
542.361	1021.69
542.575	1008.69
542.789	1028.69
543.002	994.69
543.216	994.69
543.43	1021.69
543.644	1016.69
543.857	994.69
544.071	991.69
544.285	1001.69
544.498	999.69
544.712	1006.69
544.925	1026.69
545.139	1012.69
545.352	1014.69
545.566	1004.69
545.779	1006.69
545.993	1005.69
546.206	992.69
546.42	1012.69
546.633	1025.69
546.847	1007.69
547.06	977.69
547.274	973.69
547.487	996.69
547.7	997.69
547.914	1043.69
548.127	985.69
548.34	1003.69
548.554	997.69
548.767	1011.69
548.98	997.69
549.193	992.69
549.407	997.69
549.62	998.69
549.833	1004.69
550.046	966.69
550.259	952.69
550.473	986.69
550.686	1008.69
550.899	986.69
551.112	978.69
551.325	969.69
551.538	975.69
551.751	1010.69
551.964	990.69
552.177	962.69
552.39	991.69
552.603	982.69
552.816	980.69
553.029	969.69
553.242	995.69
553.455	981.69
553.667	967.69
553.88	973.69
554.093	989.69
554.306	992.69
554.519	958.69
554.732	918.69
554.944	956.69
555.157	934.69
555.37	912.69
555.583	929.69
555.795	932.69
556.008	886.69
556.221	912.69
556.433	892.69
556.646	882.69
556.859	894.69
557.071	878.69
557.284	860.69
557.496	898.69
557.709	873.69
557.921	840.69
558.134	857.69
558.346	849.69
558.559	871.69
558.771	859.69
558.984	852.69
559.196	869.69
559.409	851.69
559.621	838.69
559.833	822.69
560.046	840.69
560.258	854.69
560.47	840.69
560.683	845.69
560.895	842.69
561.107	809.69
561.32	820.69
561.532	837.69
561.744	820.69
561.956	845.69
562.168	856.69
562.381	848.69
562.593	856.69
562.805	866.69
563.017	829.69
563.229	849.69
563.441	864.69
563.653	862.69
563.865	843.69
564.077	838.69
564.289	849.69
564.501	861.69
564.713	894.69
564.925	862.69
565.137	877.69
565.349	900.69
565.561	920.69
565.773	931.69
565.985	933.69
566.197	943.69
566.408	977.69
566.62	1014.69
566.832	985.69
567.044	1005.69
567.255	1001.69
567.467	1015.69
567.679	1021.69
567.891	1051.69
568.102	1036.69
568.314	1010.69
568.526	995.69
568.737	976.69
568.949	918.69
569.161	914.69
569.372	865.69
569.584	855.69
569.795	848.69
570.007	812.69
570.218	823.69
570.43	808.69
570.641	804.69
570.853	807.69
571.064	789.69
571.276	783.69
571.487	761.69
571.698	776.69
571.91	770.69
572.121	746.69
572.333	732.69
572.544	740.69
572.755	707.69
572.966	694.69
573.178	700.69
573.389	711.69
573.6	684.69
573.811	672.69
574.023	665.69
574.234	654.69
574.445	668.69
574.656	662.69
574.867	683.69
575.078	673.69
575.289	645.69
575.501	659.69
575.712	661.69
575.923	654.69
576.134	673.69
576.345	632.69
576.556	634.69
576.767	649.69
576.978	620.69
577.188	626.69
577.399	632.69
577.61	621.69
577.821	600.69
578.032	609.69
578.243	609.69
578.454	616.69
578.665	637.69
578.875	613.69
579.086	625.69
579.297	605.69
579.508	608.69
579.718	594.69
579.929	605.69
580.14	597.69
580.35	590.69
580.561	596.69
580.772	608.69
580.982	600.69
581.193	589.69
581.403	582.69
581.614	573.69
581.825	573.69
582.035	569.69
582.246	581.69
582.456	579.69
582.667	566.69
582.877	559.69
583.087	581.69
583.298	569.69
583.508	575.69
583.719	552.69
583.929	550.69
584.139	559.69
584.35	589.69
584.56	576.69
584.77	568.69
584.981	548.69
585.191	580.69
585.401	543.69
585.611	553.69
585.821	538.69
586.032	548.69
586.242	546.69
586.452	551.69
586.662	552.69
586.872	560.69
587.082	549.69
587.292	550.69
587.502	551.69
587.713	522.69
587.923	566.69
588.133	564.69
588.343	552.69
588.553	516.69
588.762	548.69
588.972	566.69
589.182	602.69
589.392	571.69
589.602	543.69
589.812	580.69
590.022	553.69
590.232	512.69
590.441	542.69
590.651	564.69
590.861	559.69
591.071	535.69
591.281	545.69
591.49	546.69
591.7	562.69
591.91	563.69
592.119	540.69
592.329	542.69
592.539	547.69
592.748	554.69
592.958	553.69
593.167	549.69
593.377	573.69
593.587	564.69
593.796	573.69
594.006	556.69
594.215	542.69
594.424	546.69
594.634	541.69
594.843	551.69
595.053	544.69
595.262	546.69
595.472	547.69
595.681	522.69
595.89	514.69
596.1	518.69
596.309	511.69
596.518	503.69
596.727	500.69
596.937	493.69
597.146	475.69
597.355	479.69
597.564	500.69
597.774	480.69
597.983	467.69
598.192	464.69
598.401	475.69
598.61	465.69
598.819	464.69
599.028	478.69
599.237	448.69
599.446	460.69
599.655	450.69
599.864	441.69
600.073	452.69
600.282	462.69
600.491	456.69
600.7	442.69
600.909	453.69
601.118	447.69
601.327	444.69
601.536	444.69
601.745	452.69
601.953	440.69
602.162	444.69
602.371	444.69
602.58	430.69
602.789	424.69
602.997	431.69
603.206	414.69
603.415	426.69
603.623	431.69
603.832	424.69
604.041	439.69
604.249	432.69
604.458	421.69
604.666	406.69
604.875	413.69
605.084	413.69
605.292	421.69
605.501	412.69
605.709	426.69
605.918	393.69
606.126	427.69
606.334	411.69
606.543	412.69
606.751	403.69
606.96	407.69
607.168	416.69
607.376	392.69
607.585	420.69
607.793	417.69
608.001	416.69
608.21	408.69
608.418	394.69
608.626	403.69
608.834	384.69
609.043	390.69
609.251	390.69
609.459	395.69
609.667	390.69
609.875	393.69
610.083	393.69
610.291	398.69
610.499	399.69
610.707	393.69
610.916	388.69
611.124	379.69
611.332	399.69
611.54	397.69
611.748	389.69
611.955	369.69
612.163	367.69
612.371	399.69
612.579	365.69
612.787	384.69
612.995	381.69
613.203	384.69
613.411	384.69
613.618	391.69
613.826	393.69
614.034	398.69
614.242	377.69
614.449	379.69
614.657	395.69
614.865	403.69
615.072	378.69
615.28	377.69
615.488	388.69
615.695	382.69
615.903	374.69
616.111	389.69
616.318	383.69
616.526	375.69
616.733	392.69
616.941	369.69
617.148	381.69
617.356	358.69
617.563	368.69
617.771	370.69
617.978	359.69
618.185	364.69
618.393	388.69
618.6	358.69
618.807	364.69
619.015	364.69
619.222	372.69
619.429	366.69
619.637	356.69
619.844	363.69
620.051	378.69
620.258	354.69
620.466	337.69
620.673	356.69
620.88	350.69
621.087	352.69
621.294	363.69
621.501	354.69
621.708	360.69
621.915	342.69
622.122	366.69
622.329	332.69
622.536	343.69
622.743	341.69
622.95	320.69
623.157	345.69
623.364	352.69
623.571	344.69
623.778	352.69
623.985	344.69
624.192	373.69
624.399	340.69
624.606	342.69
624.812	341.69
625.019	334.69
625.226	342.69
625.433	337.69
625.639	337.69
625.846	347.69
626.053	345.69
626.259	335.69
626.466	347.69
626.673	328.69
626.879	329.69
627.086	341.69
627.293	339.69
627.499	326.69
627.706	304.69
627.912	309.69
628.119	330.69
628.325	309.69
628.532	325.69
628.738	322.69
628.945	323.69
629.151	312.69
629.357	307.69
629.564	333.69
629.77	319.69
629.976	315.69
630.183	323.69
630.389	316.69
630.595	327.69
630.802	316.69
631.008	303.69
631.214	296.69
631.42	312.69
631.627	304.69
631.833	312.69
632.039	307.69
632.245	302.69
632.451	289.69
632.657	314.69
632.863	316.69
633.069	311.69
633.275	311.69
633.481	301.69
633.688	302.69
633.893	290.69
634.099	313.69
634.305	283.69
634.511	291.69
634.717	314.69
634.923	301.69
635.129	314.69
635.335	291.69
635.541	308.69
635.747	286.69
635.952	273.69
636.158	285.69
636.364	305.69
636.57	280.69
636.775	314.69
636.981	293.69
637.187	294.69
637.392	289.69
637.598	273.69
637.804	275.69
638.009	296.69
638.215	277.69
638.421	296.69
638.626	299.69
638.832	285.69
639.037	283.69
639.243	299.69
639.448	304.69
639.654	277.69
639.859	261.69
640.065	282.69
640.27	281.69
640.475	265.69
640.681	267.69
640.886	280.69
641.091	282.69
641.297	283.69
641.502	281.69
641.707	282.69
641.913	268.69
642.118	280.69
642.323	293.69
642.528	304.69
642.733	273.69
642.939	264.69
643.144	289.69
643.349	289.69
643.554	280.69
643.759	262.69
643.964	256.69
644.169	288.69
644.374	269.69
644.579	284.69
644.784	281.69
644.989	281.69
645.194	272.69
645.399	273.69
645.604	266.69
645.809	284.69
646.014	283.69
646.219	290.69
646.423	277.69
646.628	296.69
646.833	284.69
647.038	296.69
647.243	285.69
647.447	286.69
647.652	280.69
647.857	283.69
648.062	280.69
648.266	270.69
648.471	282.69
648.676	295.69
648.88	282.69
649.085	302.69
649.289	282.69
649.494	286.69
649.698	286.69
649.903	266.69
650.107	299.69
650.312	293.69
650.516	271.69
650.721	266.69
650.925	271.69
651.13	274.69
651.334	285.69
651.539	264.69
651.743	252.69
651.947	266.69
652.152	267.69
652.356	266.69
652.56	264.69
652.764	263.69
652.969	261.69
653.173	263.69
653.377	237.69
653.581	236.69
653.785	238.69
653.99	249.69
654.194	248.69
654.398	248.69
654.602	253.69
654.806	232.69
655.01	252.69
655.214	238.69
655.418	234.69
655.622	231.69
655.826	245.69
656.03	270.69
656.234	248.69
656.438	248.69
656.642	257.69
656.846	262.69
657.049	234.69
657.253	216.69
657.457	216.69
657.661	213.69
657.865	208.69
658.068	202.69
658.272	187.69
658.476	180.69
658.68	175.69
658.883	164.69
659.087	155.69
659.291	172.69
659.494	145.69
659.698	149.69
659.901	148.69
660.105	131.69
660.309	132.69
660.512	112.69
660.716	121.69
660.919	131.69
661.123	124.69
661.326	119.69
661.53	109.69
661.733	105.69
661.936	112.69
662.14	116.69
662.343	94.69
662.546	94.69
662.75	100.69
662.953	99.69
663.156	94.69
663.36	83.69
663.563	85.69
663.766	76.69
663.969	78.69
664.173	97.69
664.376	87.69
664.579	96.69
664.782	83.69
664.985	95.69
665.188	85.69
665.391	85.69
665.594	98.69
665.797	79.69
666	98.69
666.203	88.69
666.406	85.69
666.609	88.69
666.812	78.69
667.015	78.69
667.218	94.69
667.421	95.69
667.624	89.69
667.827	99.69
668.03	86.69
668.232	80.69
668.435	84.69
668.638	73.69
668.841	90.69
669.043	92.69
669.246	82.69
669.449	89.69
669.651	91.69
669.854	81.69
670.057	79.69
670.259	66.69
670.462	91.69
670.665	84.69
670.867	81.69
671.07	96.69
671.272	89.69
671.475	92.69
671.677	78.69
671.88	76.69
672.082	92.69
672.284	80.69
672.487	94.69
672.689	88.69
672.892	84.69
