Data from Ni(NO3)2@0.5M.TitratingCurve.Agarose3%dH2O.NegLispCup.LampEnergy10.LIBS07252019_HRD10591_17-57-43-563.txt Node
Date: Thu Jul 25 17:57:43 EDT 2019
User: cochatt
Spectrometer: HR+D1059
Trigger mode: 1
Integration Time (sec): 1.000000E-1
Scans to average: 1
Electric dark correction enabled: true
Nonlinearity correction enabled: false
Boxcar width: 0
XAxis mode: Wavelengths
Number of Pixels in Spectrum: 2048
>>>>>Begin Spectral Data<<<<<
223.165	-17.62
223.4	-17.62
223.635	-17.62
223.869	-16.62
224.104	-17.62
224.338	-17.62
224.573	6.38
224.808	-10.62
225.042	3.38
225.277	-9.62
225.511	-16.62
225.746	3.38
225.98	3.38
226.215	1.38
226.449	9.38
226.683	25.38
226.918	25.38
227.152	28.38
227.387	25.38
227.621	47.38
227.856	36.38
228.09	46.38
228.324	36.38
228.559	49.38
228.793	81.38
229.027	131.38
229.262	137.38
229.496	139.38
229.73	140.38
229.964	162.38
230.199	203.38
230.433	208.38
230.667	187.38
230.901	192.38
231.136	170.38
231.37	185.38
231.604	180.38
231.838	197.38
232.072	208.38
232.306	198.38
232.541	164.38
232.775	163.38
233.009	175.38
233.243	170.38
233.477	168.38
233.711	180.38
233.945	173.38
234.179	193.38
234.413	184.38
234.647	194.38
234.881	187.38
235.115	192.38
235.349	178.38
235.583	194.38
235.817	178.38
236.051	192.38
236.285	178.38
236.519	191.38
236.753	177.38
236.987	173.38
237.221	182.38
237.455	194.38
237.689	208.38
237.922	197.38
238.156	194.38
238.39	177.38
238.624	201.38
238.858	184.38
239.091	204.38
239.325	203.38
239.559	220.38
239.793	219.38
240.027	228.38
240.26	226.38
240.494	201.38
240.728	197.38
240.961	234.38
241.195	219.38
241.429	238.38
241.662	241.38
241.896	247.38
242.13	242.38
242.363	237.38
242.597	222.38
242.83	233.38
243.064	238.38
243.298	235.38
243.531	241.38
243.765	238.38
243.998	255.38
244.232	270.38
244.465	237.38
244.699	253.38
244.932	255.38
245.166	251.38
245.399	243.38
245.633	267.38
245.866	261.38
246.099	268.38
246.333	261.38
246.566	287.38
246.8	279.38
247.033	269.38
247.266	290.38
247.5	282.38
247.733	301.38
247.966	282.38
248.2	293.38
248.433	281.38
248.666	294.38
248.899	311.38
249.133	307.38
249.366	306.38
249.599	323.38
249.832	333.38
250.066	327.38
250.299	324.38
250.532	339.38
250.765	344.38
250.998	339.38
251.231	365.38
251.465	352.38
251.698	348.38
251.931	373.38
252.164	346.38
252.397	328.38
252.63	339.38
252.863	373.38
253.096	362.38
253.329	365.38
253.562	373.38
253.795	375.38
254.028	375.38
254.261	383.38
254.494	381.38
254.727	395.38
254.96	401.38
255.193	412.38
255.426	399.38
255.659	381.38
255.892	403.38
256.124	399.38
256.357	424.38
256.59	398.38
256.823	405.38
257.056	414.38
257.289	440.38
257.521	418.38
257.754	420.38
257.987	418.38
258.22	444.38
258.452	417.38
258.685	423.38
258.918	441.38
259.151	443.38
259.383	434.38
259.616	447.38
259.849	457.38
260.081	448.38
260.314	455.38
260.547	450.38
260.779	475.38
261.012	468.38
261.244	470.38
261.477	476.38
261.71	469.38
261.942	472.38
262.175	487.38
262.407	484.38
262.64	464.38
262.872	504.38
263.105	501.38
263.337	501.38
263.57	504.38
263.802	507.38
264.035	494.38
264.267	487.38
264.499	500.38
264.732	515.38
264.964	492.38
265.197	517.38
265.429	518.38
265.661	527.38
265.894	527.38
266.126	524.38
266.358	534.38
266.591	542.38
266.823	513.38
267.055	517.38
267.287	543.38
267.52	529.38
267.752	538.38
267.984	543.38
268.216	566.38
268.448	549.38
268.681	552.38
268.913	577.38
269.145	568.38
269.377	559.38
269.609	571.38
269.841	569.38
270.073	549.38
270.306	570.38
270.538	567.38
270.77	575.38
271.002	579.38
271.234	565.38
271.466	594.38
271.698	576.38
271.93	573.38
272.162	586.38
272.394	585.38
272.626	579.38
272.858	593.38
273.09	602.38
273.322	586.38
273.553	570.38
273.785	589.38
274.017	606.38
274.249	598.38
274.481	620.38
274.713	603.38
274.945	626.38
275.176	613.38
275.408	595.38
275.64	614.38
275.872	616.38
276.104	627.38
276.335	613.38
276.567	623.38
276.799	616.38
277.031	652.38
277.262	591.38
277.494	629.38
277.726	628.38
277.957	638.38
278.189	649.38
278.421	646.38
278.652	667.38
278.884	651.38
279.115	656.38
279.347	655.38
279.579	653.38
279.81	650.38
280.042	635.38
280.273	673.38
280.505	653.38
280.736	678.38
280.968	677.38
281.199	661.38
281.431	659.38
281.662	673.38
281.894	679.38
282.125	657.38
282.356	672.38
282.588	670.38
282.819	679.38
283.051	671.38
283.282	699.38
283.513	683.38
283.745	674.38
283.976	670.38
284.207	668.38
284.439	685.38
284.67	681.38
284.901	694.38
285.132	708.38
285.364	677.38
285.595	680.38
285.826	697.38
286.057	712.38
286.288	730.38
286.52	723.38
286.751	699.38
286.982	715.38
287.213	699.38
287.444	720.38
287.675	720.38
287.906	717.38
288.138	705.38
288.369	716.38
288.6	710.38
288.831	714.38
289.062	726.38
289.293	711.38
289.524	712.38
289.755	738.38
289.986	730.38
290.217	723.38
290.448	718.38
290.679	706.38
290.91	745.38
291.141	727.38
291.371	724.38
291.602	730.38
291.833	724.38
292.064	727.38
292.295	717.38
292.526	737.38
292.757	708.38
292.987	719.38
293.218	725.38
293.449	743.38
293.68	728.38
293.91	742.38
294.141	753.38
294.372	712.38
294.603	730.38
294.833	737.38
295.064	730.38
295.295	733.38
295.525	731.38
295.756	753.38
295.987	751.38
296.217	763.38
296.448	739.38
296.679	755.38
296.909	751.38
297.14	766.38
297.37	760.38
297.601	793.38
297.831	771.38
298.062	764.38
298.292	777.38
298.523	814.38
298.753	793.38
298.984	786.38
299.214	793.38
299.445	775.38
299.675	802.38
299.905	784.38
300.136	775.38
300.366	821.38
300.597	836.38
300.827	827.38
301.057	824.38
301.288	809.38
301.518	818.38
301.748	813.38
301.979	805.38
302.209	827.38
302.439	827.38
302.669	835.38
302.9	841.38
303.13	821.38
303.36	825.38
303.59	830.38
303.82	864.38
304.051	865.38
304.281	858.38
304.511	808.38
304.741	839.38
304.971	850.38
305.201	881.38
305.431	877.38
305.661	880.38
305.891	848.38
306.121	838.38
306.352	847.38
306.582	820.38
306.812	858.38
307.042	844.38
307.272	833.38
307.502	857.38
307.731	877.38
307.961	851.38
308.191	880.38
308.421	871.38
308.651	865.38
308.881	873.38
309.111	857.38
309.341	865.38
309.571	852.38
309.8	853.38
310.03	897.38
310.26	923.38
310.49	907.38
310.72	888.38
310.949	881.38
311.179	896.38
311.409	905.38
311.639	916.38
311.868	908.38
312.098	919.38
312.328	934.38
312.557	925.38
312.787	920.38
313.017	924.38
313.246	937.38
313.476	952.38
313.706	950.38
313.935	944.38
314.165	916.38
314.394	951.38
314.624	938.38
314.853	935.38
315.083	932.38
315.312	967.38
315.542	962.38
315.771	959.38
316.001	944.38
316.23	967.38
316.46	947.38
316.689	961.38
316.919	1000.38
317.148	1005.38
317.377	981.38
317.607	982.38
317.836	975.38
318.065	974.38
318.295	983.38
318.524	1009.38
318.753	1005.38
318.983	1034.38
319.212	1023.38
319.441	1014.38
319.67	1057.38
319.9	1013.38
320.129	1041.38
320.358	1039.38
320.587	1034.38
320.816	1059.38
321.046	1049.38
321.275	1065.38
321.504	1077.38
321.733	1042.38
321.962	1059.38
322.191	1050.38
322.42	1051.38
322.649	1083.38
322.878	1087.38
323.108	1075.38
323.337	1122.38
323.566	1094.38
323.795	1094.38
324.024	1100.38
324.253	1098.38
324.482	1124.38
324.71	1100.38
324.939	1094.38
325.168	1109.38
325.397	1124.38
325.626	1115.38
325.855	1131.38
326.084	1118.38
326.313	1091.38
326.542	1113.38
326.77	1149.38
326.999	1155.38
327.228	1154.38
327.457	1143.38
327.686	1146.38
327.914	1141.38
328.143	1138.38
328.372	1159.38
328.6	1153.38
328.829	1191.38
329.058	1165.38
329.287	1162.38
329.515	1201.38
329.744	1174.38
329.972	1197.38
330.201	1183.38
330.43	1184.38
330.658	1194.38
330.887	1217.38
331.115	1168.38
331.344	1207.38
331.572	1219.38
331.801	1229.38
332.03	1212.38
332.258	1201.38
332.486	1231.38
332.715	1224.38
332.943	1219.38
333.172	1203.38
333.4	1232.38
333.629	1235.38
333.857	1263.38
334.085	1258.38
334.314	1242.38
334.542	1259.38
334.771	1295.38
334.999	1258.38
335.227	1283.38
335.455	1268.38
335.684	1274.38
335.912	1285.38
336.14	1299.38
336.369	1332.38
336.597	1303.38
336.825	1303.38
337.053	1314.38
337.281	1313.38
337.51	1312.38
337.738	1309.38
337.966	1308.38
338.194	1307.38
338.422	1290.38
338.65	1289.38
338.878	1284.38
339.106	1288.38
339.334	1294.38
339.562	1289.38
339.79	1254.38
340.018	1265.38
340.246	1255.38
340.474	1261.38
340.702	1258.38
340.93	1254.38
341.158	1256.38
341.386	1287.38
341.614	1346.38
341.842	1263.38
342.07	1273.38
342.298	1257.38
342.526	1303.38
342.754	1267.38
342.981	1258.38
343.209	1281.38
343.437	1305.38
343.665	1296.38
343.893	1289.38
344.12	1302.38
344.348	1288.38
344.576	1293.38
344.804	1323.38
345.031	1308.38
345.259	1296.38
345.487	1289.38
345.714	1299.38
345.942	1361.38
346.17	1341.38
346.397	1264.38
346.625	1299.38
346.853	1234.38
347.08	1221.38
347.308	1254.38
347.535	1246.38
347.763	1218.38
347.99	1213.38
348.218	1267.38
348.445	1252.38
348.673	1219.38
348.9	1215.38
349.128	1262.38
349.355	1265.38
349.583	1254.38
349.81	1201.38
350.037	1227.38
350.265	1224.38
350.492	1212.38
350.72	1241.38
350.947	1247.38
351.174	1235.38
351.402	1252.38
351.629	1278.38
351.856	1227.38
352.083	1253.38
352.311	1231.38
352.538	1263.38
352.765	1235.38
352.992	1217.38
353.22	1213.38
353.447	1201.38
353.674	1202.38
353.901	1202.38
354.128	1224.38
354.355	1195.38
354.583	1210.38
354.81	1181.38
355.037	1197.38
355.264	1170.38
355.491	1196.38
355.718	1187.38
355.945	1200.38
356.172	1206.38
356.399	1227.38
356.626	1221.38
356.853	1248.38
357.08	1239.38
357.307	1224.38
357.534	1197.38
357.761	1189.38
357.988	1200.38
358.215	1199.38
358.441	1178.38
358.668	1186.38
358.895	1238.38
359.122	1189.38
359.349	1194.38
359.576	1206.38
359.802	1209.38
360.029	1202.38
360.256	1191.38
360.483	1220.38
360.709	1196.38
360.936	1229.38
361.163	1223.38
361.39	1225.38
361.616	1224.38
361.843	1220.38
362.07	1261.38
362.296	1289.38
362.523	1224.38
362.749	1197.38
362.976	1202.38
363.203	1230.38
363.429	1234.38
363.656	1234.38
363.882	1249.38
364.109	1238.38
364.335	1205.38
364.562	1205.38
364.788	1233.38
365.015	1221.38
365.241	1210.38
365.468	1207.38
365.694	1206.38
365.92	1210.38
366.147	1213.38
366.373	1235.38
366.599	1223.38
366.826	1217.38
367.052	1224.38
367.278	1233.38
367.505	1245.38
367.731	1239.38
367.957	1239.38
368.184	1246.38
368.41	1256.38
368.636	1245.38
368.862	1217.38
369.089	1250.38
369.315	1243.38
369.541	1235.38
369.767	1231.38
369.993	1259.38
370.219	1266.38
370.445	1261.38
370.672	1272.38
370.898	1247.38
371.124	1237.38
371.35	1208.38
371.576	1242.38
371.802	1245.38
372.028	1245.38
372.254	1246.38
372.48	1241.38
372.706	1237.38
372.932	1251.38
373.158	1248.38
373.384	1265.38
373.61	1237.38
373.835	1275.38
374.061	1256.38
374.287	1254.38
374.513	1272.38
374.739	1247.38
374.965	1244.38
375.191	1251.38
375.416	1241.38
375.642	1227.38
375.868	1236.38
376.094	1258.38
376.319	1243.38
376.545	1246.38
376.771	1223.38
376.997	1220.38
377.222	1245.38
377.448	1212.38
377.674	1240.38
377.899	1201.38
378.125	1223.38
378.35	1213.38
378.576	1233.38
378.802	1229.38
379.027	1212.38
379.253	1214.38
379.478	1227.38
379.704	1193.38
379.929	1221.38
380.155	1195.38
380.38	1199.38
380.606	1242.38
380.831	1204.38
381.057	1245.38
381.282	1231.38
381.507	1200.38
381.733	1267.38
381.958	1233.38
382.184	1224.38
382.409	1204.38
382.634	1191.38
382.86	1220.38
383.085	1231.38
383.31	1241.38
383.535	1247.38
383.761	1254.38
383.986	1243.38
384.211	1226.38
384.436	1261.38
384.662	1227.38
384.887	1285.38
385.112	1281.38
385.337	1277.38
385.562	1248.38
385.787	1259.38
386.013	1319.38
386.238	1305.38
386.463	1252.38
386.688	1297.38
386.913	1263.38
387.138	1258.38
387.363	1313.38
387.588	1295.38
387.813	1315.38
388.038	1264.38
388.263	1327.38
388.488	1333.38
388.713	1331.38
388.938	1306.38
389.163	1323.38
389.387	1310.38
389.612	1296.38
389.837	1321.38
390.062	1306.38
390.287	1317.38
390.512	1299.38
390.736	1288.38
390.961	1325.38
391.186	1290.38
391.411	1291.38
391.636	1291.38
391.86	1308.38
392.085	1315.38
392.31	1281.38
392.534	1331.38
392.759	1322.38
392.984	1314.38
393.208	1331.38
393.433	1317.38
393.658	1323.38
393.882	1303.38
394.107	1334.38
394.331	1310.38
394.556	1314.38
394.78	1357.38
395.005	1339.38
395.229	1337.38
395.454	1314.38
395.678	1324.38
395.903	1307.38
396.127	1327.38
396.352	1343.38
396.576	1331.38
396.801	1344.38
397.025	1344.38
397.249	1333.38
397.474	1369.38
397.698	1364.38
397.922	1390.38
398.147	1363.38
398.371	1402.38
398.595	1405.38
398.82	1426.38
399.044	1401.38
399.268	1425.38
399.492	1414.38
399.717	1437.38
399.941	1465.38
400.165	1490.38
400.389	1494.38
400.613	1458.38
400.837	1449.38
401.062	1461.38
401.286	1438.38
401.51	1461.38
401.734	1380.38
401.958	1413.38
402.182	1442.38
402.406	1397.38
402.63	1417.38
402.854	1406.38
403.078	1443.38
403.302	1436.38
403.526	1451.38
403.75	1377.38
403.974	1423.38
404.198	1409.38
404.422	1423.38
404.645	1427.38
404.869	1416.38
405.093	1446.38
405.317	1399.38
405.541	1437.38
405.765	1425.38
405.988	1435.38
406.212	1490.38
406.436	1447.38
406.66	1462.38
406.883	1497.38
407.107	1520.38
407.331	1485.38
407.555	1553.38
407.778	1497.38
408.002	1526.38
408.226	1491.38
408.449	1537.38
408.673	1505.38
408.896	1486.38
409.12	1506.38
409.344	1522.38
409.567	1478.38
409.791	1509.38
410.014	1480.38
410.238	1479.38
410.461	1461.38
410.685	1490.38
410.908	1468.38
411.132	1487.38
411.355	1447.38
411.578	1437.38
411.802	1438.38
412.025	1460.38
412.249	1467.38
412.472	1430.38
412.695	1427.38
412.919	1467.38
413.142	1433.38
413.365	1423.38
413.589	1447.38
413.812	1414.38
414.035	1426.38
414.258	1408.38
414.482	1427.38
414.705	1456.38
414.928	1410.38
415.151	1442.38
415.374	1408.38
415.597	1402.38
415.821	1393.38
416.044	1398.38
416.267	1379.38
416.49	1395.38
416.713	1376.38
416.936	1388.38
417.159	1395.38
417.382	1382.38
417.605	1354.38
417.828	1370.38
418.051	1423.38
418.274	1355.38
418.497	1331.38
418.72	1353.38
418.943	1296.38
419.166	1425.38
419.389	1509.38
419.611	1496.38
419.834	1443.38
420.057	1405.38
420.28	1343.38
420.503	1358.38
420.726	1340.38
420.948	1331.38
421.171	1356.38
421.394	1387.38
421.617	1333.38
421.839	1371.38
422.062	1381.38
422.285	1375.38
422.507	1337.38
422.73	1377.38
422.953	1355.38
423.175	1342.38
423.398	1343.38
423.621	1319.38
423.843	1359.38
424.066	1378.38
424.288	1343.38
424.511	1377.38
424.733	1379.38
424.956	1326.38
425.178	1347.38
425.401	1373.38
425.623	1392.38
425.846	1359.38
426.068	1357.38
426.291	1371.38
426.513	1325.38
426.735	1331.38
426.958	1351.38
427.18	1365.38
427.402	1345.38
427.625	1363.38
427.847	1371.38
428.069	1361.38
428.292	1354.38
428.514	1354.38
428.736	1371.38
428.958	1345.38
429.181	1359.38
429.403	1343.38
429.625	1352.38
429.847	1375.38
430.069	1352.38
430.292	1359.38
430.514	1386.38
430.736	1372.38
430.958	1395.38
431.18	1383.38
431.402	1366.38
431.624	1350.38
431.846	1358.38
432.068	1336.38
432.29	1409.38
432.512	1347.38
432.734	1417.38
432.956	1359.38
433.178	1375.38
433.4	1397.38
433.622	1420.38
433.844	1409.38
434.066	1393.38
434.287	1363.38
434.509	1363.38
434.731	1382.38
434.953	1384.38
435.175	1399.38
435.397	1417.38
435.618	1398.38
435.84	1381.38
436.062	1361.38
436.284	1356.38
436.505	1414.38
436.727	1391.38
436.949	1360.38
437.17	1375.38
437.392	1371.38
437.614	1365.38
437.835	1318.38
438.057	1341.38
438.278	1335.38
438.5	1317.38
438.721	1349.38
438.943	1362.38
439.165	1320.38
439.386	1343.38
439.608	1365.38
439.829	1325.38
440.05	1339.38
440.272	1363.38
440.493	1344.38
440.715	1363.38
440.936	1371.38
441.158	1345.38
441.379	1391.38
441.6	1423.38
441.822	1402.38
442.043	1395.38
442.264	1396.38
442.486	1340.38
442.707	1382.38
442.928	1374.38
443.149	1350.38
443.371	1428.38
443.592	1441.38
443.813	1431.38
444.034	1388.38
444.255	1410.38
444.476	1363.38
444.698	1403.38
444.919	1393.38
445.14	1531.38
445.361	1450.38
445.582	1419.38
445.803	1392.38
446.024	1378.38
446.245	1336.38
446.466	1363.38
446.687	1295.38
446.908	1345.38
447.129	1335.38
447.35	1311.38
447.571	1320.38
447.792	1305.38
448.013	1283.38
448.234	1253.38
448.455	1242.38
448.675	1278.38
448.896	1263.38
449.117	1256.38
449.338	1302.38
449.559	1264.38
449.779	1242.38
450	1254.38
450.221	1277.38
450.442	1240.38
450.662	1229.38
450.883	1272.38
451.104	1291.38
451.324	1272.38
451.545	1258.38
451.766	1228.38
451.986	1249.38
452.207	1258.38
452.428	1256.38
452.648	1231.38
452.869	1222.38
453.089	1197.38
453.31	1249.38
453.53	1211.38
453.751	1203.38
453.971	1206.38
454.192	1222.38
454.412	1225.38
454.633	1221.38
454.853	1191.38
455.073	1213.38
455.294	1249.38
455.514	1232.38
455.734	1248.38
455.955	1248.38
456.175	1245.38
456.395	1242.38
456.616	1232.38
456.836	1221.38
457.056	1237.38
457.276	1188.38
457.497	1251.38
457.717	1228.38
457.937	1243.38
458.157	1235.38
458.377	1242.38
458.598	1230.38
458.818	1247.38
459.038	1232.38
459.258	1267.38
459.478	1320.38
459.698	1369.38
459.918	1369.38
460.138	1346.38
460.358	1357.38
460.578	1359.38
460.798	1391.38
461.018	1403.38
461.238	1369.38
461.458	1325.38
461.678	1351.38
461.898	1367.38
462.118	1365.38
462.338	1401.38
462.558	1417.38
462.777	1417.38
462.997	1469.38
463.217	1457.38
463.437	1474.38
463.657	1443.38
463.876	1428.38
464.096	1416.38
464.316	1438.38
464.536	1410.38
464.755	1392.38
464.975	1369.38
465.195	1346.38
465.414	1397.38
465.634	1333.38
465.854	1313.38
466.073	1314.38
466.293	1303.38
466.512	1315.38
466.732	1303.38
466.951	1309.38
467.171	1314.38
467.391	1309.38
467.61	1308.38
467.829	1309.38
468.049	1290.38
468.268	1304.38
468.488	1333.38
468.707	1283.38
468.927	1307.38
469.146	1320.38
469.365	1317.38
469.585	1317.38
469.804	1354.38
470.023	1333.38
470.243	1341.38
470.462	1311.38
470.681	1313.38
470.901	1328.38
471.12	1301.38
471.339	1339.38
471.558	1334.38
471.777	1301.38
471.997	1345.38
472.216	1321.38
472.435	1339.38
472.654	1301.38
472.873	1285.38
473.092	1312.38
473.311	1335.38
473.53	1341.38
473.749	1327.38
473.968	1348.38
474.187	1341.38
474.406	1346.38
474.625	1370.38
474.844	1370.38
475.063	1373.38
475.282	1376.38
475.501	1383.38
475.72	1376.38
475.939	1382.38
476.158	1393.38
476.377	1429.38
476.596	1425.38
476.814	1386.38
477.033	1414.38
477.252	1410.38
477.471	1464.38
477.69	1435.38
477.908	1473.38
478.127	1493.38
478.346	1470.38
478.564	1526.38
478.783	1545.38
479.002	1563.38
479.22	1628.38
479.439	1560.38
479.658	1539.38
479.876	1526.38
480.095	1549.38
480.313	1538.38
480.532	1569.38
480.751	1539.38
480.969	1561.38
481.188	1545.38
481.406	1549.38
481.624	1569.38
481.843	1567.38
482.061	1599.38
482.28	1584.38
482.498	1585.38
482.717	1607.38
482.935	1614.38
483.153	1609.38
483.372	1634.38
483.59	1655.38
483.808	1673.38
484.027	1623.38
484.245	1650.38
484.463	1643.38
484.681	1653.38
484.9	1681.38
485.118	1621.38
485.336	1644.38
485.554	1625.38
485.772	1648.38
485.99	1638.38
486.209	1648.38
486.427	1634.38
486.645	1643.38
486.863	1645.38
487.081	1652.38
487.299	1668.38
487.517	1683.38
487.735	1679.38
487.953	1716.38
488.171	1702.38
488.389	1649.38
488.607	1663.38
488.825	1634.38
489.043	1630.38
489.261	1631.38
489.479	1633.38
489.696	1661.38
489.914	1675.38
490.132	1671.38
490.35	1663.38
490.568	1662.38
490.786	1722.38
491.003	1663.38
491.221	1676.38
491.439	1681.38
491.657	1722.38
491.874	1696.38
492.092	1726.38
492.31	1745.38
492.527	1726.38
492.745	1774.38
492.963	1711.38
493.18	1678.38
493.398	1688.38
493.615	1687.38
493.833	1699.38
494.05	1726.38
494.268	1713.38
494.485	1740.38
494.703	1702.38
494.92	1749.38
495.138	1758.38
495.355	1785.38
495.573	1733.38
495.79	1733.38
496.008	1723.38
496.225	1727.38
496.442	1755.38
496.66	1786.38
496.877	1791.38
497.094	1763.38
497.312	1811.38
497.529	1788.38
497.746	1818.38
497.963	1819.38
498.181	1840.38
498.398	1841.38
498.615	1880.38
498.832	1890.38
499.049	1904.38
499.267	1917.38
499.484	1966.38
499.701	1980.38
499.918	1995.38
500.135	2065.38
500.352	2065.38
500.569	2073.38
500.786	2081.38
501.003	2106.38
501.22	2004.38
501.437	2026.38
501.654	1960.38
501.871	2003.38
502.088	1955.38
502.305	1917.38
502.522	1904.38
502.739	1874.38
502.956	1834.38
503.172	1810.38
503.389	1777.38
503.606	1775.38
503.823	1747.38
504.04	1753.38
504.256	1695.38
504.473	1687.38
504.69	1721.38
504.907	1650.38
505.123	1665.38
505.34	1662.38
505.557	1660.38
505.773	1605.38
505.99	1665.38
506.207	1587.38
506.423	1538.38
506.64	1526.38
506.856	1583.38
507.073	1540.38
507.289	1566.38
507.506	1545.38
507.722	1509.38
507.939	1506.38
508.155	1505.38
508.372	1522.38
508.588	1461.38
508.805	1462.38
509.021	1434.38
509.238	1443.38
509.454	1458.38
509.67	1432.38
509.887	1474.38
510.103	1441.38
510.319	1396.38
510.536	1418.38
510.752	1409.38
510.968	1443.38
511.184	1393.38
511.401	1397.38
511.617	1390.38
511.833	1423.38
512.049	1411.38
512.265	1401.38
512.481	1380.38
512.698	1388.38
512.914	1401.38
513.13	1401.38
513.346	1381.38
513.562	1398.38
513.778	1382.38
513.994	1411.38
514.21	1409.38
514.426	1377.38
514.642	1409.38
514.858	1396.38
515.074	1402.38
515.29	1420.38
515.506	1399.38
515.721	1393.38
515.937	1394.38
516.153	1397.38
516.369	1401.38
516.585	1406.38
516.801	1440.38
517.016	1376.38
517.232	1393.38
517.448	1417.38
517.664	1436.38
517.879	1450.38
518.095	1438.38
518.311	1400.38
518.527	1375.38
518.742	1399.38
518.958	1385.38
519.173	1384.38
519.389	1356.38
519.605	1383.38
519.82	1354.38
520.036	1358.38
520.251	1355.38
520.467	1357.38
520.682	1342.38
520.898	1305.38
521.113	1291.38
521.329	1334.38
521.544	1325.38
521.76	1296.38
521.975	1354.38
522.19	1299.38
522.406	1343.38
522.621	1305.38
522.836	1271.38
523.052	1275.38
523.267	1312.38
523.482	1287.38
523.698	1258.38
523.913	1277.38
524.128	1303.38
524.343	1283.38
524.559	1258.38
524.774	1261.38
524.989	1282.38
525.204	1257.38
525.419	1236.38
525.634	1245.38
525.849	1246.38
526.064	1274.38
526.28	1250.38
526.495	1226.38
526.71	1245.38
526.925	1235.38
527.14	1218.38
527.355	1221.38
527.57	1231.38
527.785	1233.38
527.999	1212.38
528.214	1237.38
528.429	1218.38
528.644	1238.38
528.859	1223.38
529.074	1238.38
529.289	1218.38
529.503	1227.38
529.718	1201.38
529.933	1204.38
530.148	1210.38
530.363	1215.38
530.577	1185.38
530.792	1211.38
531.007	1203.38
531.221	1169.38
531.436	1179.38
531.651	1205.38
531.865	1186.38
532.08	1178.38
532.295	1207.38
532.509	1164.38
532.724	1151.38
532.938	1166.38
533.153	1181.38
533.367	1190.38
533.582	1169.38
533.796	1143.38
534.011	1178.38
534.225	1142.38
534.44	1152.38
534.654	1171.38
534.868	1138.38
535.083	1161.38
535.297	1166.38
535.511	1135.38
535.726	1162.38
535.94	1126.38
536.154	1119.38
536.369	1133.38
536.583	1106.38
536.797	1127.38
537.011	1114.38
537.225	1126.38
537.44	1108.38
537.654	1139.38
537.868	1121.38
538.082	1089.38
538.296	1103.38
538.51	1111.38
538.724	1114.38
538.938	1097.38
539.153	1128.38
539.367	1082.38
539.581	1093.38
539.795	1090.38
540.009	1068.38
540.222	1085.38
540.436	1072.38
540.65	1095.38
540.864	1074.38
541.078	1093.38
541.292	1087.38
541.506	1089.38
541.72	1121.38
541.934	1097.38
542.147	1111.38
542.361	1107.38
542.575	1082.38
542.789	1079.38
543.002	1056.38
543.216	1057.38
543.43	1073.38
543.644	1055.38
543.857	1063.38
544.071	1073.38
544.285	1078.38
544.498	1064.38
544.712	1065.38
544.925	1089.38
545.139	1085.38
545.352	1066.38
545.566	1109.38
545.779	1084.38
545.993	1053.38
546.206	1065.38
546.42	1038.38
546.633	1074.38
546.847	1045.38
547.06	1082.38
547.274	1041.38
547.487	1044.38
547.7	1045.38
547.914	1074.38
548.127	1053.38
548.34	1060.38
548.554	1035.38
548.767	1038.38
548.98	1030.38
549.193	1056.38
549.407	1021.38
549.62	1033.38
549.833	998.38
550.046	1027.38
550.259	1039.38
550.473	1018.38
550.686	1033.38
550.899	1033.38
551.112	1019.38
551.325	968.38
551.538	993.38
551.751	1007.38
551.964	1003.38
552.177	952.38
552.39	957.38
552.603	1004.38
552.816	1014.38
553.029	1027.38
553.242	998.38
553.455	977.38
553.667	975.38
553.88	1006.38
554.093	981.38
554.306	1011.38
554.519	980.38
554.732	972.38
554.944	953.38
555.157	954.38
555.37	949.38
555.583	937.38
555.795	946.38
556.008	953.38
556.221	933.38
556.433	910.38
556.646	897.38
556.859	947.38
557.071	907.38
557.284	894.38
557.496	882.38
557.709	920.38
557.921	918.38
558.134	893.38
558.346	906.38
558.559	907.38
558.771	907.38
558.984	897.38
559.196	900.38
559.409	871.38
559.621	908.38
559.833	874.38
560.046	862.38
560.258	870.38
560.47	862.38
560.683	852.38
560.895	850.38
561.107	868.38
561.32	878.38
561.532	882.38
561.744	860.38
561.956	854.38
562.168	855.38
562.381	851.38
562.593	886.38
562.805	871.38
563.017	863.38
563.229	866.38
563.441	870.38
563.653	859.38
563.865	890.38
564.077	891.38
564.289	869.38
564.501	872.38
564.713	869.38
564.925	893.38
565.137	875.38
565.349	883.38
565.561	890.38
565.773	909.38
565.985	886.38
566.197	859.38
566.408	909.38
566.62	913.38
566.832	910.38
567.044	889.38
567.255	885.38
567.467	871.38
567.679	886.38
567.891	889.38
568.102	869.38
568.314	859.38
568.526	886.38
568.737	856.38
568.949	807.38
569.161	830.38
569.372	818.38
569.584	803.38
569.795	821.38
570.007	783.38
570.218	810.38
570.43	801.38
570.641	795.38
570.853	785.38
571.064	767.38
571.276	758.38
571.487	737.38
571.698	742.38
571.91	754.38
572.121	752.38
572.333	716.38
572.544	722.38
572.755	695.38
572.966	705.38
573.178	677.38
573.389	730.38
573.6	723.38
573.811	729.38
574.023	696.38
574.234	680.38
574.445	680.38
574.656	689.38
574.867	662.38
575.078	655.38
575.289	660.38
575.501	657.38
575.712	666.38
575.923	662.38
576.134	669.38
576.345	673.38
576.556	649.38
576.767	643.38
576.978	668.38
577.188	645.38
577.399	637.38
577.61	647.38
577.821	659.38
578.032	619.38
578.243	621.38
578.454	628.38
578.665	616.38
578.875	623.38
579.086	615.38
579.297	644.38
579.508	611.38
579.718	612.38
579.929	595.38
580.14	621.38
580.35	577.38
580.561	599.38
580.772	614.38
580.982	610.38
581.193	605.38
581.403	592.38
581.614	573.38
581.825	591.38
582.035	577.38
582.246	587.38
582.456	565.38
582.667	590.38
582.877	594.38
583.087	600.38
583.298	567.38
583.508	577.38
583.719	598.38
583.929	590.38
584.139	566.38
584.35	577.38
584.56	559.38
584.77	586.38
584.981	547.38
585.191	559.38
585.401	549.38
585.611	571.38
585.821	581.38
586.032	553.38
586.242	539.38
586.452	539.38
586.662	543.38
586.872	545.38
587.082	549.38
587.292	527.38
587.502	544.38
587.713	553.38
587.923	548.38
588.133	545.38
588.343	552.38
588.553	542.38
588.762	555.38
588.972	553.38
589.182	583.38
589.392	590.38
589.602	565.38
589.812	578.38
590.022	564.38
590.232	533.38
590.441	529.38
590.651	537.38
590.861	545.38
591.071	546.38
591.281	542.38
591.49	535.38
591.7	533.38
591.91	533.38
592.119	527.38
592.329	534.38
592.539	536.38
592.748	547.38
592.958	521.38
593.167	526.38
593.377	536.38
593.587	540.38
593.796	543.38
594.006	520.38
594.215	522.38
594.424	520.38
594.634	519.38
594.843	499.38
595.053	503.38
595.262	494.38
595.472	497.38
595.681	487.38
595.89	497.38
596.1	477.38
596.309	484.38
596.518	498.38
596.727	486.38
596.937	485.38
597.146	495.38
597.355	490.38
597.564	493.38
597.774	477.38
597.983	488.38
598.192	463.38
598.401	477.38
598.61	462.38
598.819	452.38
599.028	448.38
599.237	432.38
599.446	467.38
599.655	442.38
599.864	442.38
600.073	442.38
600.282	454.38
600.491	468.38
600.7	449.38
600.909	447.38
601.118	452.38
601.327	447.38
601.536	447.38
601.745	453.38
601.953	450.38
602.162	449.38
602.371	456.38
602.58	435.38
602.789	424.38
602.997	431.38
603.206	437.38
603.415	415.38
603.623	439.38
603.832	443.38
604.041	435.38
604.249	417.38
604.458	429.38
604.666	413.38
604.875	438.38
605.084	410.38
605.292	415.38
605.501	423.38
605.709	414.38
605.918	420.38
606.126	409.38
606.334	432.38
606.543	414.38
606.751	410.38
606.96	407.38
607.168	430.38
607.376	394.38
607.585	425.38
607.793	401.38
608.001	409.38
608.21	397.38
608.418	410.38
608.626	395.38
608.834	409.38
609.043	404.38
609.251	412.38
609.459	393.38
609.667	379.38
609.875	387.38
610.083	397.38
610.291	393.38
610.499	405.38
610.707	406.38
610.916	380.38
611.124	385.38
611.332	387.38
611.54	386.38
611.748	397.38
611.955	401.38
612.163	389.38
612.371	391.38
612.579	396.38
612.787	399.38
612.995	393.38
613.203	395.38
613.411	378.38
613.618	398.38
613.826	375.38
614.034	384.38
614.242	382.38
614.449	372.38
614.657	377.38
614.865	363.38
615.072	385.38
615.28	379.38
615.488	382.38
615.695	377.38
615.903	376.38
616.111	361.38
616.318	365.38
616.526	372.38
616.733	359.38
616.941	366.38
617.148	382.38
617.356	352.38
617.563	350.38
617.771	373.38
617.978	360.38
618.185	344.38
618.393	348.38
618.6	360.38
618.807	359.38
619.015	367.38
619.222	370.38
619.429	355.38
619.637	351.38
619.844	363.38
620.051	361.38
620.258	359.38
620.466	347.38
620.673	355.38
620.88	334.38
621.087	337.38
621.294	346.38
621.501	354.38
621.708	351.38
621.915	338.38
622.122	360.38
622.329	342.38
622.536	344.38
622.743	332.38
622.95	345.38
623.157	321.38
623.364	337.38
623.571	340.38
623.778	353.38
623.985	362.38
624.192	345.38
624.399	325.38
624.606	329.38
624.812	342.38
625.019	329.38
625.226	342.38
625.433	315.38
625.639	320.38
625.846	330.38
626.053	314.38
626.259	327.38
626.466	324.38
626.673	319.38
626.879	309.38
627.086	317.38
627.293	312.38
627.499	309.38
627.706	322.38
627.912	331.38
628.119	325.38
628.325	311.38
628.532	297.38
628.738	310.38
628.945	297.38
629.151	307.38
629.357	307.38
629.564	314.38
629.77	305.38
629.976	289.38
630.183	301.38
630.389	327.38
630.595	287.38
630.802	307.38
631.008	285.38
631.214	308.38
631.42	298.38
631.627	290.38
631.833	280.38
632.039	289.38
632.245	296.38
632.451	289.38
632.657	301.38
632.863	283.38
633.069	297.38
633.275	303.38
633.481	287.38
633.688	292.38
633.893	286.38
634.099	298.38
634.305	282.38
634.511	285.38
634.717	296.38
634.923	288.38
635.129	300.38
635.335	286.38
635.541	286.38
635.747	287.38
635.952	280.38
636.158	279.38
636.364	297.38
636.57	283.38
636.775	277.38
636.981	271.38
637.187	291.38
637.392	285.38
637.598	276.38
637.804	272.38
638.009	274.38
638.215	274.38
638.421	274.38
638.626	262.38
638.832	275.38
639.037	290.38
639.243	269.38
639.448	271.38
639.654	262.38
639.859	264.38
640.065	279.38
640.27	280.38
640.475	271.38
640.681	280.38
640.886	282.38
641.091	275.38
641.297	275.38
641.502	265.38
641.707	273.38
641.913	279.38
642.118	264.38
642.323	255.38
642.528	267.38
642.733	272.38
642.939	283.38
643.144	252.38
643.349	258.38
643.554	267.38
643.759	271.38
643.964	264.38
644.169	273.38
644.374	250.38
644.579	271.38
644.784	269.38
644.989	262.38
645.194	265.38
645.399	256.38
645.604	247.38
645.809	267.38
646.014	271.38
646.219	271.38
646.423	304.38
646.628	263.38
646.833	264.38
647.038	277.38
647.243	261.38
647.447	253.38
647.652	266.38
647.857	253.38
648.062	265.38
648.266	266.38
648.471	278.38
648.676	279.38
648.88	276.38
649.085	260.38
649.289	254.38
649.494	263.38
649.698	285.38
649.903	294.38
650.107	255.38
650.312	281.38
650.516	258.38
650.721	265.38
650.925	253.38
651.13	264.38
651.334	245.38
651.539	253.38
651.743	249.38
651.947	251.38
652.152	232.38
652.356	242.38
652.56	243.38
652.764	244.38
652.969	248.38
653.173	239.38
653.377	255.38
653.581	257.38
653.785	252.38
653.99	242.38
654.194	238.38
654.398	227.38
654.602	244.38
654.806	233.38
655.01	232.38
655.214	239.38
655.418	261.38
655.622	251.38
655.826	255.38
656.03	258.38
656.234	264.38
656.438	223.38
656.642	254.38
656.846	256.38
657.049	245.38
657.253	223.38
657.457	239.38
657.661	201.38
657.865	175.38
658.068	198.38
658.272	175.38
658.476	179.38
658.68	165.38
658.883	167.38
659.087	144.38
659.291	153.38
659.494	137.38
659.698	134.38
659.901	128.38
660.105	133.38
660.309	131.38
660.512	135.38
660.716	120.38
660.919	129.38
661.123	112.38
661.326	106.38
661.53	91.38
661.733	101.38
661.936	112.38
662.14	98.38
662.343	89.38
662.546	93.38
662.75	86.38
662.953	93.38
663.156	101.38
663.36	75.38
663.563	83.38
663.766	98.38
663.969	80.38
664.173	90.38
664.376	82.38
664.579	94.38
664.782	96.38
664.985	98.38
665.188	77.38
665.391	68.38
665.594	80.38
665.797	72.38
666	86.38
666.203	82.38
666.406	63.38
666.609	79.38
666.812	81.38
667.015	77.38
667.218	80.38
667.421	93.38
667.624	80.38
667.827	81.38
668.03	83.38
668.232	83.38
668.435	63.38
668.638	73.38
668.841	62.38
669.043	67.38
669.246	74.38
669.449	74.38
669.651	77.38
669.854	85.38
670.057	73.38
670.259	60.38
670.462	68.38
670.665	68.38
670.867	81.38
671.07	78.38
671.272	101.38
671.475	99.38
671.677	79.38
671.88	85.38
672.082	74.38
672.284	76.38
672.487	79.38
672.689	75.38
672.892	63.38
