Data from Ni(NO3)2@0.25M.TitratingCurve.Agarose3%dH2O.NegLispCup.LampEnergy10.LIBS07252019_HRD10591_18-02-51-565.txt Node
Date: Thu Jul 25 18:02:51 EDT 2019
User: cochatt
Spectrometer: HR+D1059
Trigger mode: 1
Integration Time (sec): 1.000000E-1
Scans to average: 1
Electric dark correction enabled: true
Nonlinearity correction enabled: false
Boxcar width: 0
XAxis mode: Wavelengths
Number of Pixels in Spectrum: 2048
>>>>>Begin Spectral Data<<<<<
223.165	-11.88
223.4	-11.88
223.635	-11.88
223.869	-0.88
224.104	-36.88
224.338	-8.88
224.573	-18.88
224.808	-9.88
225.042	-12.88
225.277	-10.88
225.511	-11.88
225.746	-3.88
225.98	3.12
226.215	6.12
226.449	26.12
226.683	39.12
226.918	27.12
227.152	25.12
227.387	51.12
227.621	46.12
227.856	49.12
228.09	42.12
228.324	46.12
228.559	53.12
228.793	63.12
229.027	123.12
229.262	147.12
229.496	119.12
229.73	122.12
229.964	149.12
230.199	177.12
230.433	178.12
230.667	185.12
230.901	167.12
231.136	161.12
231.37	179.12
231.604	173.12
231.838	161.12
232.072	188.12
232.306	181.12
232.541	181.12
232.775	164.12
233.009	172.12
233.243	161.12
233.477	177.12
233.711	166.12
233.945	168.12
234.179	180.12
234.413	180.12
234.647	193.12
234.881	188.12
235.115	162.12
235.349	157.12
235.583	168.12
235.817	182.12
236.051	167.12
236.285	173.12
236.519	174.12
236.753	161.12
236.987	190.12
237.221	167.12
237.455	181.12
237.689	167.12
237.922	192.12
238.156	183.12
238.39	181.12
238.624	180.12
238.858	193.12
239.091	180.12
239.325	195.12
239.559	220.12
239.793	221.12
240.027	201.12
240.26	212.12
240.494	191.12
240.728	211.12
240.961	205.12
241.195	214.12
241.429	205.12
241.662	235.12
241.896	226.12
242.13	224.12
242.363	225.12
242.597	213.12
242.83	224.12
243.064	231.12
243.298	234.12
243.531	227.12
243.765	245.12
243.998	247.12
244.232	240.12
244.465	246.12
244.699	224.12
244.932	250.12
245.166	244.12
245.399	243.12
245.633	244.12
245.866	252.12
246.099	235.12
246.333	256.12
246.566	266.12
246.8	263.12
247.033	274.12
247.266	269.12
247.5	281.12
247.733	298.12
247.966	307.12
248.2	300.12
248.433	304.12
248.666	310.12
248.899	314.12
249.133	330.12
249.366	335.12
249.599	337.12
249.832	345.12
250.066	365.12
250.299	346.12
250.532	372.12
250.765	352.12
250.998	380.12
251.231	394.12
251.465	412.12
251.698	413.12
251.931	404.12
252.164	394.12
252.397	421.12
252.63	421.12
252.863	426.12
253.096	428.12
253.329	436.12
253.562	446.12
253.795	458.12
254.028	475.12
254.261	459.12
254.494	481.12
254.727	480.12
254.96	516.12
255.193	491.12
255.426	502.12
255.659	514.12
255.892	490.12
256.124	516.12
256.357	501.12
256.59	550.12
256.823	516.12
257.056	550.12
257.289	527.12
257.521	554.12
257.754	536.12
257.987	570.12
258.22	562.12
258.452	546.12
258.685	558.12
258.918	564.12
259.151	576.12
259.383	595.12
259.616	593.12
259.849	602.12
260.081	602.12
260.314	619.12
260.547	601.12
260.779	616.12
261.012	609.12
261.244	636.12
261.477	618.12
261.71	654.12
261.942	639.12
262.175	650.12
262.407	639.12
262.64	659.12
262.872	652.12
263.105	633.12
263.337	655.12
263.57	646.12
263.802	650.12
264.035	669.12
264.267	668.12
264.499	672.12
264.732	668.12
264.964	686.12
265.197	675.12
265.429	678.12
265.661	721.12
265.894	708.12
266.126	683.12
266.358	674.12
266.591	704.12
266.823	711.12
267.055	719.12
267.287	694.12
267.52	678.12
267.752	706.12
267.984	713.12
268.216	724.12
268.448	733.12
268.681	700.12
268.913	711.12
269.145	724.12
269.377	714.12
269.609	722.12
269.841	752.12
270.073	728.12
270.306	747.12
270.538	735.12
270.77	741.12
271.002	734.12
271.234	733.12
271.466	749.12
271.698	734.12
271.93	774.12
272.162	747.12
272.394	752.12
272.626	774.12
272.858	759.12
273.09	748.12
273.322	780.12
273.553	777.12
273.785	790.12
274.017	766.12
274.249	777.12
274.481	749.12
274.713	771.12
274.945	780.12
275.176	779.12
275.408	792.12
275.64	806.12
275.872	786.12
276.104	778.12
276.335	769.12
276.567	795.12
276.799	796.12
277.031	800.12
277.262	785.12
277.494	785.12
277.726	824.12
277.957	813.12
278.189	804.12
278.421	774.12
278.652	821.12
278.884	814.12
279.115	796.12
279.347	805.12
279.579	810.12
279.81	818.12
280.042	813.12
280.273	804.12
280.505	820.12
280.736	808.12
280.968	779.12
281.199	827.12
281.431	816.12
281.662	788.12
281.894	818.12
282.125	801.12
282.356	837.12
282.588	836.12
282.819	838.12
283.051	811.12
283.282	818.12
283.513	837.12
283.745	842.12
283.976	831.12
284.207	826.12
284.439	806.12
284.67	823.12
284.901	840.12
285.132	822.12
285.364	843.12
285.595	848.12
285.826	841.12
286.057	841.12
286.288	834.12
286.52	835.12
286.751	834.12
286.982	862.12
287.213	825.12
287.444	833.12
287.675	818.12
287.906	857.12
288.138	845.12
288.369	837.12
288.6	852.12
288.831	848.12
289.062	852.12
289.293	852.12
289.524	848.12
289.755	843.12
289.986	822.12
290.217	839.12
290.448	872.12
290.679	849.12
290.91	861.12
291.141	854.12
291.371	840.12
291.602	856.12
291.833	857.12
292.064	883.12
292.295	866.12
292.526	820.12
292.757	841.12
292.987	850.12
293.218	853.12
293.449	848.12
293.68	845.12
293.91	861.12
294.141	845.12
294.372	836.12
294.603	844.12
294.833	827.12
295.064	865.12
295.295	858.12
295.525	838.12
295.756	864.12
295.987	826.12
296.217	853.12
296.448	849.12
296.679	862.12
296.909	837.12
297.14	868.12
297.37	861.12
297.601	872.12
297.831	854.12
298.062	873.12
298.292	853.12
298.523	910.12
298.753	896.12
298.984	898.12
299.214	870.12
299.445	873.12
299.675	883.12
299.905	875.12
300.136	921.12
300.366	890.12
300.597	899.12
300.827	910.12
301.057	894.12
301.288	901.12
301.518	906.12
301.748	913.12
301.979	924.12
302.209	921.12
302.439	941.12
302.669	914.12
302.9	946.12
303.13	932.12
303.36	941.12
303.59	977.12
303.82	954.12
304.051	966.12
304.281	940.12
304.511	940.12
304.741	942.12
304.971	959.12
305.201	973.12
305.431	975.12
305.661	978.12
305.891	969.12
306.121	959.12
306.352	994.12
306.582	960.12
306.812	973.12
307.042	975.12
307.272	979.12
307.502	978.12
307.731	1002.12
307.961	1009.12
308.191	1013.12
308.421	995.12
308.651	1032.12
308.881	1014.12
309.111	1037.12
309.341	1008.12
309.571	1020.12
309.8	1029.12
310.03	1069.12
310.26	1064.12
310.49	1067.12
310.72	1069.12
310.949	1049.12
311.179	1056.12
311.409	1072.12
311.639	1090.12
311.868	1078.12
312.098	1117.12
312.328	1081.12
312.557	1106.12
312.787	1115.12
313.017	1105.12
313.246	1124.12
313.476	1141.12
313.706	1146.12
313.935	1168.12
314.165	1167.12
314.394	1150.12
314.624	1200.12
314.853	1177.12
315.083	1164.12
315.312	1190.12
315.542	1205.12
315.771	1208.12
316.001	1209.12
316.23	1222.12
316.46	1235.12
316.689	1264.12
316.919	1236.12
317.148	1216.12
317.377	1284.12
317.607	1245.12
317.836	1259.12
318.065	1273.12
318.295	1330.12
318.524	1351.12
318.753	1333.12
318.983	1347.12
319.212	1292.12
319.441	1338.12
319.67	1348.12
319.9	1341.12
320.129	1362.12
320.358	1373.12
320.587	1351.12
320.816	1392.12
321.046	1383.12
321.275	1381.12
321.504	1446.12
321.733	1424.12
321.962	1426.12
322.191	1413.12
322.42	1457.12
322.649	1466.12
322.878	1472.12
323.108	1494.12
323.337	1498.12
323.566	1481.12
323.795	1528.12
324.024	1514.12
324.253	1561.12
324.482	1504.12
324.71	1580.12
324.939	1538.12
325.168	1576.12
325.397	1580.12
325.626	1576.12
325.855	1597.12
326.084	1610.12
326.313	1651.12
326.542	1680.12
326.77	1646.12
326.999	1652.12
327.228	1648.12
327.457	1644.12
327.686	1718.12
327.914	1680.12
328.143	1693.12
328.372	1706.12
328.6	1695.12
328.829	1696.12
329.058	1708.12
329.287	1739.12
329.515	1750.12
329.744	1718.12
329.972	1744.12
330.201	1753.12
330.43	1730.12
330.658	1728.12
330.887	1742.12
331.115	1778.12
331.344	1749.12
331.572	1797.12
331.801	1826.12
332.03	1773.12
332.258	1833.12
332.486	1839.12
332.715	1834.12
332.943	1787.12
333.172	1828.12
333.4	1848.12
333.629	1828.12
333.857	1863.12
334.085	1876.12
334.314	1839.12
334.542	1883.12
334.771	1904.12
334.999	1867.12
335.227	1916.12
335.455	1922.12
335.684	1857.12
335.912	1897.12
336.14	1924.12
336.369	1893.12
336.597	1926.12
336.825	1938.12
337.053	1950.12
337.281	1963.12
337.51	1907.12
337.738	1899.12
337.966	1921.12
338.194	1949.12
338.422	1905.12
338.65	1944.12
338.878	1933.12
339.106	1918.12
339.334	1953.12
339.562	1976.12
339.79	1909.12
340.018	1968.12
340.246	1921.12
340.474	1908.12
340.702	1923.12
340.93	1915.12
341.158	1906.12
341.386	1944.12
341.614	1961.12
341.842	1934.12
342.07	1881.12
342.298	1907.12
342.526	1922.12
342.754	1934.12
342.981	1922.12
343.209	1919.12
343.437	1945.12
343.665	1929.12
343.893	1947.12
344.12	1972.12
344.348	1954.12
344.576	1972.12
344.804	1976.12
345.031	1949.12
345.259	1891.12
345.487	1918.12
345.714	1930.12
345.942	1955.12
346.17	1974.12
346.397	1947.12
346.625	1900.12
346.853	1890.12
347.08	1922.12
347.308	1906.12
347.535	1899.12
347.763	1910.12
347.99	1889.12
348.218	1953.12
348.445	1920.12
348.673	1845.12
348.9	1922.12
349.128	1908.12
349.355	1877.12
349.583	1929.12
349.81	1882.12
350.037	1885.12
350.265	1883.12
350.492	1926.12
350.72	1908.12
350.947	1898.12
351.174	1891.12
351.402	1896.12
351.629	1916.12
351.856	1899.12
352.083	1826.12
352.311	1841.12
352.538	1871.12
352.765	1920.12
352.992	1848.12
353.22	1838.12
353.447	1838.12
353.674	1850.12
353.901	1873.12
354.128	1877.12
354.355	1850.12
354.583	1850.12
354.81	1863.12
355.037	1854.12
355.264	1853.12
355.491	1858.12
355.718	1878.12
355.945	1860.12
356.172	1840.12
356.399	1890.12
356.626	1841.12
356.853	1907.12
357.08	1833.12
357.307	1863.12
357.534	1844.12
357.761	1863.12
357.988	1848.12
358.215	1826.12
358.441	1837.12
358.668	1815.12
358.895	1854.12
359.122	1832.12
359.349	1848.12
359.576	1807.12
359.802	1873.12
360.029	1835.12
360.256	1870.12
360.483	1847.12
360.709	1821.12
360.936	1828.12
361.163	1845.12
361.39	1856.12
361.616	1854.12
361.843	1884.12
362.07	1877.12
362.296	1854.12
362.523	1833.12
362.749	1882.12
362.976	1845.12
363.203	1864.12
363.429	1869.12
363.656	1858.12
363.882	1812.12
364.109	1828.12
364.335	1800.12
364.562	1820.12
364.788	1818.12
365.015	1858.12
365.241	1816.12
365.468	1832.12
365.694	1828.12
365.92	1848.12
366.147	1842.12
366.373	1820.12
366.599	1812.12
366.826	1795.12
367.052	1817.12
367.278	1792.12
367.505	1876.12
367.731	1849.12
367.957	1802.12
368.184	1822.12
368.41	1864.12
368.636	1805.12
368.862	1852.12
369.089	1825.12
369.315	1848.12
369.541	1811.12
369.767	1822.12
369.993	1806.12
370.219	1804.12
370.445	1786.12
370.672	1838.12
370.898	1869.12
371.124	1801.12
371.35	1838.12
371.576	1834.12
371.802	1807.12
372.028	1804.12
372.254	1835.12
372.48	1799.12
372.706	1792.12
372.932	1808.12
373.158	1781.12
373.384	1817.12
373.61	1805.12
373.835	1802.12
374.061	1791.12
374.287	1786.12
374.513	1741.12
374.739	1782.12
374.965	1760.12
375.191	1755.12
375.416	1763.12
375.642	1748.12
375.868	1796.12
376.094	1758.12
376.319	1741.12
376.545	1785.12
376.771	1726.12
376.997	1738.12
377.222	1708.12
377.448	1695.12
377.674	1750.12
377.899	1718.12
378.125	1698.12
378.35	1705.12
378.576	1724.12
378.802	1683.12
379.027	1673.12
379.253	1707.12
379.478	1689.12
379.704	1690.12
379.929	1708.12
380.155	1701.12
380.38	1716.12
380.606	1724.12
380.831	1700.12
381.057	1723.12
381.282	1713.12
381.507	1685.12
381.733	1718.12
381.958	1705.12
382.184	1726.12
382.409	1754.12
382.634	1680.12
382.86	1687.12
383.085	1684.12
383.31	1702.12
383.535	1733.12
383.761	1704.12
383.986	1674.12
384.211	1716.12
384.436	1748.12
384.662	1741.12
384.887	1742.12
385.112	1708.12
385.337	1741.12
385.562	1750.12
385.787	1753.12
386.013	1763.12
386.238	1739.12
386.463	1755.12
386.688	1758.12
386.913	1714.12
387.138	1739.12
387.363	1766.12
387.588	1717.12
387.813	1731.12
388.038	1717.12
388.263	1742.12
388.488	1752.12
388.713	1748.12
388.938	1717.12
389.163	1781.12
389.387	1739.12
389.612	1720.12
389.837	1771.12
390.062	1780.12
390.287	1753.12
390.512	1750.12
390.736	1740.12
390.961	1744.12
391.186	1718.12
391.411	1743.12
391.636	1729.12
391.86	1744.12
392.085	1758.12
392.31	1752.12
392.534	1742.12
392.759	1732.12
392.984	1690.12
393.208	1726.12
393.433	1743.12
393.658	1754.12
393.882	1741.12
394.107	1722.12
394.331	1721.12
394.556	1691.12
394.78	1738.12
395.005	1730.12
395.229	1730.12
395.454	1737.12
395.678	1738.12
395.903	1706.12
396.127	1773.12
396.352	1774.12
396.576	1764.12
396.801	1732.12
397.025	1764.12
397.249	1781.12
397.474	1795.12
397.698	1783.12
397.922	1794.12
398.147	1780.12
398.371	1800.12
398.595	1782.12
398.82	1821.12
399.044	1815.12
399.268	1836.12
399.492	1897.12
399.717	1861.12
399.941	1930.12
400.165	1908.12
400.389	1906.12
400.613	1887.12
400.837	1849.12
401.062	1847.12
401.286	1895.12
401.51	1858.12
401.734	1868.12
401.958	1848.12
402.182	1856.12
402.406	1885.12
402.63	1824.12
402.854	1807.12
403.078	1877.12
403.302	1860.12
403.526	1875.12
403.75	1848.12
403.974	1850.12
404.198	1834.12
404.422	1851.12
404.645	1844.12
404.869	1869.12
405.093	1846.12
405.317	1844.12
405.541	1871.12
405.765	1922.12
405.988	1914.12
406.212	1912.12
406.436	1882.12
406.66	1941.12
406.883	1913.12
407.107	1945.12
407.331	1946.12
407.555	1959.12
407.778	1970.12
408.002	1934.12
408.226	1921.12
408.449	1962.12
408.673	1992.12
408.896	1935.12
409.12	1949.12
409.344	1930.12
409.567	1890.12
409.791	1945.12
410.014	1904.12
410.238	1916.12
410.461	1897.12
410.685	1927.12
410.908	1917.12
411.132	1952.12
411.355	1916.12
411.578	1909.12
411.802	1885.12
412.025	1870.12
412.249	1889.12
412.472	1956.12
412.695	1901.12
412.919	1885.12
413.142	1909.12
413.365	1942.12
413.589	1904.12
413.812	1911.12
414.035	1862.12
414.258	1862.12
414.482	1877.12
414.705	1889.12
414.928	1883.12
415.151	1923.12
415.374	1913.12
415.597	1896.12
415.821	1897.12
416.044	1904.12
416.267	1854.12
416.49	1925.12
416.713	1899.12
416.936	1840.12
417.159	1855.12
417.382	1848.12
417.605	1837.12
417.828	1845.12
418.051	1868.12
418.274	1829.12
418.497	1796.12
418.72	1824.12
418.943	1820.12
419.166	1941.12
419.389	2073.12
419.611	2032.12
419.834	1902.12
420.057	1892.12
420.28	1877.12
420.503	1800.12
420.726	1846.12
420.948	1836.12
421.171	1817.12
421.394	1847.12
421.617	1857.12
421.839	1877.12
422.062	1875.12
422.285	1817.12
422.507	1880.12
422.73	1852.12
422.953	1858.12
423.175	1886.12
423.398	1875.12
423.621	1844.12
423.843	1847.12
424.066	1887.12
424.288	1901.12
424.511	1846.12
424.733	1906.12
424.956	1896.12
425.178	1916.12
425.401	1901.12
425.623	1922.12
425.846	1904.12
426.068	1918.12
426.291	1900.12
426.513	1894.12
426.735	1918.12
426.958	1920.12
427.18	1887.12
427.402	1936.12
427.625	1906.12
427.847	1906.12
428.069	1946.12
428.292	1950.12
428.514	1890.12
428.736	1908.12
428.958	1940.12
429.181	1909.12
429.403	1900.12
429.625	1947.12
429.847	1920.12
430.069	1921.12
430.292	1904.12
430.514	1909.12
430.736	1930.12
430.958	1910.12
431.18	1945.12
431.402	1903.12
431.624	1924.12
431.846	1917.12
432.068	1856.12
432.29	1928.12
432.512	1889.12
432.734	1973.12
432.956	1901.12
433.178	1930.12
433.4	1943.12
433.622	1948.12
433.844	1958.12
434.066	1973.12
434.287	1882.12
434.509	1899.12
434.731	1913.12
434.953	1906.12
435.175	1934.12
435.397	1986.12
435.618	1934.12
435.84	1906.12
436.062	1918.12
436.284	1956.12
436.505	1917.12
436.727	1878.12
436.949	1941.12
437.17	1946.12
437.392	1922.12
437.614	1905.12
437.835	1845.12
438.057	1863.12
438.278	1836.12
438.5	1869.12
438.721	1911.12
438.943	1911.12
439.165	1919.12
439.386	1922.12
439.608	1940.12
439.829	1918.12
440.05	1922.12
440.272	1900.12
440.493	1892.12
440.715	1926.12
440.936	1962.12
441.158	1935.12
441.379	1921.12
441.6	1940.12
441.822	1941.12
442.043	1913.12
442.264	1930.12
442.486	1901.12
442.707	1931.12
442.928	1912.12
443.149	1920.12
443.371	1915.12
443.592	2014.12
443.813	1989.12
444.034	1910.12
444.255	1840.12
444.476	1928.12
444.698	1930.12
444.919	1998.12
445.14	2084.12
445.361	1976.12
445.582	1934.12
445.803	1878.12
446.024	1909.12
446.245	1904.12
446.466	1937.12
446.687	1841.12
446.908	1870.12
447.129	1857.12
447.35	1869.12
447.571	1857.12
447.792	1806.12
448.013	1825.12
448.234	1818.12
448.455	1830.12
448.675	1813.12
448.896	1815.12
449.117	1809.12
449.338	1797.12
449.559	1819.12
449.779	1761.12
450	1780.12
450.221	1827.12
450.442	1797.12
450.662	1783.12
450.883	1768.12
451.104	1824.12
451.324	1809.12
451.545	1778.12
451.766	1829.12
451.986	1753.12
452.207	1800.12
452.428	1753.12
452.648	1731.12
452.869	1736.12
453.089	1760.12
453.31	1791.12
453.53	1725.12
453.751	1757.12
453.971	1725.12
454.192	1802.12
454.412	1774.12
454.633	1755.12
454.853	1734.12
455.073	1685.12
455.294	1742.12
455.514	1747.12
455.734	1744.12
455.955	1746.12
456.175	1712.12
456.395	1728.12
456.616	1752.12
456.836	1738.12
457.056	1755.12
457.276	1709.12
457.497	1748.12
457.717	1749.12
457.937	1781.12
458.157	1791.12
458.377	1729.12
458.598	1757.12
458.818	1723.12
459.038	1762.12
459.258	1792.12
459.478	1821.12
459.698	1879.12
459.918	1856.12
460.138	1848.12
460.358	1901.12
460.578	1853.12
460.798	1876.12
461.018	1910.12
461.238	1893.12
461.458	1851.12
461.678	1819.12
461.898	1878.12
462.118	1844.12
462.338	1880.12
462.558	1908.12
462.777	1919.12
462.997	1886.12
463.217	1914.12
463.437	1961.12
463.657	1954.12
463.876	1928.12
464.096	1949.12
464.316	1926.12
464.536	1923.12
464.755	1892.12
464.975	1898.12
465.195	1904.12
465.414	1864.12
465.634	1868.12
465.854	1870.12
466.073	1853.12
466.293	1861.12
466.512	1836.12
466.732	1837.12
466.951	1865.12
467.171	1840.12
467.391	1867.12
467.61	1836.12
467.829	1828.12
468.049	1872.12
468.268	1803.12
468.488	1857.12
468.707	1810.12
468.927	1854.12
469.146	1899.12
469.365	1844.12
469.585	1844.12
469.804	1879.12
470.023	1909.12
470.243	1902.12
470.462	1881.12
470.681	1880.12
470.901	1865.12
471.12	1883.12
471.339	1896.12
471.558	1911.12
471.777	1926.12
471.997	1864.12
472.216	1917.12
472.435	1946.12
472.654	1918.12
472.873	1880.12
473.092	1936.12
473.311	1930.12
473.53	1957.12
473.749	2001.12
473.968	1946.12
474.187	1958.12
474.406	1942.12
474.625	1978.12
474.844	2012.12
475.063	2026.12
475.282	2029.12
475.501	2019.12
475.72	2013.12
475.939	2037.12
476.158	2040.12
476.377	2065.12
476.596	2046.12
476.814	2077.12
477.033	2034.12
477.252	2132.12
477.471	2108.12
477.69	2162.12
477.908	2140.12
478.127	2178.12
478.346	2198.12
478.564	2156.12
478.783	2232.12
479.002	2226.12
479.22	2287.12
479.439	2248.12
479.658	2288.12
479.876	2237.12
480.095	2232.12
480.313	2269.12
480.532	2265.12
480.751	2317.12
480.969	2297.12
481.188	2271.12
481.406	2272.12
481.624	2275.12
481.843	2320.12
482.061	2292.12
482.28	2308.12
482.498	2361.12
482.717	2336.12
482.935	2369.12
483.153	2363.12
483.372	2413.12
483.59	2435.12
483.808	2357.12
484.027	2364.12
484.245	2358.12
484.463	2376.12
484.681	2388.12
484.9	2401.12
485.118	2389.12
485.336	2377.12
485.554	2403.12
485.772	2428.12
485.99	2441.12
486.209	2412.12
486.427	2418.12
486.645	2436.12
486.863	2426.12
487.081	2426.12
487.299	2412.12
487.517	2459.12
487.735	2486.12
487.953	2525.12
488.171	2503.12
488.389	2482.12
488.607	2516.12
488.825	2439.12
489.043	2457.12
489.261	2515.12
489.479	2471.12
489.696	2438.12
489.914	2486.12
490.132	2505.12
490.35	2474.12
490.568	2476.12
490.786	2505.12
491.003	2512.12
491.221	2560.12
491.439	2504.12
491.657	2544.12
491.874	2560.12
492.092	2522.12
492.31	2571.12
492.527	2573.12
492.745	2523.12
492.963	2537.12
493.18	2541.12
493.398	2520.12
493.615	2564.12
493.833	2523.12
494.05	2563.12
494.268	2549.12
494.485	2531.12
494.703	2522.12
494.92	2539.12
495.138	2471.12
495.355	2562.12
495.573	2544.12
495.79	2558.12
496.008	2535.12
496.225	2580.12
496.442	2556.12
496.66	2576.12
496.877	2594.12
497.094	2597.12
497.312	2595.12
497.529	2604.12
497.746	2600.12
497.963	2594.12
498.181	2668.12
498.398	2651.12
498.615	2654.12
498.832	2712.12
499.049	2744.12
499.267	2715.12
499.484	2764.12
499.701	2803.12
499.918	2808.12
500.135	2834.12
500.352	2853.12
500.569	2886.12
500.786	2821.12
501.003	2788.12
501.22	2844.12
501.437	2785.12
501.654	2718.12
501.871	2765.12
502.088	2710.12
502.305	2752.12
502.522	2715.12
502.739	2633.12
502.956	2590.12
503.172	2584.12
503.389	2604.12
503.606	2562.12
503.823	2494.12
504.04	2541.12
504.256	2537.12
504.473	2488.12
504.69	2437.12
504.907	2444.12
505.123	2454.12
505.34	2436.12
505.557	2363.12
505.773	2440.12
505.99	2397.12
506.207	2323.12
506.423	2333.12
506.64	2382.12
506.856	2354.12
507.073	2337.12
507.289	2325.12
507.506	2318.12
507.722	2285.12
507.939	2262.12
508.155	2280.12
508.372	2234.12
508.588	2256.12
508.805	2213.12
509.021	2172.12
509.238	2226.12
509.454	2202.12
509.67	2197.12
509.887	2195.12
510.103	2202.12
510.319	2161.12
510.536	2205.12
510.752	2154.12
510.968	2166.12
511.184	2112.12
511.401	2170.12
511.617	2140.12
511.833	2171.12
512.049	2159.12
512.265	2162.12
512.481	2103.12
512.698	2112.12
512.914	2123.12
513.13	2144.12
513.346	2106.12
513.562	2165.12
513.778	2097.12
513.994	2143.12
514.21	2088.12
514.426	2123.12
514.642	2107.12
514.858	2141.12
515.074	2122.12
515.29	2122.12
515.506	2060.12
515.721	2130.12
515.937	2102.12
516.153	2079.12
516.369	2116.12
516.585	2140.12
516.801	2061.12
517.016	2136.12
517.232	2133.12
517.448	2090.12
517.664	2102.12
517.879	2107.12
518.095	2070.12
518.311	2118.12
518.527	2109.12
518.742	2099.12
518.958	2110.12
519.173	2065.12
519.389	2076.12
519.605	2086.12
519.82	2057.12
520.036	2040.12
520.251	2014.12
520.467	2033.12
520.682	2040.12
520.898	2032.12
521.113	2009.12
521.329	2026.12
521.544	1994.12
521.76	2049.12
521.975	2031.12
522.19	2003.12
522.406	1994.12
522.621	1983.12
522.836	1993.12
523.052	2005.12
523.267	1965.12
523.482	1970.12
523.698	1954.12
523.913	1970.12
524.128	1968.12
524.343	1959.12
524.559	1943.12
524.774	1942.12
524.989	1985.12
525.204	1957.12
525.419	1941.12
525.634	1955.12
525.849	1920.12
526.064	1933.12
526.28	1916.12
526.495	1900.12
526.71	1952.12
526.925	1926.12
527.14	1913.12
527.355	1899.12
527.57	1910.12
527.785	1920.12
527.999	1910.12
528.214	1887.12
528.429	1897.12
528.644	1869.12
528.859	1959.12
529.074	1898.12
529.289	1879.12
529.503	1840.12
529.718	1877.12
529.933	1866.12
530.148	1851.12
530.363	1882.12
530.577	1854.12
530.792	1871.12
531.007	1842.12
531.221	1828.12
531.436	1840.12
531.651	1825.12
531.865	1846.12
532.08	1825.12
532.295	1867.12
532.509	1824.12
532.724	1824.12
532.938	1805.12
533.153	1829.12
533.367	1792.12
533.582	1782.12
533.796	1779.12
534.011	1785.12
534.225	1786.12
534.44	1760.12
534.654	1778.12
534.868	1778.12
535.083	1735.12
535.297	1768.12
535.511	1740.12
535.726	1753.12
535.94	1752.12
536.154	1738.12
536.369	1733.12
536.583	1737.12
536.797	1746.12
537.011	1713.12
537.225	1702.12
537.44	1724.12
537.654	1706.12
537.868	1678.12
538.082	1701.12
538.296	1648.12
538.51	1673.12
538.724	1696.12
538.938	1706.12
539.153	1683.12
539.367	1683.12
539.581	1681.12
539.795	1637.12
540.009	1684.12
540.222	1642.12
540.436	1638.12
540.65	1634.12
540.864	1617.12
541.078	1640.12
541.292	1671.12
541.506	1627.12
541.72	1656.12
541.934	1653.12
542.147	1696.12
542.361	1686.12
542.575	1637.12
542.789	1620.12
543.002	1603.12
543.216	1609.12
543.43	1634.12
543.644	1624.12
543.857	1630.12
544.071	1635.12
544.285	1627.12
544.498	1657.12
544.712	1619.12
544.925	1648.12
545.139	1600.12
545.352	1620.12
545.566	1623.12
545.779	1609.12
545.993	1594.12
546.206	1621.12
546.42	1581.12
546.633	1582.12
546.847	1607.12
547.06	1589.12
547.274	1592.12
547.487	1579.12
547.7	1603.12
547.914	1592.12
548.127	1580.12
548.34	1597.12
548.554	1558.12
548.767	1547.12
548.98	1563.12
549.193	1518.12
549.407	1553.12
549.62	1536.12
549.833	1563.12
550.046	1541.12
550.259	1511.12
550.473	1544.12
550.686	1563.12
550.899	1544.12
551.112	1514.12
551.325	1509.12
551.538	1535.12
551.751	1527.12
551.964	1491.12
552.177	1500.12
552.39	1475.12
552.603	1493.12
552.816	1501.12
553.029	1511.12
553.242	1492.12
553.455	1523.12
553.667	1492.12
553.88	1461.12
554.093	1452.12
554.306	1420.12
554.519	1466.12
554.732	1457.12
554.944	1461.12
555.157	1411.12
555.37	1435.12
555.583	1415.12
555.795	1440.12
556.008	1395.12
556.221	1404.12
556.433	1387.12
556.646	1401.12
556.859	1370.12
557.071	1382.12
557.284	1404.12
557.496	1344.12
557.709	1334.12
557.921	1323.12
558.134	1371.12
558.346	1374.12
558.559	1346.12
558.771	1322.12
558.984	1357.12
559.196	1339.12
559.409	1345.12
559.621	1341.12
559.833	1322.12
560.046	1345.12
560.258	1314.12
560.47	1306.12
560.683	1317.12
560.895	1301.12
561.107	1280.12
561.32	1274.12
561.532	1308.12
561.744	1251.12
561.956	1261.12
562.168	1291.12
562.381	1302.12
562.593	1280.12
562.805	1292.12
563.017	1277.12
563.229	1264.12
563.441	1275.12
563.653	1270.12
563.865	1251.12
564.077	1290.12
564.289	1286.12
564.501	1264.12
564.713	1315.12
564.925	1294.12
565.137	1296.12
565.349	1285.12
565.561	1265.12
565.773	1266.12
565.985	1287.12
566.197	1242.12
566.408	1293.12
566.62	1296.12
566.832	1280.12
567.044	1274.12
567.255	1283.12
567.467	1266.12
567.679	1262.12
567.891	1286.12
568.102	1270.12
568.314	1258.12
568.526	1251.12
568.737	1257.12
568.949	1180.12
569.161	1205.12
569.372	1158.12
569.584	1167.12
569.795	1167.12
570.007	1154.12
570.218	1164.12
570.43	1162.12
570.641	1153.12
570.853	1138.12
571.064	1113.12
571.276	1146.12
571.487	1104.12
571.698	1102.12
571.91	1091.12
572.121	1095.12
572.333	1084.12
572.544	1054.12
572.755	1039.12
572.966	1042.12
573.178	1076.12
573.389	1041.12
573.6	1053.12
573.811	1054.12
574.023	1025.12
574.234	1015.12
574.445	1028.12
574.656	1013.12
574.867	987.12
575.078	1020.12
575.289	981.12
575.501	1012.12
575.712	980.12
575.923	974.12
576.134	938.12
576.345	956.12
576.556	974.12
576.767	955.12
576.978	966.12
577.188	971.12
577.399	986.12
577.61	948.12
577.821	916.12
578.032	925.12
578.243	928.12
578.454	930.12
578.665	939.12
578.875	918.12
579.086	918.12
579.297	923.12
579.508	910.12
579.718	881.12
579.929	916.12
580.14	886.12
580.35	899.12
580.561	931.12
580.772	858.12
580.982	898.12
581.193	875.12
581.403	890.12
581.614	873.12
581.825	889.12
582.035	878.12
582.246	877.12
582.456	856.12
582.667	848.12
582.877	846.12
583.087	862.12
583.298	831.12
583.508	861.12
583.719	820.12
583.929	838.12
584.139	849.12
584.35	833.12
584.56	835.12
584.77	859.12
584.981	850.12
585.191	853.12
585.401	812.12
585.611	801.12
585.821	840.12
586.032	840.12
586.242	823.12
586.452	814.12
586.662	793.12
586.872	811.12
587.082	826.12
587.292	804.12
587.502	793.12
587.713	788.12
587.923	818.12
588.133	792.12
588.343	794.12
588.553	769.12
588.762	772.12
588.972	791.12
589.182	817.12
589.392	809.12
589.602	779.12
589.812	772.12
590.022	791.12
590.232	786.12
590.441	753.12
590.651	757.12
590.861	769.12
591.071	771.12
591.281	755.12
591.49	788.12
591.7	786.12
591.91	774.12
592.119	748.12
592.329	772.12
592.539	756.12
592.748	757.12
592.958	737.12
593.167	733.12
593.377	738.12
593.587	756.12
593.796	732.12
594.006	764.12
594.215	715.12
594.424	730.12
594.634	739.12
594.843	725.12
595.053	695.12
595.262	724.12
595.472	715.12
595.681	682.12
595.89	682.12
596.1	697.12
596.309	686.12
596.518	707.12
596.727	683.12
596.937	706.12
597.146	692.12
597.355	682.12
597.564	676.12
597.774	673.12
597.983	669.12
598.192	702.12
598.401	676.12
598.61	653.12
598.819	651.12
599.028	652.12
599.237	637.12
599.446	683.12
599.655	673.12
599.864	659.12
600.073	645.12
600.282	642.12
600.491	640.12
600.7	630.12
600.909	659.12
601.118	620.12
601.327	622.12
601.536	631.12
601.745	651.12
601.953	632.12
602.162	626.12
602.371	638.12
602.58	630.12
602.789	634.12
602.997	610.12
603.206	653.12
603.415	633.12
603.623	611.12
603.832	595.12
604.041	622.12
604.249	607.12
604.458	613.12
604.666	594.12
604.875	597.12
605.084	596.12
605.292	599.12
605.501	596.12
605.709	612.12
605.918	611.12
606.126	580.12
606.334	604.12
606.543	572.12
606.751	593.12
606.96	580.12
607.168	586.12
607.376	587.12
607.585	582.12
607.793	588.12
608.001	603.12
608.21	582.12
608.418	580.12
608.626	570.12
608.834	573.12
609.043	588.12
609.251	569.12
609.459	578.12
609.667	561.12
609.875	548.12
610.083	563.12
610.291	553.12
610.499	545.12
610.707	548.12
610.916	532.12
611.124	571.12
611.332	537.12
611.54	533.12
611.748	538.12
611.955	542.12
612.163	559.12
612.371	573.12
612.579	537.12
612.787	538.12
612.995	552.12
613.203	540.12
613.411	534.12
613.618	534.12
613.826	559.12
614.034	525.12
614.242	539.12
614.449	537.12
614.657	534.12
614.865	544.12
615.072	538.12
615.28	552.12
615.488	524.12
615.695	537.12
615.903	513.12
616.111	516.12
616.318	539.12
616.526	530.12
616.733	524.12
616.941	503.12
617.148	525.12
617.356	505.12
617.563	515.12
617.771	516.12
617.978	521.12
618.185	516.12
618.393	501.12
618.6	514.12
618.807	498.12
619.015	501.12
619.222	516.12
619.429	496.12
619.637	530.12
619.844	488.12
620.051	474.12
620.258	493.12
620.466	468.12
620.673	481.12
620.88	481.12
621.087	472.12
621.294	479.12
621.501	475.12
621.708	484.12
621.915	462.12
622.122	486.12
622.329	493.12
622.536	499.12
622.743	474.12
622.95	469.12
623.157	480.12
623.364	469.12
623.571	464.12
623.778	454.12
623.985	480.12
624.192	462.12
624.399	462.12
624.606	450.12
624.812	453.12
625.019	461.12
625.226	454.12
625.433	452.12
625.639	424.12
625.846	438.12
626.053	442.12
626.259	445.12
626.466	434.12
626.673	442.12
626.879	442.12
627.086	426.12
627.293	427.12
627.499	442.12
627.706	436.12
627.912	435.12
628.119	432.12
628.325	437.12
628.532	430.12
628.738	433.12
628.945	424.12
629.151	417.12
629.357	424.12
629.564	424.12
629.77	393.12
629.976	423.12
630.183	402.12
630.389	382.12
630.595	419.12
630.802	418.12
631.008	406.12
631.214	398.12
631.42	401.12
631.627	402.12
631.833	420.12
632.039	401.12
632.245	369.12
632.451	397.12
632.657	404.12
632.863	379.12
633.069	382.12
633.275	389.12
633.481	371.12
633.688	383.12
633.893	390.12
634.099	376.12
634.305	389.12
634.511	396.12
634.717	377.12
634.923	398.12
635.129	400.12
635.335	382.12
635.541	393.12
635.747	374.12
635.952	372.12
636.158	390.12
636.364	381.12
636.57	388.12
636.775	387.12
636.981	380.12
637.187	391.12
637.392	370.12
637.598	355.12
637.804	373.12
638.009	347.12
638.215	363.12
638.421	361.12
638.626	371.12
638.832	358.12
639.037	358.12
639.243	371.12
639.448	366.12
639.654	374.12
639.859	370.12
640.065	348.12
640.27	341.12
640.475	380.12
640.681	358.12
640.886	354.12
641.091	361.12
641.297	360.12
641.502	348.12
641.707	357.12
641.913	353.12
642.118	379.12
642.323	354.12
642.528	341.12
642.733	356.12
642.939	352.12
643.144	340.12
643.349	321.12
643.554	362.12
643.759	372.12
643.964	360.12
644.169	339.12
644.374	341.12
644.579	344.12
644.784	366.12
644.989	368.12
645.194	326.12
645.399	340.12
645.604	351.12
645.809	345.12
646.014	370.12
646.219	365.12
646.423	354.12
646.628	345.12
646.833	355.12
647.038	340.12
647.243	358.12
647.447	361.12
647.652	357.12
647.857	341.12
648.062	341.12
648.266	345.12
648.471	352.12
648.676	353.12
648.88	343.12
649.085	337.12
649.289	329.12
649.494	346.12
649.698	350.12
649.903	332.12
650.107	333.12
650.312	340.12
650.516	326.12
650.721	348.12
650.925	318.12
651.13	345.12
651.334	331.12
651.539	320.12
651.743	324.12
651.947	326.12
652.152	320.12
652.356	311.12
652.56	325.12
652.764	314.12
652.969	299.12
653.173	304.12
653.377	289.12
653.581	296.12
653.785	300.12
653.99	279.12
654.194	269.12
654.398	271.12
654.602	265.12
654.806	285.12
655.01	293.12
655.214	283.12
655.418	278.12
655.622	266.12
655.826	277.12
656.03	273.12
656.234	267.12
656.438	268.12
656.642	267.12
656.846	255.12
657.049	242.12
657.253	243.12
657.457	236.12
657.661	225.12
657.865	202.12
658.068	203.12
658.272	182.12
658.476	204.12
658.68	186.12
658.883	167.12
659.087	152.12
659.291	176.12
659.494	163.12
659.698	168.12
659.901	141.12
660.105	131.12
660.309	129.12
660.512	136.12
660.716	126.12
660.919	141.12
661.123	123.12
661.326	129.12
661.53	121.12
661.733	103.12
661.936	106.12
662.14	104.12
662.343	103.12
662.546	86.12
662.75	98.12
662.953	109.12
663.156	92.12
663.36	91.12
663.563	95.12
663.766	91.12
663.969	75.12
664.173	89.12
664.376	85.12
664.579	94.12
664.782	100.12
664.985	79.12
665.188	74.12
665.391	78.12
665.594	89.12
665.797	84.12
666	83.12
666.203	78.12
666.406	86.12
666.609	84.12
666.812	80.12
667.015	73.12
667.218	83.12
667.421	88.12
667.624	77.12
667.827	83.12
668.03	77.12
668.232	89.12
668.435	88.12
668.638	79.12
668.841	85.12
669.043	84.12
669.246	84.12
669.449	77.12
669.651	76.12
669.854	82.12
670.057	82.12
670.259	60.12
670.462	70.12
670.665	71.12
670.867	75.12
671.07	93.12
671.272	97.12
671.475	88.12
671.677	77.12
671.88	82.12
672.082	75.12
672.284	67.12
672.487	73.12
672.689	81.12
672.892	88.12
