Data from Ni(NO3)2@0.25M.TitratingCurve.Agarose3%dH2O.NegLispCup.LampEnergy10.LIBS07252019_HRD10591_18-04-02-566.txt Node
Date: Thu Jul 25 18:04:02 EDT 2019
User: cochatt
Spectrometer: HR+D1059
Trigger mode: 1
Integration Time (sec): 1.000000E-1
Scans to average: 1
Electric dark correction enabled: true
Nonlinearity correction enabled: false
Boxcar width: 0
XAxis mode: Wavelengths
Number of Pixels in Spectrum: 2048
>>>>>Begin Spectral Data<<<<<
223.165	-21.62
223.4	-21.62
223.635	-21.62
223.869	-18.62
224.104	2.38
224.338	-20.62
224.573	-18.62
224.808	-17.62
225.042	1.38
225.277	0.38
225.511	-1.62
225.746	3.38
225.98	2.38
226.215	6.38
226.449	14.38
226.683	20.38
226.918	26.38
227.152	21.38
227.387	38.38
227.621	35.38
227.856	47.38
228.09	69.38
228.324	30.38
228.559	61.38
228.793	47.38
229.027	93.38
229.262	105.38
229.496	109.38
229.73	116.38
229.964	115.38
230.199	116.38
230.433	117.38
230.667	126.38
230.901	119.38
231.136	128.38
231.37	124.38
231.604	147.38
231.838	136.38
232.072	131.38
232.306	130.38
232.541	142.38
232.775	145.38
233.009	126.38
233.243	142.38
233.477	154.38
233.711	135.38
233.945	136.38
234.179	133.38
234.413	148.38
234.647	119.38
234.881	127.38
235.115	142.38
235.349	133.38
235.583	142.38
235.817	128.38
236.051	135.38
236.285	120.38
236.519	139.38
236.753	144.38
236.987	139.38
237.221	154.38
237.455	150.38
237.689	147.38
237.922	151.38
238.156	146.38
238.39	126.38
238.624	154.38
238.858	147.38
239.091	153.38
239.325	146.38
239.559	153.38
239.793	160.38
240.027	147.38
240.26	154.38
240.494	168.38
240.728	154.38
240.961	153.38
241.195	160.38
241.429	164.38
241.662	167.38
241.896	164.38
242.13	167.38
242.363	171.38
242.597	164.38
242.83	164.38
243.064	175.38
243.298	164.38
243.531	172.38
243.765	161.38
243.998	172.38
244.232	189.38
244.465	174.38
244.699	170.38
244.932	167.38
245.166	175.38
245.399	186.38
245.633	186.38
245.866	185.38
246.099	184.38
246.333	175.38
246.566	192.38
246.8	202.38
247.033	194.38
247.266	182.38
247.5	192.38
247.733	207.38
247.966	183.38
248.2	208.38
248.433	194.38
248.666	201.38
248.899	206.38
249.133	207.38
249.366	190.38
249.599	200.38
249.832	206.38
250.066	229.38
250.299	202.38
250.532	242.38
250.765	209.38
250.998	214.38
251.231	227.38
251.465	220.38
251.698	234.38
251.931	219.38
252.164	219.38
252.397	231.38
252.63	247.38
252.863	239.38
253.096	240.38
253.329	254.38
253.562	237.38
253.795	227.38
254.028	245.38
254.261	252.38
254.494	246.38
254.727	240.38
254.96	222.38
255.193	252.38
255.426	252.38
255.659	249.38
255.892	247.38
256.124	271.38
256.357	254.38
256.59	253.38
256.823	263.38
257.056	265.38
257.289	259.38
257.521	272.38
257.754	273.38
257.987	281.38
258.22	271.38
258.452	261.38
258.685	279.38
258.918	289.38
259.151	265.38
259.383	281.38
259.616	265.38
259.849	275.38
260.081	288.38
260.314	288.38
260.547	286.38
260.779	295.38
261.012	271.38
261.244	307.38
261.477	308.38
261.71	304.38
261.942	292.38
262.175	279.38
262.407	299.38
262.64	305.38
262.872	301.38
263.105	308.38
263.337	324.38
263.57	309.38
263.802	282.38
264.035	303.38
264.267	321.38
264.499	308.38
264.732	320.38
264.964	311.38
265.197	308.38
265.429	307.38
265.661	302.38
265.894	335.38
266.126	329.38
266.358	312.38
266.591	322.38
266.823	330.38
267.055	319.38
267.287	327.38
267.52	329.38
267.752	327.38
267.984	323.38
268.216	322.38
268.448	335.38
268.681	339.38
268.913	317.38
269.145	351.38
269.377	348.38
269.609	342.38
269.841	340.38
270.073	321.38
270.306	343.38
270.538	344.38
270.77	324.38
271.002	340.38
271.234	331.38
271.466	334.38
271.698	353.38
271.93	344.38
272.162	351.38
272.394	361.38
272.626	347.38
272.858	377.38
273.09	338.38
273.322	370.38
273.553	360.38
273.785	348.38
274.017	328.38
274.249	370.38
274.481	362.38
274.713	363.38
274.945	367.38
275.176	375.38
275.408	382.38
275.64	368.38
275.872	362.38
276.104	359.38
276.335	364.38
276.567	362.38
276.799	382.38
277.031	385.38
277.262	361.38
277.494	370.38
277.726	384.38
277.957	383.38
278.189	384.38
278.421	368.38
278.652	404.38
278.884	370.38
279.115	394.38
279.347	381.38
279.579	386.38
279.81	411.38
280.042	403.38
280.273	395.38
280.505	402.38
280.736	401.38
280.968	408.38
281.199	425.38
281.431	404.38
281.662	397.38
281.894	396.38
282.125	396.38
282.356	419.38
282.588	401.38
282.819	414.38
283.051	434.38
283.282	405.38
283.513	415.38
283.745	428.38
283.976	420.38
284.207	419.38
284.439	431.38
284.67	403.38
284.901	400.38
285.132	425.38
285.364	410.38
285.595	423.38
285.826	412.38
286.057	421.38
286.288	422.38
286.52	436.38
286.751	435.38
286.982	448.38
287.213	434.38
287.444	430.38
287.675	446.38
287.906	423.38
288.138	434.38
288.369	440.38
288.6	431.38
288.831	417.38
289.062	426.38
289.293	447.38
289.524	450.38
289.755	440.38
289.986	449.38
290.217	436.38
290.448	432.38
290.679	442.38
290.91	435.38
291.141	444.38
291.371	454.38
291.602	443.38
291.833	441.38
292.064	455.38
292.295	442.38
292.526	442.38
292.757	438.38
292.987	446.38
293.218	462.38
293.449	466.38
293.68	463.38
293.91	467.38
294.141	438.38
294.372	450.38
294.603	441.38
294.833	451.38
295.064	451.38
295.295	446.38
295.525	458.38
295.756	455.38
295.987	456.38
296.217	467.38
296.448	470.38
296.679	464.38
296.909	452.38
297.14	454.38
297.37	475.38
297.601	489.38
297.831	470.38
298.062	480.38
298.292	476.38
298.523	494.38
298.753	515.38
298.984	478.38
299.214	487.38
299.445	498.38
299.675	495.38
299.905	477.38
300.136	507.38
300.366	517.38
300.597	515.38
300.827	516.38
301.057	517.38
301.288	538.38
301.518	533.38
301.748	530.38
301.979	545.38
302.209	509.38
302.439	532.38
302.669	505.38
302.9	510.38
303.13	499.38
303.36	517.38
303.59	524.38
303.82	526.38
304.051	514.38
304.281	497.38
304.511	518.38
304.741	518.38
304.971	528.38
305.201	522.38
305.431	540.38
305.661	529.38
305.891	537.38
306.121	515.38
306.352	528.38
306.582	506.38
306.812	511.38
307.042	515.38
307.272	503.38
307.502	524.38
307.731	518.38
307.961	503.38
308.191	508.38
308.421	511.38
308.651	528.38
308.881	494.38
309.111	529.38
309.341	508.38
309.571	525.38
309.8	523.38
310.03	527.38
310.26	537.38
310.49	530.38
310.72	543.38
310.949	501.38
311.179	505.38
311.409	523.38
311.639	533.38
311.868	538.38
312.098	527.38
312.328	549.38
312.557	543.38
312.787	535.38
313.017	547.38
313.246	544.38
313.476	564.38
313.706	570.38
313.935	559.38
314.165	547.38
314.394	540.38
314.624	561.38
314.853	579.38
315.083	559.38
315.312	565.38
315.542	578.38
315.771	584.38
316.001	565.38
316.23	578.38
316.46	576.38
316.689	562.38
316.919	580.38
317.148	577.38
317.377	580.38
317.607	579.38
317.836	571.38
318.065	557.38
318.295	565.38
318.524	576.38
318.753	583.38
318.983	562.38
319.212	571.38
319.441	550.38
319.67	570.38
319.9	587.38
320.129	599.38
320.358	586.38
320.587	586.38
320.816	572.38
321.046	571.38
321.275	580.38
321.504	587.38
321.733	608.38
321.962	613.38
322.191	595.38
322.42	587.38
322.649	591.38
322.878	583.38
323.108	587.38
323.337	625.38
323.566	630.38
323.795	622.38
324.024	622.38
324.253	622.38
324.482	627.38
324.71	618.38
324.939	611.38
325.168	634.38
325.397	654.38
325.626	650.38
325.855	646.38
326.084	639.38
326.313	628.38
326.542	630.38
326.77	643.38
326.999	644.38
327.228	655.38
327.457	663.38
327.686	666.38
327.914	654.38
328.143	676.38
328.372	656.38
328.6	682.38
328.829	673.38
329.058	671.38
329.287	652.38
329.515	646.38
329.744	688.38
329.972	701.38
330.201	678.38
330.43	690.38
330.658	680.38
330.887	703.38
331.115	712.38
331.344	685.38
331.572	739.38
331.801	720.38
332.03	706.38
332.258	749.38
332.486	741.38
332.715	778.38
332.943	792.38
333.172	808.38
333.4	847.38
333.629	858.38
333.857	894.38
334.085	869.38
334.314	859.38
334.542	850.38
334.771	877.38
334.999	834.38
335.227	825.38
335.455	808.38
335.684	848.38
335.912	823.38
336.14	832.38
336.369	847.38
336.597	831.38
336.825	806.38
337.053	825.38
337.281	836.38
337.51	800.38
337.738	765.38
337.966	796.38
338.194	789.38
338.422	797.38
338.65	768.38
338.878	761.38
339.106	745.38
339.334	785.38
339.562	794.38
339.79	739.38
340.018	747.38
340.246	715.38
340.474	735.38
340.702	734.38
340.93	727.38
341.158	768.38
341.386	726.38
341.614	760.38
341.842	757.38
342.07	732.38
342.298	740.38
342.526	720.38
342.754	722.38
342.981	743.38
343.209	750.38
343.437	788.38
343.665	807.38
343.893	855.38
344.12	879.38
344.348	847.38
344.576	825.38
344.804	798.38
345.031	733.38
345.259	740.38
345.487	751.38
345.714	732.38
345.942	780.38
346.17	740.38
346.397	731.38
346.625	742.38
346.853	730.38
347.08	706.38
347.308	722.38
347.535	714.38
347.763	728.38
347.99	719.38
348.218	703.38
348.445	711.38
348.673	676.38
348.9	702.38
349.128	750.38
349.355	726.38
349.583	680.38
349.81	671.38
350.037	706.38
350.265	672.38
350.492	695.38
350.72	716.38
350.947	679.38
351.174	692.38
351.402	702.38
351.629	714.38
351.856	708.38
352.083	686.38
352.311	707.38
352.538	735.38
352.765	716.38
352.992	683.38
353.22	687.38
353.447	668.38
353.674	660.38
353.901	699.38
354.128	683.38
354.355	663.38
354.583	652.38
354.81	671.38
355.037	655.38
355.264	664.38
355.491	691.38
355.718	691.38
355.945	682.38
356.172	669.38
356.399	668.38
356.626	707.38
356.853	700.38
357.08	661.38
357.307	694.38
357.534	693.38
357.761	676.38
357.988	687.38
358.215	676.38
358.441	665.38
358.668	687.38
358.895	680.38
359.122	682.38
359.349	697.38
359.576	692.38
359.802	657.38
360.029	684.38
360.256	692.38
360.483	678.38
360.709	682.38
360.936	685.38
361.163	692.38
361.39	685.38
361.616	670.38
361.843	698.38
362.07	726.38
362.296	684.38
362.523	676.38
362.749	664.38
362.976	663.38
363.203	666.38
363.429	676.38
363.656	658.38
363.882	676.38
364.109	670.38
364.335	677.38
364.562	655.38
364.788	665.38
365.015	681.38
365.241	681.38
365.468	698.38
365.694	692.38
365.92	707.38
366.147	680.38
366.373	670.38
366.599	680.38
366.826	684.38
367.052	685.38
367.278	682.38
367.505	693.38
367.731	678.38
367.957	663.38
368.184	671.38
368.41	677.38
368.636	679.38
368.862	689.38
369.089	707.38
369.315	703.38
369.541	702.38
369.767	719.38
369.993	688.38
370.219	686.38
370.445	701.38
370.672	695.38
370.898	717.38
371.124	685.38
371.35	727.38
371.576	706.38
371.802	706.38
372.028	715.38
372.254	720.38
372.48	735.38
372.706	757.38
372.932	749.38
373.158	751.38
373.384	727.38
373.61	751.38
373.835	751.38
374.061	710.38
374.287	729.38
374.513	760.38
374.739	780.38
374.965	761.38
375.191	785.38
375.416	799.38
375.642	773.38
375.868	751.38
376.094	739.38
376.319	748.38
376.545	739.38
376.771	693.38
376.997	729.38
377.222	729.38
377.448	735.38
377.674	724.38
377.899	710.38
378.125	718.38
378.35	702.38
378.576	715.38
378.802	714.38
379.027	692.38
379.253	717.38
379.478	712.38
379.704	715.38
379.929	720.38
380.155	713.38
380.38	708.38
380.606	687.38
380.831	720.38
381.057	688.38
381.282	706.38
381.507	747.38
381.733	708.38
381.958	728.38
382.184	716.38
382.409	772.38
382.634	770.38
382.86	739.38
383.085	730.38
383.31	747.38
383.535	755.38
383.761	756.38
383.986	774.38
384.211	796.38
384.436	759.38
384.662	827.38
384.887	807.38
385.112	842.38
385.337	861.38
385.562	818.38
385.787	853.38
386.013	830.38
386.238	840.38
386.463	865.38
386.688	857.38
386.913	851.38
387.138	814.38
387.363	849.38
387.588	834.38
387.813	880.38
388.038	819.38
388.263	832.38
388.488	820.38
388.713	853.38
388.938	834.38
389.163	839.38
389.387	809.38
389.612	815.38
389.837	831.38
390.062	850.38
390.287	846.38
390.512	846.38
390.736	840.38
390.961	850.38
391.186	863.38
391.411	892.38
391.636	912.38
391.86	956.38
392.085	946.38
392.31	928.38
392.534	918.38
392.759	892.38
392.984	886.38
393.208	918.38
393.433	897.38
393.658	910.38
393.882	888.38
394.107	882.38
394.331	910.38
394.556	934.38
394.78	904.38
395.005	901.38
395.229	882.38
395.454	930.38
395.678	921.38
395.903	932.38
396.127	927.38
396.352	910.38
396.576	898.38
396.801	924.38
397.025	895.38
397.249	942.38
397.474	967.38
397.698	970.38
397.922	964.38
398.147	1000.38
398.371	1007.38
398.595	1013.38
398.82	1058.38
399.044	1119.38
399.268	1223.38
399.492	1304.38
399.717	1428.38
399.941	1418.38
400.165	1333.38
400.389	1254.38
400.613	1172.38
400.837	1132.38
401.062	1099.38
401.286	1088.38
401.51	1070.38
401.734	1051.38
401.958	1074.38
402.182	1106.38
402.406	1087.38
402.63	1087.38
402.854	1112.38
403.078	1132.38
403.302	1141.38
403.526	1111.38
403.75	1118.38
403.974	1158.38
404.198	1110.38
404.422	1151.38
404.645	1147.38
404.869	1156.38
405.093	1166.38
405.317	1115.38
405.541	1153.38
405.765	1154.38
405.988	1157.38
406.212	1158.38
406.436	1159.38
406.66	1179.38
406.883	1189.38
407.107	1262.38
407.331	1282.38
407.555	1330.38
407.778	1317.38
408.002	1326.38
408.226	1302.38
408.449	1301.38
408.673	1238.38
408.896	1217.38
409.12	1203.38
409.344	1215.38
409.567	1160.38
409.791	1145.38
410.014	1180.38
410.238	1154.38
410.461	1176.38
410.685	1123.38
410.908	1150.38
411.132	1132.38
411.355	1095.38
411.578	1113.38
411.802	1124.38
412.025	1130.38
412.249	1125.38
412.472	1138.38
412.695	1098.38
412.919	1068.38
413.142	1088.38
413.365	1074.38
413.589	1109.38
413.812	1062.38
414.035	1088.38
414.258	1081.38
414.482	1079.38
414.705	1060.38
414.928	1083.38
415.151	1095.38
415.374	1093.38
415.597	1055.38
415.821	1067.38
416.044	1054.38
416.267	1062.38
416.49	1042.38
416.713	1023.38
416.936	1023.38
417.159	1054.38
417.382	1070.38
417.605	1049.38
417.828	1070.38
418.051	1062.38
418.274	1034.38
418.497	1055.38
418.72	1062.38
418.943	1092.38
419.166	1142.38
419.389	1193.38
419.611	1194.38
419.834	1143.38
420.057	1126.38
420.28	1068.38
420.503	1030.38
420.726	1059.38
420.948	1034.38
421.171	1049.38
421.394	1059.38
421.617	1057.38
421.839	1038.38
422.062	1082.38
422.285	1048.38
422.507	1104.38
422.73	1059.38
422.953	1094.38
423.175	1076.38
423.398	1099.38
423.621	1074.38
423.843	1053.38
424.066	1127.38
424.288	1103.38
424.511	1084.38
424.733	1096.38
424.956	1094.38
425.178	1060.38
425.401	1079.38
425.623	1064.38
425.846	1029.38
426.068	1050.38
426.291	1028.38
426.513	1058.38
426.735	1063.38
426.958	1011.38
427.18	1022.38
427.402	1023.38
427.625	996.38
427.847	981.38
428.069	978.38
428.292	1010.38
428.514	991.38
428.736	960.38
428.958	990.38
429.181	968.38
429.403	936.38
429.625	986.38
429.847	984.38
430.069	968.38
430.292	998.38
430.514	964.38
430.736	955.38
430.958	990.38
431.18	967.38
431.402	983.38
431.624	951.38
431.846	967.38
432.068	998.38
432.29	989.38
432.512	989.38
432.734	986.38
432.956	949.38
433.178	1022.38
433.4	1002.38
433.622	1042.38
433.844	1027.38
434.066	1001.38
434.287	1026.38
434.509	1047.38
434.731	1067.38
434.953	1048.38
435.175	1091.38
435.397	1078.38
435.618	1068.38
435.84	1008.38
436.062	998.38
436.284	976.38
436.505	982.38
436.727	1018.38
436.949	1018.38
437.17	968.38
437.392	948.38
437.614	971.38
437.835	921.38
438.057	964.38
438.278	942.38
438.5	971.38
438.721	971.38
438.943	964.38
439.165	950.38
439.386	984.38
439.608	1001.38
439.829	990.38
440.05	1003.38
440.272	1011.38
440.493	1023.38
440.715	1027.38
440.936	1024.38
441.158	1004.38
441.379	1070.38
441.6	1085.38
441.822	1124.38
442.043	1074.38
442.264	1070.38
442.486	1075.38
442.707	1062.38
442.928	1083.38
443.149	1068.38
443.371	1061.38
443.592	1120.38
443.813	1113.38
444.034	1125.38
444.255	1144.38
444.476	1166.38
444.698	1218.38
444.919	1232.38
445.14	1307.38
445.361	1218.38
445.582	1161.38
445.803	1098.38
446.024	1058.38
446.245	1071.38
446.466	1043.38
446.687	1003.38
446.908	1030.38
447.129	972.38
447.35	940.38
447.571	968.38
447.792	947.38
448.013	962.38
448.234	935.38
448.455	908.38
448.675	916.38
448.896	922.38
449.117	889.38
449.338	904.38
449.559	891.38
449.779	925.38
450	890.38
450.221	936.38
450.442	915.38
450.662	900.38
450.883	932.38
451.104	956.38
451.324	915.38
451.545	915.38
451.766	944.38
451.986	905.38
452.207	874.38
452.428	904.38
452.648	911.38
452.869	876.38
453.089	874.38
453.31	869.38
453.53	854.38
453.751	846.38
453.971	898.38
454.192	846.38
454.412	864.38
454.633	870.38
454.853	883.38
455.073	873.38
455.294	848.38
455.514	887.38
455.734	852.38
455.955	851.38
456.175	843.38
456.395	862.38
456.616	883.38
456.836	852.38
457.056	878.38
457.276	852.38
457.497	845.38
457.717	854.38
457.937	846.38
458.157	896.38
458.377	906.38
458.598	908.38
458.818	901.38
459.038	946.38
459.258	967.38
459.478	984.38
459.698	1042.38
459.918	1084.38
460.138	1097.38
460.358	1090.38
460.578	1133.38
460.798	1162.38
461.018	1179.38
461.238	1148.38
461.458	1148.38
461.678	1153.38
461.898	1172.38
462.118	1211.38
462.338	1259.38
462.558	1225.38
462.777	1292.38
462.997	1368.38
463.217	1405.38
463.437	1460.38
463.657	1371.38
463.876	1318.38
464.096	1304.38
464.316	1305.38
464.536	1284.38
464.755	1260.38
464.975	1208.38
465.195	1170.38
465.414	1114.38
465.634	1075.38
465.854	1046.38
466.073	1030.38
466.293	993.38
466.512	977.38
466.732	952.38
466.951	978.38
467.171	951.38
467.391	940.38
467.61	958.38
467.829	941.38
468.049	952.38
468.268	926.38
468.488	926.38
468.707	909.38
468.927	934.38
469.146	939.38
469.365	956.38
469.585	943.38
469.804	982.38
470.023	958.38
470.243	958.38
470.462	971.38
470.681	976.38
470.901	1003.38
471.12	984.38
471.339	955.38
471.558	982.38
471.777	984.38
471.997	946.38
472.216	912.38
472.435	900.38
472.654	896.38
472.873	913.38
473.092	900.38
473.311	901.38
473.53	896.38
473.749	873.38
473.968	900.38
474.187	910.38
474.406	900.38
474.625	893.38
474.844	917.38
475.063	918.38
475.282	908.38
475.501	916.38
475.72	950.38
475.939	942.38
476.158	921.38
476.377	943.38
476.596	922.38
476.814	953.38
477.033	968.38
477.252	961.38
477.471	993.38
477.69	1007.38
477.908	1036.38
478.127	1044.38
478.346	1086.38
478.564	1104.38
478.783	1109.38
479.002	1122.38
479.22	1134.38
479.439	1144.38
479.658	1119.38
479.876	1122.38
480.095	1116.38
480.313	1146.38
480.532	1199.38
480.751	1166.38
480.969	1128.38
481.188	1086.38
481.406	1063.38
481.624	1052.38
481.843	1048.38
482.061	1027.38
482.28	1016.38
482.498	1034.38
482.717	1010.38
482.935	994.38
483.153	1069.38
483.372	1078.38
483.59	1066.38
483.808	1071.38
484.027	1033.38
484.245	1035.38
484.463	1031.38
484.681	1076.38
484.9	1074.38
485.118	1075.38
485.336	1079.38
485.554	1068.38
485.772	1048.38
485.99	1055.38
486.209	1050.38
486.427	1061.38
486.645	1082.38
486.863	1102.38
487.081	1081.38
487.299	1077.38
487.517	1068.38
487.735	1103.38
487.953	1118.38
488.171	1088.38
488.389	1096.38
488.607	1049.38
488.825	1064.38
489.043	1078.38
489.261	1063.38
489.479	1084.38
489.696	1085.38
489.914	1060.38
490.132	1106.38
490.35	1086.38
490.568	1120.38
490.786	1128.38
491.003	1097.38
491.221	1110.38
491.439	1108.38
491.657	1117.38
491.874	1155.38
492.092	1118.38
492.31	1180.38
492.527	1151.38
492.745	1145.38
492.963	1150.38
493.18	1144.38
493.398	1158.38
493.615	1138.38
493.833	1174.38
494.05	1157.38
494.268	1174.38
494.485	1154.38
494.703	1170.38
494.92	1179.38
495.138	1178.38
495.355	1192.38
495.573	1177.38
495.79	1187.38
496.008	1179.38
496.225	1219.38
496.442	1226.38
496.66	1247.38
496.877	1244.38
497.094	1279.38
497.312	1313.38
497.529	1304.38
497.746	1353.38
497.963	1360.38
498.181	1461.38
498.398	1500.38
498.615	1587.38
498.832	1654.38
499.049	1755.38
499.267	1878.38
499.484	2006.38
499.701	2218.38
499.918	2387.38
500.135	2582.38
500.352	2816.38
500.569	2869.38
500.786	2840.38
501.003	2730.38
501.22	2569.38
501.437	2348.38
501.654	2086.38
501.871	1951.38
502.088	1823.38
502.305	1752.38
502.522	1642.38
502.739	1596.38
502.956	1523.38
503.172	1464.38
503.389	1386.38
503.606	1350.38
503.823	1322.38
504.04	1357.38
504.256	1343.38
504.473	1338.38
504.69	1326.38
504.907	1325.38
505.123	1249.38
505.34	1214.38
505.557	1153.38
505.773	1155.38
505.99	1135.38
506.207	1101.38
506.423	1086.38
506.64	1091.38
506.856	1040.38
507.073	1038.38
507.289	1052.38
507.506	1021.38
507.722	1007.38
507.939	1003.38
508.155	1015.38
508.372	1018.38
508.588	978.38
508.805	976.38
509.021	977.38
509.238	970.38
509.454	972.38
509.67	958.38
509.887	946.38
510.103	952.38
510.319	946.38
510.536	944.38
510.752	955.38
510.968	954.38
511.184	936.38
511.401	956.38
511.617	923.38
511.833	923.38
512.049	930.38
512.265	949.38
512.481	919.38
512.698	931.38
512.914	932.38
513.13	942.38
513.346	931.38
513.562	907.38
513.778	943.38
513.994	953.38
514.21	919.38
514.426	946.38
514.642	959.38
514.858	949.38
515.074	980.38
515.29	979.38
515.506	964.38
515.721	1002.38
515.937	990.38
516.153	1023.38
516.369	1029.38
516.585	1055.38
516.801	1084.38
517.016	1126.38
517.232	1119.38
517.448	1180.38
517.664	1236.38
517.879	1234.38
518.095	1227.38
518.311	1214.38
518.527	1151.38
518.742	1108.38
518.958	1085.38
519.173	1086.38
519.389	1050.38
519.605	1011.38
519.82	993.38
520.036	981.38
520.251	967.38
520.467	961.38
520.682	940.38
520.898	920.38
521.113	942.38
521.329	894.38
521.544	904.38
521.76	906.38
521.975	906.38
522.19	900.38
522.406	874.38
522.621	880.38
522.836	877.38
523.052	866.38
523.267	868.38
523.482	861.38
523.698	895.38
523.913	854.38
524.128	850.38
524.343	881.38
524.559	875.38
524.774	858.38
524.989	885.38
525.204	875.38
525.419	861.38
525.634	870.38
525.849	861.38
526.064	822.38
526.28	854.38
526.495	818.38
526.71	838.38
526.925	807.38
527.14	830.38
527.355	802.38
527.57	822.38
527.785	810.38
527.999	831.38
528.214	830.38
528.429	832.38
528.644	841.38
528.859	848.38
529.074	855.38
529.289	866.38
529.503	830.38
529.718	842.38
529.933	838.38
530.148	810.38
530.363	806.38
530.577	796.38
530.792	823.38
531.007	841.38
531.221	848.38
531.436	825.38
531.651	816.38
531.865	829.38
532.08	816.38
532.295	839.38
532.509	826.38
532.724	846.38
532.938	831.38
533.153	810.38
533.367	818.38
533.582	824.38
533.796	836.38
534.011	813.38
534.225	822.38
534.44	818.38
534.654	803.38
534.868	807.38
535.083	831.38
535.297	812.38
535.511	797.38
535.726	820.38
535.94	792.38
536.154	830.38
536.369	803.38
536.583	758.38
536.797	769.38
537.011	780.38
537.225	780.38
537.44	791.38
537.654	746.38
537.868	799.38
538.082	748.38
538.296	754.38
538.51	767.38
538.724	779.38
538.938	790.38
539.153	754.38
539.367	755.38
539.581	731.38
539.795	773.38
540.009	751.38
540.222	762.38
540.436	733.38
540.65	748.38
540.864	772.38
541.078	768.38
541.292	758.38
541.506	772.38
541.72	766.38
541.934	787.38
542.147	813.38
542.361	778.38
542.575	776.38
542.789	778.38
543.002	720.38
543.216	748.38
543.43	731.38
543.644	772.38
543.857	762.38
544.071	744.38
544.285	782.38
544.498	779.38
544.712	763.38
544.925	771.38
545.139	798.38
545.352	770.38
545.566	779.38
545.779	763.38
545.993	767.38
546.206	778.38
546.42	760.38
546.633	785.38
546.847	749.38
547.06	762.38
547.274	788.38
547.487	779.38
547.7	770.38
547.914	800.38
548.127	796.38
548.34	790.38
548.554	779.38
548.767	768.38
548.98	786.38
549.193	805.38
549.407	808.38
549.62	800.38
549.833	823.38
550.046	792.38
550.259	804.38
550.473	776.38
550.686	768.38
550.899	760.38
551.112	775.38
551.325	766.38
551.538	744.38
551.751	764.38
551.964	778.38
552.177	762.38
552.39	768.38
552.603	779.38
552.816	806.38
553.029	805.38
553.242	810.38
553.455	831.38
553.667	806.38
553.88	822.38
554.093	802.38
554.306	775.38
554.519	781.38
554.732	770.38
554.944	744.38
555.157	731.38
555.37	720.38
555.583	720.38
555.795	702.38
556.008	695.38
556.221	706.38
556.433	700.38
556.646	666.38
556.859	674.38
557.071	675.38
557.284	663.38
557.496	667.38
557.709	665.38
557.921	652.38
558.134	666.38
558.346	665.38
558.559	640.38
558.771	637.38
558.984	660.38
559.196	637.38
559.409	657.38
559.621	643.38
559.833	634.38
560.046	627.38
560.258	638.38
560.47	663.38
560.683	640.38
560.895	637.38
561.107	646.38
561.32	636.38
561.532	639.38
561.744	642.38
561.956	624.38
562.168	658.38
562.381	675.38
562.593	663.38
562.805	635.38
563.017	642.38
563.229	649.38
563.441	650.38
563.653	653.38
563.865	653.38
564.077	654.38
564.289	675.38
564.501	683.38
564.713	669.38
564.925	685.38
565.137	690.38
565.349	711.38
565.561	752.38
565.773	771.38
565.985	785.38
566.197	788.38
566.408	850.38
566.62	907.38
566.832	929.38
567.044	960.38
567.255	950.38
567.467	987.38
567.679	1008.38
567.891	1047.38
568.102	1039.38
568.314	999.38
568.526	940.38
568.737	875.38
568.949	818.38
569.161	770.38
569.372	724.38
569.584	675.38
569.795	674.38
570.007	677.38
570.218	662.38
570.43	642.38
570.641	637.38
570.853	662.38
571.064	638.38
571.276	628.38
571.487	597.38
571.698	628.38
571.91	592.38
572.121	571.38
572.333	584.38
572.544	579.38
572.755	556.38
572.966	547.38
573.178	546.38
573.389	515.38
573.6	535.38
573.811	528.38
574.023	528.38
574.234	532.38
574.445	516.38
574.656	521.38
574.867	501.38
575.078	508.38
575.289	516.38
575.501	514.38
575.712	500.38
575.923	514.38
576.134	486.38
576.345	490.38
576.556	488.38
576.767	491.38
576.978	458.38
577.188	462.38
577.399	477.38
577.61	473.38
577.821	477.38
578.032	469.38
578.243	460.38
578.454	491.38
578.665	458.38
578.875	478.38
579.086	468.38
579.297	466.38
579.508	461.38
579.718	455.38
579.929	444.38
580.14	441.38
580.35	455.38
580.561	445.38
580.772	431.38
580.982	432.38
581.193	454.38
581.403	453.38
581.614	438.38
581.825	441.38
582.035	459.38
582.246	437.38
582.456	421.38
582.667	432.38
582.877	437.38
583.087	453.38
583.298	441.38
583.508	431.38
583.719	426.38
583.929	456.38
584.139	435.38
584.35	433.38
584.56	443.38
584.77	436.38
584.981	421.38
585.191	423.38
585.401	416.38
585.611	436.38
585.821	434.38
586.032	402.38
586.242	411.38
586.452	420.38
586.662	422.38
586.872	412.38
587.082	424.38
587.292	429.38
587.502	412.38
587.713	407.38
587.923	415.38
588.133	421.38
588.343	408.38
588.553	439.38
588.762	421.38
588.972	416.38
589.182	431.38
589.392	452.38
589.602	428.38
589.812	431.38
590.022	416.38
590.232	412.38
590.441	418.38
590.651	426.38
590.861	421.38
591.071	423.38
591.281	442.38
591.49	434.38
591.7	444.38
591.91	437.38
592.119	435.38
592.329	469.38
592.539	483.38
592.748	466.38
592.958	479.38
593.167	502.38
593.377	505.38
593.587	507.38
593.796	508.38
594.006	504.38
594.215	501.38
594.424	475.38
594.634	476.38
594.843	466.38
595.053	455.38
595.262	476.38
595.472	444.38
595.681	417.38
595.89	435.38
596.1	427.38
596.309	424.38
596.518	416.38
596.727	403.38
596.937	394.38
597.146	396.38
597.355	401.38
597.564	388.38
597.774	382.38
597.983	380.38
598.192	379.38
598.401	354.38
598.61	356.38
598.819	366.38
599.028	366.38
599.237	361.38
599.446	340.38
599.655	350.38
599.864	356.38
600.073	350.38
600.282	353.38
600.491	354.38
600.7	343.38
600.909	340.38
601.118	349.38
601.327	347.38
601.536	352.38
601.745	349.38
601.953	336.38
602.162	349.38
602.371	346.38
602.58	330.38
602.789	336.38
602.997	345.38
603.206	338.38
603.415	342.38
603.623	334.38
603.832	343.38
604.041	347.38
604.249	330.38
604.458	328.38
604.666	338.38
604.875	311.38
605.084	311.38
605.292	322.38
605.501	335.38
605.709	331.38
605.918	332.38
606.126	330.38
606.334	307.38
606.543	304.38
606.751	323.38
606.96	329.38
607.168	300.38
607.376	321.38
607.585	317.38
607.793	322.38
608.001	324.38
608.21	330.38
608.418	316.38
608.626	325.38
608.834	300.38
609.043	322.38
609.251	321.38
609.459	314.38
609.667	314.38
609.875	312.38
610.083	311.38
610.291	311.38
610.499	318.38
610.707	322.38
610.916	323.38
611.124	311.38
611.332	314.38
611.54	305.38
611.748	314.38
611.955	320.38
612.163	301.38
612.371	300.38
612.579	313.38
612.787	315.38
612.995	312.38
613.203	313.38
613.411	284.38
613.618	314.38
613.826	315.38
614.034	302.38
614.242	290.38
614.449	310.38
614.657	326.38
614.865	301.38
615.072	325.38
615.28	299.38
615.488	303.38
615.695	296.38
615.903	303.38
616.111	301.38
616.318	306.38
616.526	294.38
616.733	297.38
616.941	300.38
617.148	299.38
617.356	285.38
617.563	289.38
617.771	300.38
617.978	294.38
618.185	284.38
618.393	292.38
618.6	295.38
618.807	301.38
619.015	292.38
619.222	288.38
619.429	299.38
619.637	266.38
619.844	305.38
620.051	302.38
620.258	278.38
620.466	288.38
620.673	266.38
620.88	262.38
621.087	279.38
621.294	282.38
621.501	291.38
621.708	284.38
621.915	274.38
622.122	288.38
622.329	276.38
622.536	284.38
622.743	273.38
622.95	284.38
623.157	272.38
623.364	265.38
623.571	275.38
623.778	281.38
623.985	270.38
624.192	271.38
624.399	279.38
624.606	280.38
624.812	270.38
625.019	277.38
625.226	255.38
625.433	269.38
625.639	266.38
625.846	277.38
626.053	270.38
626.259	250.38
626.466	244.38
626.673	245.38
626.879	245.38
627.086	262.38
627.293	255.38
627.499	256.38
627.706	248.38
627.912	265.38
628.119	251.38
628.325	264.38
628.532	248.38
628.738	263.38
628.945	254.38
629.151	232.38
629.357	269.38
629.564	236.38
629.77	230.38
629.976	232.38
630.183	238.38
630.389	257.38
630.595	250.38
630.802	262.38
631.008	247.38
631.214	230.38
631.42	247.38
631.627	218.38
631.833	233.38
632.039	222.38
632.245	218.38
632.451	230.38
632.657	235.38
632.863	246.38
633.069	226.38
633.275	240.38
633.481	225.38
633.688	222.38
633.893	219.38
634.099	231.38
634.305	239.38
634.511	231.38
634.717	231.38
634.923	232.38
635.129	243.38
635.335	234.38
635.541	231.38
635.747	232.38
635.952	232.38
636.158	249.38
636.364	212.38
636.57	219.38
636.775	218.38
636.981	215.38
637.187	210.38
637.392	217.38
637.598	230.38
637.804	212.38
638.009	224.38
638.215	226.38
638.421	223.38
638.626	216.38
638.832	216.38
639.037	223.38
639.243	212.38
639.448	220.38
639.654	224.38
639.859	213.38
640.065	210.38
640.27	214.38
640.475	207.38
640.681	198.38
640.886	212.38
641.091	223.38
641.297	211.38
641.502	200.38
641.707	208.38
641.913	212.38
642.118	198.38
642.323	217.38
642.528	218.38
642.733	206.38
642.939	199.38
643.144	215.38
643.349	202.38
643.554	207.38
643.759	195.38
643.964	219.38
644.169	200.38
644.374	198.38
644.579	191.38
644.784	207.38
644.989	214.38
645.194	191.38
645.399	198.38
645.604	208.38
645.809	214.38
646.014	208.38
646.219	212.38
646.423	171.38
646.628	191.38
646.833	212.38
647.038	203.38
647.243	208.38
647.447	208.38
647.652	202.38
647.857	205.38
648.062	208.38
648.266	210.38
648.471	215.38
648.676	205.38
648.88	202.38
649.085	199.38
649.289	214.38
649.494	197.38
649.698	199.38
649.903	196.38
650.107	196.38
650.312	206.38
650.516	197.38
650.721	202.38
650.925	176.38
651.13	196.38
651.334	191.38
651.539	191.38
651.743	169.38
651.947	185.38
652.152	184.38
652.356	163.38
652.56	162.38
652.764	166.38
652.969	174.38
653.173	165.38
653.377	172.38
653.581	179.38
653.785	167.38
653.99	144.38
654.194	169.38
654.398	151.38
654.602	140.38
654.806	155.38
655.01	158.38
655.214	157.38
655.418	175.38
655.622	154.38
655.826	165.38
656.03	155.38
656.234	148.38
656.438	150.38
656.642	153.38
656.846	147.38
657.049	141.38
657.253	144.38
657.457	135.38
657.661	129.38
657.865	127.38
658.068	131.38
658.272	132.38
658.476	137.38
658.68	123.38
658.883	125.38
659.087	124.38
659.291	123.38
659.494	110.38
659.698	104.38
659.901	114.38
660.105	113.38
660.309	95.38
660.512	103.38
660.716	110.38
660.919	123.38
661.123	95.38
661.326	90.38
661.53	96.38
661.733	93.38
661.936	83.38
662.14	102.38
662.343	88.38
662.546	92.38
662.75	89.38
662.953	93.38
663.156	87.38
663.36	88.38
663.563	83.38
663.766	98.38
663.969	87.38
664.173	81.38
664.376	81.38
664.579	96.38
664.782	81.38
664.985	87.38
665.188	78.38
665.391	73.38
665.594	75.38
665.797	81.38
666	79.38
666.203	89.38
666.406	78.38
666.609	86.38
666.812	84.38
667.015	97.38
667.218	88.38
667.421	94.38
667.624	78.38
667.827	91.38
668.03	77.38
668.232	79.38
668.435	94.38
668.638	94.38
668.841	98.38
669.043	70.38
669.246	79.38
669.449	92.38
669.651	93.38
669.854	78.38
670.057	86.38
670.259	77.38
670.462	75.38
670.665	93.38
670.867	84.38
671.07	75.38
671.272	86.38
671.475	100.38
671.677	75.38
671.88	86.38
672.082	95.38
672.284	89.38
672.487	87.38
672.689	77.38
672.892	90.38
