Data from Ni(NO3)2@0.125M.TitratingCurve.Agarose3%dH2O.NegLispCup.LampEnergy10.LIBS07252019_HRD10591_18-09-30-568.txt Node
Date: Thu Jul 25 18:09:30 EDT 2019
User: cochatt
Spectrometer: HR+D1059
Trigger mode: 1
Integration Time (sec): 1.000000E-1
Scans to average: 1
Electric dark correction enabled: true
Nonlinearity correction enabled: false
Boxcar width: 0
XAxis mode: Wavelengths
Number of Pixels in Spectrum: 2048
>>>>>Begin Spectral Data<<<<<
223.165	-19.25
223.4	-19.25
223.635	-19.25
223.869	-18.25
224.104	-22.25
224.338	-18.25
224.573	-27.25
224.808	-8.25
225.042	-6.25
225.277	-7.25
225.511	-6.25
225.746	1.75
225.98	15.75
226.215	25.75
226.449	18.75
226.683	24.75
226.918	14.75
227.152	31.75
227.387	35.75
227.621	38.75
227.856	57.75
228.09	40.75
228.324	51.75
228.559	52.75
228.793	77.75
229.027	122.75
229.262	124.75
229.496	125.75
229.73	132.75
229.964	145.75
230.199	147.75
230.433	145.75
230.667	147.75
230.901	140.75
231.136	142.75
231.37	155.75
231.604	139.75
231.838	146.75
232.072	160.75
232.306	161.75
232.541	173.75
232.775	157.75
233.009	178.75
233.243	166.75
233.477	171.75
233.711	152.75
233.945	167.75
234.179	161.75
234.413	177.75
234.647	164.75
234.881	162.75
235.115	155.75
235.349	174.75
235.583	169.75
235.817	157.75
236.051	167.75
236.285	159.75
236.519	186.75
236.753	176.75
236.987	181.75
237.221	181.75
237.455	170.75
237.689	189.75
237.922	182.75
238.156	191.75
238.39	176.75
238.624	196.75
238.858	198.75
239.091	205.75
239.325	174.75
239.559	186.75
239.793	178.75
240.027	194.75
240.26	201.75
240.494	206.75
240.728	206.75
240.961	197.75
241.195	209.75
241.429	206.75
241.662	214.75
241.896	218.75
242.13	215.75
242.363	236.75
242.597	215.75
242.83	225.75
243.064	222.75
243.298	241.75
243.531	240.75
243.765	240.75
243.998	261.75
244.232	229.75
244.465	256.75
244.699	240.75
244.932	258.75
245.166	254.75
245.399	240.75
245.633	259.75
245.866	257.75
246.099	271.75
246.333	257.75
246.566	276.75
246.8	270.75
247.033	268.75
247.266	267.75
247.5	269.75
247.733	264.75
247.966	267.75
248.2	281.75
248.433	271.75
248.666	294.75
248.899	253.75
249.133	290.75
249.366	301.75
249.599	293.75
249.832	308.75
250.066	304.75
250.299	310.75
250.532	283.75
250.765	292.75
250.998	288.75
251.231	309.75
251.465	306.75
251.698	316.75
251.931	308.75
252.164	320.75
252.397	324.75
252.63	313.75
252.863	330.75
253.096	332.75
253.329	339.75
253.562	328.75
253.795	334.75
254.028	325.75
254.261	334.75
254.494	317.75
254.727	324.75
254.96	324.75
255.193	336.75
255.426	325.75
255.659	329.75
255.892	348.75
256.124	329.75
256.357	336.75
256.59	369.75
256.823	338.75
257.056	358.75
257.289	350.75
257.521	363.75
257.754	368.75
257.987	355.75
258.22	370.75
258.452	358.75
258.685	378.75
258.918	368.75
259.151	351.75
259.383	376.75
259.616	382.75
259.849	372.75
260.081	385.75
260.314	369.75
260.547	369.75
260.779	399.75
261.012	404.75
261.244	378.75
261.477	384.75
261.71	390.75
261.942	392.75
262.175	384.75
262.407	380.75
262.64	409.75
262.872	404.75
263.105	403.75
263.337	385.75
263.57	427.75
263.802	406.75
264.035	405.75
264.267	418.75
264.499	421.75
264.732	422.75
264.964	389.75
265.197	418.75
265.429	429.75
265.661	431.75
265.894	446.75
266.126	437.75
266.358	456.75
266.591	434.75
266.823	429.75
267.055	462.75
267.287	439.75
267.52	439.75
267.752	441.75
267.984	439.75
268.216	446.75
268.448	452.75
268.681	451.75
268.913	454.75
269.145	441.75
269.377	448.75
269.609	444.75
269.841	457.75
270.073	444.75
270.306	464.75
270.538	456.75
270.77	466.75
271.002	446.75
271.234	464.75
271.466	474.75
271.698	483.75
271.93	489.75
272.162	484.75
272.394	477.75
272.626	502.75
272.858	497.75
273.09	495.75
273.322	475.75
273.553	484.75
273.785	486.75
274.017	494.75
274.249	517.75
274.481	478.75
274.713	490.75
274.945	498.75
275.176	518.75
275.408	505.75
275.64	521.75
275.872	501.75
276.104	519.75
276.335	530.75
276.567	507.75
276.799	532.75
277.031	529.75
277.262	528.75
277.494	534.75
277.726	526.75
277.957	539.75
278.189	541.75
278.421	540.75
278.652	519.75
278.884	545.75
279.115	536.75
279.347	550.75
279.579	562.75
279.81	558.75
280.042	559.75
280.273	561.75
280.505	571.75
280.736	561.75
280.968	560.75
281.199	562.75
281.431	547.75
281.662	564.75
281.894	560.75
282.125	580.75
282.356	580.75
282.588	585.75
282.819	562.75
283.051	580.75
283.282	564.75
283.513	594.75
283.745	584.75
283.976	593.75
284.207	579.75
284.439	593.75
284.67	596.75
284.901	581.75
285.132	599.75
285.364	602.75
285.595	599.75
285.826	594.75
286.057	627.75
286.288	600.75
286.52	633.75
286.751	608.75
286.982	636.75
287.213	606.75
287.444	605.75
287.675	626.75
287.906	626.75
288.138	636.75
288.369	629.75
288.6	639.75
288.831	636.75
289.062	624.75
289.293	637.75
289.524	649.75
289.755	651.75
289.986	633.75
290.217	648.75
290.448	658.75
290.679	655.75
290.91	646.75
291.141	641.75
291.371	653.75
291.602	649.75
291.833	646.75
292.064	633.75
292.295	644.75
292.526	642.75
292.757	667.75
292.987	665.75
293.218	645.75
293.449	641.75
293.68	662.75
293.91	649.75
294.141	636.75
294.372	660.75
294.603	660.75
294.833	645.75
295.064	654.75
295.295	660.75
295.525	642.75
295.756	660.75
295.987	679.75
296.217	673.75
296.448	694.75
296.679	682.75
296.909	689.75
297.14	685.75
297.37	719.75
297.601	687.75
297.831	683.75
298.062	685.75
298.292	703.75
298.523	728.75
298.753	730.75
298.984	724.75
299.214	714.75
299.445	697.75
299.675	708.75
299.905	679.75
300.136	699.75
300.366	712.75
300.597	711.75
300.827	741.75
301.057	750.75
301.288	725.75
301.518	729.75
301.748	732.75
301.979	760.75
302.209	756.75
302.439	742.75
302.669	749.75
302.9	721.75
303.13	720.75
303.36	711.75
303.59	724.75
303.82	740.75
304.051	722.75
304.281	762.75
304.511	755.75
304.741	737.75
304.971	778.75
305.201	748.75
305.431	716.75
305.661	730.75
305.891	742.75
306.121	705.75
306.352	714.75
306.582	715.75
306.812	738.75
307.042	716.75
307.272	682.75
307.502	723.75
307.731	706.75
307.961	683.75
308.191	732.75
308.421	716.75
308.651	733.75
308.881	692.75
309.111	731.75
309.341	709.75
309.571	719.75
309.8	707.75
310.03	701.75
310.26	734.75
310.49	707.75
310.72	737.75
310.949	729.75
311.179	753.75
311.409	720.75
311.639	742.75
311.868	742.75
312.098	738.75
312.328	774.75
312.557	741.75
312.787	754.75
313.017	771.75
313.246	786.75
313.476	788.75
313.706	782.75
313.935	798.75
314.165	758.75
314.394	783.75
314.624	784.75
314.853	768.75
315.083	777.75
315.312	790.75
315.542	763.75
315.771	762.75
316.001	765.75
316.23	751.75
316.46	746.75
316.689	785.75
316.919	799.75
317.148	747.75
317.377	748.75
317.607	767.75
317.836	777.75
318.065	768.75
318.295	762.75
318.524	792.75
318.753	773.75
318.983	763.75
319.212	790.75
319.441	756.75
319.67	769.75
319.9	792.75
320.129	769.75
320.358	772.75
320.587	770.75
320.816	773.75
321.046	771.75
321.275	778.75
321.504	791.75
321.733	780.75
321.962	770.75
322.191	754.75
322.42	807.75
322.649	782.75
322.878	755.75
323.108	778.75
323.337	780.75
323.566	790.75
323.795	809.75
324.024	805.75
324.253	797.75
324.482	805.75
324.71	804.75
324.939	808.75
325.168	833.75
325.397	812.75
325.626	819.75
325.855	832.75
326.084	824.75
326.313	865.75
326.542	848.75
326.77	846.75
326.999	865.75
327.228	841.75
327.457	842.75
327.686	845.75
327.914	848.75
328.143	859.75
328.372	838.75
328.6	894.75
328.829	848.75
329.058	853.75
329.287	872.75
329.515	884.75
329.744	876.75
329.972	846.75
330.201	857.75
330.43	902.75
330.658	898.75
330.887	882.75
331.115	917.75
331.344	931.75
331.572	910.75
331.801	960.75
332.03	967.75
332.258	936.75
332.486	982.75
332.715	1050.75
332.943	1094.75
333.172	1157.75
333.4	1189.75
333.629	1201.75
333.857	1206.75
334.085	1177.75
334.314	1160.75
334.542	1100.75
334.771	1096.75
334.999	1099.75
335.227	1111.75
335.455	1090.75
335.684	1029.75
335.912	1041.75
336.14	1034.75
336.369	1066.75
336.597	1033.75
336.825	1018.75
337.053	1012.75
337.281	1038.75
337.51	974.75
337.738	1009.75
337.966	984.75
338.194	946.75
338.422	929.75
338.65	933.75
338.878	970.75
339.106	974.75
339.334	941.75
339.562	933.75
339.79	903.75
340.018	893.75
340.246	882.75
340.474	886.75
340.702	922.75
340.93	914.75
341.158	897.75
341.386	915.75
341.614	914.75
341.842	896.75
342.07	892.75
342.298	888.75
342.526	885.75
342.754	917.75
342.981	908.75
343.209	930.75
343.437	950.75
343.665	1033.75
343.893	1110.75
344.12	1156.75
344.348	1088.75
344.576	1040.75
344.804	993.75
345.031	952.75
345.259	930.75
345.487	905.75
345.714	920.75
345.942	902.75
346.17	894.75
346.397	889.75
346.625	875.75
346.853	878.75
347.08	878.75
347.308	874.75
347.535	882.75
347.763	886.75
347.99	869.75
348.218	881.75
348.445	896.75
348.673	873.75
348.9	854.75
349.128	867.75
349.355	861.75
349.583	860.75
349.81	888.75
350.037	849.75
350.265	856.75
350.492	821.75
350.72	838.75
350.947	834.75
351.174	852.75
351.402	854.75
351.629	846.75
351.856	850.75
352.083	836.75
352.311	863.75
352.538	836.75
352.765	844.75
352.992	825.75
353.22	830.75
353.447	819.75
353.674	837.75
353.901	870.75
354.128	840.75
354.355	828.75
354.583	840.75
354.81	833.75
355.037	842.75
355.264	820.75
355.491	845.75
355.718	853.75
355.945	862.75
356.172	841.75
356.399	855.75
356.626	846.75
356.853	827.75
357.08	848.75
357.307	857.75
357.534	858.75
357.761	864.75
357.988	854.75
358.215	825.75
358.441	810.75
358.668	864.75
358.895	842.75
359.122	847.75
359.349	864.75
359.576	864.75
359.802	838.75
360.029	855.75
360.256	826.75
360.483	838.75
360.709	845.75
360.936	846.75
361.163	797.75
361.39	836.75
361.616	836.75
361.843	805.75
362.07	849.75
362.296	845.75
362.523	852.75
362.749	841.75
362.976	818.75
363.203	829.75
363.429	810.75
363.656	826.75
363.882	828.75
364.109	829.75
364.335	834.75
364.562	813.75
364.788	827.75
365.015	848.75
365.241	848.75
365.468	844.75
365.694	844.75
365.92	860.75
366.147	846.75
366.373	856.75
366.599	850.75
366.826	822.75
367.052	837.75
367.278	839.75
367.505	836.75
367.731	831.75
367.957	813.75
368.184	847.75
368.41	858.75
368.636	837.75
368.862	838.75
369.089	839.75
369.315	852.75
369.541	857.75
369.767	872.75
369.993	864.75
370.219	852.75
370.445	890.75
370.672	886.75
370.898	892.75
371.124	886.75
371.35	909.75
371.576	939.75
371.802	913.75
372.028	913.75
372.254	915.75
372.48	931.75
372.706	958.75
372.932	954.75
373.158	920.75
373.384	934.75
373.61	926.75
373.835	910.75
374.061	900.75
374.287	938.75
374.513	949.75
374.739	976.75
374.965	989.75
375.191	1029.75
375.416	1007.75
375.642	965.75
375.868	981.75
376.094	951.75
376.319	948.75
376.545	954.75
376.771	934.75
376.997	924.75
377.222	945.75
377.448	904.75
377.674	892.75
377.899	905.75
378.125	903.75
378.35	890.75
378.576	899.75
378.802	894.75
379.027	891.75
379.253	904.75
379.478	895.75
379.704	895.75
379.929	901.75
380.155	887.75
380.38	940.75
380.606	931.75
380.831	897.75
381.057	919.75
381.282	903.75
381.507	920.75
381.733	929.75
381.958	923.75
382.184	924.75
382.409	926.75
382.634	933.75
382.86	961.75
383.085	982.75
383.31	968.75
383.535	1013.75
383.761	1020.75
383.986	1043.75
384.211	1066.75
384.436	1073.75
384.662	1082.75
384.887	1091.75
385.112	1115.75
385.337	1121.75
385.562	1088.75
385.787	1092.75
386.013	1136.75
386.238	1118.75
386.463	1125.75
386.688	1111.75
386.913	1102.75
387.138	1090.75
387.363	1085.75
387.588	1074.75
387.813	1074.75
388.038	1070.75
388.263	1099.75
388.488	1085.75
388.713	1076.75
388.938	1073.75
389.163	1058.75
389.387	1086.75
389.612	1056.75
389.837	1068.75
390.062	1033.75
390.287	1070.75
390.512	1060.75
390.736	1054.75
390.961	1104.75
391.186	1118.75
391.411	1132.75
391.636	1215.75
391.86	1225.75
392.085	1242.75
392.31	1222.75
392.534	1199.75
392.759	1206.75
392.984	1135.75
393.208	1163.75
393.433	1167.75
393.658	1155.75
393.882	1175.75
394.107	1185.75
394.331	1189.75
394.556	1187.75
394.78	1184.75
395.005	1204.75
395.229	1202.75
395.454	1202.75
395.678	1254.75
395.903	1258.75
396.127	1222.75
396.352	1179.75
396.576	1158.75
396.801	1167.75
397.025	1164.75
397.249	1171.75
397.474	1225.75
397.698	1212.75
397.922	1261.75
398.147	1231.75
398.371	1245.75
398.595	1270.75
398.82	1365.75
399.044	1456.75
399.268	1644.75
399.492	1869.75
399.717	2188.75
399.941	2144.75
400.165	1878.75
400.389	1700.75
400.613	1548.75
400.837	1472.75
401.062	1425.75
401.286	1372.75
401.51	1368.75
401.734	1358.75
401.958	1394.75
402.182	1420.75
402.406	1451.75
402.63	1428.75
402.854	1461.75
403.078	1526.75
403.302	1555.75
403.526	1556.75
403.75	1585.75
403.974	1655.75
404.198	1624.75
404.422	1670.75
404.645	1632.75
404.869	1599.75
405.093	1607.75
405.317	1544.75
405.541	1573.75
405.765	1536.75
405.988	1482.75
406.212	1521.75
406.436	1480.75
406.66	1576.75
406.883	1597.75
407.107	1650.75
407.331	1745.75
407.555	1845.75
407.778	1827.75
408.002	1757.75
408.226	1680.75
408.449	1648.75
408.673	1611.75
408.896	1580.75
409.12	1537.75
409.344	1584.75
409.567	1595.75
409.791	1610.75
410.014	1573.75
410.238	1545.75
410.461	1529.75
410.685	1521.75
410.908	1512.75
411.132	1478.75
411.355	1470.75
411.578	1449.75
411.802	1441.75
412.025	1447.75
412.249	1482.75
412.472	1458.75
412.695	1418.75
412.919	1376.75
413.142	1365.75
413.365	1385.75
413.589	1386.75
413.812	1373.75
414.035	1325.75
414.258	1376.75
414.482	1414.75
414.705	1434.75
414.928	1380.75
415.151	1418.75
415.374	1380.75
415.597	1410.75
415.821	1380.75
416.044	1325.75
416.267	1345.75
416.49	1361.75
416.713	1347.75
416.936	1394.75
417.159	1388.75
417.382	1393.75
417.605	1346.75
417.828	1405.75
418.051	1381.75
418.274	1361.75
418.497	1378.75
418.72	1409.75
418.943	1416.75
419.166	1506.75
419.389	1594.75
419.611	1540.75
419.834	1467.75
420.057	1446.75
420.28	1408.75
420.503	1358.75
420.726	1365.75
420.948	1345.75
421.171	1381.75
421.394	1383.75
421.617	1350.75
421.839	1419.75
422.062	1389.75
422.285	1383.75
422.507	1449.75
422.73	1422.75
422.953	1426.75
423.175	1464.75
423.398	1486.75
423.621	1485.75
423.843	1493.75
424.066	1495.75
424.288	1451.75
424.511	1445.75
424.733	1431.75
424.956	1386.75
425.178	1420.75
425.401	1369.75
425.623	1380.75
425.846	1323.75
426.068	1310.75
426.291	1340.75
426.513	1320.75
426.735	1281.75
426.958	1284.75
427.18	1250.75
427.402	1240.75
427.625	1232.75
427.847	1228.75
428.069	1200.75
428.292	1219.75
428.514	1226.75
428.736	1210.75
428.958	1256.75
429.181	1200.75
429.403	1162.75
429.625	1162.75
429.847	1180.75
430.069	1167.75
430.292	1196.75
430.514	1189.75
430.736	1191.75
430.958	1200.75
431.18	1183.75
431.402	1189.75
431.624	1188.75
431.846	1225.75
432.068	1228.75
432.29	1204.75
432.512	1203.75
432.734	1216.75
432.956	1243.75
433.178	1208.75
433.4	1205.75
433.622	1194.75
433.844	1210.75
434.066	1256.75
434.287	1264.75
434.509	1288.75
434.731	1365.75
434.953	1410.75
435.175	1404.75
435.397	1387.75
435.618	1297.75
435.84	1260.75
436.062	1249.75
436.284	1245.75
436.505	1181.75
436.727	1205.75
436.949	1237.75
437.17	1210.75
437.392	1190.75
437.614	1186.75
437.835	1168.75
438.057	1161.75
438.278	1156.75
438.5	1158.75
438.721	1162.75
438.943	1202.75
439.165	1164.75
439.386	1163.75
439.608	1203.75
439.829	1242.75
440.05	1241.75
440.272	1234.75
440.493	1204.75
440.715	1256.75
440.936	1266.75
441.158	1320.75
441.379	1351.75
441.6	1389.75
441.822	1410.75
442.043	1428.75
442.264	1366.75
442.486	1357.75
442.707	1347.75
442.928	1356.75
443.149	1352.75
443.371	1355.75
443.592	1370.75
443.813	1389.75
444.034	1378.75
444.255	1446.75
444.476	1530.75
444.698	1603.75
444.919	1708.75
445.14	1771.75
445.361	1547.75
445.582	1432.75
445.803	1341.75
446.024	1305.75
446.245	1268.75
446.466	1251.75
446.687	1212.75
446.908	1229.75
447.129	1180.75
447.35	1185.75
447.571	1191.75
447.792	1160.75
448.013	1177.75
448.234	1145.75
448.455	1137.75
448.675	1135.75
448.896	1122.75
449.117	1090.75
449.338	1095.75
449.559	1107.75
449.779	1081.75
450	1110.75
450.221	1109.75
450.442	1125.75
450.662	1112.75
450.883	1152.75
451.104	1146.75
451.324	1143.75
451.545	1116.75
451.766	1114.75
451.986	1129.75
452.207	1120.75
452.428	1108.75
452.648	1124.75
452.869	1100.75
453.089	1102.75
453.31	1084.75
453.53	1082.75
453.751	1073.75
453.971	1084.75
454.192	1074.75
454.412	1048.75
454.633	1050.75
454.853	1061.75
455.073	1038.75
455.294	1065.75
455.514	1067.75
455.734	1065.75
455.955	1001.75
456.175	1007.75
456.395	1008.75
456.616	1009.75
456.836	1032.75
457.056	1032.75
457.276	1036.75
457.497	1019.75
457.717	1034.75
457.937	1023.75
458.157	1029.75
458.377	1082.75
458.598	1080.75
458.818	1142.75
459.038	1146.75
459.258	1177.75
459.478	1216.75
459.698	1264.75
459.918	1264.75
460.138	1369.75
460.358	1452.75
460.578	1488.75
460.798	1471.75
461.018	1471.75
461.238	1449.75
461.458	1440.75
461.678	1406.75
461.898	1448.75
462.118	1474.75
462.338	1574.75
462.558	1633.75
462.777	1653.75
462.997	1801.75
463.217	1997.75
463.437	2003.75
463.657	1808.75
463.876	1673.75
464.096	1710.75
464.316	1704.75
464.536	1696.75
464.755	1623.75
464.975	1577.75
465.195	1502.75
465.414	1427.75
465.634	1336.75
465.854	1279.75
466.073	1268.75
466.293	1241.75
466.512	1210.75
466.732	1174.75
466.951	1172.75
467.171	1166.75
467.391	1187.75
467.61	1195.75
467.829	1150.75
468.049	1153.75
468.268	1120.75
468.488	1105.75
468.707	1094.75
468.927	1148.75
469.146	1152.75
469.365	1106.75
469.585	1124.75
469.804	1165.75
470.023	1166.75
470.243	1189.75
470.462	1218.75
470.681	1192.75
470.901	1221.75
471.12	1187.75
471.339	1178.75
471.558	1145.75
471.777	1132.75
471.997	1104.75
472.216	1120.75
472.435	1100.75
472.654	1104.75
472.873	1049.75
473.092	1080.75
473.311	1067.75
473.53	1073.75
473.749	1074.75
473.968	1076.75
474.187	1062.75
474.406	1078.75
474.625	1091.75
474.844	1071.75
475.063	1083.75
475.282	1092.75
475.501	1099.75
475.72	1114.75
475.939	1100.75
476.158	1106.75
476.377	1120.75
476.596	1137.75
476.814	1172.75
477.033	1118.75
477.252	1173.75
477.471	1183.75
477.69	1215.75
477.908	1260.75
478.127	1297.75
478.346	1315.75
478.564	1300.75
478.783	1345.75
479.002	1399.75
479.22	1363.75
479.439	1348.75
479.658	1338.75
479.876	1340.75
480.095	1387.75
480.313	1464.75
480.532	1487.75
480.751	1453.75
480.969	1400.75
481.188	1343.75
481.406	1319.75
481.624	1318.75
481.843	1243.75
482.061	1234.75
482.28	1240.75
482.498	1221.75
482.717	1251.75
482.935	1227.75
483.153	1239.75
483.372	1238.75
483.59	1248.75
483.808	1245.75
484.027	1216.75
484.245	1266.75
484.463	1254.75
484.681	1254.75
484.9	1299.75
485.118	1298.75
485.336	1293.75
485.554	1270.75
485.772	1298.75
485.99	1310.75
486.209	1337.75
486.427	1328.75
486.645	1293.75
486.863	1305.75
487.081	1315.75
487.299	1275.75
487.517	1293.75
487.735	1291.75
487.953	1322.75
488.171	1314.75
488.389	1303.75
488.607	1261.75
488.825	1261.75
489.043	1264.75
489.261	1244.75
489.479	1291.75
489.696	1294.75
489.914	1258.75
490.132	1293.75
490.35	1300.75
490.568	1302.75
490.786	1290.75
491.003	1322.75
491.221	1277.75
491.439	1316.75
491.657	1302.75
491.874	1314.75
492.092	1332.75
492.31	1306.75
492.527	1288.75
492.745	1339.75
492.963	1344.75
493.18	1371.75
493.398	1364.75
493.615	1357.75
493.833	1381.75
494.05	1353.75
494.268	1400.75
494.485	1380.75
494.703	1353.75
494.92	1378.75
495.138	1363.75
495.355	1374.75
495.573	1365.75
495.79	1371.75
496.008	1392.75
496.225	1366.75
496.442	1427.75
496.66	1438.75
496.877	1440.75
497.094	1440.75
497.312	1531.75
497.529	1553.75
497.746	1558.75
497.963	1631.75
498.181	1659.75
498.398	1746.75
498.615	1833.75
498.832	1994.75
499.049	2187.75
499.267	2352.75
499.484	2615.75
499.701	2891.75
499.918	3238.75
500.135	3699.75
500.352	4302.75
500.569	4535.75
500.786	4445.75
501.003	4133.75
501.22	3561.75
501.437	3108.75
501.654	2704.75
501.871	2461.75
502.088	2297.75
502.305	2100.75
502.522	2012.75
502.739	1894.75
502.956	1840.75
503.172	1710.75
503.389	1629.75
503.606	1606.75
503.823	1561.75
504.04	1556.75
504.256	1573.75
504.473	1646.75
504.69	1706.75
504.907	1698.75
505.123	1530.75
505.34	1491.75
505.557	1385.75
505.773	1297.75
505.99	1347.75
506.207	1276.75
506.423	1295.75
506.64	1252.75
506.856	1254.75
507.073	1253.75
507.289	1234.75
507.506	1200.75
507.722	1205.75
507.939	1163.75
508.155	1173.75
508.372	1164.75
508.588	1153.75
508.805	1165.75
509.021	1140.75
509.238	1139.75
509.454	1125.75
509.67	1129.75
509.887	1127.75
510.103	1115.75
510.319	1095.75
510.536	1102.75
510.752	1120.75
510.968	1082.75
511.184	1116.75
511.401	1112.75
511.617	1085.75
511.833	1094.75
512.049	1102.75
512.265	1062.75
512.481	1093.75
512.698	1062.75
512.914	1110.75
513.13	1072.75
513.346	1080.75
513.562	1077.75
513.778	1086.75
513.994	1121.75
514.21	1096.75
514.426	1114.75
514.642	1129.75
514.858	1116.75
515.074	1142.75
515.29	1152.75
515.506	1150.75
515.721	1168.75
515.937	1191.75
516.153	1211.75
516.369	1257.75
516.585	1272.75
516.801	1306.75
517.016	1386.75
517.232	1460.75
517.448	1542.75
517.664	1620.75
517.879	1603.75
518.095	1628.75
518.311	1540.75
518.527	1475.75
518.742	1433.75
518.958	1376.75
519.173	1295.75
519.389	1257.75
519.605	1220.75
519.82	1187.75
520.036	1182.75
520.251	1141.75
520.467	1117.75
520.682	1119.75
520.898	1104.75
521.113	1117.75
521.329	1085.75
521.544	1103.75
521.76	1081.75
521.975	1059.75
522.19	1072.75
522.406	1059.75
522.621	1036.75
522.836	1062.75
523.052	1028.75
523.267	1025.75
523.482	1001.75
523.698	1013.75
523.913	1012.75
524.128	1024.75
524.343	1002.75
524.559	1024.75
524.774	988.75
524.989	989.75
525.204	996.75
525.419	1011.75
525.634	1008.75
525.849	990.75
526.064	1020.75
526.28	1011.75
526.495	991.75
526.71	998.75
526.925	1000.75
527.14	970.75
527.355	1003.75
527.57	986.75
527.785	994.75
527.999	977.75
528.214	986.75
528.429	1000.75
528.644	980.75
528.859	1003.75
529.074	988.75
529.289	1013.75
529.503	988.75
529.718	990.75
529.933	1001.75
530.148	998.75
530.363	995.75
530.577	988.75
530.792	997.75
531.007	985.75
531.221	1010.75
531.436	996.75
531.651	994.75
531.865	1009.75
532.08	1014.75
532.295	1004.75
532.509	999.75
532.724	979.75
532.938	992.75
533.153	988.75
533.367	997.75
533.582	1033.75
533.796	978.75
534.011	1006.75
534.225	985.75
534.44	956.75
534.654	964.75
534.868	950.75
535.083	980.75
535.297	994.75
535.511	938.75
535.726	980.75
535.94	967.75
536.154	945.75
536.369	916.75
536.583	906.75
536.797	893.75
537.011	936.75
537.225	932.75
537.44	916.75
537.654	925.75
537.868	924.75
538.082	897.75
538.296	906.75
538.51	897.75
538.724	938.75
538.938	895.75
539.153	893.75
539.367	882.75
539.581	883.75
539.795	862.75
540.009	884.75
540.222	868.75
540.436	880.75
540.65	840.75
540.864	894.75
541.078	887.75
541.292	877.75
541.506	881.75
541.72	896.75
541.934	884.75
542.147	895.75
542.361	890.75
542.575	892.75
542.789	857.75
543.002	872.75
543.216	866.75
543.43	870.75
543.644	869.75
543.857	856.75
544.071	852.75
544.285	896.75
544.498	870.75
544.712	881.75
544.925	896.75
545.139	885.75
545.352	931.75
545.566	925.75
545.779	918.75
545.993	914.75
546.206	907.75
546.42	925.75
546.633	884.75
546.847	914.75
547.06	918.75
547.274	897.75
547.487	875.75
547.7	906.75
547.914	946.75
548.127	930.75
548.34	925.75
548.554	939.75
548.767	933.75
548.98	897.75
549.193	923.75
549.407	924.75
549.62	951.75
549.833	971.75
550.046	945.75
550.259	945.75
550.473	929.75
550.686	910.75
550.899	881.75
551.112	895.75
551.325	880.75
551.538	886.75
551.751	921.75
551.964	892.75
552.177	931.75
552.39	893.75
552.603	924.75
552.816	987.75
553.029	969.75
553.242	1010.75
553.455	1002.75
553.667	1002.75
553.88	1023.75
554.093	994.75
554.306	942.75
554.519	934.75
554.732	889.75
554.944	884.75
555.157	888.75
555.37	868.75
555.583	847.75
555.795	843.75
556.008	809.75
556.221	803.75
556.433	801.75
556.646	787.75
556.859	777.75
557.071	783.75
557.284	782.75
557.496	760.75
557.709	754.75
557.921	775.75
558.134	774.75
558.346	755.75
558.559	783.75
558.771	770.75
558.984	762.75
559.196	733.75
559.409	753.75
559.621	726.75
559.833	744.75
560.046	734.75
560.258	754.75
560.47	730.75
560.683	736.75
560.895	708.75
561.107	730.75
561.32	732.75
561.532	731.75
561.744	759.75
561.956	741.75
562.168	744.75
562.381	731.75
562.593	741.75
562.805	739.75
563.017	742.75
563.229	724.75
563.441	738.75
563.653	752.75
563.865	776.75
564.077	785.75
564.289	776.75
564.501	791.75
564.713	781.75
564.925	826.75
565.137	816.75
565.349	822.75
565.561	852.75
565.773	870.75
565.985	900.75
566.197	966.75
566.408	1059.75
566.62	1162.75
566.832	1262.75
567.044	1260.75
567.255	1244.75
567.467	1287.75
567.679	1401.75
567.891	1518.75
568.102	1578.75
568.314	1469.75
568.526	1294.75
568.737	1156.75
568.949	1083.75
569.161	971.75
569.372	905.75
569.584	841.75
569.795	808.75
570.007	785.75
570.218	757.75
570.43	755.75
570.641	780.75
570.853	763.75
571.064	778.75
571.276	778.75
571.487	736.75
571.698	738.75
571.91	706.75
572.121	680.75
572.333	680.75
572.544	668.75
572.755	633.75
572.966	633.75
573.178	654.75
573.389	617.75
573.6	621.75
573.811	626.75
574.023	618.75
574.234	608.75
574.445	614.75
574.656	625.75
574.867	633.75
575.078	613.75
575.289	600.75
575.501	582.75
575.712	566.75
575.923	594.75
576.134	588.75
576.345	584.75
576.556	568.75
576.767	586.75
576.978	570.75
577.188	558.75
577.399	578.75
577.61	581.75
577.821	549.75
578.032	567.75
578.243	552.75
578.454	563.75
578.665	549.75
578.875	553.75
579.086	547.75
579.297	531.75
579.508	518.75
579.718	528.75
579.929	538.75
580.14	536.75
580.35	514.75
580.561	487.75
580.772	523.75
580.982	504.75
581.193	512.75
581.403	504.75
581.614	515.75
581.825	523.75
582.035	516.75
582.246	503.75
582.456	509.75
582.667	538.75
582.877	502.75
583.087	517.75
583.298	528.75
583.508	494.75
583.719	504.75
583.929	526.75
584.139	500.75
584.35	480.75
584.56	485.75
584.77	496.75
584.981	498.75
585.191	484.75
585.401	504.75
585.611	492.75
585.821	459.75
586.032	509.75
586.242	497.75
586.452	483.75
586.662	483.75
586.872	480.75
587.082	490.75
587.292	504.75
587.502	478.75
587.713	486.75
587.923	488.75
588.133	476.75
588.343	489.75
588.553	474.75
588.762	480.75
588.972	484.75
589.182	473.75
589.392	501.75
589.602	466.75
589.812	483.75
590.022	488.75
590.232	489.75
590.441	483.75
590.651	491.75
590.861	480.75
591.071	491.75
591.281	492.75
591.49	524.75
591.7	518.75
591.91	551.75
592.119	510.75
592.329	536.75
592.539	549.75
592.748	554.75
592.958	578.75
593.167	605.75
593.377	615.75
593.587	651.75
593.796	654.75
594.006	598.75
594.215	681.75
594.424	666.75
594.634	635.75
594.843	595.75
595.053	572.75
595.262	549.75
595.472	533.75
595.681	504.75
595.89	491.75
596.1	494.75
596.309	487.75
596.518	491.75
596.727	450.75
596.937	464.75
597.146	439.75
597.355	445.75
597.564	448.75
597.774	457.75
597.983	450.75
598.192	398.75
598.401	426.75
598.61	439.75
598.819	424.75
599.028	424.75
599.237	393.75
599.446	424.75
599.655	402.75
599.864	408.75
600.073	411.75
600.282	412.75
600.491	412.75
600.7	395.75
600.909	407.75
601.118	413.75
601.327	393.75
601.536	386.75
601.745	398.75
601.953	409.75
602.162	399.75
602.371	377.75
602.58	404.75
602.789	381.75
602.997	401.75
603.206	384.75
603.415	381.75
603.623	402.75
603.832	400.75
604.041	388.75
604.249	384.75
604.458	396.75
604.666	378.75
604.875	367.75
605.084	384.75
605.292	357.75
605.501	365.75
605.709	381.75
605.918	344.75
606.126	376.75
606.334	362.75
606.543	369.75
606.751	374.75
606.96	377.75
607.168	399.75
607.376	378.75
607.585	360.75
607.793	375.75
608.001	354.75
608.21	343.75
608.418	339.75
608.626	360.75
608.834	377.75
609.043	356.75
609.251	368.75
609.459	365.75
609.667	370.75
609.875	346.75
610.083	355.75
610.291	355.75
610.499	335.75
610.707	376.75
610.916	365.75
611.124	370.75
611.332	354.75
611.54	371.75
611.748	360.75
611.955	355.75
612.163	346.75
612.371	356.75
612.579	344.75
612.787	348.75
612.995	350.75
613.203	352.75
613.411	333.75
613.618	344.75
613.826	340.75
614.034	349.75
614.242	330.75
614.449	339.75
614.657	335.75
614.865	344.75
615.072	364.75
615.28	335.75
615.488	329.75
615.695	360.75
615.903	352.75
616.111	361.75
616.318	356.75
616.526	373.75
616.733	377.75
616.941	354.75
617.148	355.75
617.356	354.75
617.563	362.75
617.771	357.75
617.978	358.75
618.185	355.75
618.393	361.75
618.6	355.75
618.807	336.75
619.015	345.75
619.222	342.75
619.429	350.75
619.637	349.75
619.844	352.75
620.051	355.75
620.258	339.75
620.466	310.75
620.673	316.75
620.88	303.75
621.087	312.75
621.294	316.75
621.501	311.75
621.708	318.75
621.915	330.75
622.122	334.75
622.329	310.75
622.536	307.75
622.743	320.75
622.95	333.75
623.157	300.75
623.364	318.75
623.571	309.75
623.778	320.75
623.985	326.75
624.192	305.75
624.399	299.75
624.606	314.75
624.812	292.75
625.019	288.75
625.226	313.75
625.433	289.75
625.639	314.75
625.846	304.75
626.053	278.75
626.259	296.75
626.466	306.75
626.673	269.75
626.879	301.75
627.086	305.75
627.293	285.75
627.499	282.75
627.706	289.75
627.912	264.75
628.119	292.75
628.325	297.75
628.532	276.75
628.738	271.75
628.945	281.75
629.151	282.75
629.357	271.75
629.564	288.75
629.77	289.75
629.976	287.75
630.183	269.75
630.389	278.75
630.595	254.75
630.802	261.75
631.008	264.75
631.214	268.75
631.42	274.75
631.627	274.75
631.833	250.75
632.039	250.75
632.245	264.75
632.451	266.75
632.657	244.75
632.863	245.75
633.069	259.75
633.275	262.75
633.481	257.75
633.688	261.75
633.893	264.75
634.099	258.75
634.305	235.75
634.511	265.75
634.717	258.75
634.923	261.75
635.129	254.75
635.335	247.75
635.541	251.75
635.747	259.75
635.952	228.75
636.158	260.75
636.364	252.75
636.57	246.75
636.775	250.75
636.981	248.75
637.187	244.75
637.392	244.75
637.598	251.75
637.804	259.75
638.009	244.75
638.215	249.75
638.421	219.75
638.626	242.75
638.832	244.75
639.037	233.75
639.243	232.75
639.448	241.75
639.654	244.75
639.859	227.75
640.065	219.75
640.27	227.75
640.475	245.75
640.681	225.75
640.886	225.75
641.091	228.75
641.297	227.75
641.502	200.75
641.707	212.75
641.913	220.75
642.118	216.75
642.323	214.75
642.528	248.75
642.733	213.75
642.939	214.75
643.144	231.75
643.349	218.75
643.554	222.75
643.759	227.75
643.964	215.75
644.169	230.75
644.374	221.75
644.579	219.75
644.784	217.75
644.989	213.75
645.194	206.75
645.399	225.75
645.604	230.75
645.809	219.75
646.014	221.75
646.219	246.75
646.423	216.75
646.628	213.75
646.833	215.75
647.038	220.75
647.243	217.75
647.447	217.75
647.652	218.75
647.857	220.75
648.062	229.75
648.266	232.75
648.471	256.75
648.676	259.75
648.88	245.75
649.085	253.75
649.289	217.75
649.494	240.75
649.698	220.75
649.903	224.75
650.107	213.75
650.312	202.75
650.516	204.75
650.721	210.75
650.925	213.75
651.13	188.75
651.334	195.75
651.539	182.75
651.743	197.75
651.947	196.75
652.152	185.75
652.356	186.75
652.56	178.75
652.764	168.75
652.969	172.75
653.173	185.75
653.377	185.75
653.581	169.75
653.785	173.75
653.99	167.75
654.194	166.75
654.398	169.75
654.602	152.75
654.806	157.75
655.01	165.75
655.214	156.75
655.418	160.75
655.622	148.75
655.826	161.75
656.03	144.75
656.234	162.75
656.438	157.75
656.642	157.75
656.846	148.75
657.049	139.75
657.253	142.75
657.457	142.75
657.661	123.75
657.865	122.75
658.068	132.75
658.272	122.75
658.476	129.75
658.68	126.75
658.883	121.75
659.087	110.75
659.291	116.75
659.494	102.75
659.698	105.75
659.901	98.75
660.105	107.75
660.309	97.75
660.512	110.75
660.716	108.75
660.919	97.75
661.123	98.75
661.326	99.75
661.53	104.75
661.733	92.75
661.936	83.75
662.14	101.75
662.343	81.75
662.546	75.75
662.75	90.75
662.953	69.75
663.156	81.75
663.36	75.75
663.563	102.75
663.766	90.75
663.969	91.75
664.173	86.75
664.376	84.75
664.579	89.75
664.782	81.75
664.985	71.75
665.188	86.75
665.391	87.75
665.594	85.75
665.797	77.75
666	88.75
666.203	89.75
666.406	98.75
666.609	83.75
666.812	76.75
667.015	82.75
667.218	82.75
667.421	74.75
667.624	76.75
667.827	78.75
668.03	82.75
668.232	86.75
668.435	85.75
668.638	85.75
668.841	88.75
669.043	75.75
669.246	82.75
669.449	96.75
669.651	84.75
669.854	85.75
670.057	74.75
670.259	78.75
670.462	75.75
670.665	77.75
670.867	88.75
671.07	86.75
671.272	84.75
671.475	82.75
671.677	79.75
671.88	68.75
672.082	97.75
672.284	81.75
672.487	64.75
672.689	78.75
672.892	99.75
