Data from Ni(NO3)2@0.0625M.TitratingCurve.Agarose3%dH2O.NegLispCup.LampEnergy10.LIBS07252019_HRD10591_18-13-33-569.txt Node
Date: Thu Jul 25 18:13:33 EDT 2019
User: cochatt
Spectrometer: HR+D1059
Trigger mode: 1
Integration Time (sec): 1.000000E-1
Scans to average: 1
Electric dark correction enabled: true
Nonlinearity correction enabled: false
Boxcar width: 0
XAxis mode: Wavelengths
Number of Pixels in Spectrum: 2048
>>>>>Begin Spectral Data<<<<<
223.165	-21.25
223.4	-21.25
223.635	-21.25
223.869	-15.25
224.104	-6.25
224.338	-13.25
224.573	-17.25
224.808	-5.25
225.042	-9.25
225.277	-5.25
225.511	-8.25
225.746	8.75
225.98	8.75
226.215	1.75
226.449	10.75
226.683	21.75
226.918	28.75
227.152	20.75
227.387	20.75
227.621	39.75
227.856	35.75
228.09	40.75
228.324	57.75
228.559	52.75
228.793	57.75
229.027	82.75
229.262	97.75
229.496	104.75
229.73	101.75
229.964	97.75
230.199	112.75
230.433	103.75
230.667	106.75
230.901	122.75
231.136	117.75
231.37	140.75
231.604	108.75
231.838	130.75
232.072	124.75
232.306	123.75
232.541	122.75
232.775	129.75
233.009	132.75
233.243	133.75
233.477	130.75
233.711	141.75
233.945	137.75
234.179	152.75
234.413	130.75
234.647	128.75
234.881	143.75
235.115	123.75
235.349	149.75
235.583	144.75
235.817	147.75
236.051	132.75
236.285	143.75
236.519	135.75
236.753	143.75
236.987	147.75
237.221	145.75
237.455	146.75
237.689	160.75
237.922	146.75
238.156	149.75
238.39	142.75
238.624	137.75
238.858	136.75
239.091	158.75
239.325	160.75
239.559	151.75
239.793	147.75
240.027	167.75
240.26	164.75
240.494	181.75
240.728	162.75
240.961	160.75
241.195	160.75
241.429	166.75
241.662	181.75
241.896	160.75
242.13	170.75
242.363	161.75
242.597	177.75
242.83	181.75
243.064	174.75
243.298	183.75
243.531	189.75
243.765	170.75
243.998	189.75
244.232	182.75
244.465	203.75
244.699	169.75
244.932	183.75
245.166	192.75
245.399	196.75
245.633	207.75
245.866	178.75
246.099	210.75
246.333	184.75
246.566	209.75
246.8	208.75
247.033	201.75
247.266	199.75
247.5	215.75
247.733	215.75
247.966	200.75
248.2	209.75
248.433	211.75
248.666	207.75
248.899	214.75
249.133	202.75
249.366	210.75
249.599	217.75
249.832	208.75
250.066	208.75
250.299	224.75
250.532	223.75
250.765	232.75
250.998	210.75
251.231	222.75
251.465	212.75
251.698	226.75
251.931	252.75
252.164	223.75
252.397	244.75
252.63	244.75
252.863	224.75
253.096	229.75
253.329	245.75
253.562	242.75
253.795	239.75
254.028	256.75
254.261	241.75
254.494	241.75
254.727	251.75
254.96	251.75
255.193	242.75
255.426	235.75
255.659	232.75
255.892	257.75
256.124	252.75
256.357	252.75
256.59	267.75
256.823	264.75
257.056	246.75
257.289	262.75
257.521	273.75
257.754	260.75
257.987	248.75
258.22	266.75
258.452	250.75
258.685	272.75
258.918	263.75
259.151	274.75
259.383	256.75
259.616	268.75
259.849	267.75
260.081	259.75
260.314	252.75
260.547	276.75
260.779	273.75
261.012	283.75
261.244	277.75
261.477	287.75
261.71	297.75
261.942	287.75
262.175	284.75
262.407	297.75
262.64	273.75
262.872	278.75
263.105	288.75
263.337	281.75
263.57	279.75
263.802	308.75
264.035	280.75
264.267	290.75
264.499	296.75
264.732	314.75
264.964	304.75
265.197	316.75
265.429	311.75
265.661	315.75
265.894	299.75
266.126	312.75
266.358	326.75
266.591	310.75
266.823	297.75
267.055	309.75
267.287	318.75
267.52	314.75
267.752	329.75
267.984	336.75
268.216	309.75
268.448	355.75
268.681	328.75
268.913	317.75
269.145	313.75
269.377	331.75
269.609	322.75
269.841	325.75
270.073	306.75
270.306	324.75
270.538	329.75
270.77	338.75
271.002	329.75
271.234	318.75
271.466	338.75
271.698	330.75
271.93	312.75
272.162	320.75
272.394	347.75
272.626	348.75
272.858	346.75
273.09	346.75
273.322	352.75
273.553	329.75
273.785	351.75
274.017	337.75
274.249	346.75
274.481	369.75
274.713	339.75
274.945	352.75
275.176	354.75
275.408	364.75
275.64	339.75
275.872	403.75
276.104	360.75
276.335	374.75
276.567	357.75
276.799	363.75
277.031	357.75
277.262	361.75
277.494	370.75
277.726	361.75
277.957	390.75
278.189	367.75
278.421	359.75
278.652	373.75
278.884	373.75
279.115	382.75
279.347	400.75
279.579	369.75
279.81	386.75
280.042	361.75
280.273	382.75
280.505	366.75
280.736	384.75
280.968	385.75
281.199	424.75
281.431	402.75
281.662	385.75
281.894	397.75
282.125	406.75
282.356	409.75
282.588	416.75
282.819	404.75
283.051	401.75
283.282	410.75
283.513	402.75
283.745	412.75
283.976	410.75
284.207	412.75
284.439	415.75
284.67	402.75
284.901	410.75
285.132	420.75
285.364	449.75
285.595	433.75
285.826	414.75
286.057	438.75
286.288	412.75
286.52	416.75
286.751	421.75
286.982	423.75
287.213	446.75
287.444	434.75
287.675	438.75
287.906	446.75
288.138	444.75
288.369	444.75
288.6	442.75
288.831	439.75
289.062	442.75
289.293	427.75
289.524	425.75
289.755	452.75
289.986	432.75
290.217	445.75
290.448	444.75
290.679	444.75
290.91	450.75
291.141	444.75
291.371	435.75
291.602	460.75
291.833	457.75
292.064	435.75
292.295	450.75
292.526	448.75
292.757	448.75
292.987	448.75
293.218	442.75
293.449	466.75
293.68	459.75
293.91	452.75
294.141	458.75
294.372	448.75
294.603	454.75
294.833	459.75
295.064	466.75
295.295	463.75
295.525	439.75
295.756	466.75
295.987	450.75
296.217	474.75
296.448	457.75
296.679	466.75
296.909	454.75
297.14	478.75
297.37	487.75
297.601	469.75
297.831	483.75
298.062	483.75
298.292	486.75
298.523	500.75
298.753	494.75
298.984	492.75
299.214	477.75
299.445	501.75
299.675	484.75
299.905	501.75
300.136	488.75
300.366	484.75
300.597	495.75
300.827	503.75
301.057	522.75
301.288	528.75
301.518	502.75
301.748	510.75
301.979	518.75
302.209	503.75
302.439	533.75
302.669	516.75
302.9	534.75
303.13	488.75
303.36	508.75
303.59	509.75
303.82	492.75
304.051	515.75
304.281	498.75
304.511	490.75
304.741	492.75
304.971	471.75
305.201	494.75
305.431	496.75
305.661	479.75
305.891	504.75
306.121	494.75
306.352	495.75
306.582	499.75
306.812	473.75
307.042	489.75
307.272	486.75
307.502	479.75
307.731	512.75
307.961	491.75
308.191	496.75
308.421	499.75
308.651	479.75
308.881	476.75
309.111	485.75
309.341	502.75
309.571	496.75
309.8	472.75
310.03	487.75
310.26	491.75
310.49	491.75
310.72	502.75
310.949	479.75
311.179	493.75
311.409	504.75
311.639	499.75
311.868	505.75
312.098	510.75
312.328	509.75
312.557	500.75
312.787	515.75
313.017	507.75
313.246	511.75
313.476	515.75
313.706	549.75
313.935	519.75
314.165	547.75
314.394	540.75
314.624	538.75
314.853	529.75
315.083	517.75
315.312	536.75
315.542	501.75
315.771	543.75
316.001	530.75
316.23	514.75
316.46	528.75
316.689	534.75
316.919	528.75
317.148	521.75
317.377	533.75
317.607	518.75
317.836	505.75
318.065	525.75
318.295	507.75
318.524	516.75
318.753	528.75
318.983	505.75
319.212	522.75
319.441	520.75
319.67	517.75
319.9	526.75
320.129	518.75
320.358	550.75
320.587	528.75
320.816	515.75
321.046	510.75
321.275	526.75
321.504	515.75
321.733	531.75
321.962	527.75
322.191	536.75
322.42	507.75
322.649	532.75
322.878	540.75
323.108	523.75
323.337	539.75
323.566	537.75
323.795	543.75
324.024	547.75
324.253	527.75
324.482	533.75
324.71	531.75
324.939	542.75
325.168	549.75
325.397	519.75
325.626	550.75
325.855	552.75
326.084	574.75
326.313	594.75
326.542	593.75
326.77	587.75
326.999	558.75
327.228	540.75
327.457	555.75
327.686	578.75
327.914	574.75
328.143	574.75
328.372	573.75
328.6	586.75
328.829	572.75
329.058	569.75
329.287	603.75
329.515	560.75
329.744	562.75
329.972	586.75
330.201	592.75
330.43	569.75
330.658	576.75
330.887	582.75
331.115	592.75
331.344	587.75
331.572	602.75
331.801	619.75
332.03	637.75
332.258	649.75
332.486	666.75
332.715	697.75
332.943	727.75
333.172	748.75
333.4	776.75
333.629	779.75
333.857	787.75
334.085	767.75
334.314	789.75
334.542	741.75
334.771	750.75
334.999	729.75
335.227	703.75
335.455	709.75
335.684	715.75
335.912	709.75
336.14	716.75
336.369	681.75
336.597	672.75
336.825	670.75
337.053	691.75
337.281	680.75
337.51	675.75
337.738	654.75
337.966	646.75
338.194	640.75
338.422	630.75
338.65	604.75
338.878	613.75
339.106	626.75
339.334	636.75
339.562	602.75
339.79	594.75
340.018	600.75
340.246	592.75
340.474	587.75
340.702	607.75
340.93	601.75
341.158	578.75
341.386	583.75
341.614	615.75
341.842	587.75
342.07	586.75
342.298	603.75
342.526	584.75
342.754	587.75
342.981	586.75
343.209	595.75
343.437	632.75
343.665	670.75
343.893	716.75
344.12	748.75
344.348	713.75
344.576	664.75
344.804	624.75
345.031	644.75
345.259	619.75
345.487	610.75
345.714	613.75
345.942	609.75
346.17	571.75
346.397	570.75
346.625	578.75
346.853	595.75
347.08	563.75
347.308	597.75
347.535	560.75
347.763	587.75
347.99	585.75
348.218	603.75
348.445	575.75
348.673	601.75
348.9	592.75
349.128	580.75
349.355	597.75
349.583	571.75
349.81	564.75
350.037	574.75
350.265	549.75
350.492	566.75
350.72	562.75
350.947	529.75
351.174	546.75
351.402	571.75
351.629	560.75
351.856	579.75
352.083	567.75
352.311	551.75
352.538	547.75
352.765	564.75
352.992	552.75
353.22	543.75
353.447	574.75
353.674	553.75
353.901	538.75
354.128	562.75
354.355	546.75
354.583	551.75
354.81	580.75
355.037	567.75
355.264	568.75
355.491	562.75
355.718	567.75
355.945	575.75
356.172	586.75
356.399	576.75
356.626	574.75
356.853	566.75
357.08	555.75
357.307	562.75
357.534	550.75
357.761	568.75
357.988	574.75
358.215	540.75
358.441	574.75
358.668	560.75
358.895	571.75
359.122	569.75
359.349	534.75
359.576	563.75
359.802	555.75
360.029	558.75
360.256	571.75
360.483	558.75
360.709	547.75
360.936	562.75
361.163	579.75
361.39	568.75
361.616	551.75
361.843	554.75
362.07	555.75
362.296	547.75
362.523	537.75
362.749	550.75
362.976	568.75
363.203	555.75
363.429	549.75
363.656	579.75
363.882	566.75
364.109	566.75
364.335	553.75
364.562	564.75
364.788	540.75
365.015	549.75
365.241	556.75
365.468	548.75
365.694	552.75
365.92	564.75
366.147	560.75
366.373	572.75
366.599	576.75
366.826	554.75
367.052	546.75
367.278	552.75
367.505	551.75
367.731	574.75
367.957	580.75
368.184	573.75
368.41	568.75
368.636	559.75
368.862	561.75
369.089	582.75
369.315	569.75
369.541	575.75
369.767	570.75
369.993	598.75
370.219	582.75
370.445	593.75
370.672	588.75
370.898	611.75
371.124	588.75
371.35	618.75
371.576	625.75
371.802	603.75
372.028	590.75
372.254	613.75
372.48	622.75
372.706	622.75
372.932	624.75
373.158	623.75
373.384	603.75
373.61	606.75
373.835	606.75
374.061	603.75
374.287	624.75
374.513	613.75
374.739	638.75
374.965	673.75
375.191	680.75
375.416	683.75
375.642	662.75
375.868	636.75
376.094	635.75
376.319	647.75
376.545	633.75
376.771	628.75
376.997	596.75
377.222	590.75
377.448	608.75
377.674	585.75
377.899	592.75
378.125	598.75
378.35	601.75
378.576	584.75
378.802	608.75
379.027	606.75
379.253	601.75
379.478	590.75
379.704	581.75
379.929	618.75
380.155	610.75
380.38	595.75
380.606	617.75
380.831	588.75
381.057	603.75
381.282	584.75
381.507	610.75
381.733	594.75
381.958	636.75
382.184	614.75
382.409	655.75
382.634	636.75
382.86	634.75
383.085	649.75
383.31	646.75
383.535	669.75
383.761	662.75
383.986	692.75
384.211	695.75
384.436	712.75
384.662	703.75
384.887	745.75
385.112	732.75
385.337	740.75
385.562	733.75
385.787	716.75
386.013	752.75
386.238	738.75
386.463	762.75
386.688	712.75
386.913	725.75
387.138	734.75
387.363	731.75
387.588	705.75
387.813	729.75
388.038	723.75
388.263	726.75
388.488	728.75
388.713	700.75
388.938	713.75
389.163	694.75
389.387	706.75
389.612	696.75
389.837	691.75
390.062	699.75
390.287	711.75
390.512	704.75
390.736	722.75
390.961	731.75
391.186	723.75
391.411	756.75
391.636	782.75
391.86	791.75
392.085	820.75
392.31	848.75
392.534	804.75
392.759	795.75
392.984	800.75
393.208	763.75
393.433	805.75
393.658	792.75
393.882	778.75
394.107	781.75
394.331	777.75
394.556	779.75
394.78	821.75
395.005	784.75
395.229	786.75
395.454	824.75
395.678	814.75
395.903	817.75
396.127	811.75
396.352	809.75
396.576	740.75
396.801	752.75
397.025	751.75
397.249	783.75
397.474	802.75
397.698	797.75
397.922	812.75
398.147	807.75
398.371	830.75
398.595	840.75
398.82	855.75
399.044	935.75
399.268	1046.75
399.492	1254.75
399.717	1420.75
399.941	1420.75
400.165	1226.75
400.389	1075.75
400.613	1006.75
400.837	938.75
401.062	886.75
401.286	888.75
401.51	913.75
401.734	902.75
401.958	918.75
402.182	912.75
402.406	935.75
402.63	957.75
402.854	972.75
403.078	987.75
403.302	1032.75
403.526	1046.75
403.75	1068.75
403.974	1115.75
404.198	1099.75
404.422	1097.75
404.645	1079.75
404.869	1079.75
405.093	1060.75
405.317	1050.75
405.541	1024.75
405.765	988.75
405.988	993.75
406.212	983.75
406.436	990.75
406.66	999.75
406.883	1025.75
407.107	1115.75
407.331	1174.75
407.555	1164.75
407.778	1188.75
408.002	1172.75
408.226	1107.75
408.449	1120.75
408.673	1051.75
408.896	1063.75
409.12	1034.75
409.344	1091.75
409.567	1068.75
409.791	1066.75
410.014	1045.75
410.238	1048.75
410.461	1033.75
410.685	990.75
410.908	1011.75
411.132	950.75
411.355	955.75
411.578	950.75
411.802	917.75
412.025	937.75
412.249	971.75
412.472	980.75
412.695	933.75
412.919	940.75
413.142	911.75
413.365	894.75
413.589	907.75
413.812	923.75
414.035	872.75
414.258	902.75
414.482	922.75
414.705	936.75
414.928	923.75
415.151	917.75
415.374	915.75
415.597	926.75
415.821	900.75
416.044	879.75
416.267	890.75
416.49	888.75
416.713	877.75
416.936	929.75
417.159	906.75
417.382	898.75
417.605	919.75
417.828	904.75
418.051	907.75
418.274	885.75
418.497	876.75
418.72	920.75
418.943	948.75
419.166	1003.75
419.389	1060.75
419.611	1024.75
419.834	967.75
420.057	960.75
420.28	927.75
420.503	904.75
420.726	886.75
420.948	887.75
421.171	889.75
421.394	900.75
421.617	895.75
421.839	894.75
422.062	930.75
422.285	903.75
422.507	929.75
422.73	917.75
422.953	940.75
423.175	975.75
423.398	960.75
423.621	977.75
423.843	988.75
424.066	985.75
424.288	983.75
424.511	978.75
424.733	955.75
424.956	937.75
425.178	928.75
425.401	926.75
425.623	904.75
425.846	883.75
426.068	872.75
426.291	865.75
426.513	821.75
426.735	839.75
426.958	863.75
427.18	811.75
427.402	851.75
427.625	841.75
427.847	809.75
428.069	808.75
428.292	827.75
428.514	803.75
428.736	779.75
428.958	794.75
429.181	751.75
429.403	780.75
429.625	788.75
429.847	779.75
430.069	771.75
430.292	797.75
430.514	769.75
430.736	802.75
430.958	762.75
431.18	786.75
431.402	774.75
431.624	784.75
431.846	806.75
432.068	834.75
432.29	825.75
432.512	792.75
432.734	821.75
432.956	819.75
433.178	805.75
433.4	809.75
433.622	803.75
433.844	799.75
434.066	800.75
434.287	825.75
434.509	860.75
434.731	894.75
434.953	900.75
435.175	943.75
435.397	907.75
435.618	871.75
435.84	803.75
436.062	821.75
436.284	826.75
436.505	794.75
436.727	820.75
436.949	846.75
437.17	814.75
437.392	793.75
437.614	780.75
437.835	762.75
438.057	776.75
438.278	778.75
438.5	765.75
438.721	778.75
438.943	822.75
439.165	785.75
439.386	779.75
439.608	802.75
439.829	832.75
440.05	812.75
440.272	807.75
440.493	808.75
440.715	815.75
440.936	848.75
441.158	847.75
441.379	874.75
441.6	898.75
441.822	952.75
442.043	931.75
442.264	896.75
442.486	900.75
442.707	898.75
442.928	901.75
443.149	902.75
443.371	896.75
443.592	906.75
443.813	905.75
444.034	936.75
444.255	952.75
444.476	980.75
444.698	1056.75
444.919	1113.75
445.14	1214.75
445.361	1054.75
445.582	932.75
445.803	898.75
446.024	881.75
446.245	868.75
446.466	849.75
446.687	807.75
446.908	820.75
447.129	809.75
447.35	773.75
447.571	802.75
447.792	754.75
448.013	768.75
448.234	773.75
448.455	751.75
448.675	739.75
448.896	745.75
449.117	731.75
449.338	744.75
449.559	752.75
449.779	734.75
450	743.75
450.221	723.75
450.442	750.75
450.662	712.75
450.883	771.75
451.104	782.75
451.324	776.75
451.545	770.75
451.766	783.75
451.986	743.75
452.207	739.75
452.428	761.75
452.648	761.75
452.869	736.75
453.089	731.75
453.31	744.75
453.53	732.75
453.751	724.75
453.971	739.75
454.192	724.75
454.412	696.75
454.633	724.75
454.853	724.75
455.073	695.75
455.294	716.75
455.514	699.75
455.734	696.75
455.955	692.75
456.175	702.75
456.395	691.75
456.616	675.75
456.836	705.75
457.056	681.75
457.276	683.75
457.497	701.75
457.717	681.75
457.937	673.75
458.157	705.75
458.377	715.75
458.598	704.75
458.818	740.75
459.038	783.75
459.258	807.75
459.478	824.75
459.698	844.75
459.918	874.75
460.138	907.75
460.358	954.75
460.578	964.75
460.798	973.75
461.018	1009.75
461.238	969.75
461.458	933.75
461.678	932.75
461.898	971.75
462.118	963.75
462.338	1039.75
462.558	1037.75
462.777	1073.75
462.997	1189.75
463.217	1330.75
463.437	1319.75
463.657	1216.75
463.876	1119.75
464.096	1127.75
464.316	1157.75
464.536	1179.75
464.755	1108.75
464.975	1052.75
465.195	1033.75
465.414	953.75
465.634	876.75
465.854	842.75
466.073	816.75
466.293	832.75
466.512	807.75
466.732	785.75
466.951	784.75
467.171	780.75
467.391	775.75
467.61	776.75
467.829	803.75
468.049	757.75
468.268	750.75
468.488	743.75
468.707	736.75
468.927	740.75
469.146	737.75
469.365	771.75
469.585	772.75
469.804	772.75
470.023	792.75
470.243	790.75
470.462	820.75
470.681	801.75
470.901	829.75
471.12	805.75
471.339	790.75
471.558	769.75
471.777	773.75
471.997	740.75
472.216	745.75
472.435	744.75
472.654	698.75
472.873	691.75
473.092	725.75
473.311	709.75
473.53	740.75
473.749	708.75
473.968	718.75
474.187	704.75
474.406	715.75
474.625	721.75
474.844	740.75
475.063	719.75
475.282	731.75
475.501	738.75
475.72	746.75
475.939	715.75
476.158	747.75
476.377	777.75
476.596	746.75
476.814	746.75
477.033	764.75
477.252	756.75
477.471	792.75
477.69	793.75
477.908	857.75
478.127	887.75
478.346	863.75
478.564	825.75
478.783	905.75
479.002	909.75
479.22	918.75
479.439	914.75
479.658	911.75
479.876	883.75
480.095	890.75
480.313	962.75
480.532	988.75
480.751	990.75
480.969	958.75
481.188	902.75
481.406	856.75
481.624	857.75
481.843	814.75
482.061	824.75
482.28	817.75
482.498	798.75
482.717	809.75
482.935	824.75
483.153	834.75
483.372	816.75
483.59	800.75
483.808	818.75
484.027	814.75
484.245	846.75
484.463	818.75
484.681	865.75
484.9	853.75
485.118	846.75
485.336	850.75
485.554	866.75
485.772	858.75
485.99	880.75
486.209	886.75
486.427	851.75
486.645	878.75
486.863	889.75
487.081	870.75
487.299	856.75
487.517	873.75
487.735	883.75
487.953	874.75
488.171	866.75
488.389	888.75
488.607	868.75
488.825	832.75
489.043	875.75
489.261	868.75
489.479	856.75
489.696	855.75
489.914	840.75
490.132	867.75
490.35	842.75
490.568	848.75
490.786	864.75
491.003	876.75
491.221	857.75
491.439	880.75
491.657	840.75
491.874	873.75
492.092	894.75
492.31	886.75
492.527	894.75
492.745	887.75
492.963	894.75
493.18	880.75
493.398	901.75
493.615	911.75
493.833	891.75
494.05	919.75
494.268	909.75
494.485	916.75
494.703	914.75
494.92	906.75
495.138	917.75
495.355	882.75
495.573	923.75
495.79	923.75
496.008	907.75
496.225	913.75
496.442	911.75
496.66	964.75
496.877	944.75
497.094	1000.75
497.312	960.75
497.529	1036.75
497.746	1031.75
497.963	1055.75
498.181	1096.75
498.398	1166.75
498.615	1206.75
498.832	1314.75
499.049	1420.75
499.267	1483.75
499.484	1672.75
499.701	1820.75
499.918	2094.75
500.135	2401.75
500.352	2802.75
500.569	3032.75
500.786	2992.75
501.003	2625.75
501.22	2298.75
501.437	2040.75
501.654	1778.75
501.871	1643.75
502.088	1475.75
502.305	1348.75
502.522	1307.75
502.739	1232.75
502.956	1194.75
503.172	1138.75
503.389	1108.75
503.606	1063.75
503.823	1054.75
504.04	1003.75
504.256	1053.75
504.473	1082.75
504.69	1113.75
504.907	1082.75
505.123	1029.75
505.34	959.75
505.557	936.75
505.773	880.75
505.99	861.75
506.207	855.75
506.423	843.75
506.64	847.75
506.856	830.75
507.073	818.75
507.289	824.75
507.506	802.75
507.722	815.75
507.939	818.75
508.155	818.75
508.372	774.75
508.588	777.75
508.805	779.75
509.021	800.75
509.238	789.75
509.454	742.75
509.67	780.75
509.887	756.75
510.103	747.75
510.319	750.75
510.536	756.75
510.752	768.75
510.968	752.75
511.184	733.75
511.401	770.75
511.617	728.75
511.833	762.75
512.049	739.75
512.265	737.75
512.481	733.75
512.698	730.75
512.914	724.75
513.13	746.75
513.346	721.75
513.562	762.75
513.778	749.75
513.994	774.75
514.21	751.75
514.426	731.75
514.642	731.75
514.858	785.75
515.074	764.75
515.29	772.75
515.506	766.75
515.721	784.75
515.937	804.75
516.153	810.75
516.369	818.75
516.585	826.75
516.801	855.75
517.016	927.75
517.232	956.75
517.448	1060.75
517.664	1064.75
517.879	1084.75
518.095	1079.75
518.311	1043.75
518.527	974.75
518.742	943.75
518.958	916.75
519.173	852.75
519.389	849.75
519.605	828.75
519.82	792.75
520.036	770.75
520.251	747.75
520.467	773.75
520.682	743.75
520.898	753.75
521.113	747.75
521.329	735.75
521.544	720.75
521.76	747.75
521.975	731.75
522.19	713.75
522.406	697.75
522.621	720.75
522.836	699.75
523.052	699.75
523.267	698.75
523.482	715.75
523.698	667.75
523.913	685.75
524.128	668.75
524.343	678.75
524.559	697.75
524.774	667.75
524.989	707.75
525.204	682.75
525.419	656.75
525.634	653.75
525.849	666.75
526.064	680.75
526.28	659.75
526.495	676.75
526.71	686.75
526.925	640.75
527.14	668.75
527.355	673.75
527.57	644.75
527.785	680.75
527.999	678.75
528.214	682.75
528.429	688.75
528.644	705.75
528.859	681.75
529.074	664.75
529.289	680.75
529.503	682.75
529.718	670.75
529.933	694.75
530.148	660.75
530.363	700.75
530.577	685.75
530.792	649.75
531.007	666.75
531.221	695.75
531.436	658.75
531.651	678.75
531.865	676.75
532.08	686.75
532.295	674.75
532.509	674.75
532.724	669.75
532.938	670.75
533.153	663.75
533.367	693.75
533.582	675.75
533.796	662.75
534.011	658.75
534.225	694.75
534.44	671.75
534.654	670.75
534.868	667.75
535.083	660.75
535.297	659.75
535.511	650.75
535.726	656.75
535.94	672.75
536.154	649.75
536.369	646.75
536.583	640.75
536.797	625.75
537.011	646.75
537.225	634.75
537.44	627.75
537.654	620.75
537.868	617.75
538.082	620.75
538.296	617.75
538.51	605.75
538.724	604.75
538.938	606.75
539.153	614.75
539.367	629.75
539.581	628.75
539.795	590.75
540.009	601.75
540.222	611.75
540.436	626.75
540.65	598.75
540.864	626.75
541.078	596.75
541.292	601.75
541.506	625.75
541.72	599.75
541.934	580.75
542.147	608.75
542.361	596.75
542.575	583.75
542.789	604.75
543.002	608.75
543.216	592.75
543.43	594.75
543.644	582.75
543.857	569.75
544.071	579.75
544.285	617.75
544.498	620.75
544.712	608.75
544.925	601.75
545.139	592.75
545.352	605.75
545.566	635.75
545.779	617.75
545.993	641.75
546.206	618.75
546.42	617.75
546.633	614.75
546.847	630.75
547.06	614.75
547.274	622.75
547.487	622.75
547.7	623.75
547.914	623.75
548.127	619.75
548.34	643.75
548.554	601.75
548.767	642.75
548.98	601.75
549.193	614.75
549.407	617.75
549.62	630.75
549.833	653.75
550.046	648.75
550.259	625.75
550.473	608.75
550.686	613.75
550.899	613.75
551.112	613.75
551.325	575.75
551.538	609.75
551.751	603.75
551.964	619.75
552.177	614.75
552.39	624.75
552.603	644.75
552.816	646.75
553.029	658.75
553.242	679.75
553.455	651.75
553.667	711.75
553.88	681.75
554.093	636.75
554.306	629.75
554.519	615.75
554.732	631.75
554.944	590.75
555.157	587.75
555.37	591.75
555.583	580.75
555.795	561.75
556.008	552.75
556.221	576.75
556.433	550.75
556.646	563.75
556.859	520.75
557.071	558.75
557.284	546.75
557.496	527.75
557.709	524.75
557.921	551.75
558.134	515.75
558.346	511.75
558.559	517.75
558.771	513.75
558.984	493.75
559.196	524.75
559.409	520.75
559.621	506.75
559.833	514.75
560.046	522.75
560.258	504.75
560.47	520.75
560.683	502.75
560.895	506.75
561.107	500.75
561.32	497.75
561.532	491.75
561.744	516.75
561.956	497.75
562.168	516.75
562.381	498.75
562.593	523.75
562.805	510.75
563.017	527.75
563.229	506.75
563.441	512.75
563.653	522.75
563.865	512.75
564.077	553.75
564.289	536.75
564.501	524.75
564.713	544.75
564.925	536.75
565.137	540.75
565.349	554.75
565.561	613.75
565.773	591.75
565.985	627.75
566.197	664.75
566.408	720.75
566.62	790.75
566.832	865.75
567.044	870.75
567.255	833.75
567.467	859.75
567.679	911.75
567.891	1031.75
568.102	1062.75
568.314	1016.75
568.526	883.75
568.737	781.75
568.949	710.75
569.161	635.75
569.372	600.75
569.584	568.75
569.795	567.75
570.007	558.75
570.218	538.75
570.43	524.75
570.641	516.75
570.853	535.75
571.064	526.75
571.276	523.75
571.487	525.75
571.698	491.75
571.91	491.75
572.121	467.75
572.333	452.75
572.544	458.75
572.755	464.75
572.966	455.75
573.178	450.75
573.389	453.75
573.6	432.75
573.811	434.75
574.023	428.75
574.234	421.75
574.445	431.75
574.656	441.75
574.867	421.75
575.078	436.75
575.289	446.75
575.501	432.75
575.712	414.75
575.923	413.75
576.134	404.75
576.345	396.75
576.556	430.75
576.767	394.75
576.978	402.75
577.188	414.75
577.399	402.75
577.61	404.75
577.821	396.75
578.032	391.75
578.243	397.75
578.454	411.75
578.665	387.75
578.875	371.75
579.086	379.75
579.297	387.75
579.508	417.75
579.718	375.75
579.929	385.75
580.14	390.75
580.35	363.75
580.561	368.75
580.772	375.75
580.982	353.75
581.193	350.75
581.403	357.75
581.614	370.75
581.825	372.75
582.035	374.75
582.246	350.75
582.456	365.75
582.667	374.75
582.877	375.75
583.087	356.75
583.298	363.75
583.508	357.75
583.719	363.75
583.929	341.75
584.139	352.75
584.35	351.75
584.56	338.75
584.77	344.75
584.981	354.75
585.191	359.75
585.401	351.75
585.611	337.75
585.821	344.75
586.032	348.75
586.242	353.75
586.452	346.75
586.662	346.75
586.872	339.75
587.082	347.75
587.292	367.75
587.502	358.75
587.713	361.75
587.923	340.75
588.133	359.75
588.343	344.75
588.553	351.75
588.762	350.75
588.972	328.75
589.182	329.75
589.392	329.75
589.602	334.75
589.812	336.75
590.022	338.75
590.232	337.75
590.441	362.75
590.651	331.75
590.861	361.75
591.071	377.75
591.281	350.75
591.49	350.75
591.7	379.75
591.91	370.75
592.119	371.75
592.329	388.75
592.539	386.75
592.748	396.75
592.958	427.75
593.167	441.75
593.377	456.75
593.587	465.75
593.796	454.75
594.006	446.75
594.215	453.75
594.424	459.75
594.634	441.75
594.843	433.75
595.053	415.75
595.262	381.75
595.472	391.75
595.681	377.75
595.89	359.75
596.1	344.75
596.309	342.75
596.518	343.75
596.727	332.75
596.937	320.75
597.146	315.75
597.355	310.75
597.564	316.75
597.774	310.75
597.983	328.75
598.192	332.75
598.401	324.75
598.61	313.75
598.819	306.75
599.028	296.75
599.237	293.75
599.446	306.75
599.655	294.75
599.864	282.75
600.073	283.75
600.282	302.75
600.491	313.75
600.7	296.75
600.909	286.75
601.118	281.75
601.327	286.75
601.536	279.75
601.745	299.75
601.953	299.75
602.162	272.75
602.371	289.75
602.58	290.75
602.789	290.75
602.997	281.75
603.206	277.75
603.415	272.75
603.623	272.75
603.832	284.75
604.041	270.75
604.249	274.75
604.458	286.75
604.666	279.75
604.875	265.75
605.084	270.75
605.292	272.75
605.501	262.75
605.709	257.75
605.918	281.75
606.126	279.75
606.334	250.75
606.543	268.75
606.751	259.75
606.96	290.75
607.168	280.75
607.376	258.75
607.585	270.75
607.793	251.75
608.001	256.75
608.21	264.75
608.418	246.75
608.626	255.75
608.834	265.75
609.043	275.75
609.251	261.75
609.459	284.75
609.667	266.75
609.875	270.75
610.083	268.75
610.291	263.75
610.499	275.75
610.707	259.75
610.916	265.75
611.124	268.75
611.332	259.75
611.54	251.75
611.748	262.75
611.955	256.75
612.163	259.75
612.371	251.75
612.579	262.75
612.787	272.75
612.995	246.75
613.203	270.75
613.411	244.75
613.618	256.75
613.826	242.75
614.034	246.75
614.242	254.75
614.449	259.75
614.657	260.75
614.865	256.75
615.072	245.75
615.28	272.75
615.488	264.75
615.695	275.75
615.903	260.75
616.111	268.75
616.318	276.75
616.526	267.75
616.733	251.75
616.941	246.75
617.148	260.75
617.356	267.75
617.563	267.75
617.771	274.75
617.978	260.75
618.185	262.75
618.393	262.75
618.6	246.75
618.807	257.75
619.015	258.75
619.222	221.75
619.429	255.75
619.637	265.75
619.844	260.75
620.051	238.75
620.258	238.75
620.466	236.75
620.673	222.75
620.88	219.75
621.087	248.75
621.294	252.75
621.501	249.75
621.708	242.75
621.915	240.75
622.122	227.75
622.329	229.75
622.536	218.75
622.743	229.75
622.95	227.75
623.157	250.75
623.364	231.75
623.571	243.75
623.778	233.75
623.985	230.75
624.192	214.75
624.399	229.75
624.606	231.75
624.812	205.75
625.019	215.75
625.226	223.75
625.433	232.75
625.639	209.75
625.846	218.75
626.053	202.75
626.259	231.75
626.466	232.75
626.673	218.75
626.879	224.75
627.086	221.75
627.293	219.75
627.499	218.75
627.706	206.75
627.912	209.75
628.119	217.75
628.325	203.75
628.532	215.75
628.738	214.75
628.945	222.75
629.151	202.75
629.357	203.75
629.564	209.75
629.77	209.75
629.976	195.75
630.183	188.75
630.389	208.75
630.595	212.75
630.802	196.75
631.008	200.75
631.214	213.75
631.42	195.75
631.627	179.75
631.833	208.75
632.039	184.75
632.245	193.75
632.451	199.75
632.657	197.75
632.863	190.75
633.069	179.75
633.275	182.75
633.481	194.75
633.688	187.75
633.893	191.75
634.099	204.75
634.305	211.75
634.511	190.75
634.717	194.75
634.923	199.75
635.129	190.75
635.335	197.75
635.541	178.75
635.747	203.75
635.952	184.75
636.158	203.75
636.364	191.75
636.57	187.75
636.775	203.75
636.981	185.75
637.187	181.75
637.392	178.75
637.598	189.75
637.804	186.75
638.009	176.75
638.215	194.75
638.421	181.75
638.626	181.75
638.832	189.75
639.037	184.75
639.243	177.75
639.448	183.75
639.654	176.75
639.859	175.75
640.065	188.75
640.27	169.75
640.475	185.75
640.681	161.75
640.886	159.75
641.091	195.75
641.297	181.75
641.502	168.75
641.707	183.75
641.913	176.75
642.118	167.75
642.323	163.75
642.528	169.75
642.733	177.75
642.939	160.75
643.144	171.75
643.349	179.75
643.554	167.75
643.759	173.75
643.964	153.75
644.169	182.75
644.374	167.75
644.579	168.75
644.784	147.75
644.989	166.75
645.194	174.75
645.399	156.75
645.604	174.75
645.809	175.75
646.014	191.75
646.219	165.75
646.423	171.75
646.628	180.75
646.833	176.75
647.038	166.75
647.243	171.75
647.447	177.75
647.652	181.75
647.857	159.75
648.062	176.75
648.266	188.75
648.471	174.75
648.676	187.75
648.88	190.75
649.085	178.75
649.289	163.75
649.494	180.75
649.698	182.75
649.903	160.75
650.107	176.75
650.312	173.75
650.516	153.75
650.721	162.75
650.925	145.75
651.13	164.75
651.334	169.75
651.539	176.75
651.743	163.75
651.947	141.75
652.152	142.75
652.356	132.75
652.56	146.75
652.764	147.75
652.969	134.75
653.173	140.75
653.377	137.75
653.581	135.75
653.785	138.75
653.99	133.75
654.194	138.75
654.398	126.75
654.602	130.75
654.806	134.75
655.01	140.75
655.214	113.75
655.418	124.75
655.622	126.75
655.826	141.75
656.03	126.75
656.234	161.75
656.438	124.75
656.642	125.75
656.846	130.75
657.049	145.75
657.253	123.75
657.457	115.75
657.661	105.75
657.865	106.75
658.068	112.75
658.272	107.75
658.476	108.75
658.68	104.75
658.883	104.75
659.087	75.75
659.291	98.75
659.494	105.75
659.698	95.75
659.901	107.75
660.105	99.75
660.309	82.75
660.512	97.75
660.716	73.75
660.919	99.75
661.123	94.75
661.326	86.75
661.53	92.75
661.733	93.75
661.936	87.75
662.14	76.75
662.343	86.75
662.546	77.75
662.75	80.75
662.953	83.75
663.156	82.75
663.36	79.75
663.563	88.75
663.766	75.75
663.969	70.75
664.173	87.75
664.376	81.75
664.579	80.75
664.782	83.75
664.985	96.75
665.188	91.75
665.391	82.75
665.594	74.75
665.797	74.75
666	75.75
666.203	79.75
666.406	75.75
666.609	73.75
666.812	75.75
667.015	84.75
667.218	88.75
667.421	79.75
667.624	88.75
667.827	81.75
668.03	80.75
668.232	77.75
668.435	79.75
668.638	82.75
668.841	85.75
669.043	56.75
669.246	82.75
669.449	72.75
669.651	83.75
669.854	75.75
670.057	82.75
670.259	83.75
670.462	77.75
670.665	78.75
670.867	89.75
671.07	95.75
671.272	88.75
671.475	64.75
671.677	86.75
671.88	81.75
672.082	88.75
672.284	77.75
672.487	87.75
672.689	79.75
672.892	87.75
