Data from Ni(NO3)2Standard.Agarose3%.GreenCap.LampEnergy5.5.E.O_HRD10591_14-39-51-188.txt Node
Date: Mon Jul 22 14:39:51 EDT 2019
User: cochatt
Spectrometer: HR+D1059
Trigger mode: 1
Integration Time (sec): 1.000000E-1
Scans to average: 1
Electric dark correction enabled: true
Nonlinearity correction enabled: false
Boxcar width: 0
XAxis mode: Wavelengths
Number of Pixels in Spectrum: 2048
>>>>>Begin Spectral Data<<<<<
223.165	-16.31
223.4	-16.31
223.635	-16.31
223.869	-16.31
224.104	-14.31
224.338	-4.31
224.573	-13.31
224.808	-8.31
225.042	-11.31
225.277	-12.31
225.511	1.69
225.746	2.69
225.98	3.69
226.215	5.69
226.449	18.69
226.683	26.69
226.918	13.69
227.152	23.69
227.387	33.69
227.621	24.69
227.856	30.69
228.09	43.69
228.324	44.69
228.559	44.69
228.793	52.69
229.027	59.69
229.262	68.69
229.496	63.69
229.73	71.69
229.964	71.69
230.199	77.69
230.433	93.69
230.667	81.69
230.901	78.69
231.136	80.69
231.37	83.69
231.604	75.69
231.838	72.69
232.072	71.69
232.306	88.69
232.541	89.69
232.775	74.69
233.009	85.69
233.243	83.69
233.477	82.69
233.711	82.69
233.945	90.69
234.179	89.69
234.413	91.69
234.647	85.69
234.881	73.69
235.115	77.69
235.349	76.69
235.583	95.69
235.817	71.69
236.051	75.69
236.285	64.69
236.519	75.69
236.753	78.69
236.987	89.69
237.221	73.69
237.455	65.69
237.689	87.69
237.922	78.69
238.156	84.69
238.39	77.69
238.624	75.69
238.858	73.69
239.091	61.69
239.325	73.69
239.559	71.69
239.793	79.69
240.027	88.69
240.26	57.69
240.494	71.69
240.728	75.69
240.961	74.69
241.195	81.69
241.429	79.69
241.662	69.69
241.896	76.69
242.13	66.69
242.363	77.69
242.597	71.69
242.83	87.69
243.064	65.69
243.298	74.69
243.531	84.69
243.765	70.69
243.998	54.69
244.232	69.69
244.465	79.69
244.699	79.69
244.932	73.69
245.166	73.69
245.399	78.69
245.633	71.69
245.866	59.69
246.099	68.69
246.333	74.69
246.566	67.69
246.8	80.69
247.033	82.69
247.266	69.69
247.5	71.69
247.733	85.69
247.966	81.69
248.2	81.69
248.433	75.69
248.666	72.69
248.899	69.69
249.133	73.69
249.366	68.69
249.599	74.69
249.832	73.69
250.066	76.69
250.299	80.69
250.532	76.69
250.765	82.69
250.998	76.69
251.231	64.69
251.465	92.69
251.698	79.69
251.931	71.69
252.164	76.69
252.397	83.69
252.63	77.69
252.863	82.69
253.096	84.69
253.329	88.69
253.562	77.69
253.795	70.69
254.028	91.69
254.261	85.69
254.494	74.69
254.727	74.69
254.96	82.69
255.193	84.69
255.426	88.69
255.659	83.69
255.892	93.69
256.124	80.69
256.357	87.69
256.59	95.69
256.823	74.69
257.056	78.69
257.289	75.69
257.521	73.69
257.754	84.69
257.987	61.69
258.22	90.69
258.452	83.69
258.685	75.69
258.918	77.69
259.151	71.69
259.383	92.69
259.616	82.69
259.849	75.69
260.081	74.69
260.314	74.69
260.547	73.69
260.779	82.69
261.012	73.69
261.244	80.69
261.477	85.69
261.71	81.69
261.942	77.69
262.175	77.69
262.407	85.69
262.64	84.69
262.872	76.69
263.105	74.69
263.337	68.69
263.57	84.69
263.802	71.69
264.035	83.69
264.267	79.69
264.499	72.69
264.732	80.69
264.964	81.69
265.197	80.69
265.429	87.69
265.661	91.69
265.894	83.69
266.126	90.69
266.358	96.69
266.591	85.69
266.823	71.69
267.055	73.69
267.287	89.69
267.52	83.69
267.752	83.69
267.984	83.69
268.216	80.69
268.448	80.69
268.681	75.69
268.913	94.69
269.145	84.69
269.377	81.69
269.609	76.69
269.841	90.69
270.073	77.69
270.306	85.69
270.538	82.69
270.77	83.69
271.002	80.69
271.234	68.69
271.466	81.69
271.698	74.69
271.93	68.69
272.162	82.69
272.394	86.69
272.626	93.69
272.858	69.69
273.09	89.69
273.322	75.69
273.553	86.69
273.785	92.69
274.017	83.69
274.249	85.69
274.481	72.69
274.713	99.69
274.945	81.69
275.176	71.69
275.408	80.69
275.64	82.69
275.872	77.69
276.104	82.69
276.335	79.69
276.567	81.69
276.799	81.69
277.031	79.69
277.262	86.69
277.494	92.69
277.726	92.69
277.957	74.69
278.189	97.69
278.421	88.69
278.652	88.69
278.884	79.69
279.115	75.69
279.347	66.69
279.579	86.69
279.81	70.69
280.042	73.69
280.273	86.69
280.505	84.69
280.736	83.69
280.968	80.69
281.199	87.69
281.431	83.69
281.662	87.69
281.894	81.69
282.125	88.69
282.356	78.69
282.588	73.69
282.819	83.69
283.051	80.69
283.282	90.69
283.513	90.69
283.745	70.69
283.976	83.69
284.207	71.69
284.439	77.69
284.67	81.69
284.901	67.69
285.132	66.69
285.364	77.69
285.595	103.69
285.826	80.69
286.057	84.69
286.288	76.69
286.52	79.69
286.751	77.69
286.982	88.69
287.213	83.69
287.444	88.69
287.675	76.69
287.906	94.69
288.138	81.69
288.369	68.69
288.6	82.69
288.831	75.69
289.062	87.69
289.293	74.69
289.524	84.69
289.755	83.69
289.986	82.69
290.217	98.69
290.448	88.69
290.679	86.69
290.91	92.69
291.141	76.69
291.371	93.69
291.602	85.69
291.833	81.69
292.064	79.69
292.295	82.69
292.526	79.69
292.757	81.69
292.987	81.69
293.218	86.69
293.449	78.69
293.68	90.69
293.91	84.69
294.141	76.69
294.372	77.69
294.603	92.69
294.833	73.69
295.064	80.69
295.295	91.69
295.525	100.69
295.756	84.69
295.987	98.69
296.217	92.69
296.448	79.69
296.679	96.69
296.909	87.69
297.14	71.69
297.37	79.69
297.601	87.69
297.831	74.69
298.062	87.69
298.292	90.69
298.523	92.69
298.753	85.69
298.984	85.69
299.214	84.69
299.445	101.69
299.675	78.69
299.905	85.69
300.136	100.69
300.366	83.69
300.597	83.69
300.827	85.69
301.057	91.69
301.288	91.69
301.518	78.69
301.748	78.69
301.979	98.69
302.209	96.69
302.439	98.69
302.669	98.69
302.9	90.69
303.13	87.69
303.36	84.69
303.59	92.69
303.82	70.69
304.051	86.69
304.281	83.69
304.511	89.69
304.741	87.69
304.971	74.69
305.201	83.69
305.431	91.69
305.661	84.69
305.891	75.69
306.121	92.69
306.352	88.69
306.582	83.69
306.812	75.69
307.042	85.69
307.272	93.69
307.502	99.69
307.731	91.69
307.961	72.69
308.191	82.69
308.421	90.69
308.651	83.69
308.881	99.69
309.111	75.69
309.341	94.69
309.571	75.69
309.8	87.69
310.03	69.69
310.26	74.69
310.49	86.69
310.72	74.69
310.949	86.69
311.179	89.69
311.409	91.69
311.639	94.69
311.868	75.69
312.098	79.69
312.328	83.69
312.557	88.69
312.787	87.69
313.017	81.69
313.246	90.69
313.476	96.69
313.706	77.69
313.935	92.69
314.165	95.69
314.394	87.69
314.624	85.69
314.853	93.69
315.083	92.69
315.312	89.69
315.542	81.69
315.771	90.69
316.001	85.69
316.23	92.69
316.46	97.69
316.689	81.69
316.919	91.69
317.148	84.69
317.377	96.69
317.607	68.69
317.836	92.69
318.065	77.69
318.295	92.69
318.524	77.69
318.753	92.69
318.983	85.69
319.212	95.69
319.441	90.69
319.67	89.69
319.9	89.69
320.129	93.69
320.358	100.69
320.587	85.69
320.816	98.69
321.046	91.69
321.275	81.69
321.504	90.69
321.733	88.69
321.962	82.69
322.191	92.69
322.42	78.69
322.649	92.69
322.878	92.69
323.108	93.69
323.337	87.69
323.566	90.69
323.795	88.69
324.024	76.69
324.253	84.69
324.482	86.69
324.71	92.69
324.939	79.69
325.168	76.69
325.397	87.69
325.626	92.69
325.855	89.69
326.084	82.69
326.313	92.69
326.542	87.69
326.77	89.69
326.999	91.69
327.228	100.69
327.457	97.69
327.686	94.69
327.914	83.69
328.143	105.69
328.372	96.69
328.6	84.69
328.829	87.69
329.058	95.69
329.287	80.69
329.515	76.69
329.744	93.69
329.972	90.69
330.201	86.69
330.43	78.69
330.658	91.69
330.887	79.69
331.115	80.69
331.344	89.69
331.572	94.69
331.801	92.69
332.03	84.69
332.258	97.69
332.486	99.69
332.715	83.69
332.943	87.69
333.172	89.69
333.4	77.69
333.629	76.69
333.857	74.69
334.085	84.69
334.314	89.69
334.542	93.69
334.771	78.69
334.999	83.69
335.227	84.69
335.455	96.69
335.684	75.69
335.912	104.69
336.14	83.69
336.369	75.69
336.597	106.69
336.825	78.69
337.053	104.69
337.281	89.69
337.51	85.69
337.738	92.69
337.966	87.69
338.194	88.69
338.422	84.69
338.65	75.69
338.878	92.69
339.106	97.69
339.334	100.69
339.562	93.69
339.79	90.69
340.018	89.69
340.246	85.69
340.474	74.69
340.702	80.69
340.93	85.69
341.158	83.69
341.386	87.69
341.614	83.69
341.842	90.69
342.07	93.69
342.298	83.69
342.526	89.69
342.754	84.69
342.981	88.69
343.209	92.69
343.437	100.69
343.665	103.69
343.893	91.69
344.12	84.69
344.348	94.69
344.576	85.69
344.804	80.69
345.031	75.69
345.259	98.69
345.487	89.69
345.714	91.69
345.942	95.69
346.17	108.69
346.397	96.69
346.625	96.69
346.853	81.69
347.08	91.69
347.308	88.69
347.535	81.69
347.763	80.69
347.99	82.69
348.218	82.69
348.445	84.69
348.673	85.69
348.9	94.69
349.128	107.69
349.355	88.69
349.583	93.69
349.81	82.69
350.037	89.69
350.265	80.69
350.492	76.69
350.72	79.69
350.947	83.69
351.174	76.69
351.402	85.69
351.629	91.69
351.856	82.69
352.083	78.69
352.311	95.69
352.538	96.69
352.765	89.69
352.992	83.69
353.22	90.69
353.447	89.69
353.674	86.69
353.901	84.69
354.128	77.69
354.355	87.69
354.583	87.69
354.81	89.69
355.037	81.69
355.264	92.69
355.491	81.69
355.718	84.69
355.945	77.69
356.172	90.69
356.399	90.69
356.626	82.69
356.853	85.69
357.08	77.69
357.307	95.69
357.534	96.69
357.761	77.69
357.988	101.69
358.215	84.69
358.441	69.69
358.668	78.69
358.895	104.69
359.122	86.69
359.349	86.69
359.576	74.69
359.802	77.69
360.029	91.69
360.256	83.69
360.483	88.69
360.709	92.69
360.936	99.69
361.163	93.69
361.39	90.69
361.616	77.69
361.843	87.69
362.07	95.69
362.296	92.69
362.523	91.69
362.749	77.69
362.976	91.69
363.203	80.69
363.429	76.69
363.656	71.69
363.882	76.69
364.109	85.69
364.335	86.69
364.562	85.69
364.788	85.69
365.015	81.69
365.241	83.69
365.468	73.69
365.694	81.69
365.92	88.69
366.147	75.69
366.373	101.69
366.599	78.69
366.826	90.69
367.052	79.69
367.278	87.69
367.505	74.69
367.731	77.69
367.957	73.69
368.184	83.69
368.41	85.69
368.636	101.69
368.862	101.69
369.089	88.69
369.315	81.69
369.541	85.69
369.767	80.69
369.993	84.69
370.219	86.69
370.445	80.69
370.672	84.69
370.898	74.69
371.124	72.69
371.35	77.69
371.576	78.69
371.802	84.69
372.028	81.69
372.254	76.69
372.48	83.69
372.706	90.69
372.932	97.69
373.158	85.69
373.384	89.69
373.61	86.69
373.835	71.69
374.061	90.69
374.287	77.69
374.513	90.69
374.739	84.69
374.965	81.69
375.191	85.69
375.416	81.69
375.642	96.69
375.868	99.69
376.094	85.69
376.319	82.69
376.545	87.69
376.771	76.69
376.997	77.69
377.222	91.69
377.448	97.69
377.674	80.69
377.899	83.69
378.125	91.69
378.35	95.69
378.576	82.69
378.802	77.69
379.027	82.69
379.253	95.69
379.478	88.69
379.704	91.69
379.929	98.69
380.155	94.69
380.38	77.69
380.606	73.69
380.831	87.69
381.057	109.69
381.282	81.69
381.507	74.69
381.733	108.69
381.958	97.69
382.184	72.69
382.409	89.69
382.634	83.69
382.86	80.69
383.085	93.69
383.31	83.69
383.535	80.69
383.761	71.69
383.986	88.69
384.211	89.69
384.436	75.69
384.662	80.69
384.887	72.69
385.112	68.69
385.337	87.69
385.562	95.69
385.787	71.69
386.013	91.69
386.238	88.69
386.463	76.69
386.688	77.69
386.913	90.69
387.138	76.69
387.363	86.69
387.588	94.69
387.813	97.69
388.038	89.69
388.263	96.69
388.488	78.69
388.713	90.69
388.938	88.69
389.163	84.69
389.387	86.69
389.612	88.69
389.837	79.69
390.062	80.69
390.287	99.69
390.512	98.69
390.736	79.69
390.961	70.69
391.186	85.69
391.411	86.69
391.636	76.69
391.86	94.69
392.085	85.69
392.31	89.69
392.534	96.69
392.759	83.69
392.984	94.69
393.208	81.69
393.433	81.69
393.658	78.69
393.882	92.69
394.107	86.69
394.331	95.69
394.556	76.69
394.78	91.69
395.005	82.69
395.229	88.69
395.454	89.69
395.678	79.69
395.903	92.69
396.127	86.69
396.352	79.69
396.576	70.69
396.801	76.69
397.025	89.69
397.249	86.69
397.474	87.69
397.698	85.69
397.922	99.69
398.147	78.69
398.371	83.69
398.595	97.69
398.82	97.69
399.044	96.69
399.268	76.69
399.492	81.69
399.717	92.69
399.941	104.69
400.165	92.69
400.389	80.69
400.613	89.69
400.837	86.69
401.062	97.69
401.286	96.69
401.51	96.69
401.734	74.69
401.958	71.69
402.182	86.69
402.406	83.69
402.63	76.69
402.854	95.69
403.078	76.69
403.302	75.69
403.526	81.69
403.75	86.69
403.974	102.69
404.198	89.69
404.422	85.69
404.645	94.69
404.869	102.69
405.093	91.69
405.317	83.69
405.541	91.69
405.765	97.69
405.988	101.69
406.212	83.69
406.436	91.69
406.66	77.69
406.883	79.69
407.107	70.69
407.331	84.69
407.555	81.69
407.778	85.69
408.002	75.69
408.226	92.69
408.449	97.69
408.673	89.69
408.896	80.69
409.12	85.69
409.344	85.69
409.567	86.69
409.791	103.69
410.014	84.69
410.238	79.69
410.461	85.69
410.685	85.69
410.908	80.69
411.132	87.69
411.355	90.69
411.578	98.69
411.802	84.69
412.025	87.69
412.249	96.69
412.472	77.69
412.695	76.69
412.919	87.69
413.142	82.69
413.365	86.69
413.589	82.69
413.812	96.69
414.035	84.69
414.258	90.69
414.482	74.69
414.705	99.69
414.928	77.69
415.151	72.69
415.374	79.69
415.597	94.69
415.821	81.69
416.044	96.69
416.267	93.69
416.49	94.69
416.713	74.69
416.936	90.69
417.159	88.69
417.382	90.69
417.605	82.69
417.828	83.69
418.051	89.69
418.274	86.69
418.497	79.69
418.72	87.69
418.943	98.69
419.166	83.69
419.389	92.69
419.611	92.69
419.834	91.69
420.057	88.69
420.28	83.69
420.503	89.69
420.726	83.69
420.948	87.69
421.171	92.69
421.394	96.69
421.617	83.69
421.839	80.69
422.062	83.69
422.285	84.69
422.507	91.69
422.73	82.69
422.953	87.69
423.175	97.69
423.398	77.69
423.621	85.69
423.843	80.69
424.066	90.69
424.288	84.69
424.511	88.69
424.733	92.69
424.956	94.69
425.178	91.69
425.401	95.69
425.623	79.69
425.846	81.69
426.068	101.69
426.291	86.69
426.513	87.69
426.735	77.69
426.958	79.69
427.18	88.69
427.402	93.69
427.625	92.69
427.847	91.69
428.069	87.69
428.292	84.69
428.514	87.69
428.736	82.69
428.958	85.69
429.181	70.69
429.403	88.69
429.625	89.69
429.847	85.69
430.069	75.69
430.292	91.69
430.514	66.69
430.736	81.69
430.958	91.69
431.18	82.69
431.402	86.69
431.624	85.69
431.846	100.69
432.068	93.69
432.29	92.69
432.512	88.69
432.734	94.69
432.956	85.69
433.178	83.69
433.4	99.69
433.622	96.69
433.844	72.69
434.066	82.69
434.287	91.69
434.509	85.69
434.731	87.69
434.953	81.69
435.175	95.69
435.397	68.69
435.618	85.69
435.84	77.69
436.062	82.69
436.284	95.69
436.505	86.69
436.727	79.69
436.949	84.69
437.17	91.69
437.392	77.69
437.614	92.69
437.835	88.69
438.057	81.69
438.278	77.69
438.5	81.69
438.721	91.69
438.943	88.69
439.165	89.69
439.386	87.69
439.608	88.69
439.829	81.69
440.05	83.69
440.272	91.69
440.493	76.69
440.715	71.69
440.936	99.69
441.158	88.69
441.379	79.69
441.6	77.69
441.822	96.69
442.043	87.69
442.264	85.69
442.486	85.69
442.707	80.69
442.928	100.69
443.149	99.69
443.371	103.69
443.592	75.69
443.813	94.69
444.034	80.69
444.255	93.69
444.476	100.69
444.698	75.69
444.919	83.69
445.14	191.69
445.361	140.69
445.582	90.69
445.803	87.69
446.024	85.69
446.245	68.69
446.466	88.69
446.687	104.69
446.908	79.69
447.129	91.69
447.35	77.69
447.571	95.69
447.792	89.69
448.013	75.69
448.234	88.69
448.455	83.69
448.675	92.69
448.896	79.69
449.117	95.69
449.338	89.69
449.559	87.69
449.779	74.69
450	73.69
450.221	77.69
450.442	75.69
450.662	87.69
450.883	85.69
451.104	98.69
451.324	95.69
451.545	80.69
451.766	85.69
451.986	78.69
452.207	79.69
452.428	80.69
452.648	79.69
452.869	89.69
453.089	92.69
453.31	94.69
453.53	99.69
453.751	89.69
453.971	74.69
454.192	73.69
454.412	65.69
454.633	77.69
454.853	81.69
455.073	91.69
455.294	92.69
455.514	89.69
455.734	94.69
455.955	89.69
456.175	79.69
456.395	72.69
456.616	91.69
456.836	97.69
457.056	89.69
457.276	80.69
457.497	92.69
457.717	81.69
457.937	92.69
458.157	87.69
458.377	74.69
458.598	82.69
458.818	81.69
459.038	86.69
459.258	86.69
459.478	89.69
459.698	88.69
459.918	103.69
460.138	83.69
460.358	88.69
460.578	89.69
460.798	94.69
461.018	82.69
461.238	77.69
461.458	91.69
461.678	84.69
461.898	82.69
462.118	95.69
462.338	96.69
462.558	95.69
462.777	81.69
462.997	100.69
463.217	76.69
463.437	89.69
463.657	75.69
463.876	85.69
464.096	91.69
464.316	83.69
464.536	87.69
464.755	75.69
464.975	82.69
465.195	90.69
465.414	89.69
465.634	110.69
465.854	83.69
466.073	78.69
466.293	84.69
466.512	93.69
466.732	89.69
466.951	95.69
467.171	94.69
467.391	95.69
467.61	78.69
467.829	81.69
468.049	98.69
468.268	87.69
468.488	84.69
468.707	89.69
468.927	85.69
469.146	91.69
469.365	99.69
469.585	72.69
469.804	80.69
470.023	84.69
470.243	86.69
470.462	98.69
470.681	100.69
470.901	98.69
471.12	77.69
471.339	93.69
471.558	82.69
471.777	101.69
471.997	82.69
472.216	83.69
472.435	83.69
472.654	96.69
472.873	91.69
473.092	91.69
473.311	86.69
473.53	97.69
473.749	89.69
473.968	85.69
474.187	88.69
474.406	70.69
474.625	103.69
474.844	85.69
475.063	90.69
475.282	89.69
475.501	91.69
475.72	108.69
475.939	99.69
476.158	86.69
476.377	90.69
476.596	90.69
476.814	88.69
477.033	92.69
477.252	92.69
477.471	98.69
477.69	90.69
477.908	89.69
478.127	104.69
478.346	93.69
478.564	89.69
478.783	96.69
479.002	90.69
479.22	75.69
479.439	100.69
479.658	95.69
479.876	91.69
480.095	72.69
480.313	96.69
480.532	86.69
480.751	91.69
480.969	93.69
481.188	91.69
481.406	95.69
481.624	87.69
481.843	82.69
482.061	87.69
482.28	89.69
482.498	92.69
482.717	96.69
482.935	89.69
483.153	90.69
483.372	81.69
483.59	89.69
483.808	91.69
484.027	93.69
484.245	81.69
484.463	90.69
484.681	88.69
484.9	104.69
485.118	90.69
485.336	89.69
485.554	87.69
485.772	100.69
485.99	83.69
486.209	91.69
486.427	72.69
486.645	101.69
486.863	92.69
487.081	92.69
487.299	87.69
487.517	95.69
487.735	85.69
487.953	91.69
488.171	92.69
488.389	95.69
488.607	87.69
488.825	85.69
489.043	79.69
489.261	94.69
489.479	90.69
489.696	82.69
489.914	98.69
490.132	86.69
490.35	95.69
490.568	92.69
490.786	95.69
491.003	102.69
491.221	91.69
491.439	95.69
491.657	87.69
491.874	99.69
492.092	97.69
492.31	100.69
492.527	89.69
492.745	91.69
492.963	105.69
493.18	98.69
493.398	85.69
493.615	106.69
493.833	101.69
494.05	104.69
494.268	103.69
494.485	85.69
494.703	102.69
494.92	97.69
495.138	98.69
495.355	97.69
495.573	102.69
495.79	88.69
496.008	107.69
496.225	101.69
496.442	94.69
496.66	104.69
496.877	94.69
497.094	102.69
497.312	113.69
497.529	104.69
497.746	92.69
497.963	103.69
498.181	100.69
498.398	95.69
498.615	101.69
498.832	96.69
499.049	87.69
499.267	98.69
499.484	100.69
499.701	100.69
499.918	105.69
500.135	112.69
500.352	104.69
500.569	111.69
500.786	129.69
501.003	130.69
501.22	105.69
501.437	114.69
501.654	90.69
501.871	76.69
502.088	84.69
502.305	105.69
502.522	90.69
502.739	101.69
502.956	90.69
503.172	105.69
503.389	105.69
503.606	91.69
503.823	99.69
504.04	86.69
504.256	85.69
504.473	91.69
504.69	96.69
504.907	84.69
505.123	101.69
505.34	95.69
505.557	97.69
505.773	90.69
505.99	85.69
506.207	102.69
506.423	76.69
506.64	100.69
506.856	92.69
507.073	82.69
507.289	86.69
507.506	87.69
507.722	87.69
507.939	107.69
508.155	84.69
508.372	80.69
508.588	101.69
508.805	92.69
509.021	79.69
509.238	91.69
509.454	84.69
509.67	101.69
509.887	95.69
510.103	88.69
510.319	79.69
510.536	79.69
510.752	88.69
510.968	92.69
511.184	101.69
511.401	99.69
511.617	92.69
511.833	88.69
512.049	85.69
512.265	80.69
512.481	98.69
512.698	95.69
512.914	90.69
513.13	94.69
513.346	77.69
513.562	87.69
513.778	99.69
513.994	92.69
514.21	96.69
514.426	92.69
514.642	84.69
514.858	92.69
515.074	84.69
515.29	96.69
515.506	105.69
515.721	99.69
515.937	95.69
516.153	75.69
516.369	97.69
516.585	101.69
516.801	97.69
517.016	102.69
517.232	108.69
517.448	100.69
517.664	98.69
517.879	86.69
518.095	96.69
518.311	92.69
518.527	86.69
518.742	94.69
518.958	94.69
519.173	98.69
519.389	84.69
519.605	103.69
519.82	98.69
520.036	87.69
520.251	83.69
520.467	80.69
520.682	88.69
520.898	101.69
521.113	79.69
521.329	100.69
521.544	91.69
521.76	88.69
521.975	78.69
522.19	97.69
522.406	89.69
522.621	106.69
522.836	95.69
523.052	99.69
523.267	88.69
523.482	95.69
523.698	97.69
523.913	97.69
524.128	91.69
524.343	95.69
524.559	84.69
524.774	88.69
524.989	89.69
525.204	97.69
525.419	89.69
525.634	86.69
525.849	86.69
526.064	80.69
526.28	100.69
526.495	83.69
526.71	86.69
526.925	86.69
527.14	76.69
527.355	91.69
527.57	101.69
527.785	78.69
527.999	93.69
528.214	90.69
528.429	95.69
528.644	86.69
528.859	84.69
529.074	90.69
529.289	99.69
529.503	90.69
529.718	96.69
529.933	91.69
530.148	87.69
530.363	94.69
530.577	99.69
530.792	96.69
531.007	92.69
531.221	88.69
531.436	96.69
531.651	100.69
531.865	91.69
532.08	93.69
532.295	97.69
532.509	96.69
532.724	85.69
532.938	90.69
533.153	72.69
533.367	91.69
533.582	100.69
533.796	94.69
534.011	98.69
534.225	85.69
534.44	95.69
534.654	87.69
534.868	96.69
535.083	104.69
535.297	105.69
535.511	102.69
535.726	88.69
535.94	78.69
536.154	86.69
536.369	84.69
536.583	84.69
536.797	94.69
537.011	96.69
537.225	103.69
537.44	105.69
537.654	86.69
537.868	101.69
538.082	81.69
538.296	100.69
538.51	87.69
538.724	86.69
538.938	84.69
539.153	90.69
539.367	93.69
539.581	77.69
539.795	85.69
540.009	89.69
540.222	81.69
540.436	77.69
540.65	89.69
540.864	89.69
541.078	85.69
541.292	83.69
541.506	95.69
541.72	101.69
541.934	104.69
542.147	91.69
542.361	101.69
542.575	85.69
542.789	96.69
543.002	90.69
543.216	95.69
543.43	90.69
543.644	90.69
543.857	92.69
544.071	84.69
544.285	108.69
544.498	92.69
544.712	84.69
544.925	82.69
545.139	88.69
545.352	77.69
545.566	100.69
545.779	91.69
545.993	92.69
546.206	99.69
546.42	84.69
546.633	85.69
546.847	95.69
547.06	86.69
547.274	91.69
547.487	89.69
547.7	83.69
547.914	98.69
548.127	90.69
548.34	103.69
548.554	90.69
548.767	96.69
548.98	83.69
549.193	94.69
549.407	88.69
549.62	106.69
549.833	95.69
550.046	95.69
550.259	96.69
550.473	96.69
550.686	88.69
550.899	87.69
551.112	90.69
551.325	86.69
551.538	109.69
551.751	86.69
551.964	100.69
552.177	100.69
552.39	67.69
552.603	83.69
552.816	92.69
553.029	96.69
553.242	91.69
553.455	97.69
553.667	105.69
553.88	71.69
554.093	92.69
554.306	102.69
554.519	110.69
554.732	96.69
554.944	91.69
555.157	85.69
555.37	88.69
555.583	89.69
555.795	85.69
556.008	89.69
556.221	82.69
556.433	77.69
556.646	90.69
556.859	73.69
557.071	99.69
557.284	76.69
557.496	82.69
557.709	109.69
557.921	94.69
558.134	91.69
558.346	91.69
558.559	85.69
558.771	81.69
558.984	99.69
559.196	104.69
559.409	85.69
559.621	79.69
559.833	87.69
560.046	68.69
560.258	82.69
560.47	92.69
560.683	90.69
560.895	97.69
561.107	82.69
561.32	86.69
561.532	89.69
561.744	95.69
561.956	97.69
562.168	82.69
562.381	87.69
562.593	97.69
562.805	74.69
563.017	104.69
563.229	90.69
563.441	93.69
563.653	80.69
563.865	84.69
564.077	98.69
564.289	99.69
564.501	97.69
564.713	96.69
564.925	98.69
565.137	92.69
565.349	81.69
565.561	93.69
565.773	92.69
565.985	90.69
566.197	96.69
566.408	94.69
566.62	85.69
566.832	96.69
567.044	100.69
567.255	92.69
567.467	100.69
567.679	89.69
567.891	100.69
568.102	96.69
568.314	89.69
568.526	102.69
568.737	99.69
568.949	89.69
569.161	81.69
569.372	85.69
569.584	92.69
569.795	81.69
570.007	81.69
570.218	77.69
570.43	75.69
570.641	99.69
570.853	78.69
571.064	80.69
571.276	85.69
571.487	98.69
571.698	91.69
571.91	85.69
572.121	89.69
572.333	86.69
572.544	92.69
572.755	86.69
572.966	84.69
573.178	93.69
573.389	87.69
573.6	84.69
573.811	77.69
574.023	85.69
574.234	77.69
574.445	83.69
574.656	79.69
574.867	95.69
575.078	95.69
575.289	84.69
575.501	80.69
575.712	91.69
575.923	83.69
576.134	88.69
576.345	77.69
576.556	90.69
576.767	83.69
576.978	87.69
577.188	84.69
577.399	74.69
577.61	81.69
577.821	75.69
578.032	87.69
578.243	93.69
578.454	77.69
578.665	90.69
578.875	95.69
579.086	83.69
579.297	82.69
579.508	84.69
579.718	89.69
579.929	88.69
580.14	93.69
580.35	74.69
580.561	80.69
580.772	80.69
580.982	91.69
581.193	74.69
581.403	83.69
581.614	77.69
581.825	97.69
582.035	89.69
582.246	82.69
582.456	84.69
582.667	84.69
582.877	83.69
583.087	74.69
583.298	81.69
583.508	76.69
583.719	85.69
583.929	107.69
584.139	92.69
584.35	89.69
584.56	89.69
584.77	83.69
584.981	97.69
585.191	83.69
585.401	79.69
585.611	92.69
585.821	99.69
586.032	97.69
586.242	94.69
586.452	76.69
586.662	85.69
586.872	77.69
587.082	84.69
587.292	90.69
587.502	89.69
587.713	95.69
587.923	89.69
588.133	67.69
588.343	86.69
588.553	80.69
588.762	89.69
588.972	88.69
589.182	88.69
589.392	88.69
589.602	79.69
589.812	80.69
590.022	97.69
590.232	83.69
590.441	86.69
590.651	87.69
590.861	88.69
591.071	81.69
591.281	95.69
591.49	90.69
591.7	91.69
591.91	75.69
592.119	90.69
592.329	83.69
592.539	92.69
592.748	92.69
592.958	80.69
593.167	81.69
593.377	90.69
593.587	91.69
593.796	76.69
594.006	93.69
594.215	81.69
594.424	88.69
594.634	81.69
594.843	91.69
595.053	79.69
595.262	100.69
595.472	84.69
595.681	86.69
595.89	74.69
596.1	76.69
596.309	85.69
596.518	96.69
596.727	87.69
596.937	86.69
597.146	92.69
597.355	84.69
597.564	83.69
597.774	86.69
597.983	77.69
598.192	85.69
598.401	85.69
598.61	96.69
598.819	68.69
599.028	85.69
599.237	86.69
599.446	83.69
599.655	86.69
599.864	81.69
600.073	85.69
600.282	88.69
600.491	87.69
600.7	103.69
600.909	86.69
601.118	89.69
601.327	87.69
601.536	95.69
601.745	92.69
601.953	84.69
602.162	81.69
602.371	91.69
602.58	84.69
602.789	75.69
602.997	86.69
603.206	83.69
603.415	81.69
603.623	90.69
603.832	78.69
604.041	85.69
604.249	80.69
604.458	92.69
604.666	82.69
604.875	77.69
605.084	90.69
605.292	82.69
605.501	98.69
605.709	95.69
605.918	68.69
606.126	81.69
606.334	81.69
606.543	76.69
606.751	81.69
606.96	83.69
607.168	99.69
607.376	72.69
607.585	97.69
607.793	82.69
608.001	91.69
608.21	91.69
608.418	83.69
608.626	97.69
608.834	86.69
609.043	91.69
609.251	85.69
609.459	79.69
609.667	82.69
609.875	87.69
610.083	85.69
610.291	84.69
610.499	88.69
610.707	85.69
610.916	95.69
611.124	87.69
611.332	80.69
611.54	98.69
611.748	86.69
611.955	79.69
612.163	96.69
612.371	82.69
612.579	80.69
612.787	92.69
612.995	87.69
613.203	84.69
613.411	96.69
613.618	84.69
613.826	79.69
614.034	76.69
614.242	93.69
614.449	69.69
614.657	88.69
614.865	85.69
615.072	77.69
615.28	82.69
615.488	78.69
615.695	78.69
615.903	90.69
616.111	95.69
616.318	79.69
616.526	84.69
616.733	89.69
616.941	96.69
617.148	79.69
617.356	73.69
617.563	100.69
617.771	100.69
617.978	84.69
618.185	87.69
618.393	75.69
618.6	79.69
618.807	76.69
619.015	82.69
619.222	83.69
619.429	77.69
619.637	72.69
619.844	84.69
620.051	73.69
620.258	70.69
620.466	89.69
620.673	87.69
620.88	83.69
621.087	84.69
621.294	89.69
621.501	84.69
621.708	90.69
621.915	85.69
622.122	72.69
622.329	89.69
622.536	82.69
622.743	79.69
622.95	72.69
623.157	98.69
623.364	70.69
623.571	84.69
623.778	82.69
623.985	86.69
624.192	104.69
624.399	93.69
624.606	80.69
624.812	78.69
625.019	87.69
625.226	80.69
625.433	84.69
625.639	88.69
625.846	86.69
626.053	80.69
626.259	98.69
626.466	93.69
626.673	76.69
626.879	81.69
627.086	81.69
627.293	96.69
627.499	71.69
627.706	88.69
627.912	83.69
628.119	85.69
628.325	92.69
628.532	92.69
628.738	92.69
628.945	71.69
629.151	84.69
629.357	86.69
629.564	86.69
629.77	86.69
629.976	84.69
630.183	91.69
630.389	84.69
630.595	70.69
630.802	87.69
631.008	86.69
631.214	81.69
631.42	92.69
631.627	89.69
631.833	91.69
632.039	89.69
632.245	76.69
632.451	71.69
632.657	89.69
632.863	86.69
633.069	83.69
633.275	99.69
633.481	95.69
633.688	92.69
633.893	83.69
634.099	86.69
634.305	89.69
634.511	83.69
634.717	72.69
634.923	83.69
635.129	85.69
635.335	78.69
635.541	74.69
635.747	87.69
635.952	79.69
636.158	77.69
636.364	85.69
636.57	82.69
636.775	93.69
636.981	74.69
637.187	85.69
637.392	83.69
637.598	71.69
637.804	83.69
638.009	89.69
638.215	90.69
638.421	92.69
638.626	81.69
638.832	86.69
639.037	94.69
639.243	75.69
639.448	71.69
639.654	79.69
639.859	87.69
640.065	78.69
640.27	86.69
640.475	90.69
640.681	69.69
640.886	83.69
641.091	90.69
641.297	90.69
641.502	85.69
641.707	70.69
641.913	84.69
642.118	90.69
642.323	88.69
642.528	77.69
642.733	77.69
642.939	82.69
643.144	78.69
643.349	86.69
643.554	86.69
643.759	93.69
643.964	92.69
644.169	80.69
644.374	80.69
644.579	69.69
644.784	81.69
644.989	81.69
645.194	86.69
645.399	98.69
645.604	71.69
645.809	95.69
646.014	84.69
646.219	95.69
646.423	89.69
646.628	79.69
646.833	74.69
647.038	84.69
647.243	93.69
647.447	82.69
647.652	68.69
647.857	75.69
648.062	87.69
648.266	83.69
648.471	98.69
648.676	88.69
648.88	68.69
649.085	76.69
649.289	86.69
649.494	73.69
649.698	94.69
649.903	97.69
650.107	78.69
650.312	80.69
650.516	77.69
650.721	76.69
650.925	83.69
651.13	80.69
651.334	78.69
651.539	90.69
651.743	84.69
651.947	91.69
652.152	83.69
652.356	81.69
652.56	89.69
652.764	80.69
652.969	77.69
653.173	82.69
653.377	92.69
653.581	84.69
653.785	92.69
653.99	88.69
654.194	82.69
654.398	84.69
654.602	67.69
654.806	83.69
655.01	74.69
655.214	77.69
655.418	71.69
655.622	83.69
655.826	83.69
656.03	69.69
656.234	81.69
656.438	85.69
656.642	92.69
656.846	87.69
657.049	74.69
657.253	95.69
657.457	77.69
657.661	91.69
657.865	92.69
658.068	84.69
658.272	70.69
658.476	88.69
658.68	83.69
658.883	80.69
659.087	87.69
659.291	81.69
659.494	78.69
659.698	88.69
659.901	77.69
660.105	87.69
660.309	80.69
660.512	82.69
660.716	75.69
660.919	81.69
661.123	81.69
661.326	74.69
661.53	80.69
661.733	83.69
661.936	85.69
662.14	78.69
662.343	77.69
662.546	85.69
662.75	87.69
662.953	93.69
663.156	83.69
663.36	71.69
663.563	73.69
663.766	90.69
663.969	85.69
664.173	98.69
664.376	69.69
664.579	76.69
664.782	92.69
664.985	93.69
665.188	84.69
665.391	82.69
665.594	68.69
665.797	72.69
666	76.69
666.203	89.69
666.406	83.69
666.609	71.69
666.812	74.69
667.015	71.69
667.218	81.69
667.421	65.69
667.624	83.69
667.827	80.69
668.03	76.69
668.232	76.69
668.435	83.69
668.638	64.69
668.841	74.69
669.043	79.69
669.246	75.69
669.449	76.69
669.651	77.69
669.854	86.69
670.057	68.69
670.259	96.69
670.462	81.69
670.665	82.69
670.867	76.69
671.07	76.69
671.272	84.69
671.475	86.69
671.677	86.69
671.88	83.69
672.082	78.69
672.284	92.69
672.487	73.69
672.689	78.69
672.892	75.69
