Data from Ni(NO3)2@0.0625M.TitratingCurve.Agarose3%dH2O.NegLispCup.LampEnergy10.LIBS07252019_HRD10591_18-15-23-569.txt Node
Date: Thu Jul 25 18:15:23 EDT 2019
User: cochatt
Spectrometer: HR+D1059
Trigger mode: 1
Integration Time (sec): 1.000000E-1
Scans to average: 1
Electric dark correction enabled: true
Nonlinearity correction enabled: false
Boxcar width: 0
XAxis mode: Wavelengths
Number of Pixels in Spectrum: 2048
>>>>>Begin Spectral Data<<<<<
223.165	-23.19
223.4	-23.19
223.635	-23.19
223.869	-13.19
224.104	-15.19
224.338	-20.19
224.573	-17.19
224.808	-11.19
225.042	-2.19
225.277	-3.19
225.511	-2.19
225.746	2.81
225.98	4.81
226.215	3.81
226.449	6.81
226.683	28.81
226.918	27.81
227.152	32.81
227.387	35.81
227.621	36.81
227.856	57.81
228.09	34.81
228.324	45.81
228.559	68.81
228.793	58.81
229.027	85.81
229.262	101.81
229.496	94.81
229.73	110.81
229.964	109.81
230.199	118.81
230.433	120.81
230.667	122.81
230.901	110.81
231.136	113.81
231.37	122.81
231.604	125.81
231.838	129.81
232.072	124.81
232.306	124.81
232.541	122.81
232.775	138.81
233.009	129.81
233.243	130.81
233.477	134.81
233.711	119.81
233.945	123.81
234.179	129.81
234.413	128.81
234.647	140.81
234.881	135.81
235.115	135.81
235.349	119.81
235.583	132.81
235.817	134.81
236.051	138.81
236.285	109.81
236.519	137.81
236.753	144.81
236.987	127.81
237.221	138.81
237.455	134.81
237.689	140.81
237.922	130.81
238.156	121.81
238.39	142.81
238.624	133.81
238.858	134.81
239.091	149.81
239.325	154.81
239.559	141.81
239.793	148.81
240.027	147.81
240.26	141.81
240.494	136.81
240.728	156.81
240.961	132.81
241.195	147.81
241.429	147.81
241.662	135.81
241.896	142.81
242.13	143.81
242.363	159.81
242.597	166.81
242.83	163.81
243.064	156.81
243.298	171.81
243.531	165.81
243.765	157.81
243.998	169.81
244.232	161.81
244.465	162.81
244.699	150.81
244.932	168.81
245.166	158.81
245.399	165.81
245.633	172.81
245.866	162.81
246.099	167.81
246.333	176.81
246.566	167.81
246.8	176.81
247.033	168.81
247.266	189.81
247.5	181.81
247.733	193.81
247.966	183.81
248.2	184.81
248.433	174.81
248.666	192.81
248.899	176.81
249.133	188.81
249.366	200.81
249.599	182.81
249.832	199.81
250.066	192.81
250.299	179.81
250.532	200.81
250.765	194.81
250.998	189.81
251.231	203.81
251.465	204.81
251.698	190.81
251.931	204.81
252.164	213.81
252.397	202.81
252.63	194.81
252.863	196.81
253.096	198.81
253.329	213.81
253.562	208.81
253.795	200.81
254.028	201.81
254.261	206.81
254.494	219.81
254.727	211.81
254.96	211.81
255.193	216.81
255.426	204.81
255.659	206.81
255.892	220.81
256.124	212.81
256.357	199.81
256.59	209.81
256.823	212.81
257.056	217.81
257.289	206.81
257.521	216.81
257.754	221.81
257.987	221.81
258.22	218.81
258.452	230.81
258.685	222.81
258.918	244.81
259.151	234.81
259.383	236.81
259.616	240.81
259.849	233.81
260.081	227.81
260.314	261.81
260.547	243.81
260.779	240.81
261.012	259.81
261.244	224.81
261.477	256.81
261.71	240.81
261.942	241.81
262.175	256.81
262.407	237.81
262.64	234.81
262.872	259.81
263.105	240.81
263.337	264.81
263.57	238.81
263.802	256.81
264.035	266.81
264.267	248.81
264.499	256.81
264.732	267.81
264.964	247.81
265.197	281.81
265.429	271.81
265.661	272.81
265.894	265.81
266.126	262.81
266.358	268.81
266.591	264.81
266.823	273.81
267.055	262.81
267.287	281.81
267.52	257.81
267.752	282.81
267.984	267.81
268.216	268.81
268.448	288.81
268.681	281.81
268.913	289.81
269.145	278.81
269.377	279.81
269.609	276.81
269.841	282.81
270.073	272.81
270.306	270.81
270.538	267.81
270.77	294.81
271.002	291.81
271.234	276.81
271.466	278.81
271.698	291.81
271.93	274.81
272.162	293.81
272.394	278.81
272.626	299.81
272.858	290.81
273.09	293.81
273.322	313.81
273.553	291.81
273.785	280.81
274.017	303.81
274.249	281.81
274.481	308.81
274.713	304.81
274.945	285.81
275.176	282.81
275.408	325.81
275.64	324.81
275.872	311.81
276.104	306.81
276.335	311.81
276.567	304.81
276.799	309.81
277.031	315.81
277.262	326.81
277.494	324.81
277.726	313.81
277.957	314.81
278.189	327.81
278.421	286.81
278.652	327.81
278.884	312.81
279.115	331.81
279.347	313.81
279.579	327.81
279.81	323.81
280.042	321.81
280.273	331.81
280.505	322.81
280.736	335.81
280.968	342.81
281.199	336.81
281.431	338.81
281.662	338.81
281.894	335.81
282.125	341.81
282.356	354.81
282.588	334.81
282.819	337.81
283.051	341.81
283.282	340.81
283.513	341.81
283.745	356.81
283.976	340.81
284.207	356.81
284.439	356.81
284.67	350.81
284.901	353.81
285.132	339.81
285.364	357.81
285.595	359.81
285.826	353.81
286.057	342.81
286.288	353.81
286.52	375.81
286.751	349.81
286.982	364.81
287.213	361.81
287.444	368.81
287.675	378.81
287.906	358.81
288.138	380.81
288.369	380.81
288.6	374.81
288.831	399.81
289.062	383.81
289.293	384.81
289.524	372.81
289.755	350.81
289.986	375.81
290.217	370.81
290.448	382.81
290.679	386.81
290.91	376.81
291.141	390.81
291.371	360.81
291.602	378.81
291.833	388.81
292.064	377.81
292.295	380.81
292.526	408.81
292.757	386.81
292.987	383.81
293.218	379.81
293.449	396.81
293.68	384.81
293.91	392.81
294.141	401.81
294.372	406.81
294.603	388.81
294.833	376.81
295.064	409.81
295.295	406.81
295.525	380.81
295.756	398.81
295.987	410.81
296.217	422.81
296.448	406.81
296.679	395.81
296.909	396.81
297.14	429.81
297.37	404.81
297.601	412.81
297.831	414.81
298.062	410.81
298.292	425.81
298.523	437.81
298.753	420.81
298.984	429.81
299.214	428.81
299.445	416.81
299.675	434.81
299.905	410.81
300.136	451.81
300.366	432.81
300.597	456.81
300.827	430.81
301.057	451.81
301.288	451.81
301.518	439.81
301.748	449.81
301.979	447.81
302.209	439.81
302.439	448.81
302.669	434.81
302.9	436.81
303.13	449.81
303.36	434.81
303.59	412.81
303.82	435.81
304.051	441.81
304.281	444.81
304.511	436.81
304.741	427.81
304.971	449.81
305.201	446.81
305.431	438.81
305.661	451.81
305.891	441.81
306.121	433.81
306.352	426.81
306.582	436.81
306.812	418.81
307.042	446.81
307.272	451.81
307.502	430.81
307.731	425.81
307.961	416.81
308.191	425.81
308.421	401.81
308.651	441.81
308.881	394.81
309.111	432.81
309.341	425.81
309.571	438.81
309.8	414.81
310.03	429.81
310.26	436.81
310.49	421.81
310.72	423.81
310.949	425.81
311.179	430.81
311.409	421.81
311.639	430.81
311.868	430.81
312.098	451.81
312.328	451.81
312.557	430.81
312.787	419.81
313.017	438.81
313.246	458.81
313.476	464.81
313.706	456.81
313.935	462.81
314.165	463.81
314.394	453.81
314.624	456.81
314.853	439.81
315.083	452.81
315.312	454.81
315.542	464.81
315.771	438.81
316.001	446.81
316.23	446.81
316.46	459.81
316.689	432.81
316.919	432.81
317.148	463.81
317.377	456.81
317.607	446.81
317.836	437.81
318.065	455.81
318.295	445.81
318.524	445.81
318.753	429.81
318.983	438.81
319.212	431.81
319.441	463.81
319.67	441.81
319.9	433.81
320.129	440.81
320.358	441.81
320.587	441.81
320.816	456.81
321.046	445.81
321.275	460.81
321.504	438.81
321.733	450.81
321.962	462.81
322.191	449.81
322.42	452.81
322.649	456.81
322.878	453.81
323.108	447.81
323.337	461.81
323.566	460.81
323.795	465.81
324.024	471.81
324.253	484.81
324.482	488.81
324.71	459.81
324.939	478.81
325.168	466.81
325.397	471.81
325.626	468.81
325.855	448.81
326.084	483.81
326.313	482.81
326.542	479.81
326.77	496.81
326.999	474.81
327.228	494.81
327.457	484.81
327.686	481.81
327.914	476.81
328.143	494.81
328.372	494.81
328.6	492.81
328.829	491.81
329.058	481.81
329.287	478.81
329.515	492.81
329.744	518.81
329.972	497.81
330.201	502.81
330.43	484.81
330.658	518.81
330.887	509.81
331.115	517.81
331.344	513.81
331.572	521.81
331.801	548.81
332.03	553.81
332.258	562.81
332.486	557.81
332.715	585.81
332.943	600.81
333.172	621.81
333.4	650.81
333.629	666.81
333.857	686.81
334.085	651.81
334.314	662.81
334.542	628.81
334.771	624.81
334.999	614.81
335.227	606.81
335.455	601.81
335.684	603.81
335.912	602.81
336.14	600.81
336.369	607.81
336.597	599.81
336.825	618.81
337.053	596.81
337.281	554.81
337.51	586.81
337.738	566.81
337.966	551.81
338.194	560.81
338.422	549.81
338.65	537.81
338.878	548.81
339.106	552.81
339.334	550.81
339.562	549.81
339.79	524.81
340.018	525.81
340.246	516.81
340.474	513.81
340.702	515.81
340.93	512.81
341.158	531.81
341.386	551.81
341.614	557.81
341.842	526.81
342.07	510.81
342.298	506.81
342.526	520.81
342.754	512.81
342.981	535.81
343.209	556.81
343.437	569.81
343.665	609.81
343.893	643.81
344.12	636.81
344.348	608.81
344.576	598.81
344.804	586.81
345.031	567.81
345.259	537.81
345.487	534.81
345.714	536.81
345.942	525.81
346.17	542.81
346.397	523.81
346.625	525.81
346.853	507.81
347.08	524.81
347.308	524.81
347.535	525.81
347.763	521.81
347.99	526.81
348.218	535.81
348.445	513.81
348.673	513.81
348.9	504.81
349.128	501.81
349.355	519.81
349.583	518.81
349.81	499.81
350.037	507.81
350.265	501.81
350.492	500.81
350.72	480.81
350.947	489.81
351.174	493.81
351.402	489.81
351.629	518.81
351.856	498.81
352.083	498.81
352.311	520.81
352.538	518.81
352.765	525.81
352.992	505.81
353.22	480.81
353.447	472.81
353.674	496.81
353.901	471.81
354.128	477.81
354.355	483.81
354.583	526.81
354.81	480.81
355.037	508.81
355.264	494.81
355.491	504.81
355.718	470.81
355.945	501.81
356.172	498.81
356.399	482.81
356.626	514.81
356.853	498.81
357.08	508.81
357.307	505.81
357.534	478.81
357.761	473.81
357.988	490.81
358.215	493.81
358.441	484.81
358.668	472.81
358.895	470.81
359.122	469.81
359.349	486.81
359.576	496.81
359.802	500.81
360.029	508.81
360.256	478.81
360.483	494.81
360.709	503.81
360.936	501.81
361.163	488.81
361.39	490.81
361.616	507.81
361.843	488.81
362.07	518.81
362.296	516.81
362.523	483.81
362.749	498.81
362.976	493.81
363.203	494.81
363.429	481.81
363.656	483.81
363.882	482.81
364.109	478.81
364.335	500.81
364.562	474.81
364.788	506.81
365.015	478.81
365.241	461.81
365.468	481.81
365.694	490.81
365.92	473.81
366.147	494.81
366.373	502.81
366.599	493.81
366.826	507.81
367.052	488.81
367.278	488.81
367.505	477.81
367.731	471.81
367.957	494.81
368.184	498.81
368.41	506.81
368.636	491.81
368.862	512.81
369.089	492.81
369.315	485.81
369.541	497.81
369.767	506.81
369.993	516.81
370.219	514.81
370.445	505.81
370.672	523.81
370.898	530.81
371.124	519.81
371.35	522.81
371.576	516.81
371.802	552.81
372.028	496.81
372.254	538.81
372.48	544.81
372.706	530.81
372.932	568.81
373.158	546.81
373.384	535.81
373.61	547.81
373.835	541.81
374.061	573.81
374.287	539.81
374.513	553.81
374.739	562.81
374.965	562.81
375.191	591.81
375.416	603.81
375.642	574.81
375.868	569.81
376.094	564.81
376.319	545.81
376.545	549.81
376.771	534.81
376.997	545.81
377.222	528.81
377.448	542.81
377.674	547.81
377.899	547.81
378.125	524.81
378.35	504.81
378.576	520.81
378.802	533.81
379.027	529.81
379.253	551.81
379.478	523.81
379.704	514.81
379.929	530.81
380.155	539.81
380.38	543.81
380.606	544.81
380.831	534.81
381.057	542.81
381.282	557.81
381.507	519.81
381.733	540.81
381.958	545.81
382.184	523.81
382.409	545.81
382.634	556.81
382.86	556.81
383.085	545.81
383.31	573.81
383.535	600.81
383.761	606.81
383.986	611.81
384.211	614.81
384.436	625.81
384.662	622.81
384.887	616.81
385.112	623.81
385.337	638.81
385.562	667.81
385.787	634.81
386.013	622.81
386.238	649.81
386.463	654.81
386.688	647.81
386.913	624.81
387.138	632.81
387.363	618.81
387.588	647.81
387.813	601.81
388.038	630.81
388.263	630.81
388.488	626.81
388.713	614.81
388.938	615.81
389.163	629.81
389.387	630.81
389.612	594.81
389.837	621.81
390.062	620.81
390.287	629.81
390.512	629.81
390.736	645.81
390.961	664.81
391.186	662.81
391.411	664.81
391.636	671.81
391.86	692.81
392.085	717.81
392.31	699.81
392.534	700.81
392.759	689.81
392.984	663.81
393.208	667.81
393.433	645.81
393.658	666.81
393.882	676.81
394.107	663.81
394.331	680.81
394.556	676.81
394.78	679.81
395.005	681.81
395.229	702.81
395.454	697.81
395.678	698.81
395.903	695.81
396.127	691.81
396.352	664.81
396.576	685.81
396.801	653.81
397.025	672.81
397.249	691.81
397.474	719.81
397.698	696.81
397.922	703.81
398.147	676.81
398.371	712.81
398.595	737.81
398.82	792.81
399.044	832.81
399.268	942.81
399.492	1094.81
399.717	1217.81
399.941	1201.81
400.165	1060.81
400.389	926.81
400.613	854.81
400.837	838.81
401.062	802.81
401.286	806.81
401.51	778.81
401.734	794.81
401.958	813.81
402.182	809.81
402.406	830.81
402.63	864.81
402.854	838.81
403.078	862.81
403.302	896.81
403.526	892.81
403.75	915.81
403.974	934.81
404.198	933.81
404.422	932.81
404.645	904.81
404.869	910.81
405.093	904.81
405.317	912.81
405.541	875.81
405.765	882.81
405.988	871.81
406.212	879.81
406.436	858.81
406.66	906.81
406.883	901.81
407.107	969.81
407.331	980.81
407.555	1022.81
407.778	1019.81
408.002	997.81
408.226	968.81
408.449	939.81
408.673	902.81
408.896	904.81
409.12	897.81
409.344	896.81
409.567	909.81
409.791	929.81
410.014	914.81
410.238	908.81
410.461	898.81
410.685	904.81
410.908	893.81
411.132	835.81
411.355	809.81
411.578	838.81
411.802	827.81
412.025	822.81
412.249	841.81
412.472	816.81
412.695	816.81
412.919	794.81
413.142	783.81
413.365	782.81
413.589	812.81
413.812	792.81
414.035	811.81
414.258	796.81
414.482	792.81
414.705	789.81
414.928	802.81
415.151	804.81
415.374	780.81
415.597	792.81
415.821	776.81
416.044	776.81
416.267	761.81
416.49	786.81
416.713	767.81
416.936	776.81
417.159	762.81
417.382	764.81
417.605	769.81
417.828	796.81
418.051	758.81
418.274	804.81
418.497	794.81
418.72	820.81
418.943	806.81
419.166	866.81
419.389	912.81
419.611	883.81
419.834	866.81
420.057	832.81
420.28	797.81
420.503	763.81
420.726	776.81
420.948	773.81
421.171	812.81
421.394	784.81
421.617	769.81
421.839	770.81
422.062	795.81
422.285	780.81
422.507	784.81
422.73	800.81
422.953	824.81
423.175	840.81
423.398	840.81
423.621	844.81
423.843	843.81
424.066	838.81
424.288	832.81
424.511	807.81
424.733	822.81
424.956	822.81
425.178	802.81
425.401	781.81
425.623	801.81
425.846	792.81
426.068	738.81
426.291	736.81
426.513	741.81
426.735	745.81
426.958	755.81
427.18	732.81
427.402	709.81
427.625	715.81
427.847	706.81
428.069	721.81
428.292	694.81
428.514	690.81
428.736	716.81
428.958	711.81
429.181	715.81
429.403	688.81
429.625	683.81
429.847	666.81
430.069	684.81
430.292	683.81
430.514	677.81
430.736	697.81
430.958	688.81
431.18	699.81
431.402	686.81
431.624	691.81
431.846	725.81
432.068	732.81
432.29	713.81
432.512	722.81
432.734	709.81
432.956	694.81
433.178	711.81
433.4	710.81
433.622	726.81
433.844	712.81
434.066	727.81
434.287	726.81
434.509	738.81
434.731	786.81
434.953	800.81
435.175	839.81
435.397	809.81
435.618	745.81
435.84	737.81
436.062	726.81
436.284	728.81
436.505	676.81
436.727	711.81
436.949	706.81
437.17	719.81
437.392	695.81
437.614	711.81
437.835	677.81
438.057	681.81
438.278	673.81
438.5	666.81
438.721	678.81
438.943	683.81
439.165	680.81
439.386	699.81
439.608	705.81
439.829	698.81
440.05	721.81
440.272	705.81
440.493	730.81
440.715	701.81
440.936	736.81
441.158	759.81
441.379	748.81
441.6	820.81
441.822	813.81
442.043	795.81
442.264	781.81
442.486	763.81
442.707	797.81
442.928	806.81
443.149	799.81
443.371	796.81
443.592	780.81
443.813	787.81
444.034	803.81
444.255	840.81
444.476	873.81
444.698	921.81
444.919	963.81
445.14	1064.81
445.361	935.81
445.582	831.81
445.803	792.81
446.024	772.81
446.245	744.81
446.466	716.81
446.687	724.81
446.908	733.81
447.129	708.81
447.35	694.81
447.571	674.81
447.792	663.81
448.013	654.81
448.234	672.81
448.455	662.81
448.675	655.81
448.896	682.81
449.117	642.81
449.338	627.81
449.559	666.81
449.779	638.81
450	636.81
450.221	659.81
450.442	656.81
450.662	675.81
450.883	697.81
451.104	701.81
451.324	687.81
451.545	668.81
451.766	662.81
451.986	685.81
452.207	661.81
452.428	634.81
452.648	678.81
452.869	668.81
453.089	655.81
453.31	647.81
453.53	672.81
453.751	642.81
453.971	647.81
454.192	642.81
454.412	628.81
454.633	618.81
454.853	627.81
455.073	619.81
455.294	611.81
455.514	636.81
455.734	646.81
455.955	608.81
456.175	598.81
456.395	600.81
456.616	617.81
456.836	627.81
457.056	624.81
457.276	580.81
457.497	636.81
457.717	636.81
457.937	635.81
458.157	619.81
458.377	628.81
458.598	638.81
458.818	669.81
459.038	698.81
459.258	692.81
459.478	745.81
459.698	733.81
459.918	788.81
460.138	805.81
460.358	842.81
460.578	844.81
460.798	854.81
461.018	832.81
461.238	831.81
461.458	837.81
461.678	829.81
461.898	838.81
462.118	824.81
462.338	919.81
462.558	926.81
462.777	957.81
462.997	1032.81
463.217	1154.81
463.437	1168.81
463.657	1067.81
463.876	974.81
464.096	954.81
464.316	993.81
464.536	994.81
464.755	981.81
464.975	932.81
465.195	865.81
465.414	846.81
465.634	777.81
465.854	746.81
466.073	724.81
466.293	731.81
466.512	725.81
466.732	708.81
466.951	672.81
467.171	679.81
467.391	698.81
467.61	705.81
467.829	685.81
468.049	669.81
468.268	657.81
468.488	661.81
468.707	681.81
468.927	650.81
469.146	653.81
469.365	666.81
469.585	662.81
469.804	680.81
470.023	702.81
470.243	732.81
470.462	742.81
470.681	710.81
470.901	728.81
471.12	698.81
471.339	689.81
471.558	650.81
471.777	668.81
471.997	684.81
472.216	688.81
472.435	656.81
472.654	658.81
472.873	644.81
473.092	622.81
473.311	650.81
473.53	655.81
473.749	642.81
473.968	655.81
474.187	669.81
474.406	643.81
474.625	652.81
474.844	656.81
475.063	672.81
475.282	648.81
475.501	637.81
475.72	667.81
475.939	644.81
476.158	664.81
476.377	664.81
476.596	669.81
476.814	656.81
477.033	676.81
477.252	703.81
477.471	715.81
477.69	717.81
477.908	766.81
478.127	776.81
478.346	768.81
478.564	805.81
478.783	775.81
479.002	809.81
479.22	835.81
479.439	800.81
479.658	814.81
479.876	800.81
480.095	791.81
480.313	859.81
480.532	853.81
480.751	872.81
480.969	824.81
481.188	806.81
481.406	778.81
481.624	760.81
481.843	769.81
482.061	759.81
482.28	741.81
482.498	739.81
482.717	727.81
482.935	746.81
483.153	773.81
483.372	752.81
483.59	763.81
483.808	774.81
484.027	746.81
484.245	747.81
484.463	763.81
484.681	788.81
484.9	801.81
485.118	808.81
485.336	808.81
485.554	792.81
485.772	818.81
485.99	820.81
486.209	821.81
486.427	811.81
486.645	810.81
486.863	792.81
487.081	815.81
487.299	830.81
487.517	827.81
487.735	812.81
487.953	801.81
488.171	813.81
488.389	782.81
488.607	752.81
488.825	764.81
489.043	803.81
489.261	783.81
489.479	765.81
489.696	749.81
489.914	790.81
490.132	805.81
490.35	801.81
490.568	781.81
490.786	781.81
491.003	797.81
491.221	795.81
491.439	792.81
491.657	756.81
491.874	774.81
492.092	797.81
492.31	795.81
492.527	795.81
492.745	809.81
492.963	802.81
493.18	787.81
493.398	778.81
493.615	812.81
493.833	832.81
494.05	802.81
494.268	817.81
494.485	809.81
494.703	824.81
494.92	829.81
495.138	807.81
495.355	806.81
495.573	800.81
495.79	803.81
496.008	827.81
496.225	844.81
496.442	825.81
496.66	826.81
496.877	835.81
497.094	869.81
497.312	868.81
497.529	902.81
497.746	957.81
497.963	944.81
498.181	975.81
498.398	1026.81
498.615	1086.81
498.832	1138.81
499.049	1239.81
499.267	1342.81
499.484	1461.81
499.701	1555.81
499.918	1782.81
500.135	2080.81
500.352	2363.81
500.569	2484.81
500.786	2484.81
501.003	2323.81
501.22	2034.81
501.437	1776.81
501.654	1556.81
501.871	1394.81
502.088	1294.81
502.305	1218.81
502.522	1174.81
502.739	1102.81
502.956	1069.81
503.172	1032.81
503.389	959.81
503.606	929.81
503.823	908.81
504.04	940.81
504.256	926.81
504.473	942.81
504.69	993.81
504.907	968.81
505.123	893.81
505.34	834.81
505.557	804.81
505.773	790.81
505.99	812.81
506.207	781.81
506.423	742.81
506.64	728.81
506.856	733.81
507.073	749.81
507.289	747.81
507.506	726.81
507.722	736.81
507.939	705.81
508.155	736.81
508.372	719.81
508.588	692.81
508.805	704.81
509.021	692.81
509.238	693.81
509.454	686.81
509.67	696.81
509.887	697.81
510.103	668.81
510.319	671.81
510.536	688.81
510.752	678.81
510.968	674.81
511.184	665.81
511.401	674.81
511.617	686.81
511.833	659.81
512.049	670.81
512.265	651.81
512.481	657.81
512.698	676.81
512.914	702.81
513.13	657.81
513.346	669.81
513.562	650.81
513.778	678.81
513.994	657.81
514.21	674.81
514.426	661.81
514.642	675.81
514.858	678.81
515.074	697.81
515.29	704.81
515.506	692.81
515.721	709.81
515.937	708.81
516.153	735.81
516.369	734.81
516.585	747.81
516.801	783.81
517.016	818.81
517.232	844.81
517.448	889.81
517.664	923.81
517.879	984.81
518.095	927.81
518.311	916.81
518.527	873.81
518.742	857.81
518.958	787.81
519.173	748.81
519.389	727.81
519.605	727.81
519.82	710.81
520.036	710.81
520.251	694.81
520.467	690.81
520.682	658.81
520.898	672.81
521.113	663.81
521.329	667.81
521.544	677.81
521.76	655.81
521.975	634.81
522.19	638.81
522.406	643.81
522.621	649.81
522.836	643.81
523.052	632.81
523.267	614.81
523.482	631.81
523.698	626.81
523.913	639.81
524.128	651.81
524.343	625.81
524.559	637.81
524.774	639.81
524.989	630.81
525.204	615.81
525.419	619.81
525.634	617.81
525.849	596.81
526.064	600.81
526.28	608.81
526.495	660.81
526.71	592.81
526.925	620.81
527.14	604.81
527.355	606.81
527.57	596.81
527.785	606.81
527.999	608.81
528.214	618.81
528.429	631.81
528.644	625.81
528.859	622.81
529.074	616.81
529.289	610.81
529.503	616.81
529.718	595.81
529.933	600.81
530.148	609.81
530.363	611.81
530.577	589.81
530.792	612.81
531.007	605.81
531.221	615.81
531.436	595.81
531.651	589.81
531.865	608.81
532.08	606.81
532.295	654.81
532.509	588.81
532.724	617.81
532.938	600.81
533.153	640.81
533.367	608.81
533.582	604.81
533.796	601.81
534.011	620.81
534.225	611.81
534.44	595.81
534.654	612.81
534.868	602.81
535.083	608.81
535.297	589.81
535.511	591.81
535.726	587.81
535.94	584.81
536.154	565.81
536.369	580.81
536.583	565.81
536.797	572.81
537.011	565.81
537.225	572.81
537.44	552.81
537.654	573.81
537.868	556.81
538.082	530.81
538.296	560.81
538.51	579.81
538.724	563.81
538.938	577.81
539.153	551.81
539.367	559.81
539.581	552.81
539.795	535.81
540.009	545.81
540.222	566.81
540.436	581.81
540.65	553.81
540.864	541.81
541.078	569.81
541.292	551.81
541.506	560.81
541.72	549.81
541.934	534.81
542.147	540.81
542.361	549.81
542.575	543.81
542.789	548.81
543.002	538.81
543.216	556.81
543.43	544.81
543.644	555.81
543.857	547.81
544.071	548.81
544.285	536.81
544.498	544.81
544.712	534.81
544.925	547.81
545.139	547.81
545.352	537.81
545.566	571.81
545.779	563.81
545.993	553.81
546.206	596.81
546.42	564.81
546.633	561.81
546.847	546.81
547.06	557.81
547.274	542.81
547.487	580.81
547.7	580.81
547.914	566.81
548.127	561.81
548.34	558.81
548.554	560.81
548.767	550.81
548.98	557.81
549.193	557.81
549.407	562.81
549.62	548.81
549.833	601.81
550.046	586.81
550.259	558.81
550.473	572.81
550.686	556.81
550.899	550.81
551.112	541.81
551.325	530.81
551.538	549.81
551.751	546.81
551.964	551.81
552.177	565.81
552.39	555.81
552.603	566.81
552.816	594.81
553.029	601.81
553.242	612.81
553.455	625.81
553.667	626.81
553.88	606.81
554.093	568.81
554.306	589.81
554.519	569.81
554.732	549.81
554.944	548.81
555.157	538.81
555.37	532.81
555.583	530.81
555.795	512.81
556.008	499.81
556.221	485.81
556.433	502.81
556.646	506.81
556.859	491.81
557.071	489.81
557.284	472.81
557.496	498.81
557.709	487.81
557.921	481.81
558.134	473.81
558.346	465.81
558.559	480.81
558.771	477.81
558.984	470.81
559.196	476.81
559.409	463.81
559.621	469.81
559.833	470.81
560.046	457.81
560.258	451.81
560.47	466.81
560.683	472.81
560.895	475.81
561.107	466.81
561.32	446.81
561.532	453.81
561.744	444.81
561.956	455.81
562.168	475.81
562.381	439.81
562.593	471.81
562.805	460.81
563.017	469.81
563.229	481.81
563.441	466.81
563.653	471.81
563.865	476.81
564.077	478.81
564.289	475.81
564.501	472.81
564.713	482.81
564.925	490.81
565.137	516.81
565.349	500.81
565.561	547.81
565.773	544.81
565.985	595.81
566.197	612.81
566.408	647.81
566.62	682.81
566.832	757.81
567.044	770.81
567.255	780.81
567.467	783.81
567.679	824.81
567.891	882.81
568.102	909.81
568.314	884.81
568.526	782.81
568.737	706.81
568.949	639.81
569.161	596.81
569.372	561.81
569.584	550.81
569.795	518.81
570.007	502.81
570.218	473.81
570.43	479.81
570.641	466.81
570.853	488.81
571.064	488.81
571.276	493.81
571.487	470.81
571.698	452.81
571.91	448.81
572.121	429.81
572.333	432.81
572.544	414.81
572.755	424.81
572.966	403.81
573.178	404.81
573.389	401.81
573.6	400.81
573.811	405.81
574.023	390.81
574.234	401.81
574.445	381.81
574.656	398.81
574.867	397.81
575.078	402.81
575.289	399.81
575.501	389.81
575.712	368.81
575.923	395.81
576.134	374.81
576.345	370.81
576.556	370.81
576.767	362.81
576.978	376.81
577.188	380.81
577.399	386.81
577.61	358.81
577.821	376.81
578.032	342.81
578.243	367.81
578.454	338.81
578.665	350.81
578.875	350.81
579.086	354.81
579.297	368.81
579.508	355.81
579.718	361.81
579.929	354.81
580.14	362.81
580.35	338.81
580.561	342.81
580.772	350.81
580.982	328.81
581.193	340.81
581.403	354.81
581.614	345.81
581.825	333.81
582.035	328.81
582.246	324.81
582.456	334.81
582.667	342.81
582.877	340.81
583.087	326.81
583.298	331.81
583.508	325.81
583.719	326.81
583.929	320.81
584.139	321.81
584.35	349.81
584.56	340.81
584.77	320.81
584.981	328.81
585.191	344.81
585.401	337.81
585.611	329.81
585.821	338.81
586.032	338.81
586.242	339.81
586.452	360.81
586.662	330.81
586.872	315.81
587.082	327.81
587.292	307.81
587.502	348.81
587.713	322.81
587.923	313.81
588.133	316.81
588.343	334.81
588.553	325.81
588.762	313.81
588.972	342.81
589.182	324.81
589.392	344.81
589.602	337.81
589.812	309.81
590.022	314.81
590.232	313.81
590.441	330.81
590.651	320.81
590.861	328.81
591.071	342.81
591.281	340.81
591.49	328.81
591.7	329.81
591.91	356.81
592.119	341.81
592.329	347.81
592.539	370.81
592.748	380.81
592.958	373.81
593.167	384.81
593.377	406.81
593.587	424.81
593.796	408.81
594.006	407.81
594.215	406.81
594.424	445.81
594.634	407.81
594.843	403.81
595.053	382.81
595.262	353.81
595.472	360.81
595.681	327.81
595.89	353.81
596.1	331.81
596.309	310.81
596.518	309.81
596.727	314.81
596.937	312.81
597.146	291.81
597.355	302.81
597.564	294.81
597.774	304.81
597.983	278.81
598.192	282.81
598.401	294.81
598.61	280.81
598.819	280.81
599.028	267.81
599.237	285.81
599.446	269.81
599.655	299.81
599.864	286.81
600.073	280.81
600.282	275.81
600.491	288.81
600.7	273.81
600.909	267.81
601.118	286.81
601.327	275.81
601.536	253.81
601.745	260.81
601.953	268.81
602.162	278.81
602.371	280.81
602.58	274.81
602.789	270.81
602.997	282.81
603.206	272.81
603.415	260.81
603.623	264.81
603.832	257.81
604.041	264.81
604.249	283.81
604.458	264.81
604.666	270.81
604.875	264.81
605.084	264.81
605.292	258.81
605.501	266.81
605.709	269.81
605.918	263.81
606.126	261.81
606.334	240.81
606.543	260.81
606.751	247.81
606.96	254.81
607.168	245.81
607.376	251.81
607.585	244.81
607.793	260.81
608.001	259.81
608.21	259.81
608.418	240.81
608.626	251.81
608.834	265.81
609.043	258.81
609.251	250.81
609.459	245.81
609.667	240.81
609.875	250.81
610.083	238.81
610.291	250.81
610.499	248.81
610.707	232.81
610.916	243.81
611.124	242.81
611.332	245.81
611.54	251.81
611.748	234.81
611.955	264.81
612.163	236.81
612.371	233.81
612.579	250.81
612.787	237.81
612.995	236.81
613.203	237.81
613.411	235.81
613.618	243.81
613.826	245.81
614.034	225.81
614.242	248.81
614.449	227.81
614.657	235.81
614.865	259.81
615.072	241.81
615.28	249.81
615.488	250.81
615.695	238.81
615.903	256.81
616.111	240.81
616.318	245.81
616.526	254.81
616.733	247.81
616.941	236.81
617.148	246.81
617.356	251.81
617.563	258.81
617.771	236.81
617.978	226.81
618.185	247.81
618.393	254.81
618.6	234.81
618.807	244.81
619.015	248.81
619.222	221.81
619.429	248.81
619.637	230.81
619.844	252.81
620.051	236.81
620.258	220.81
620.466	231.81
620.673	226.81
620.88	212.81
621.087	216.81
621.294	228.81
621.501	225.81
621.708	232.81
621.915	224.81
622.122	237.81
622.329	221.81
622.536	230.81
622.743	226.81
622.95	220.81
623.157	221.81
623.364	219.81
623.571	201.81
623.778	221.81
623.985	207.81
624.192	237.81
624.399	229.81
624.606	238.81
624.812	203.81
625.019	216.81
625.226	222.81
625.433	226.81
625.639	207.81
625.846	210.81
626.053	218.81
626.259	204.81
626.466	203.81
626.673	223.81
626.879	219.81
627.086	217.81
627.293	200.81
627.499	213.81
627.706	210.81
627.912	210.81
628.119	210.81
628.325	211.81
628.532	200.81
628.738	184.81
628.945	189.81
629.151	188.81
629.357	197.81
629.564	192.81
629.77	204.81
629.976	202.81
630.183	185.81
630.389	199.81
630.595	189.81
630.802	196.81
631.008	191.81
631.214	191.81
631.42	186.81
631.627	196.81
631.833	206.81
632.039	186.81
632.245	197.81
632.451	185.81
632.657	184.81
632.863	185.81
633.069	191.81
633.275	199.81
633.481	181.81
633.688	186.81
633.893	198.81
634.099	186.81
634.305	183.81
634.511	190.81
634.717	177.81
634.923	187.81
635.129	184.81
635.335	186.81
635.541	179.81
635.747	176.81
635.952	163.81
636.158	178.81
636.364	178.81
636.57	166.81
636.775	176.81
636.981	192.81
637.187	162.81
637.392	171.81
637.598	182.81
637.804	179.81
638.009	189.81
638.215	197.81
638.421	177.81
638.626	190.81
638.832	187.81
639.037	181.81
639.243	162.81
639.448	169.81
639.654	190.81
639.859	169.81
640.065	169.81
640.27	184.81
640.475	166.81
640.681	180.81
640.886	164.81
641.091	158.81
641.297	172.81
641.502	176.81
641.707	174.81
641.913	184.81
642.118	171.81
642.323	178.81
642.528	183.81
642.733	169.81
642.939	157.81
643.144	156.81
643.349	162.81
643.554	176.81
643.759	173.81
643.964	180.81
644.169	173.81
644.374	159.81
644.579	172.81
644.784	176.81
644.989	174.81
645.194	168.81
645.399	156.81
645.604	169.81
645.809	167.81
646.014	177.81
646.219	167.81
646.423	158.81
646.628	170.81
646.833	165.81
647.038	164.81
647.243	168.81
647.447	172.81
647.652	187.81
647.857	173.81
648.062	170.81
648.266	166.81
648.471	188.81
648.676	176.81
648.88	190.81
649.085	167.81
649.289	167.81
649.494	159.81
649.698	177.81
649.903	169.81
650.107	166.81
650.312	158.81
650.516	157.81
650.721	163.81
650.925	185.81
651.13	157.81
651.334	162.81
651.539	162.81
651.743	162.81
651.947	146.81
652.152	159.81
652.356	149.81
652.56	150.81
652.764	151.81
652.969	150.81
653.173	148.81
653.377	167.81
653.581	163.81
653.785	148.81
653.99	156.81
654.194	141.81
654.398	138.81
654.602	128.81
654.806	133.81
655.01	167.81
655.214	145.81
655.418	138.81
655.622	130.81
655.826	146.81
656.03	137.81
656.234	161.81
656.438	167.81
656.642	178.81
656.846	139.81
657.049	134.81
657.253	132.81
657.457	123.81
657.661	124.81
657.865	121.81
658.068	113.81
658.272	104.81
658.476	114.81
658.68	114.81
658.883	101.81
659.087	107.81
659.291	107.81
659.494	98.81
659.698	112.81
659.901	108.81
660.105	107.81
660.309	94.81
660.512	102.81
660.716	97.81
660.919	83.81
661.123	102.81
661.326	92.81
661.53	93.81
661.733	102.81
661.936	90.81
662.14	92.81
662.343	90.81
662.546	81.81
662.75	88.81
662.953	98.81
663.156	87.81
663.36	84.81
663.563	85.81
663.766	92.81
663.969	86.81
664.173	80.81
664.376	78.81
664.579	80.81
664.782	84.81
664.985	84.81
665.188	84.81
665.391	93.81
665.594	79.81
665.797	82.81
666	83.81
666.203	81.81
666.406	67.81
666.609	85.81
666.812	75.81
667.015	88.81
667.218	77.81
667.421	86.81
667.624	82.81
667.827	71.81
668.03	76.81
668.232	91.81
668.435	86.81
668.638	86.81
668.841	82.81
669.043	77.81
669.246	84.81
669.449	85.81
669.651	71.81
669.854	77.81
670.057	89.81
670.259	84.81
670.462	75.81
670.665	92.81
670.867	90.81
671.07	58.81
671.272	87.81
671.475	82.81
671.677	85.81
671.88	83.81
672.082	80.81
672.284	69.81
672.487	77.81
672.689	78.81
672.892	72.81
