Data from Ni(NO3)2@0.5M.TitratingCurve.Agarose3%dH2O.NegLispCup.LampEnergy10.LIBS07252019_HRD10591_18-00-06-564.txt Node
Date: Thu Jul 25 18:00:06 EDT 2019
User: cochatt
Spectrometer: HR+D1059
Trigger mode: 1
Integration Time (sec): 1.000000E-1
Scans to average: 1
Electric dark correction enabled: true
Nonlinearity correction enabled: false
Boxcar width: 0
XAxis mode: Wavelengths
Number of Pixels in Spectrum: 2048
>>>>>Begin Spectral Data<<<<<
223.165	-25.56
223.4	-25.56
223.635	-25.56
223.869	-27.56
224.104	-9.56
224.338	-21.56
224.573	-17.56
224.808	-16.56
225.042	-1.56
225.277	-1.56
225.511	-5.56
225.746	12.44
225.98	11.44
226.215	15.44
226.449	17.44
226.683	20.44
226.918	19.44
227.152	30.44
227.387	28.44
227.621	29.44
227.856	43.44
228.09	50.44
228.324	44.44
228.559	60.44
228.793	78.44
229.027	86.44
229.262	100.44
229.496	110.44
229.73	103.44
229.964	113.44
230.199	123.44
230.433	123.44
230.667	133.44
230.901	122.44
231.136	126.44
231.37	140.44
231.604	124.44
231.838	125.44
232.072	144.44
232.306	128.44
232.541	131.44
232.775	127.44
233.009	152.44
233.243	142.44
233.477	142.44
233.711	128.44
233.945	141.44
234.179	137.44
234.413	135.44
234.647	123.44
234.881	128.44
235.115	138.44
235.349	116.44
235.583	124.44
235.817	134.44
236.051	138.44
236.285	138.44
236.519	138.44
236.753	135.44
236.987	148.44
237.221	139.44
237.455	140.44
237.689	138.44
237.922	151.44
238.156	156.44
238.39	134.44
238.624	148.44
238.858	130.44
239.091	149.44
239.325	159.44
239.559	163.44
239.793	152.44
240.027	156.44
240.26	160.44
240.494	159.44
240.728	142.44
240.961	179.44
241.195	168.44
241.429	167.44
241.662	160.44
241.896	172.44
242.13	190.44
242.363	169.44
242.597	167.44
242.83	172.44
243.064	160.44
243.298	183.44
243.531	161.44
243.765	174.44
243.998	184.44
244.232	171.44
244.465	177.44
244.699	173.44
244.932	183.44
245.166	195.44
245.399	185.44
245.633	184.44
245.866	167.44
246.099	171.44
246.333	185.44
246.566	189.44
246.8	187.44
247.033	190.44
247.266	200.44
247.5	192.44
247.733	197.44
247.966	200.44
248.2	198.44
248.433	200.44
248.666	192.44
248.899	202.44
249.133	206.44
249.366	194.44
249.599	204.44
249.832	207.44
250.066	215.44
250.299	217.44
250.532	208.44
250.765	218.44
250.998	220.44
251.231	216.44
251.465	223.44
251.698	208.44
251.931	231.44
252.164	219.44
252.397	219.44
252.63	233.44
252.863	194.44
253.096	222.44
253.329	243.44
253.562	215.44
253.795	220.44
254.028	244.44
254.261	226.44
254.494	220.44
254.727	232.44
254.96	245.44
255.193	242.44
255.426	237.44
255.659	252.44
255.892	246.44
256.124	242.44
256.357	238.44
256.59	224.44
256.823	237.44
257.056	246.44
257.289	260.44
257.521	255.44
257.754	263.44
257.987	254.44
258.22	254.44
258.452	251.44
258.685	270.44
258.918	260.44
259.151	236.44
259.383	248.44
259.616	258.44
259.849	275.44
260.081	278.44
260.314	256.44
260.547	261.44
260.779	283.44
261.012	267.44
261.244	260.44
261.477	273.44
261.71	268.44
261.942	269.44
262.175	276.44
262.407	270.44
262.64	254.44
262.872	274.44
263.105	288.44
263.337	270.44
263.57	279.44
263.802	288.44
264.035	314.44
264.267	274.44
264.499	290.44
264.732	297.44
264.964	288.44
265.197	292.44
265.429	283.44
265.661	295.44
265.894	299.44
266.126	290.44
266.358	304.44
266.591	296.44
266.823	310.44
267.055	308.44
267.287	318.44
267.52	303.44
267.752	290.44
267.984	315.44
268.216	310.44
268.448	298.44
268.681	329.44
268.913	329.44
269.145	320.44
269.377	322.44
269.609	317.44
269.841	318.44
270.073	314.44
270.306	319.44
270.538	298.44
270.77	304.44
271.002	316.44
271.234	307.44
271.466	317.44
271.698	303.44
271.93	323.44
272.162	322.44
272.394	324.44
272.626	340.44
272.858	315.44
273.09	333.44
273.322	341.44
273.553	320.44
273.785	334.44
274.017	342.44
274.249	331.44
274.481	324.44
274.713	336.44
274.945	339.44
275.176	347.44
275.408	338.44
275.64	353.44
275.872	347.44
276.104	356.44
276.335	361.44
276.567	363.44
276.799	340.44
277.031	357.44
277.262	373.44
277.494	356.44
277.726	359.44
277.957	363.44
278.189	351.44
278.421	341.44
278.652	373.44
278.884	372.44
279.115	366.44
279.347	372.44
279.579	372.44
279.81	371.44
280.042	367.44
280.273	370.44
280.505	345.44
280.736	370.44
280.968	367.44
281.199	369.44
281.431	380.44
281.662	403.44
281.894	372.44
282.125	383.44
282.356	391.44
282.588	403.44
282.819	382.44
283.051	399.44
283.282	398.44
283.513	392.44
283.745	397.44
283.976	404.44
284.207	394.44
284.439	408.44
284.67	416.44
284.901	408.44
285.132	404.44
285.364	393.44
285.595	402.44
285.826	390.44
286.057	408.44
286.288	388.44
286.52	404.44
286.751	414.44
286.982	399.44
287.213	421.44
287.444	421.44
287.675	399.44
287.906	404.44
288.138	436.44
288.369	422.44
288.6	436.44
288.831	431.44
289.062	434.44
289.293	404.44
289.524	403.44
289.755	408.44
289.986	418.44
290.217	426.44
290.448	428.44
290.679	434.44
290.91	430.44
291.141	423.44
291.371	424.44
291.602	442.44
291.833	446.44
292.064	421.44
292.295	435.44
292.526	440.44
292.757	431.44
292.987	399.44
293.218	425.44
293.449	419.44
293.68	412.44
293.91	410.44
294.141	424.44
294.372	444.44
294.603	446.44
294.833	443.44
295.064	437.44
295.295	434.44
295.525	415.44
295.756	432.44
295.987	455.44
296.217	417.44
296.448	438.44
296.679	439.44
296.909	454.44
297.14	452.44
297.37	424.44
297.601	458.44
297.831	462.44
298.062	441.44
298.292	479.44
298.523	488.44
298.753	478.44
298.984	463.44
299.214	411.44
299.445	468.44
299.675	488.44
299.905	487.44
300.136	478.44
300.366	480.44
300.597	517.44
300.827	499.44
301.057	471.44
301.288	494.44
301.518	474.44
301.748	490.44
301.979	479.44
302.209	489.44
302.439	489.44
302.669	487.44
302.9	477.44
303.13	478.44
303.36	481.44
303.59	501.44
303.82	490.44
304.051	482.44
304.281	498.44
304.511	460.44
304.741	500.44
304.971	518.44
305.201	501.44
305.431	513.44
305.661	518.44
305.891	516.44
306.121	483.44
306.352	491.44
306.582	482.44
306.812	499.44
307.042	499.44
307.272	496.44
307.502	477.44
307.731	463.44
307.961	494.44
308.191	475.44
308.421	468.44
308.651	481.44
308.881	483.44
309.111	454.44
309.341	489.44
309.571	486.44
309.8	477.44
310.03	501.44
310.26	486.44
310.49	522.44
310.72	492.44
310.949	502.44
311.179	500.44
311.409	520.44
311.639	496.44
311.868	511.44
312.098	489.44
312.328	502.44
312.557	519.44
312.787	525.44
313.017	508.44
313.246	516.44
313.476	516.44
313.706	538.44
313.935	514.44
314.165	500.44
314.394	523.44
314.624	532.44
314.853	520.44
315.083	527.44
315.312	522.44
315.542	523.44
315.771	513.44
316.001	555.44
316.23	525.44
316.46	538.44
316.689	521.44
316.919	532.44
317.148	526.44
317.377	516.44
317.607	515.44
317.836	539.44
318.065	523.44
318.295	506.44
318.524	520.44
318.753	530.44
318.983	523.44
319.212	518.44
319.441	524.44
319.67	548.44
319.9	540.44
320.129	519.44
320.358	538.44
320.587	549.44
320.816	538.44
321.046	527.44
321.275	545.44
321.504	542.44
321.733	547.44
321.962	526.44
322.191	528.44
322.42	549.44
322.649	547.44
322.878	560.44
323.108	536.44
323.337	525.44
323.566	551.44
323.795	570.44
324.024	566.44
324.253	544.44
324.482	563.44
324.71	558.44
324.939	594.44
325.168	597.44
325.397	564.44
325.626	542.44
325.855	582.44
326.084	579.44
326.313	595.44
326.542	584.44
326.77	581.44
326.999	586.44
327.228	559.44
327.457	584.44
327.686	578.44
327.914	612.44
328.143	584.44
328.372	598.44
328.6	583.44
328.829	582.44
329.058	590.44
329.287	592.44
329.515	581.44
329.744	593.44
329.972	604.44
330.201	621.44
330.43	616.44
330.658	597.44
330.887	606.44
331.115	599.44
331.344	614.44
331.572	635.44
331.801	636.44
332.03	646.44
332.258	644.44
332.486	646.44
332.715	675.44
332.943	665.44
333.172	710.44
333.4	706.44
333.629	713.44
333.857	751.44
334.085	770.44
334.314	734.44
334.542	754.44
334.771	772.44
334.999	752.44
335.227	750.44
335.455	744.44
335.684	728.44
335.912	735.44
336.14	738.44
336.369	728.44
336.597	733.44
336.825	715.44
337.053	733.44
337.281	713.44
337.51	710.44
337.738	714.44
337.966	681.44
338.194	699.44
338.422	661.44
338.65	659.44
338.878	665.44
339.106	662.44
339.334	662.44
339.562	665.44
339.79	668.44
340.018	640.44
340.246	626.44
340.474	630.44
340.702	637.44
340.93	637.44
341.158	667.44
341.386	665.44
341.614	676.44
341.842	658.44
342.07	642.44
342.298	633.44
342.526	648.44
342.754	636.44
342.981	621.44
343.209	648.44
343.437	686.44
343.665	676.44
343.893	749.44
344.12	732.44
344.348	732.44
344.576	720.44
344.804	679.44
345.031	673.44
345.259	671.44
345.487	657.44
345.714	665.44
345.942	648.44
346.17	652.44
346.397	673.44
346.625	633.44
346.853	597.44
347.08	602.44
347.308	636.44
347.535	630.44
347.763	612.44
347.99	618.44
348.218	599.44
348.445	606.44
348.673	602.44
348.9	580.44
349.128	602.44
349.355	605.44
349.583	634.44
349.81	634.44
350.037	617.44
350.265	613.44
350.492	606.44
350.72	586.44
350.947	600.44
351.174	602.44
351.402	606.44
351.629	636.44
351.856	638.44
352.083	610.44
352.311	621.44
352.538	614.44
352.765	633.44
352.992	610.44
353.22	570.44
353.447	579.44
353.674	592.44
353.901	598.44
354.128	608.44
354.355	600.44
354.583	584.44
354.81	581.44
355.037	583.44
355.264	586.44
355.491	568.44
355.718	592.44
355.945	591.44
356.172	596.44
356.399	604.44
356.626	611.44
356.853	602.44
357.08	602.44
357.307	591.44
357.534	602.44
357.761	582.44
357.988	588.44
358.215	610.44
358.441	588.44
358.668	583.44
358.895	586.44
359.122	611.44
359.349	629.44
359.576	592.44
359.802	617.44
360.029	607.44
360.256	608.44
360.483	619.44
360.709	605.44
360.936	589.44
361.163	614.44
361.39	616.44
361.616	616.44
361.843	604.44
362.07	634.44
362.296	624.44
362.523	616.44
362.749	581.44
362.976	592.44
363.203	591.44
363.429	589.44
363.656	620.44
363.882	610.44
364.109	610.44
364.335	591.44
364.562	574.44
364.788	595.44
365.015	607.44
365.241	583.44
365.468	589.44
365.694	582.44
365.92	574.44
366.147	578.44
366.373	604.44
366.599	590.44
366.826	588.44
367.052	595.44
367.278	622.44
367.505	612.44
367.731	622.44
367.957	607.44
368.184	601.44
368.41	606.44
368.636	611.44
368.862	591.44
369.089	597.44
369.315	627.44
369.541	627.44
369.767	621.44
369.993	621.44
370.219	627.44
370.445	620.44
370.672	623.44
370.898	635.44
371.124	642.44
371.35	650.44
371.576	643.44
371.802	653.44
372.028	623.44
372.254	656.44
372.48	662.44
372.706	674.44
372.932	643.44
373.158	687.44
373.384	660.44
373.61	667.44
373.835	652.44
374.061	652.44
374.287	642.44
374.513	668.44
374.739	681.44
374.965	693.44
375.191	703.44
375.416	701.44
375.642	688.44
375.868	656.44
376.094	661.44
376.319	661.44
376.545	678.44
376.771	675.44
376.997	640.44
377.222	645.44
377.448	654.44
377.674	670.44
377.899	656.44
378.125	632.44
378.35	635.44
378.576	668.44
378.802	663.44
379.027	631.44
379.253	629.44
379.478	622.44
379.704	640.44
379.929	654.44
380.155	669.44
380.38	656.44
380.606	650.44
380.831	661.44
381.057	659.44
381.282	648.44
381.507	636.44
381.733	657.44
381.958	642.44
382.184	656.44
382.409	670.44
382.634	667.44
382.86	655.44
383.085	673.44
383.31	695.44
383.535	666.44
383.761	673.44
383.986	701.44
384.211	683.44
384.436	704.44
384.662	704.44
384.887	718.44
385.112	727.44
385.337	746.44
385.562	766.44
385.787	759.44
386.013	764.44
386.238	738.44
386.463	780.44
386.688	774.44
386.913	751.44
387.138	773.44
387.363	756.44
387.588	773.44
387.813	763.44
388.038	748.44
388.263	757.44
388.488	785.44
388.713	757.44
388.938	773.44
389.163	770.44
389.387	775.44
389.612	760.44
389.837	754.44
390.062	778.44
390.287	760.44
390.512	750.44
390.736	774.44
390.961	794.44
391.186	790.44
391.411	826.44
391.636	811.44
391.86	833.44
392.085	849.44
392.31	839.44
392.534	792.44
392.759	829.44
392.984	816.44
393.208	820.44
393.433	837.44
393.658	808.44
393.882	813.44
394.107	822.44
394.331	810.44
394.556	809.44
394.78	813.44
395.005	820.44
395.229	805.44
395.454	836.44
395.678	841.44
395.903	829.44
396.127	846.44
396.352	826.44
396.576	827.44
396.801	840.44
397.025	842.44
397.249	842.44
397.474	883.44
397.698	882.44
397.922	852.44
398.147	876.44
398.371	915.44
398.595	927.44
398.82	966.44
399.044	996.44
399.268	1071.44
399.492	1150.44
399.717	1180.44
399.941	1237.44
400.165	1160.44
400.389	1092.44
400.613	1041.44
400.837	1040.44
401.062	1009.44
401.286	971.44
401.51	959.44
401.734	940.44
401.958	975.44
402.182	994.44
402.406	967.44
402.63	974.44
402.854	973.44
403.078	965.44
403.302	967.44
403.526	975.44
403.75	997.44
403.974	1006.44
404.198	981.44
404.422	997.44
404.645	1013.44
404.869	1006.44
405.093	1000.44
405.317	1007.44
405.541	1006.44
405.765	983.44
405.988	1018.44
406.212	1007.44
406.436	1020.44
406.66	1037.44
406.883	1022.44
407.107	1111.44
407.331	1132.44
407.555	1134.44
407.778	1167.44
408.002	1145.44
408.226	1118.44
408.449	1087.44
408.673	1063.44
408.896	1080.44
409.12	1048.44
409.344	1045.44
409.567	1064.44
409.791	1065.44
410.014	1044.44
410.238	1034.44
410.461	1046.44
410.685	1026.44
410.908	992.44
411.132	1011.44
411.355	975.44
411.578	1002.44
411.802	1017.44
412.025	1006.44
412.249	987.44
412.472	987.44
412.695	973.44
412.919	964.44
413.142	941.44
413.365	971.44
413.589	966.44
413.812	956.44
414.035	958.44
414.258	986.44
414.482	968.44
414.705	978.44
414.928	985.44
415.151	979.44
415.374	950.44
415.597	959.44
415.821	918.44
416.044	900.44
416.267	922.44
416.49	917.44
416.713	920.44
416.936	904.44
417.159	888.44
417.382	910.44
417.605	904.44
417.828	923.44
418.051	937.44
418.274	917.44
418.497	930.44
418.72	949.44
418.943	936.44
419.166	988.44
419.389	1040.44
419.611	1011.44
419.834	980.44
420.057	982.44
420.28	910.44
420.503	907.44
420.726	903.44
420.948	902.44
421.171	947.44
421.394	924.44
421.617	941.44
421.839	908.44
422.062	914.44
422.285	901.44
422.507	936.44
422.73	916.44
422.953	936.44
423.175	901.44
423.398	909.44
423.621	919.44
423.843	939.44
424.066	944.44
424.288	941.44
424.511	928.44
424.733	920.44
424.956	911.44
425.178	925.44
425.401	919.44
425.623	912.44
425.846	923.44
426.068	906.44
426.291	892.44
426.513	895.44
426.735	906.44
426.958	870.44
427.18	870.44
427.402	883.44
427.625	873.44
427.847	827.44
428.069	842.44
428.292	858.44
428.514	831.44
428.736	857.44
428.958	868.44
429.181	867.44
429.403	838.44
429.625	852.44
429.847	841.44
430.069	856.44
430.292	850.44
430.514	848.44
430.736	847.44
430.958	841.44
431.18	854.44
431.402	849.44
431.624	835.44
431.846	856.44
432.068	835.44
432.29	888.44
432.512	862.44
432.734	866.44
432.956	839.44
433.178	830.44
433.4	846.44
433.622	895.44
433.844	871.44
434.066	888.44
434.287	894.44
434.509	896.44
434.731	915.44
434.953	944.44
435.175	944.44
435.397	922.44
435.618	908.44
435.84	871.44
436.062	866.44
436.284	862.44
436.505	851.44
436.727	851.44
436.949	838.44
437.17	862.44
437.392	840.44
437.614	821.44
437.835	830.44
438.057	809.44
438.278	816.44
438.5	846.44
438.721	820.44
438.943	814.44
439.165	832.44
439.386	820.44
439.608	846.44
439.829	863.44
440.05	841.44
440.272	834.44
440.493	840.44
440.715	862.44
440.936	887.44
441.158	884.44
441.379	896.44
441.6	924.44
441.822	930.44
442.043	932.44
442.264	917.44
442.486	892.44
442.707	936.44
442.928	908.44
443.149	933.44
443.371	917.44
443.592	934.44
443.813	935.44
444.034	927.44
444.255	953.44
444.476	950.44
444.698	1012.44
444.919	1028.44
445.14	1057.44
445.361	1014.44
445.582	973.44
445.803	915.44
446.024	894.44
446.245	916.44
446.466	885.44
446.687	870.44
446.908	834.44
447.129	829.44
447.35	826.44
447.571	819.44
447.792	837.44
448.013	811.44
448.234	792.44
448.455	803.44
448.675	784.44
448.896	806.44
449.117	750.44
449.338	774.44
449.559	792.44
449.779	783.44
450	764.44
450.221	770.44
450.442	765.44
450.662	799.44
450.883	791.44
451.104	803.44
451.324	795.44
451.545	787.44
451.766	756.44
451.986	757.44
452.207	782.44
452.428	772.44
452.648	772.44
452.869	744.44
453.089	725.44
453.31	771.44
453.53	767.44
453.751	768.44
453.971	750.44
454.192	731.44
454.412	750.44
454.633	749.44
454.853	760.44
455.073	756.44
455.294	745.44
455.514	716.44
455.734	736.44
455.955	725.44
456.175	752.44
456.395	770.44
456.616	735.44
456.836	734.44
457.056	730.44
457.276	739.44
457.497	755.44
457.717	772.44
457.937	732.44
458.157	770.44
458.377	772.44
458.598	763.44
458.818	792.44
459.038	820.44
459.258	834.44
459.478	838.44
459.698	877.44
459.918	889.44
460.138	903.44
460.358	941.44
460.578	965.44
460.798	938.44
461.018	983.44
461.238	968.44
461.458	969.44
461.678	962.44
461.898	981.44
462.118	980.44
462.338	1042.44
462.558	1065.44
462.777	1072.44
462.997	1125.44
463.217	1184.44
463.437	1170.44
463.657	1135.44
463.876	1096.44
464.096	1078.44
464.316	1083.44
464.536	1062.44
464.755	1068.44
464.975	1013.44
465.195	965.44
465.414	950.44
465.634	898.44
465.854	898.44
466.073	873.44
466.293	862.44
466.512	840.44
466.732	802.44
466.951	826.44
467.171	840.44
467.391	830.44
467.61	799.44
467.829	804.44
468.049	808.44
468.268	796.44
468.488	782.44
468.707	770.44
468.927	826.44
469.146	805.44
469.365	804.44
469.585	815.44
469.804	807.44
470.023	823.44
470.243	795.44
470.462	841.44
470.681	837.44
470.901	833.44
471.12	821.44
471.339	830.44
471.558	776.44
471.777	792.44
471.997	783.44
472.216	782.44
472.435	794.44
472.654	764.44
472.873	760.44
473.092	785.44
473.311	784.44
473.53	755.44
473.749	794.44
473.968	810.44
474.187	759.44
474.406	768.44
474.625	765.44
474.844	775.44
475.063	787.44
475.282	777.44
475.501	773.44
475.72	796.44
475.939	791.44
476.158	806.44
476.377	820.44
476.596	825.44
476.814	822.44
477.033	785.44
477.252	835.44
477.471	842.44
477.69	863.44
477.908	855.44
478.127	899.44
478.346	904.44
478.564	894.44
478.783	935.44
479.002	926.44
479.22	973.44
479.439	902.44
479.658	963.44
479.876	934.44
480.095	925.44
480.313	971.44
480.532	982.44
480.751	967.44
480.969	936.44
481.188	933.44
481.406	931.44
481.624	899.44
481.843	915.44
482.061	931.44
482.28	889.44
482.498	896.44
482.717	888.44
482.935	901.44
483.153	922.44
483.372	898.44
483.59	884.44
483.808	893.44
484.027	905.44
484.245	922.44
484.463	902.44
484.681	908.44
484.9	901.44
485.118	901.44
485.336	926.44
485.554	909.44
485.772	952.44
485.99	930.44
486.209	913.44
486.427	942.44
486.645	958.44
486.863	923.44
487.081	922.44
487.299	936.44
487.517	940.44
487.735	929.44
487.953	941.44
488.171	967.44
488.389	926.44
488.607	902.44
488.825	900.44
489.043	945.44
489.261	922.44
489.479	908.44
489.696	914.44
489.914	898.44
490.132	936.44
490.35	915.44
490.568	968.44
490.786	961.44
491.003	946.44
491.221	932.44
491.439	928.44
491.657	922.44
491.874	931.44
492.092	939.44
492.31	972.44
492.527	960.44
492.745	954.44
492.963	956.44
493.18	954.44
493.398	968.44
493.615	970.44
493.833	971.44
494.05	998.44
494.268	983.44
494.485	971.44
494.703	970.44
494.92	964.44
495.138	1003.44
495.355	985.44
495.573	972.44
495.79	994.44
496.008	990.44
496.225	1025.44
496.442	1042.44
496.66	1044.44
496.877	1040.44
497.094	1100.44
497.312	1064.44
497.529	1095.44
497.746	1144.44
497.963	1180.44
498.181	1229.44
498.398	1257.44
498.615	1290.44
498.832	1386.44
499.049	1423.44
499.267	1538.44
499.484	1622.44
499.701	1766.44
499.918	1870.44
500.135	2011.44
500.352	2111.44
500.569	2186.44
500.786	2183.44
501.003	2086.44
501.22	1953.44
501.437	1877.44
501.654	1681.44
501.871	1623.44
502.088	1498.44
502.305	1424.44
502.522	1369.44
502.739	1316.44
502.956	1266.44
503.172	1220.44
503.389	1151.44
503.606	1176.44
503.823	1152.44
504.04	1129.44
504.256	1128.44
504.473	1094.44
504.69	1086.44
504.907	1068.44
505.123	1061.44
505.34	1010.44
505.557	975.44
505.773	955.44
505.99	942.44
506.207	912.44
506.423	909.44
506.64	884.44
506.856	892.44
507.073	891.44
507.289	895.44
507.506	881.44
507.722	861.44
507.939	846.44
508.155	846.44
508.372	837.44
508.588	824.44
508.805	802.44
509.021	799.44
509.238	814.44
509.454	834.44
509.67	793.44
509.887	777.44
510.103	813.44
510.319	783.44
510.536	782.44
510.752	799.44
510.968	780.44
511.184	762.44
511.401	787.44
511.617	794.44
511.833	787.44
512.049	770.44
512.265	780.44
512.481	767.44
512.698	794.44
512.914	801.44
513.13	794.44
513.346	796.44
513.562	778.44
513.778	769.44
513.994	778.44
514.21	776.44
514.426	779.44
514.642	802.44
514.858	815.44
515.074	803.44
515.29	826.44
515.506	813.44
515.721	848.44
515.937	826.44
516.153	842.44
516.369	862.44
516.585	892.44
516.801	897.44
517.016	901.44
517.232	935.44
517.448	951.44
517.664	966.44
517.879	935.44
518.095	990.44
518.311	965.44
518.527	952.44
518.742	938.44
518.958	913.44
519.173	879.44
519.389	879.44
519.605	835.44
519.82	857.44
520.036	822.44
520.251	764.44
520.467	776.44
520.682	795.44
520.898	778.44
521.113	790.44
521.329	750.44
521.544	737.44
521.76	746.44
521.975	743.44
522.19	742.44
522.406	754.44
522.621	734.44
522.836	721.44
523.052	708.44
523.267	710.44
523.482	711.44
523.698	719.44
523.913	706.44
524.128	698.44
524.343	739.44
524.559	715.44
524.774	706.44
524.989	727.44
525.204	714.44
525.419	682.44
525.634	719.44
525.849	706.44
526.064	692.44
526.28	677.44
526.495	716.44
526.71	694.44
526.925	672.44
527.14	676.44
527.355	661.44
527.57	687.44
527.785	686.44
527.999	693.44
528.214	716.44
528.429	702.44
528.644	705.44
528.859	694.44
529.074	703.44
529.289	699.44
529.503	681.44
529.718	670.44
529.933	694.44
530.148	699.44
530.363	718.44
530.577	676.44
530.792	694.44
531.007	695.44
531.221	677.44
531.436	673.44
531.651	694.44
531.865	696.44
532.08	647.44
532.295	689.44
532.509	674.44
532.724	684.44
532.938	691.44
533.153	690.44
533.367	674.44
533.582	678.44
533.796	697.44
534.011	689.44
534.225	716.44
534.44	655.44
534.654	650.44
534.868	653.44
535.083	670.44
535.297	672.44
535.511	662.44
535.726	669.44
535.94	659.44
536.154	660.44
536.369	671.44
536.583	644.44
536.797	686.44
537.011	646.44
537.225	627.44
537.44	643.44
537.654	649.44
537.868	655.44
538.082	627.44
538.296	621.44
538.51	612.44
538.724	624.44
538.938	645.44
539.153	646.44
539.367	650.44
539.581	632.44
539.795	611.44
540.009	615.44
540.222	635.44
540.436	631.44
540.65	634.44
540.864	642.44
541.078	615.44
541.292	626.44
541.506	638.44
541.72	619.44
541.934	627.44
542.147	663.44
542.361	647.44
542.575	639.44
542.789	630.44
543.002	595.44
543.216	605.44
543.43	629.44
543.644	621.44
543.857	622.44
544.071	622.44
544.285	614.44
544.498	632.44
544.712	636.44
544.925	655.44
545.139	637.44
545.352	631.44
545.566	636.44
545.779	639.44
545.993	654.44
546.206	656.44
546.42	646.44
546.633	648.44
546.847	643.44
547.06	635.44
547.274	631.44
547.487	653.44
547.7	628.44
547.914	652.44
548.127	675.44
548.34	642.44
548.554	652.44
548.767	661.44
548.98	639.44
549.193	638.44
549.407	639.44
549.62	633.44
549.833	652.44
550.046	647.44
550.259	623.44
550.473	623.44
550.686	651.44
550.899	641.44
551.112	630.44
551.325	636.44
551.538	645.44
551.751	622.44
551.964	639.44
552.177	634.44
552.39	629.44
552.603	626.44
552.816	638.44
553.029	660.44
553.242	674.44
553.455	684.44
553.667	676.44
553.88	682.44
554.093	637.44
554.306	644.44
554.519	634.44
554.732	626.44
554.944	606.44
555.157	615.44
555.37	596.44
555.583	583.44
555.795	602.44
556.008	594.44
556.221	552.44
556.433	559.44
556.646	564.44
556.859	558.44
557.071	566.44
557.284	546.44
557.496	551.44
557.709	572.44
557.921	557.44
558.134	571.44
558.346	568.44
558.559	546.44
558.771	540.44
558.984	551.44
559.196	529.44
559.409	550.44
559.621	528.44
559.833	520.44
560.046	531.44
560.258	520.44
560.47	557.44
560.683	531.44
560.895	516.44
561.107	546.44
561.32	543.44
561.532	532.44
561.744	542.44
561.956	530.44
562.168	520.44
562.381	550.44
562.593	519.44
562.805	540.44
563.017	524.44
563.229	567.44
563.441	536.44
563.653	536.44
563.865	541.44
564.077	530.44
564.289	553.44
564.501	544.44
564.713	584.44
564.925	573.44
565.137	581.44
565.349	603.44
565.561	593.44
565.773	623.44
565.985	644.44
566.197	649.44
566.408	679.44
566.62	701.44
566.832	751.44
567.044	744.44
567.255	759.44
567.467	784.44
567.679	815.44
567.891	819.44
568.102	828.44
568.314	782.44
568.526	750.44
568.737	723.44
568.949	681.44
569.161	638.44
569.372	602.44
569.584	590.44
569.795	588.44
570.007	569.44
570.218	550.44
570.43	566.44
570.641	520.44
570.853	529.44
571.064	504.44
571.276	508.44
571.487	534.44
571.698	500.44
571.91	484.44
572.121	496.44
572.333	470.44
572.544	476.44
572.755	444.44
572.966	461.44
573.178	476.44
573.389	452.44
573.6	458.44
573.811	445.44
574.023	444.44
574.234	438.44
574.445	438.44
574.656	439.44
574.867	430.44
575.078	426.44
575.289	437.44
575.501	422.44
575.712	404.44
575.923	413.44
576.134	426.44
576.345	438.44
576.556	440.44
576.767	411.44
576.978	412.44
577.188	406.44
577.399	389.44
577.61	412.44
577.821	415.44
578.032	382.44
578.243	391.44
578.454	413.44
578.665	412.44
578.875	381.44
579.086	406.44
579.297	388.44
579.508	380.44
579.718	389.44
579.929	375.44
580.14	383.44
580.35	394.44
580.561	385.44
580.772	359.44
580.982	400.44
581.193	374.44
581.403	376.44
581.614	395.44
581.825	378.44
582.035	361.44
582.246	382.44
582.456	368.44
582.667	351.44
582.877	373.44
583.087	360.44
583.298	372.44
583.508	372.44
583.719	348.44
583.929	376.44
584.139	349.44
584.35	350.44
584.56	372.44
584.77	370.44
584.981	345.44
585.191	366.44
585.401	354.44
585.611	350.44
585.821	380.44
586.032	359.44
586.242	364.44
586.452	366.44
586.662	380.44
586.872	372.44
587.082	371.44
587.292	352.44
587.502	350.44
587.713	354.44
587.923	352.44
588.133	348.44
588.343	342.44
588.553	346.44
588.762	350.44
588.972	381.44
589.182	374.44
589.392	348.44
589.602	348.44
589.812	340.44
590.022	372.44
590.232	354.44
590.441	372.44
590.651	361.44
590.861	372.44
591.071	355.44
591.281	372.44
591.49	357.44
591.7	365.44
591.91	370.44
592.119	378.44
592.329	383.44
592.539	386.44
592.748	395.44
592.958	389.44
593.167	379.44
593.377	391.44
593.587	407.44
593.796	408.44
594.006	402.44
594.215	418.44
594.424	387.44
594.634	395.44
594.843	375.44
595.053	380.44
595.262	406.44
595.472	384.44
595.681	380.44
595.89	349.44
596.1	345.44
596.309	337.44
596.518	333.44
596.727	341.44
596.937	350.44
597.146	308.44
597.355	333.44
597.564	337.44
597.774	304.44
597.983	326.44
598.192	293.44
598.401	320.44
598.61	298.44
598.819	331.44
599.028	317.44
599.237	290.44
599.446	306.44
599.655	306.44
599.864	319.44
600.073	302.44
600.282	302.44
600.491	297.44
600.7	322.44
600.909	313.44
601.118	299.44
601.327	296.44
601.536	290.44
601.745	303.44
601.953	294.44
602.162	294.44
602.371	281.44
602.58	289.44
602.789	294.44
602.997	285.44
603.206	293.44
603.415	292.44
603.623	270.44
603.832	275.44
604.041	292.44
604.249	281.44
604.458	279.44
604.666	266.44
604.875	273.44
605.084	274.44
605.292	279.44
605.501	290.44
605.709	287.44
605.918	284.44
606.126	285.44
606.334	276.44
606.543	260.44
606.751	286.44
606.96	271.44
607.168	272.44
607.376	280.44
607.585	287.44
607.793	282.44
608.001	268.44
608.21	266.44
608.418	273.44
608.626	272.44
608.834	268.44
609.043	263.44
609.251	262.44
609.459	279.44
609.667	274.44
609.875	257.44
610.083	270.44
610.291	275.44
610.499	272.44
610.707	263.44
610.916	280.44
611.124	262.44
611.332	274.44
611.54	260.44
611.748	249.44
611.955	270.44
612.163	261.44
612.371	262.44
612.579	280.44
612.787	277.44
612.995	264.44
613.203	249.44
613.411	258.44
613.618	250.44
613.826	265.44
614.034	257.44
614.242	251.44
614.449	264.44
614.657	266.44
614.865	252.44
615.072	266.44
615.28	262.44
615.488	266.44
615.695	270.44
615.903	263.44
616.111	258.44
616.318	267.44
616.526	258.44
616.733	236.44
616.941	258.44
617.148	272.44
617.356	256.44
617.563	252.44
617.771	256.44
617.978	261.44
618.185	252.44
618.393	256.44
618.6	252.44
618.807	250.44
619.015	246.44
619.222	250.44
619.429	255.44
619.637	246.44
619.844	233.44
620.051	243.44
620.258	267.44
620.466	236.44
620.673	232.44
620.88	222.44
621.087	221.44
621.294	245.44
621.501	221.44
621.708	226.44
621.915	242.44
622.122	242.44
622.329	238.44
622.536	237.44
622.743	252.44
622.95	244.44
623.157	238.44
623.364	233.44
623.571	226.44
623.778	213.44
623.985	245.44
624.192	235.44
624.399	233.44
624.606	238.44
624.812	227.44
625.019	228.44
625.226	227.44
625.433	221.44
625.639	224.44
625.846	236.44
626.053	220.44
626.259	234.44
626.466	219.44
626.673	221.44
626.879	229.44
627.086	230.44
627.293	219.44
627.499	218.44
627.706	227.44
627.912	225.44
628.119	212.44
628.325	215.44
628.532	205.44
628.738	214.44
628.945	216.44
629.151	211.44
629.357	216.44
629.564	197.44
629.77	209.44
629.976	221.44
630.183	208.44
630.389	207.44
630.595	211.44
630.802	209.44
631.008	211.44
631.214	205.44
631.42	202.44
631.627	202.44
631.833	213.44
632.039	204.44
632.245	197.44
632.451	206.44
632.657	201.44
632.863	200.44
633.069	198.44
633.275	213.44
633.481	205.44
633.688	201.44
633.893	211.44
634.099	195.44
634.305	206.44
634.511	198.44
634.717	190.44
634.923	207.44
635.129	198.44
635.335	194.44
635.541	180.44
635.747	207.44
635.952	199.44
636.158	197.44
636.364	195.44
636.57	200.44
636.775	184.44
636.981	190.44
637.187	199.44
637.392	196.44
637.598	191.44
637.804	174.44
638.009	197.44
638.215	205.44
638.421	195.44
638.626	183.44
638.832	190.44
639.037	185.44
639.243	183.44
639.448	186.44
639.654	189.44
639.859	179.44
640.065	198.44
640.27	188.44
640.475	178.44
640.681	190.44
640.886	183.44
641.091	175.44
641.297	189.44
641.502	187.44
641.707	183.44
641.913	197.44
642.118	178.44
642.323	180.44
642.528	190.44
642.733	176.44
642.939	173.44
643.144	192.44
643.349	182.44
643.554	170.44
643.759	191.44
643.964	160.44
644.169	199.44
644.374	167.44
644.579	176.44
644.784	186.44
644.989	188.44
645.194	171.44
645.399	170.44
645.604	172.44
645.809	195.44
646.014	178.44
646.219	192.44
646.423	190.44
646.628	187.44
646.833	192.44
647.038	178.44
647.243	193.44
647.447	194.44
647.652	183.44
647.857	190.44
648.062	189.44
648.266	198.44
648.471	185.44
648.676	198.44
648.88	196.44
649.085	173.44
649.289	186.44
649.494	182.44
649.698	194.44
649.903	189.44
650.107	196.44
650.312	184.44
650.516	190.44
650.721	171.44
650.925	168.44
651.13	162.44
651.334	177.44
651.539	169.44
651.743	170.44
651.947	172.44
652.152	164.44
652.356	153.44
652.56	171.44
652.764	150.44
652.969	154.44
653.173	173.44
653.377	160.44
653.581	172.44
653.785	173.44
653.99	177.44
654.194	164.44
654.398	168.44
654.602	170.44
654.806	176.44
655.01	157.44
655.214	146.44
655.418	162.44
655.622	160.44
655.826	152.44
656.03	163.44
656.234	146.44
656.438	162.44
656.642	183.44
656.846	172.44
657.049	149.44
657.253	143.44
657.457	145.44
657.661	132.44
657.865	134.44
658.068	130.44
658.272	131.44
658.476	126.44
658.68	119.44
658.883	122.44
659.087	117.44
659.291	120.44
659.494	114.44
659.698	112.44
659.901	103.44
660.105	115.44
660.309	100.44
660.512	106.44
660.716	103.44
660.919	93.44
661.123	90.44
661.326	98.44
661.53	111.44
661.733	90.44
661.936	94.44
662.14	95.44
662.343	74.44
662.546	86.44
662.75	90.44
662.953	81.44
663.156	85.44
663.36	88.44
663.563	88.44
663.766	79.44
663.969	77.44
664.173	77.44
664.376	81.44
664.579	82.44
664.782	92.44
664.985	87.44
665.188	80.44
665.391	81.44
665.594	78.44
665.797	89.44
666	78.44
666.203	88.44
666.406	78.44
666.609	90.44
666.812	90.44
667.015	92.44
667.218	78.44
667.421	92.44
667.624	93.44
667.827	71.44
668.03	87.44
668.232	62.44
668.435	87.44
668.638	61.44
668.841	84.44
669.043	89.44
669.246	85.44
669.449	88.44
669.651	85.44
669.854	78.44
670.057	78.44
670.259	76.44
670.462	74.44
670.665	84.44
670.867	81.44
671.07	81.44
671.272	88.44
671.475	88.44
671.677	77.44
671.88	72.44
672.082	99.44
672.284	80.44
672.487	80.44
672.689	81.44
672.892	80.44
