Data from Ni(NO3)2@0.0625M.TitratingCurve.Agarose3%dH2O.NegLispCup.LampEnergy10.LIBS07252019_HRD10591_18-13-00-568.txt Node
Date: Thu Jul 25 18:13:00 EDT 2019
User: cochatt
Spectrometer: HR+D1059
Trigger mode: 1
Integration Time (sec): 1.000000E-1
Scans to average: 1
Electric dark correction enabled: true
Nonlinearity correction enabled: false
Boxcar width: 0
XAxis mode: Wavelengths
Number of Pixels in Spectrum: 2048
>>>>>Begin Spectral Data<<<<<
223.165	-24.31
223.4	-24.31
223.635	-24.31
223.869	-4.31
224.104	-23.31
224.338	-23.31
224.573	-11.31
224.808	-12.31
225.042	-2.31
225.277	-4.31
225.511	-9.31
225.746	9.69
225.98	10.69
226.215	-0.31
226.449	15.69
226.683	36.69
226.918	21.69
227.152	20.69
227.387	51.69
227.621	24.69
227.856	44.69
228.09	53.69
228.324	44.69
228.559	38.69
228.793	69.69
229.027	88.69
229.262	94.69
229.496	103.69
229.73	100.69
229.964	131.69
230.199	106.69
230.433	121.69
230.667	128.69
230.901	117.69
231.136	122.69
231.37	114.69
231.604	132.69
231.838	107.69
232.072	123.69
232.306	134.69
232.541	136.69
232.775	137.69
233.009	129.69
233.243	136.69
233.477	120.69
233.711	124.69
233.945	110.69
234.179	123.69
234.413	130.69
234.647	137.69
234.881	148.69
235.115	137.69
235.349	145.69
235.583	132.69
235.817	117.69
236.051	122.69
236.285	142.69
236.519	146.69
236.753	138.69
236.987	147.69
237.221	137.69
237.455	136.69
237.689	135.69
237.922	135.69
238.156	137.69
238.39	150.69
238.624	129.69
238.858	143.69
239.091	136.69
239.325	138.69
239.559	142.69
239.793	137.69
240.027	148.69
240.26	151.69
240.494	152.69
240.728	138.69
240.961	143.69
241.195	156.69
241.429	161.69
241.662	161.69
241.896	167.69
242.13	165.69
242.363	149.69
242.597	166.69
242.83	160.69
243.064	171.69
243.298	171.69
243.531	163.69
243.765	174.69
243.998	185.69
244.232	150.69
244.465	178.69
244.699	172.69
244.932	171.69
245.166	176.69
245.399	173.69
245.633	178.69
245.866	182.69
246.099	169.69
246.333	184.69
246.566	182.69
246.8	181.69
247.033	189.69
247.266	190.69
247.5	185.69
247.733	186.69
247.966	204.69
248.2	193.69
248.433	192.69
248.666	195.69
248.899	200.69
249.133	184.69
249.366	214.69
249.599	201.69
249.832	185.69
250.066	202.69
250.299	211.69
250.532	207.69
250.765	205.69
250.998	178.69
251.231	188.69
251.465	207.69
251.698	224.69
251.931	205.69
252.164	214.69
252.397	206.69
252.63	209.69
252.863	224.69
253.096	224.69
253.329	226.69
253.562	220.69
253.795	223.69
254.028	232.69
254.261	221.69
254.494	216.69
254.727	223.69
254.96	227.69
255.193	221.69
255.426	215.69
255.659	222.69
255.892	239.69
256.124	226.69
256.357	232.69
256.59	225.69
256.823	244.69
257.056	226.69
257.289	244.69
257.521	222.69
257.754	228.69
257.987	236.69
258.22	246.69
258.452	240.69
258.685	264.69
258.918	243.69
259.151	237.69
259.383	233.69
259.616	245.69
259.849	262.69
260.081	232.69
260.314	270.69
260.547	267.69
260.779	234.69
261.012	248.69
261.244	256.69
261.477	257.69
261.71	260.69
261.942	253.69
262.175	248.69
262.407	266.69
262.64	257.69
262.872	257.69
263.105	264.69
263.337	256.69
263.57	293.69
263.802	263.69
264.035	265.69
264.267	264.69
264.499	295.69
264.732	271.69
264.964	261.69
265.197	273.69
265.429	284.69
265.661	263.69
265.894	274.69
266.126	285.69
266.358	287.69
266.591	294.69
266.823	285.69
267.055	290.69
267.287	294.69
267.52	283.69
267.752	282.69
267.984	307.69
268.216	297.69
268.448	288.69
268.681	292.69
268.913	304.69
269.145	302.69
269.377	286.69
269.609	296.69
269.841	312.69
270.073	292.69
270.306	308.69
270.538	312.69
270.77	297.69
271.002	278.69
271.234	290.69
271.466	305.69
271.698	299.69
271.93	301.69
272.162	280.69
272.394	305.69
272.626	314.69
272.858	313.69
273.09	323.69
273.322	326.69
273.553	315.69
273.785	308.69
274.017	324.69
274.249	302.69
274.481	328.69
274.713	314.69
274.945	317.69
275.176	322.69
275.408	338.69
275.64	335.69
275.872	311.69
276.104	311.69
276.335	331.69
276.567	322.69
276.799	332.69
277.031	324.69
277.262	333.69
277.494	321.69
277.726	353.69
277.957	324.69
278.189	333.69
278.421	328.69
278.652	324.69
278.884	330.69
279.115	331.69
279.347	344.69
279.579	352.69
279.81	340.69
280.042	343.69
280.273	345.69
280.505	351.69
280.736	355.69
280.968	366.69
281.199	341.69
281.431	360.69
281.662	352.69
281.894	352.69
282.125	328.69
282.356	347.69
282.588	368.69
282.819	365.69
283.051	374.69
283.282	364.69
283.513	378.69
283.745	361.69
283.976	349.69
284.207	366.69
284.439	358.69
284.67	357.69
284.901	372.69
285.132	396.69
285.364	380.69
285.595	364.69
285.826	373.69
286.057	372.69
286.288	384.69
286.52	393.69
286.751	379.69
286.982	377.69
287.213	390.69
287.444	393.69
287.675	399.69
287.906	397.69
288.138	402.69
288.369	394.69
288.6	406.69
288.831	415.69
289.062	390.69
289.293	404.69
289.524	404.69
289.755	401.69
289.986	403.69
290.217	407.69
290.448	401.69
290.679	381.69
290.91	405.69
291.141	385.69
291.371	423.69
291.602	410.69
291.833	403.69
292.064	408.69
292.295	414.69
292.526	417.69
292.757	401.69
292.987	420.69
293.218	400.69
293.449	405.69
293.68	414.69
293.91	412.69
294.141	405.69
294.372	403.69
294.603	413.69
294.833	419.69
295.064	414.69
295.295	414.69
295.525	437.69
295.756	422.69
295.987	430.69
296.217	413.69
296.448	412.69
296.679	413.69
296.909	410.69
297.14	437.69
297.37	420.69
297.601	437.69
297.831	436.69
298.062	446.69
298.292	440.69
298.523	448.69
298.753	445.69
298.984	441.69
299.214	450.69
299.445	453.69
299.675	451.69
299.905	440.69
300.136	437.69
300.366	435.69
300.597	442.69
300.827	464.69
301.057	456.69
301.288	467.69
301.518	457.69
301.748	475.69
301.979	458.69
302.209	452.69
302.439	473.69
302.669	467.69
302.9	460.69
303.13	453.69
303.36	456.69
303.59	457.69
303.82	483.69
304.051	475.69
304.281	470.69
304.511	452.69
304.741	450.69
304.971	440.69
305.201	461.69
305.431	450.69
305.661	461.69
305.891	452.69
306.121	449.69
306.352	444.69
306.582	433.69
306.812	439.69
307.042	429.69
307.272	450.69
307.502	459.69
307.731	450.69
307.961	440.69
308.191	448.69
308.421	441.69
308.651	429.69
308.881	430.69
309.111	424.69
309.341	429.69
309.571	441.69
309.8	434.69
310.03	448.69
310.26	463.69
310.49	431.69
310.72	439.69
310.949	455.69
311.179	439.69
311.409	470.69
311.639	442.69
311.868	453.69
312.098	451.69
312.328	466.69
312.557	461.69
312.787	438.69
313.017	467.69
313.246	482.69
313.476	477.69
313.706	489.69
313.935	484.69
314.165	488.69
314.394	483.69
314.624	498.69
314.853	473.69
315.083	488.69
315.312	485.69
315.542	470.69
315.771	464.69
316.001	473.69
316.23	453.69
316.46	491.69
316.689	476.69
316.919	473.69
317.148	468.69
317.377	465.69
317.607	465.69
317.836	452.69
318.065	458.69
318.295	466.69
318.524	471.69
318.753	463.69
318.983	474.69
319.212	471.69
319.441	463.69
319.67	471.69
319.9	477.69
320.129	471.69
320.358	470.69
320.587	452.69
320.816	491.69
321.046	468.69
321.275	449.69
321.504	466.69
321.733	484.69
321.962	489.69
322.191	468.69
322.42	482.69
322.649	465.69
322.878	490.69
323.108	464.69
323.337	507.69
323.566	480.69
323.795	491.69
324.024	489.69
324.253	493.69
324.482	477.69
324.71	504.69
324.939	486.69
325.168	515.69
325.397	492.69
325.626	521.69
325.855	534.69
326.084	527.69
326.313	527.69
326.542	529.69
326.77	525.69
326.999	524.69
327.228	515.69
327.457	523.69
327.686	534.69
327.914	497.69
328.143	515.69
328.372	514.69
328.6	515.69
328.829	553.69
329.058	519.69
329.287	520.69
329.515	514.69
329.744	516.69
329.972	512.69
330.201	527.69
330.43	552.69
330.658	551.69
330.887	515.69
331.115	543.69
331.344	546.69
331.572	560.69
331.801	564.69
332.03	581.69
332.258	582.69
332.486	607.69
332.715	615.69
332.943	653.69
333.172	686.69
333.4	689.69
333.629	738.69
333.857	701.69
334.085	675.69
334.314	670.69
334.542	692.69
334.771	668.69
334.999	631.69
335.227	655.69
335.455	646.69
335.684	662.69
335.912	631.69
336.14	634.69
336.369	626.69
336.597	631.69
336.825	651.69
337.053	620.69
337.281	598.69
337.51	615.69
337.738	598.69
337.966	590.69
338.194	584.69
338.422	571.69
338.65	557.69
338.878	539.69
339.106	568.69
339.334	578.69
339.562	556.69
339.79	548.69
340.018	564.69
340.246	537.69
340.474	545.69
340.702	547.69
340.93	564.69
341.158	552.69
341.386	548.69
341.614	531.69
341.842	534.69
342.07	529.69
342.298	544.69
342.526	550.69
342.754	525.69
342.981	554.69
343.209	551.69
343.437	563.69
343.665	599.69
343.893	662.69
344.12	716.69
344.348	655.69
344.576	608.69
344.804	580.69
345.031	563.69
345.259	560.69
345.487	568.69
345.714	578.69
345.942	564.69
346.17	522.69
346.397	557.69
346.625	545.69
346.853	530.69
347.08	534.69
347.308	540.69
347.535	556.69
347.763	529.69
347.99	569.69
348.218	540.69
348.445	536.69
348.673	532.69
348.9	523.69
349.128	545.69
349.355	523.69
349.583	540.69
349.81	539.69
350.037	506.69
350.265	520.69
350.492	507.69
350.72	530.69
350.947	522.69
351.174	515.69
351.402	539.69
351.629	523.69
351.856	535.69
352.083	502.69
352.311	518.69
352.538	516.69
352.765	518.69
352.992	513.69
353.22	505.69
353.447	517.69
353.674	498.69
353.901	508.69
354.128	505.69
354.355	514.69
354.583	515.69
354.81	544.69
355.037	529.69
355.264	521.69
355.491	500.69
355.718	517.69
355.945	520.69
356.172	493.69
356.399	525.69
356.626	516.69
356.853	537.69
357.08	503.69
357.307	525.69
357.534	511.69
357.761	510.69
357.988	509.69
358.215	513.69
358.441	522.69
358.668	519.69
358.895	515.69
359.122	497.69
359.349	503.69
359.576	509.69
359.802	513.69
360.029	532.69
360.256	502.69
360.483	524.69
360.709	526.69
360.936	518.69
361.163	523.69
361.39	514.69
361.616	492.69
361.843	494.69
362.07	509.69
362.296	506.69
362.523	510.69
362.749	511.69
362.976	509.69
363.203	518.69
363.429	494.69
363.656	518.69
363.882	524.69
364.109	528.69
364.335	493.69
364.562	489.69
364.788	517.69
365.015	534.69
365.241	497.69
365.468	499.69
365.694	520.69
365.92	506.69
366.147	509.69
366.373	496.69
366.599	521.69
366.826	526.69
367.052	502.69
367.278	511.69
367.505	525.69
367.731	530.69
367.957	516.69
368.184	506.69
368.41	532.69
368.636	527.69
368.862	521.69
369.089	523.69
369.315	515.69
369.541	532.69
369.767	542.69
369.993	528.69
370.219	527.69
370.445	538.69
370.672	556.69
370.898	534.69
371.124	562.69
371.35	559.69
371.576	550.69
371.802	578.69
372.028	566.69
372.254	561.69
372.48	578.69
372.706	581.69
372.932	572.69
373.158	568.69
373.384	554.69
373.61	563.69
373.835	550.69
374.061	571.69
374.287	562.69
374.513	564.69
374.739	578.69
374.965	610.69
375.191	616.69
375.416	628.69
375.642	602.69
375.868	629.69
376.094	597.69
376.319	587.69
376.545	583.69
376.771	584.69
376.997	561.69
377.222	554.69
377.448	558.69
377.674	561.69
377.899	560.69
378.125	557.69
378.35	574.69
378.576	542.69
378.802	551.69
379.027	563.69
379.253	562.69
379.478	546.69
379.704	549.69
379.929	556.69
380.155	556.69
380.38	547.69
380.606	540.69
380.831	556.69
381.057	564.69
381.282	568.69
381.507	564.69
381.733	588.69
381.958	561.69
382.184	575.69
382.409	573.69
382.634	601.69
382.86	587.69
383.085	576.69
383.31	582.69
383.535	613.69
383.761	624.69
383.986	634.69
384.211	640.69
384.436	684.69
384.662	666.69
384.887	680.69
385.112	677.69
385.337	673.69
385.562	702.69
385.787	683.69
386.013	683.69
386.238	675.69
386.463	678.69
386.688	673.69
386.913	657.69
387.138	660.69
387.363	647.69
387.588	653.69
387.813	648.69
388.038	651.69
388.263	630.69
388.488	659.69
388.713	644.69
388.938	650.69
389.163	654.69
389.387	640.69
389.612	627.69
389.837	665.69
390.062	642.69
390.287	642.69
390.512	653.69
390.736	653.69
390.961	653.69
391.186	659.69
391.411	699.69
391.636	746.69
391.86	759.69
392.085	761.69
392.31	738.69
392.534	749.69
392.759	721.69
392.984	710.69
393.208	723.69
393.433	707.69
393.658	713.69
393.882	727.69
394.107	722.69
394.331	711.69
394.556	706.69
394.78	706.69
395.005	742.69
395.229	731.69
395.454	733.69
395.678	748.69
395.903	770.69
396.127	729.69
396.352	716.69
396.576	685.69
396.801	677.69
397.025	686.69
397.249	730.69
397.474	740.69
397.698	749.69
397.922	744.69
398.147	727.69
398.371	757.69
398.595	776.69
398.82	808.69
399.044	861.69
399.268	963.69
399.492	1117.69
399.717	1344.69
399.941	1288.69
400.165	1121.69
400.389	1008.69
400.613	912.69
400.837	883.69
401.062	852.69
401.286	830.69
401.51	842.69
401.734	837.69
401.958	841.69
402.182	850.69
402.406	848.69
402.63	866.69
402.854	912.69
403.078	916.69
403.302	933.69
403.526	975.69
403.75	954.69
403.974	1018.69
404.198	988.69
404.422	998.69
404.645	962.69
404.869	955.69
405.093	950.69
405.317	919.69
405.541	942.69
405.765	942.69
405.988	909.69
406.212	914.69
406.436	922.69
406.66	944.69
406.883	947.69
407.107	1001.69
407.331	1066.69
407.555	1104.69
407.778	1083.69
408.002	1049.69
408.226	992.69
408.449	997.69
408.673	960.69
408.896	987.69
409.12	944.69
409.344	985.69
409.567	944.69
409.791	999.69
410.014	956.69
410.238	954.69
410.461	955.69
410.685	937.69
410.908	922.69
411.132	898.69
411.355	856.69
411.578	868.69
411.802	854.69
412.025	856.69
412.249	858.69
412.472	898.69
412.695	864.69
412.919	810.69
413.142	839.69
413.365	814.69
413.589	814.69
413.812	840.69
414.035	849.69
414.258	813.69
414.482	840.69
414.705	868.69
414.928	862.69
415.151	860.69
415.374	862.69
415.597	839.69
415.821	822.69
416.044	834.69
416.267	801.69
416.49	788.69
416.713	829.69
416.936	821.69
417.159	816.69
417.382	847.69
417.605	838.69
417.828	830.69
418.051	828.69
418.274	836.69
418.497	829.69
418.72	836.69
418.943	850.69
419.166	940.69
419.389	972.69
419.611	957.69
419.834	902.69
420.057	862.69
420.28	848.69
420.503	836.69
420.726	843.69
420.948	827.69
421.171	804.69
421.394	830.69
421.617	806.69
421.839	848.69
422.062	837.69
422.285	826.69
422.507	893.69
422.73	882.69
422.953	845.69
423.175	866.69
423.398	911.69
423.621	897.69
423.843	906.69
424.066	913.69
424.288	898.69
424.511	891.69
424.733	873.69
424.956	850.69
425.178	851.69
425.401	827.69
425.623	857.69
425.846	813.69
426.068	807.69
426.291	793.69
426.513	797.69
426.735	768.69
426.958	778.69
427.18	749.69
427.402	738.69
427.625	769.69
427.847	765.69
428.069	741.69
428.292	752.69
428.514	740.69
428.736	717.69
428.958	751.69
429.181	722.69
429.403	737.69
429.625	745.69
429.847	757.69
430.069	726.69
430.292	714.69
430.514	716.69
430.736	721.69
430.958	716.69
431.18	705.69
431.402	741.69
431.624	734.69
431.846	766.69
432.068	762.69
432.29	744.69
432.512	739.69
432.734	743.69
432.956	740.69
433.178	754.69
433.4	771.69
433.622	765.69
433.844	744.69
434.066	778.69
434.287	770.69
434.509	781.69
434.731	844.69
434.953	864.69
435.175	833.69
435.397	832.69
435.618	800.69
435.84	770.69
436.062	779.69
436.284	746.69
436.505	752.69
436.727	754.69
436.949	760.69
437.17	734.69
437.392	723.69
437.614	751.69
437.835	735.69
438.057	744.69
438.278	747.69
438.5	705.69
438.721	697.69
438.943	715.69
439.165	709.69
439.386	734.69
439.608	732.69
439.829	744.69
440.05	756.69
440.272	761.69
440.493	744.69
440.715	746.69
440.936	762.69
441.158	761.69
441.379	818.69
441.6	857.69
441.822	872.69
442.043	874.69
442.264	852.69
442.486	843.69
442.707	844.69
442.928	842.69
443.149	842.69
443.371	842.69
443.592	832.69
443.813	842.69
444.034	880.69
444.255	878.69
444.476	893.69
444.698	981.69
444.919	1073.69
445.14	1117.69
445.361	954.69
445.582	861.69
445.803	814.69
446.024	805.69
446.245	786.69
446.466	770.69
446.687	756.69
446.908	774.69
447.129	748.69
447.35	744.69
447.571	754.69
447.792	699.69
448.013	714.69
448.234	704.69
448.455	697.69
448.675	687.69
448.896	689.69
449.117	670.69
449.338	698.69
449.559	696.69
449.779	690.69
450	701.69
450.221	678.69
450.442	691.69
450.662	700.69
450.883	718.69
451.104	737.69
451.324	701.69
451.545	734.69
451.766	711.69
451.986	704.69
452.207	690.69
452.428	695.69
452.648	707.69
452.869	662.69
453.089	686.69
453.31	696.69
453.53	713.69
453.751	666.69
453.971	667.69
454.192	656.69
454.412	659.69
454.633	665.69
454.853	672.69
455.073	636.69
455.294	636.69
455.514	668.69
455.734	639.69
455.955	639.69
456.175	635.69
456.395	638.69
456.616	634.69
456.836	653.69
457.056	637.69
457.276	611.69
457.497	642.69
457.717	621.69
457.937	651.69
458.157	654.69
458.377	664.69
458.598	688.69
458.818	700.69
459.038	718.69
459.258	740.69
459.478	777.69
459.698	760.69
459.918	822.69
460.138	849.69
460.358	877.69
460.578	884.69
460.798	924.69
461.018	922.69
461.238	866.69
461.458	901.69
461.678	896.69
461.898	908.69
462.118	877.69
462.338	962.69
462.558	955.69
462.777	1038.69
462.997	1073.69
463.217	1193.69
463.437	1243.69
463.657	1124.69
463.876	1023.69
464.096	1048.69
464.316	1082.69
464.536	1049.69
464.755	1014.69
464.975	960.69
465.195	906.69
465.414	868.69
465.634	828.69
465.854	777.69
466.073	779.69
466.293	788.69
466.512	740.69
466.732	724.69
466.951	757.69
467.171	746.69
467.391	708.69
467.61	726.69
467.829	723.69
468.049	722.69
468.268	686.69
468.488	703.69
468.707	690.69
468.927	704.69
469.146	722.69
469.365	678.69
469.585	714.69
469.804	710.69
470.023	745.69
470.243	757.69
470.462	760.69
470.681	772.69
470.901	769.69
471.12	733.69
471.339	741.69
471.558	724.69
471.777	695.69
471.997	725.69
472.216	709.69
472.435	680.69
472.654	677.69
472.873	670.69
473.092	680.69
473.311	657.69
473.53	662.69
473.749	682.69
473.968	657.69
474.187	652.69
474.406	672.69
474.625	678.69
474.844	684.69
475.063	671.69
475.282	681.69
475.501	695.69
475.72	683.69
475.939	689.69
476.158	694.69
476.377	686.69
476.596	693.69
476.814	694.69
477.033	700.69
477.252	729.69
477.471	749.69
477.69	743.69
477.908	752.69
478.127	806.69
478.346	813.69
478.564	803.69
478.783	830.69
479.002	844.69
479.22	848.69
479.439	850.69
479.658	790.69
479.876	807.69
480.095	845.69
480.313	889.69
480.532	946.69
480.751	928.69
480.969	857.69
481.188	832.69
481.406	798.69
481.624	763.69
481.843	784.69
482.061	760.69
482.28	798.69
482.498	755.69
482.717	736.69
482.935	748.69
483.153	758.69
483.372	755.69
483.59	783.69
483.808	781.69
484.027	784.69
484.245	772.69
484.463	779.69
484.681	783.69
484.9	793.69
485.118	808.69
485.336	790.69
485.554	789.69
485.772	811.69
485.99	812.69
486.209	822.69
486.427	838.69
486.645	817.69
486.863	831.69
487.081	809.69
487.299	817.69
487.517	809.69
487.735	812.69
487.953	805.69
488.171	801.69
488.389	801.69
488.607	794.69
488.825	772.69
489.043	776.69
489.261	780.69
489.479	788.69
489.696	768.69
489.914	786.69
490.132	822.69
490.35	817.69
490.568	796.69
490.786	796.69
491.003	803.69
491.221	826.69
491.439	814.69
491.657	808.69
491.874	799.69
492.092	842.69
492.31	809.69
492.527	828.69
492.745	820.69
492.963	839.69
493.18	834.69
493.398	832.69
493.615	832.69
493.833	847.69
494.05	860.69
494.268	852.69
494.485	864.69
494.703	881.69
494.92	850.69
495.138	842.69
495.355	837.69
495.573	881.69
495.79	856.69
496.008	864.69
496.225	851.69
496.442	838.69
496.66	872.69
496.877	887.69
497.094	909.69
497.312	910.69
497.529	918.69
497.746	947.69
497.963	974.69
498.181	1011.69
498.398	1056.69
498.615	1080.69
498.832	1205.69
499.049	1304.69
499.267	1389.69
499.484	1532.69
499.701	1703.69
499.918	1901.69
500.135	2189.69
500.352	2552.69
500.569	2714.69
500.786	2721.69
501.003	2480.69
501.22	2154.69
501.437	1898.69
501.654	1631.69
501.871	1471.69
502.088	1353.69
502.305	1242.69
502.522	1221.69
502.739	1149.69
502.956	1094.69
503.172	1053.69
503.389	1015.69
503.606	980.69
503.823	956.69
504.04	979.69
504.256	945.69
504.473	988.69
504.69	1032.69
504.907	1020.69
505.123	935.69
505.34	876.69
505.557	848.69
505.773	806.69
505.99	798.69
506.207	803.69
506.423	752.69
506.64	808.69
506.856	752.69
507.073	781.69
507.289	752.69
507.506	756.69
507.722	744.69
507.939	729.69
508.155	736.69
508.372	742.69
508.588	745.69
508.805	721.69
509.021	707.69
509.238	713.69
509.454	709.69
509.67	711.69
509.887	707.69
510.103	682.69
510.319	688.69
510.536	701.69
510.752	690.69
510.968	692.69
511.184	680.69
511.401	693.69
511.617	677.69
511.833	672.69
512.049	698.69
512.265	681.69
512.481	702.69
512.698	685.69
512.914	705.69
513.13	687.69
513.346	697.69
513.562	695.69
513.778	688.69
513.994	683.69
514.21	696.69
514.426	693.69
514.642	714.69
514.858	707.69
515.074	699.69
515.29	728.69
515.506	726.69
515.721	718.69
515.937	721.69
516.153	743.69
516.369	761.69
516.585	781.69
516.801	829.69
517.016	819.69
517.232	875.69
517.448	946.69
517.664	979.69
517.879	1004.69
518.095	998.69
518.311	953.69
518.527	916.69
518.742	883.69
518.958	828.69
519.173	802.69
519.389	770.69
519.605	748.69
519.82	734.69
520.036	721.69
520.251	739.69
520.467	696.69
520.682	720.69
520.898	686.69
521.113	698.69
521.329	673.69
521.544	681.69
521.76	674.69
521.975	661.69
522.19	654.69
522.406	683.69
522.621	650.69
522.836	660.69
523.052	621.69
523.267	662.69
523.482	668.69
523.698	648.69
523.913	633.69
524.128	645.69
524.343	638.69
524.559	657.69
524.774	620.69
524.989	646.69
525.204	644.69
525.419	635.69
525.634	616.69
525.849	648.69
526.064	621.69
526.28	621.69
526.495	644.69
526.71	618.69
526.925	634.69
527.14	620.69
527.355	624.69
527.57	636.69
527.785	640.69
527.999	652.69
528.214	624.69
528.429	631.69
528.644	637.69
528.859	625.69
529.074	623.69
529.289	658.69
529.503	635.69
529.718	640.69
529.933	630.69
530.148	635.69
530.363	642.69
530.577	636.69
530.792	600.69
531.007	636.69
531.221	636.69
531.436	640.69
531.651	628.69
531.865	641.69
532.08	661.69
532.295	644.69
532.509	646.69
532.724	612.69
532.938	636.69
533.153	628.69
533.367	631.69
533.582	632.69
533.796	632.69
534.011	634.69
534.225	637.69
534.44	645.69
534.654	616.69
534.868	612.69
535.083	601.69
535.297	625.69
535.511	622.69
535.726	597.69
535.94	615.69
536.154	603.69
536.369	583.69
536.583	617.69
536.797	597.69
537.011	564.69
537.225	583.69
537.44	601.69
537.654	578.69
537.868	603.69
538.082	584.69
538.296	588.69
538.51	593.69
538.724	590.69
538.938	600.69
539.153	568.69
539.367	585.69
539.581	556.69
539.795	562.69
540.009	583.69
540.222	581.69
540.436	593.69
540.65	569.69
540.864	578.69
541.078	576.69
541.292	575.69
541.506	552.69
541.72	563.69
541.934	570.69
542.147	592.69
542.361	569.69
542.575	556.69
542.789	573.69
543.002	575.69
543.216	578.69
543.43	545.69
543.644	578.69
543.857	560.69
544.071	585.69
544.285	552.69
544.498	579.69
544.712	570.69
544.925	546.69
545.139	558.69
545.352	583.69
545.566	596.69
545.779	597.69
545.993	591.69
546.206	597.69
546.42	566.69
546.633	586.69
546.847	589.69
547.06	572.69
547.274	575.69
547.487	577.69
547.7	571.69
547.914	601.69
548.127	596.69
548.34	603.69
548.554	553.69
548.767	578.69
548.98	569.69
549.193	558.69
549.407	586.69
549.62	616.69
549.833	599.69
550.046	570.69
550.259	589.69
550.473	573.69
550.686	564.69
550.899	573.69
551.112	568.69
551.325	569.69
551.538	581.69
551.751	564.69
551.964	569.69
552.177	571.69
552.39	588.69
552.603	593.69
552.816	619.69
553.029	622.69
553.242	647.69
553.455	627.69
553.667	662.69
553.88	664.69
554.093	604.69
554.306	605.69
554.519	580.69
554.732	583.69
554.944	566.69
555.157	566.69
555.37	595.69
555.583	542.69
555.795	545.69
556.008	531.69
556.221	531.69
556.433	527.69
556.646	517.69
556.859	488.69
557.071	504.69
557.284	511.69
557.496	513.69
557.709	500.69
557.921	462.69
558.134	504.69
558.346	480.69
558.559	494.69
558.771	497.69
558.984	468.69
559.196	487.69
559.409	461.69
559.621	496.69
559.833	467.69
560.046	481.69
560.258	475.69
560.47	476.69
560.683	488.69
560.895	471.69
561.107	477.69
561.32	479.69
561.532	457.69
561.744	473.69
561.956	475.69
562.168	468.69
562.381	492.69
562.593	481.69
562.805	478.69
563.017	480.69
563.229	512.69
563.441	478.69
563.653	488.69
563.865	496.69
564.077	477.69
564.289	516.69
564.501	526.69
564.713	483.69
564.925	534.69
565.137	540.69
565.349	518.69
565.561	549.69
565.773	557.69
565.985	576.69
566.197	614.69
566.408	654.69
566.62	743.69
566.832	800.69
567.044	801.69
567.255	819.69
567.467	818.69
567.679	889.69
567.891	937.69
568.102	974.69
568.314	949.69
568.526	810.69
568.737	727.69
568.949	685.69
569.161	612.69
569.372	562.69
569.584	506.69
569.795	519.69
570.007	494.69
570.218	507.69
570.43	492.69
570.641	510.69
570.853	492.69
571.064	510.69
571.276	511.69
571.487	487.69
571.698	471.69
571.91	450.69
572.121	444.69
572.333	421.69
572.544	444.69
572.755	418.69
572.966	413.69
573.178	419.69
573.389	422.69
573.6	411.69
573.811	398.69
574.023	424.69
574.234	410.69
574.445	395.69
574.656	405.69
574.867	417.69
575.078	404.69
575.289	406.69
575.501	403.69
575.712	391.69
575.923	389.69
576.134	389.69
576.345	385.69
576.556	386.69
576.767	381.69
576.978	376.69
577.188	378.69
577.399	388.69
577.61	358.69
577.821	353.69
578.032	353.69
578.243	372.69
578.454	368.69
578.665	355.69
578.875	362.69
579.086	336.69
579.297	363.69
579.508	367.69
579.718	358.69
579.929	357.69
580.14	361.69
580.35	345.69
580.561	335.69
580.772	332.69
580.982	356.69
581.193	350.69
581.403	342.69
581.614	354.69
581.825	332.69
582.035	338.69
582.246	329.69
582.456	326.69
582.667	363.69
582.877	345.69
583.087	336.69
583.298	345.69
583.508	341.69
583.719	339.69
583.929	361.69
584.139	360.69
584.35	344.69
584.56	335.69
584.77	343.69
584.981	330.69
585.191	340.69
585.401	324.69
585.611	354.69
585.821	328.69
586.032	331.69
586.242	326.69
586.452	321.69
586.662	310.69
586.872	327.69
587.082	341.69
587.292	324.69
587.502	338.69
587.713	345.69
587.923	321.69
588.133	339.69
588.343	314.69
588.553	340.69
588.762	332.69
588.972	326.69
589.182	324.69
589.392	327.69
589.602	342.69
589.812	323.69
590.022	332.69
590.232	322.69
590.441	347.69
590.651	330.69
590.861	334.69
591.071	349.69
591.281	331.69
591.49	339.69
591.7	351.69
591.91	363.69
592.119	360.69
592.329	352.69
592.539	352.69
592.748	384.69
592.958	404.69
593.167	389.69
593.377	420.69
593.587	425.69
593.796	409.69
594.006	422.69
594.215	425.69
594.424	426.69
594.634	443.69
594.843	408.69
595.053	380.69
595.262	373.69
595.472	359.69
595.681	347.69
595.89	353.69
596.1	361.69
596.309	310.69
596.518	320.69
596.727	330.69
596.937	310.69
597.146	310.69
597.355	311.69
597.564	296.69
597.774	286.69
597.983	283.69
598.192	304.69
598.401	306.69
598.61	285.69
598.819	302.69
599.028	283.69
599.237	296.69
599.446	297.69
599.655	283.69
599.864	294.69
600.073	274.69
600.282	277.69
600.491	279.69
600.7	297.69
600.909	272.69
601.118	284.69
601.327	264.69
601.536	262.69
601.745	284.69
601.953	284.69
602.162	262.69
602.371	286.69
602.58	272.69
602.789	281.69
602.997	263.69
603.206	273.69
603.415	274.69
603.623	256.69
603.832	260.69
604.041	287.69
604.249	281.69
604.458	281.69
604.666	280.69
604.875	257.69
605.084	263.69
605.292	269.69
605.501	267.69
605.709	236.69
605.918	242.69
606.126	252.69
606.334	250.69
606.543	265.69
606.751	269.69
606.96	259.69
607.168	264.69
607.376	281.69
607.585	254.69
607.793	268.69
608.001	260.69
608.21	257.69
608.418	230.69
608.626	265.69
608.834	267.69
609.043	254.69
609.251	268.69
609.459	254.69
609.667	266.69
609.875	257.69
610.083	245.69
610.291	257.69
610.499	241.69
610.707	257.69
610.916	263.69
611.124	245.69
611.332	262.69
611.54	242.69
611.748	260.69
611.955	242.69
612.163	255.69
612.371	258.69
612.579	267.69
612.787	256.69
612.995	240.69
613.203	261.69
613.411	247.69
613.618	254.69
613.826	234.69
614.034	242.69
614.242	250.69
614.449	238.69
614.657	246.69
614.865	247.69
615.072	246.69
615.28	248.69
615.488	250.69
615.695	249.69
615.903	236.69
616.111	229.69
616.318	266.69
616.526	246.69
616.733	266.69
616.941	250.69
617.148	252.69
617.356	256.69
617.563	247.69
617.771	249.69
617.978	230.69
618.185	254.69
618.393	242.69
618.6	248.69
618.807	238.69
619.015	247.69
619.222	247.69
619.429	233.69
619.637	244.69
619.844	229.69
620.051	243.69
620.258	241.69
620.466	237.69
620.673	211.69
620.88	221.69
621.087	231.69
621.294	232.69
621.501	244.69
621.708	226.69
621.915	216.69
622.122	213.69
622.329	227.69
622.536	246.69
622.743	238.69
622.95	218.69
623.157	219.69
623.364	231.69
623.571	227.69
623.778	216.69
623.985	207.69
624.192	219.69
624.399	203.69
624.606	208.69
624.812	214.69
625.019	204.69
625.226	219.69
625.433	201.69
625.639	217.69
625.846	208.69
626.053	208.69
626.259	196.69
626.466	224.69
626.673	211.69
626.879	201.69
627.086	210.69
627.293	213.69
627.499	210.69
627.706	205.69
627.912	197.69
628.119	194.69
628.325	206.69
628.532	214.69
628.738	206.69
628.945	205.69
629.151	206.69
629.357	200.69
629.564	194.69
629.77	185.69
629.976	194.69
630.183	193.69
630.389	197.69
630.595	200.69
630.802	192.69
631.008	196.69
631.214	202.69
631.42	202.69
631.627	208.69
631.833	186.69
632.039	201.69
632.245	190.69
632.451	181.69
632.657	185.69
632.863	182.69
633.069	192.69
633.275	197.69
633.481	196.69
633.688	198.69
633.893	192.69
634.099	190.69
634.305	193.69
634.511	193.69
634.717	179.69
634.923	178.69
635.129	190.69
635.335	168.69
635.541	194.69
635.747	200.69
635.952	168.69
636.158	189.69
636.364	194.69
636.57	177.69
636.775	194.69
636.981	176.69
637.187	188.69
637.392	179.69
637.598	190.69
637.804	187.69
638.009	172.69
638.215	186.69
638.421	180.69
638.626	177.69
638.832	172.69
639.037	179.69
639.243	166.69
639.448	183.69
639.654	176.69
639.859	189.69
640.065	164.69
640.27	176.69
640.475	172.69
640.681	161.69
640.886	172.69
641.091	171.69
641.297	166.69
641.502	174.69
641.707	162.69
641.913	192.69
642.118	167.69
642.323	162.69
642.528	164.69
642.733	168.69
642.939	174.69
643.144	177.69
643.349	162.69
643.554	160.69
643.759	168.69
643.964	157.69
644.169	178.69
644.374	151.69
644.579	166.69
644.784	170.69
644.989	172.69
645.194	165.69
645.399	166.69
645.604	162.69
645.809	165.69
646.014	172.69
646.219	172.69
646.423	158.69
646.628	178.69
646.833	180.69
647.038	171.69
647.243	155.69
647.447	169.69
647.652	177.69
647.857	183.69
648.062	179.69
648.266	180.69
648.471	183.69
648.676	169.69
648.88	176.69
649.085	165.69
649.289	166.69
649.494	159.69
649.698	161.69
649.903	155.69
650.107	169.69
650.312	166.69
650.516	157.69
650.721	138.69
650.925	145.69
651.13	160.69
651.334	153.69
651.539	146.69
651.743	146.69
651.947	146.69
652.152	151.69
652.356	158.69
652.56	128.69
652.764	127.69
652.969	144.69
653.173	142.69
653.377	132.69
653.581	142.69
653.785	146.69
653.99	147.69
654.194	136.69
654.398	141.69
654.602	122.69
654.806	142.69
655.01	132.69
655.214	137.69
655.418	126.69
655.622	140.69
655.826	124.69
656.03	128.69
656.234	117.69
656.438	124.69
656.642	131.69
656.846	120.69
657.049	119.69
657.253	119.69
657.457	131.69
657.661	117.69
657.865	115.69
658.068	116.69
658.272	103.69
658.476	114.69
658.68	117.69
658.883	105.69
659.087	102.69
659.291	94.69
659.494	102.69
659.698	94.69
659.901	90.69
660.105	88.69
660.309	95.69
660.512	93.69
660.716	90.69
660.919	94.69
661.123	95.69
661.326	99.69
661.53	95.69
661.733	102.69
661.936	82.69
662.14	91.69
662.343	90.69
662.546	94.69
662.75	88.69
662.953	88.69
663.156	87.69
663.36	80.69
663.563	89.69
663.766	83.69
663.969	93.69
664.173	68.69
664.376	72.69
664.579	96.69
664.782	89.69
664.985	94.69
665.188	80.69
665.391	86.69
665.594	82.69
665.797	77.69
666	94.69
666.203	69.69
666.406	83.69
666.609	86.69
666.812	83.69
667.015	75.69
667.218	74.69
667.421	82.69
667.624	82.69
667.827	89.69
668.03	76.69
668.232	86.69
668.435	87.69
668.638	96.69
668.841	92.69
669.043	84.69
669.246	80.69
669.449	77.69
669.651	84.69
669.854	90.69
670.057	84.69
670.259	97.69
670.462	93.69
670.665	78.69
670.867	79.69
671.07	84.69
671.272	84.69
671.475	82.69
671.677	83.69
671.88	81.69
672.082	87.69
672.284	82.69
672.487	76.69
672.689	90.69
672.892	76.69
