Data from Ni(NO3)2@0.125M.TitratingCurve.Agarose3%dH2O.NegLispCup.LampEnergy10.LIBS07252019_HRD10591_18-10-24-568.txt Node
Date: Thu Jul 25 18:10:24 EDT 2019
User: cochatt
Spectrometer: HR+D1059
Trigger mode: 1
Integration Time (sec): 1.000000E-1
Scans to average: 1
Electric dark correction enabled: true
Nonlinearity correction enabled: false
Boxcar width: 0
XAxis mode: Wavelengths
Number of Pixels in Spectrum: 2048
>>>>>Begin Spectral Data<<<<<
223.165	-18.31
223.4	-18.31
223.635	-18.31
223.869	-22.31
224.104	-1.31
224.338	-18.31
224.573	-24.31
224.808	1.69
225.042	-7.31
225.277	-9.31
225.511	6.69
225.746	-10.31
225.98	2.69
226.215	8.69
226.449	25.69
226.683	20.69
226.918	18.69
227.152	26.69
227.387	31.69
227.621	27.69
227.856	41.69
228.09	27.69
228.324	56.69
228.559	55.69
228.793	77.69
229.027	95.69
229.262	96.69
229.496	92.69
229.73	105.69
229.964	117.69
230.199	103.69
230.433	132.69
230.667	113.69
230.901	102.69
231.136	128.69
231.37	130.69
231.604	124.69
231.838	136.69
232.072	117.69
232.306	132.69
232.541	138.69
232.775	142.69
233.009	131.69
233.243	140.69
233.477	124.69
233.711	135.69
233.945	122.69
234.179	129.69
234.413	133.69
234.647	150.69
234.881	144.69
235.115	137.69
235.349	134.69
235.583	146.69
235.817	147.69
236.051	134.69
236.285	143.69
236.519	151.69
236.753	151.69
236.987	143.69
237.221	162.69
237.455	151.69
237.689	145.69
237.922	146.69
238.156	165.69
238.39	166.69
238.624	150.69
238.858	175.69
239.091	153.69
239.325	166.69
239.559	166.69
239.793	162.69
240.027	143.69
240.26	167.69
240.494	166.69
240.728	155.69
240.961	162.69
241.195	177.69
241.429	154.69
241.662	167.69
241.896	168.69
242.13	157.69
242.363	182.69
242.597	180.69
242.83	177.69
243.064	170.69
243.298	176.69
243.531	182.69
243.765	198.69
243.998	186.69
244.232	176.69
244.465	196.69
244.699	201.69
244.932	191.69
245.166	192.69
245.399	200.69
245.633	194.69
245.866	210.69
246.099	203.69
246.333	221.69
246.566	193.69
246.8	200.69
247.033	204.69
247.266	207.69
247.5	207.69
247.733	204.69
247.966	196.69
248.2	206.69
248.433	208.69
248.666	211.69
248.899	199.69
249.133	223.69
249.366	219.69
249.599	248.69
249.832	220.69
250.066	216.69
250.299	233.69
250.532	210.69
250.765	220.69
250.998	234.69
251.231	229.69
251.465	231.69
251.698	242.69
251.931	245.69
252.164	246.69
252.397	247.69
252.63	242.69
252.863	222.69
253.096	245.69
253.329	240.69
253.562	256.69
253.795	260.69
254.028	247.69
254.261	233.69
254.494	233.69
254.727	255.69
254.96	259.69
255.193	248.69
255.426	268.69
255.659	246.69
255.892	259.69
256.124	255.69
256.357	254.69
256.59	255.69
256.823	275.69
257.056	262.69
257.289	270.69
257.521	284.69
257.754	278.69
257.987	277.69
258.22	257.69
258.452	268.69
258.685	287.69
258.918	273.69
259.151	274.69
259.383	282.69
259.616	272.69
259.849	266.69
260.081	287.69
260.314	277.69
260.547	294.69
260.779	304.69
261.012	302.69
261.244	308.69
261.477	313.69
261.71	300.69
261.942	304.69
262.175	295.69
262.407	284.69
262.64	294.69
262.872	311.69
263.105	296.69
263.337	309.69
263.57	299.69
263.802	320.69
264.035	311.69
264.267	310.69
264.499	309.69
264.732	312.69
264.964	318.69
265.197	322.69
265.429	308.69
265.661	329.69
265.894	337.69
266.126	318.69
266.358	330.69
266.591	308.69
266.823	319.69
267.055	320.69
267.287	336.69
267.52	318.69
267.752	325.69
267.984	342.69
268.216	326.69
268.448	337.69
268.681	332.69
268.913	342.69
269.145	331.69
269.377	340.69
269.609	322.69
269.841	353.69
270.073	346.69
270.306	329.69
270.538	327.69
270.77	334.69
271.002	322.69
271.234	347.69
271.466	349.69
271.698	338.69
271.93	353.69
272.162	352.69
272.394	343.69
272.626	332.69
272.858	337.69
273.09	337.69
273.322	356.69
273.553	347.69
273.785	366.69
274.017	328.69
274.249	366.69
274.481	376.69
274.713	360.69
274.945	368.69
275.176	379.69
275.408	362.69
275.64	379.69
275.872	373.69
276.104	390.69
276.335	364.69
276.567	380.69
276.799	376.69
277.031	376.69
277.262	376.69
277.494	376.69
277.726	387.69
277.957	384.69
278.189	398.69
278.421	390.69
278.652	395.69
278.884	404.69
279.115	384.69
279.347	410.69
279.579	376.69
279.81	420.69
280.042	410.69
280.273	412.69
280.505	410.69
280.736	412.69
280.968	407.69
281.199	418.69
281.431	405.69
281.662	416.69
281.894	424.69
282.125	406.69
282.356	414.69
282.588	429.69
282.819	422.69
283.051	419.69
283.282	417.69
283.513	435.69
283.745	437.69
283.976	415.69
284.207	435.69
284.439	424.69
284.67	423.69
284.901	425.69
285.132	439.69
285.364	440.69
285.595	447.69
285.826	439.69
286.057	437.69
286.288	442.69
286.52	444.69
286.751	458.69
286.982	446.69
287.213	443.69
287.444	448.69
287.675	436.69
287.906	458.69
288.138	452.69
288.369	459.69
288.6	465.69
288.831	463.69
289.062	457.69
289.293	458.69
289.524	442.69
289.755	463.69
289.986	454.69
290.217	466.69
290.448	467.69
290.679	488.69
290.91	454.69
291.141	499.69
291.371	457.69
291.602	487.69
291.833	471.69
292.064	464.69
292.295	468.69
292.526	480.69
292.757	469.69
292.987	464.69
293.218	479.69
293.449	484.69
293.68	496.69
293.91	492.69
294.141	482.69
294.372	464.69
294.603	495.69
294.833	472.69
295.064	491.69
295.295	469.69
295.525	485.69
295.756	487.69
295.987	468.69
296.217	498.69
296.448	493.69
296.679	496.69
296.909	511.69
297.14	514.69
297.37	497.69
297.601	508.69
297.831	475.69
298.062	488.69
298.292	523.69
298.523	525.69
298.753	537.69
298.984	534.69
299.214	516.69
299.445	540.69
299.675	492.69
299.905	510.69
300.136	530.69
300.366	510.69
300.597	525.69
300.827	535.69
301.057	544.69
301.288	550.69
301.518	538.69
301.748	538.69
301.979	536.69
302.209	536.69
302.439	527.69
302.669	529.69
302.9	546.69
303.13	521.69
303.36	531.69
303.59	522.69
303.82	534.69
304.051	560.69
304.281	548.69
304.511	518.69
304.741	511.69
304.971	524.69
305.201	526.69
305.431	538.69
305.661	531.69
305.891	495.69
306.121	516.69
306.352	524.69
306.582	526.69
306.812	510.69
307.042	508.69
307.272	521.69
307.502	507.69
307.731	519.69
307.961	517.69
308.191	505.69
308.421	518.69
308.651	498.69
308.881	494.69
309.111	519.69
309.341	520.69
309.571	527.69
309.8	519.69
310.03	522.69
310.26	532.69
310.49	521.69
310.72	524.69
310.949	531.69
311.179	518.69
311.409	541.69
311.639	541.69
311.868	527.69
312.098	542.69
312.328	544.69
312.557	544.69
312.787	535.69
313.017	542.69
313.246	539.69
313.476	539.69
313.706	543.69
313.935	569.69
314.165	562.69
314.394	556.69
314.624	564.69
314.853	582.69
315.083	564.69
315.312	540.69
315.542	542.69
315.771	561.69
316.001	548.69
316.23	547.69
316.46	560.69
316.689	555.69
316.919	557.69
317.148	547.69
317.377	564.69
317.607	566.69
317.836	542.69
318.065	540.69
318.295	536.69
318.524	561.69
318.753	514.69
318.983	541.69
319.212	547.69
319.441	559.69
319.67	551.69
319.9	555.69
320.129	527.69
320.358	548.69
320.587	551.69
320.816	561.69
321.046	562.69
321.275	551.69
321.504	562.69
321.733	560.69
321.962	578.69
322.191	548.69
322.42	567.69
322.649	582.69
322.878	542.69
323.108	546.69
323.337	571.69
323.566	560.69
323.795	550.69
324.024	563.69
324.253	586.69
324.482	565.69
324.71	595.69
324.939	580.69
325.168	571.69
325.397	586.69
325.626	592.69
325.855	591.69
326.084	595.69
326.313	617.69
326.542	605.69
326.77	624.69
326.999	621.69
327.228	604.69
327.457	599.69
327.686	604.69
327.914	597.69
328.143	604.69
328.372	604.69
328.6	628.69
328.829	606.69
329.058	582.69
329.287	597.69
329.515	629.69
329.744	610.69
329.972	599.69
330.201	607.69
330.43	591.69
330.658	602.69
330.887	612.69
331.115	631.69
331.344	640.69
331.572	645.69
331.801	676.69
332.03	672.69
332.258	682.69
332.486	696.69
332.715	720.69
332.943	738.69
333.172	818.69
333.4	851.69
333.629	854.69
333.857	849.69
334.085	817.69
334.314	799.69
334.542	788.69
334.771	767.69
334.999	772.69
335.227	768.69
335.455	789.69
335.684	748.69
335.912	734.69
336.14	743.69
336.369	716.69
336.597	736.69
336.825	738.69
337.053	739.69
337.281	719.69
337.51	696.69
337.738	710.69
337.966	686.69
338.194	703.69
338.422	688.69
338.65	642.69
338.878	665.69
339.106	651.69
339.334	646.69
339.562	662.69
339.79	664.69
340.018	650.69
340.246	632.69
340.474	628.69
340.702	644.69
340.93	648.69
341.158	640.69
341.386	647.69
341.614	618.69
341.842	649.69
342.07	638.69
342.298	627.69
342.526	617.69
342.754	638.69
342.981	617.69
343.209	657.69
343.437	687.69
343.665	706.69
343.893	762.69
344.12	804.69
344.348	748.69
344.576	706.69
344.804	671.69
345.031	650.69
345.259	666.69
345.487	658.69
345.714	645.69
345.942	628.69
346.17	646.69
346.397	623.69
346.625	634.69
346.853	633.69
347.08	606.69
347.308	648.69
347.535	634.69
347.763	660.69
347.99	633.69
348.218	635.69
348.445	632.69
348.673	622.69
348.9	624.69
349.128	626.69
349.355	601.69
349.583	615.69
349.81	601.69
350.037	596.69
350.265	589.69
350.492	610.69
350.72	602.69
350.947	596.69
351.174	590.69
351.402	599.69
351.629	563.69
351.856	608.69
352.083	581.69
352.311	590.69
352.538	578.69
352.765	559.69
352.992	584.69
353.22	593.69
353.447	584.69
353.674	595.69
353.901	608.69
354.128	600.69
354.355	588.69
354.583	599.69
354.81	596.69
355.037	583.69
355.264	599.69
355.491	593.69
355.718	590.69
355.945	618.69
356.172	604.69
356.399	589.69
356.626	604.69
356.853	604.69
357.08	597.69
357.307	587.69
357.534	606.69
357.761	587.69
357.988	615.69
358.215	585.69
358.441	596.69
358.668	601.69
358.895	624.69
359.122	587.69
359.349	603.69
359.576	617.69
359.802	575.69
360.029	596.69
360.256	630.69
360.483	593.69
360.709	586.69
360.936	587.69
361.163	610.69
361.39	596.69
361.616	606.69
361.843	595.69
362.07	594.69
362.296	588.69
362.523	572.69
362.749	587.69
362.976	599.69
363.203	582.69
363.429	592.69
363.656	562.69
363.882	593.69
364.109	599.69
364.335	586.69
364.562	576.69
364.788	593.69
365.015	580.69
365.241	598.69
365.468	598.69
365.694	594.69
365.92	579.69
366.147	611.69
366.373	607.69
366.599	576.69
366.826	602.69
367.052	593.69
367.278	584.69
367.505	604.69
367.731	591.69
367.957	597.69
368.184	623.69
368.41	598.69
368.636	582.69
368.862	636.69
369.089	585.69
369.315	608.69
369.541	623.69
369.767	618.69
369.993	623.69
370.219	629.69
370.445	635.69
370.672	615.69
370.898	642.69
371.124	628.69
371.35	641.69
371.576	650.69
371.802	662.69
372.028	616.69
372.254	630.69
372.48	670.69
372.706	661.69
372.932	681.69
373.158	656.69
373.384	646.69
373.61	653.69
373.835	638.69
374.061	672.69
374.287	653.69
374.513	666.69
374.739	672.69
374.965	696.69
375.191	730.69
375.416	699.69
375.642	701.69
375.868	675.69
376.094	670.69
376.319	652.69
376.545	677.69
376.771	658.69
376.997	622.69
377.222	656.69
377.448	636.69
377.674	664.69
377.899	628.69
378.125	651.69
378.35	653.69
378.576	628.69
378.802	634.69
379.027	649.69
379.253	631.69
379.478	634.69
379.704	638.69
379.929	616.69
380.155	676.69
380.38	619.69
380.606	620.69
380.831	623.69
381.057	650.69
381.282	640.69
381.507	638.69
381.733	639.69
381.958	679.69
382.184	654.69
382.409	658.69
382.634	662.69
382.86	678.69
383.085	687.69
383.31	695.69
383.535	679.69
383.761	707.69
383.986	742.69
384.211	755.69
384.436	760.69
384.662	766.69
384.887	787.69
385.112	784.69
385.337	778.69
385.562	807.69
385.787	792.69
386.013	791.69
386.238	768.69
386.463	787.69
386.688	768.69
386.913	766.69
387.138	762.69
387.363	748.69
387.588	747.69
387.813	778.69
388.038	771.69
388.263	781.69
388.488	792.69
388.713	761.69
388.938	734.69
389.163	745.69
389.387	746.69
389.612	730.69
389.837	770.69
390.062	744.69
390.287	764.69
390.512	737.69
390.736	729.69
390.961	791.69
391.186	796.69
391.411	815.69
391.636	853.69
391.86	844.69
392.085	890.69
392.31	869.69
392.534	832.69
392.759	845.69
392.984	837.69
393.208	831.69
393.433	823.69
393.658	830.69
393.882	826.69
394.107	841.69
394.331	810.69
394.556	802.69
394.78	826.69
395.005	843.69
395.229	876.69
395.454	863.69
395.678	901.69
395.903	888.69
396.127	853.69
396.352	822.69
396.576	793.69
396.801	806.69
397.025	800.69
397.249	825.69
397.474	875.69
397.698	867.69
397.922	861.69
398.147	867.69
398.371	888.69
398.595	905.69
398.82	925.69
399.044	996.69
399.268	1116.69
399.492	1319.69
399.717	1534.69
399.941	1498.69
400.165	1304.69
400.389	1141.69
400.613	1062.69
400.837	986.69
401.062	975.69
401.286	946.69
401.51	947.69
401.734	954.69
401.958	982.69
402.182	968.69
402.406	964.69
402.63	991.69
402.854	1054.69
403.078	1070.69
403.302	1064.69
403.526	1127.69
403.75	1152.69
403.974	1154.69
404.198	1127.69
404.422	1156.69
404.645	1139.69
404.869	1119.69
405.093	1110.69
405.317	1070.69
405.541	1078.69
405.765	1078.69
405.988	1093.69
406.212	1054.69
406.436	1041.69
406.66	1065.69
406.883	1101.69
407.107	1169.69
407.331	1237.69
407.555	1295.69
407.778	1249.69
408.002	1230.69
408.226	1187.69
408.449	1162.69
408.673	1108.69
408.896	1091.69
409.12	1086.69
409.344	1123.69
409.567	1105.69
409.791	1112.69
410.014	1110.69
410.238	1090.69
410.461	1087.69
410.685	1072.69
410.908	1057.69
411.132	1053.69
411.355	999.69
411.578	991.69
411.802	998.69
412.025	1004.69
412.249	1021.69
412.472	1024.69
412.695	983.69
412.919	956.69
413.142	987.69
413.365	944.69
413.589	988.69
413.812	948.69
414.035	950.69
414.258	939.69
414.482	948.69
414.705	983.69
414.928	1023.69
415.151	963.69
415.374	980.69
415.597	973.69
415.821	970.69
416.044	922.69
416.267	957.69
416.49	962.69
416.713	955.69
416.936	964.69
417.159	935.69
417.382	969.69
417.605	959.69
417.828	952.69
418.051	961.69
418.274	943.69
418.497	967.69
418.72	989.69
418.943	962.69
419.166	1076.69
419.389	1137.69
419.611	1070.69
419.834	1020.69
420.057	1010.69
420.28	987.69
420.503	949.69
420.726	939.69
420.948	961.69
421.171	961.69
421.394	931.69
421.617	937.69
421.839	979.69
422.062	976.69
422.285	958.69
422.507	1000.69
422.73	1013.69
422.953	975.69
423.175	1037.69
423.398	1028.69
423.621	1048.69
423.843	1042.69
424.066	1050.69
424.288	1007.69
424.511	1043.69
424.733	993.69
424.956	1028.69
425.178	992.69
425.401	961.69
425.623	964.69
425.846	971.69
426.068	923.69
426.291	899.69
426.513	915.69
426.735	890.69
426.958	901.69
427.18	854.69
427.402	876.69
427.625	889.69
427.847	862.69
428.069	860.69
428.292	855.69
428.514	850.69
428.736	847.69
428.958	870.69
429.181	845.69
429.403	835.69
429.625	828.69
429.847	854.69
430.069	824.69
430.292	825.69
430.514	860.69
430.736	828.69
430.958	844.69
431.18	831.69
431.402	835.69
431.624	847.69
431.846	844.69
432.068	878.69
432.29	868.69
432.512	842.69
432.734	866.69
432.956	860.69
433.178	892.69
433.4	858.69
433.622	886.69
433.844	858.69
434.066	880.69
434.287	883.69
434.509	895.69
434.731	951.69
434.953	975.69
435.175	968.69
435.397	959.69
435.618	901.69
435.84	900.69
436.062	844.69
436.284	874.69
436.505	847.69
436.727	862.69
436.949	892.69
437.17	859.69
437.392	848.69
437.614	811.69
437.835	803.69
438.057	849.69
438.278	839.69
438.5	798.69
438.721	854.69
438.943	830.69
439.165	833.69
439.386	841.69
439.608	835.69
439.829	847.69
440.05	840.69
440.272	858.69
440.493	879.69
440.715	892.69
440.936	882.69
441.158	906.69
441.379	891.69
441.6	970.69
441.822	995.69
442.043	984.69
442.264	976.69
442.486	948.69
442.707	963.69
442.928	955.69
443.149	960.69
443.371	959.69
443.592	926.69
443.813	940.69
444.034	986.69
444.255	1050.69
444.476	1058.69
444.698	1148.69
444.919	1206.69
445.14	1240.69
445.361	1104.69
445.582	1011.69
445.803	923.69
446.024	917.69
446.245	868.69
446.466	912.69
446.687	878.69
446.908	855.69
447.129	869.69
447.35	848.69
447.571	834.69
447.792	812.69
448.013	816.69
448.234	825.69
448.455	811.69
448.675	803.69
448.896	819.69
449.117	763.69
449.338	772.69
449.559	805.69
449.779	780.69
450	790.69
450.221	798.69
450.442	833.69
450.662	820.69
450.883	832.69
451.104	819.69
451.324	832.69
451.545	825.69
451.766	792.69
451.986	814.69
452.207	806.69
452.428	811.69
452.648	815.69
452.869	788.69
453.089	776.69
453.31	793.69
453.53	771.69
453.751	766.69
453.971	765.69
454.192	769.69
454.412	766.69
454.633	763.69
454.853	767.69
455.073	753.69
455.294	731.69
455.514	725.69
455.734	736.69
455.955	736.69
456.175	757.69
456.395	715.69
456.616	714.69
456.836	756.69
457.056	731.69
457.276	726.69
457.497	734.69
457.717	741.69
457.937	778.69
458.157	734.69
458.377	736.69
458.598	772.69
458.818	794.69
459.038	807.69
459.258	835.69
459.478	848.69
459.698	886.69
459.918	908.69
460.138	938.69
460.358	1025.69
460.578	1027.69
460.798	1024.69
461.018	1043.69
461.238	990.69
461.458	1022.69
461.678	995.69
461.898	1042.69
462.118	1035.69
462.338	1096.69
462.558	1158.69
462.777	1158.69
462.997	1264.69
463.217	1409.69
463.437	1430.69
463.657	1246.69
463.876	1222.69
464.096	1187.69
464.316	1174.69
464.536	1227.69
464.755	1178.69
464.975	1096.69
465.195	1061.69
465.414	984.69
465.634	922.69
465.854	928.69
466.073	871.69
466.293	878.69
466.512	864.69
466.732	830.69
466.951	837.69
467.171	834.69
467.391	831.69
467.61	841.69
467.829	824.69
468.049	809.69
468.268	801.69
468.488	788.69
468.707	773.69
468.927	793.69
469.146	794.69
469.365	799.69
469.585	807.69
469.804	828.69
470.023	857.69
470.243	861.69
470.462	888.69
470.681	894.69
470.901	882.69
471.12	839.69
471.339	835.69
471.558	827.69
471.777	807.69
471.997	826.69
472.216	800.69
472.435	771.69
472.654	768.69
472.873	760.69
473.092	747.69
473.311	743.69
473.53	771.69
473.749	772.69
473.968	748.69
474.187	749.69
474.406	770.69
474.625	791.69
474.844	774.69
475.063	791.69
475.282	789.69
475.501	787.69
475.72	774.69
475.939	792.69
476.158	779.69
476.377	792.69
476.596	801.69
476.814	824.69
477.033	806.69
477.252	834.69
477.471	855.69
477.69	871.69
477.908	887.69
478.127	936.69
478.346	916.69
478.564	939.69
478.783	931.69
479.002	936.69
479.22	987.69
479.439	979.69
479.658	981.69
479.876	956.69
480.095	979.69
480.313	1024.69
480.532	1052.69
480.751	1048.69
480.969	994.69
481.188	942.69
481.406	883.69
481.624	930.69
481.843	896.69
482.061	916.69
482.28	875.69
482.498	900.69
482.717	864.69
482.935	859.69
483.153	871.69
483.372	865.69
483.59	870.69
483.808	913.69
484.027	886.69
484.245	863.69
484.463	894.69
484.681	908.69
484.9	916.69
485.118	905.69
485.336	905.69
485.554	933.69
485.772	928.69
485.99	920.69
486.209	943.69
486.427	964.69
486.645	927.69
486.863	948.69
487.081	962.69
487.299	918.69
487.517	923.69
487.735	928.69
487.953	934.69
488.171	930.69
488.389	943.69
488.607	907.69
488.825	896.69
489.043	899.69
489.261	890.69
489.479	918.69
489.696	934.69
489.914	935.69
490.132	906.69
490.35	935.69
490.568	891.69
490.786	902.69
491.003	937.69
491.221	937.69
491.439	927.69
491.657	912.69
491.874	950.69
492.092	935.69
492.31	947.69
492.527	939.69
492.745	931.69
492.963	926.69
493.18	937.69
493.398	956.69
493.615	989.69
493.833	963.69
494.05	959.69
494.268	962.69
494.485	991.69
494.703	981.69
494.92	977.69
495.138	962.69
495.355	976.69
495.573	955.69
495.79	987.69
496.008	996.69
496.225	973.69
496.442	1001.69
496.66	1010.69
496.877	1023.69
497.094	1042.69
497.312	1054.69
497.529	1067.69
497.746	1069.69
497.963	1125.69
498.181	1194.69
498.398	1235.69
498.615	1280.69
498.832	1385.69
499.049	1499.69
499.267	1620.69
499.484	1767.69
499.701	1970.69
499.918	2187.69
500.135	2559.69
500.352	3047.69
500.569	3194.69
500.786	3088.69
501.003	2843.69
501.22	2478.69
501.437	2157.69
501.654	1921.69
501.871	1695.69
502.088	1560.69
502.305	1450.69
502.522	1369.69
502.739	1348.69
502.956	1252.69
503.172	1185.69
503.389	1149.69
503.606	1131.69
503.823	1078.69
504.04	1076.69
504.256	1106.69
504.473	1137.69
504.69	1179.69
504.907	1161.69
505.123	1076.69
505.34	1002.69
505.557	980.69
505.773	939.69
505.99	934.69
506.207	894.69
506.423	905.69
506.64	863.69
506.856	865.69
507.073	868.69
507.289	855.69
507.506	880.69
507.722	869.69
507.939	834.69
508.155	848.69
508.372	850.69
508.588	815.69
508.805	824.69
509.021	821.69
509.238	807.69
509.454	797.69
509.67	782.69
509.887	810.69
510.103	801.69
510.319	788.69
510.536	786.69
510.752	775.69
510.968	776.69
511.184	763.69
511.401	774.69
511.617	798.69
511.833	808.69
512.049	778.69
512.265	788.69
512.481	794.69
512.698	769.69
512.914	793.69
513.13	776.69
513.346	780.69
513.562	794.69
513.778	773.69
513.994	795.69
514.21	790.69
514.426	793.69
514.642	781.69
514.858	815.69
515.074	835.69
515.29	823.69
515.506	830.69
515.721	828.69
515.937	840.69
516.153	850.69
516.369	884.69
516.585	881.69
516.801	926.69
517.016	987.69
517.232	1019.69
517.448	1088.69
517.664	1133.69
517.879	1094.69
518.095	1186.69
518.311	1107.69
518.527	1062.69
518.742	997.69
518.958	938.69
519.173	933.69
519.389	913.69
519.605	855.69
519.82	835.69
520.036	842.69
520.251	831.69
520.467	804.69
520.682	818.69
520.898	802.69
521.113	774.69
521.329	786.69
521.544	781.69
521.76	761.69
521.975	753.69
522.19	746.69
522.406	744.69
522.621	736.69
522.836	737.69
523.052	749.69
523.267	743.69
523.482	741.69
523.698	738.69
523.913	709.69
524.128	728.69
524.343	733.69
524.559	692.69
524.774	706.69
524.989	713.69
525.204	733.69
525.419	708.69
525.634	715.69
525.849	711.69
526.064	708.69
526.28	728.69
526.495	717.69
526.71	698.69
526.925	720.69
527.14	725.69
527.355	709.69
527.57	737.69
527.785	710.69
527.999	713.69
528.214	715.69
528.429	713.69
528.644	740.69
528.859	703.69
529.074	729.69
529.289	725.69
529.503	690.69
529.718	713.69
529.933	694.69
530.148	699.69
530.363	723.69
530.577	706.69
530.792	703.69
531.007	692.69
531.221	726.69
531.436	726.69
531.651	734.69
531.865	745.69
532.08	723.69
532.295	707.69
532.509	692.69
532.724	714.69
532.938	730.69
533.153	688.69
533.367	708.69
533.582	703.69
533.796	714.69
534.011	726.69
534.225	709.69
534.44	693.69
534.654	668.69
534.868	688.69
535.083	686.69
535.297	706.69
535.511	670.69
535.726	706.69
535.94	691.69
536.154	672.69
536.369	657.69
536.583	666.69
536.797	666.69
537.011	670.69
537.225	666.69
537.44	636.69
537.654	665.69
537.868	656.69
538.082	642.69
538.296	638.69
538.51	662.69
538.724	680.69
538.938	650.69
539.153	617.69
539.367	647.69
539.581	634.69
539.795	618.69
540.009	642.69
540.222	638.69
540.436	666.69
540.65	650.69
540.864	654.69
541.078	643.69
541.292	649.69
541.506	646.69
541.72	646.69
541.934	645.69
542.147	657.69
542.361	645.69
542.575	628.69
542.789	626.69
543.002	611.69
543.216	635.69
543.43	598.69
543.644	612.69
543.857	623.69
544.071	634.69
544.285	632.69
544.498	657.69
544.712	665.69
544.925	643.69
545.139	633.69
545.352	647.69
545.566	658.69
545.779	664.69
545.993	666.69
546.206	650.69
546.42	648.69
546.633	665.69
546.847	652.69
547.06	636.69
547.274	650.69
547.487	642.69
547.7	661.69
547.914	658.69
548.127	670.69
548.34	676.69
548.554	643.69
548.767	670.69
548.98	661.69
549.193	651.69
549.407	662.69
549.62	693.69
549.833	699.69
550.046	693.69
550.259	681.69
550.473	658.69
550.686	671.69
550.899	649.69
551.112	614.69
551.325	664.69
551.538	648.69
551.751	629.69
551.964	631.69
552.177	659.69
552.39	642.69
552.603	682.69
552.816	698.69
553.029	715.69
553.242	713.69
553.455	729.69
553.667	722.69
553.88	740.69
554.093	693.69
554.306	700.69
554.519	666.69
554.732	652.69
554.944	624.69
555.157	614.69
555.37	648.69
555.583	631.69
555.795	583.69
556.008	606.69
556.221	576.69
556.433	595.69
556.646	574.69
556.859	576.69
557.071	546.69
557.284	563.69
557.496	548.69
557.709	560.69
557.921	551.69
558.134	538.69
558.346	571.69
558.559	575.69
558.771	562.69
558.984	577.69
559.196	531.69
559.409	552.69
559.621	575.69
559.833	552.69
560.046	544.69
560.258	535.69
560.47	560.69
560.683	554.69
560.895	521.69
561.107	534.69
561.32	546.69
561.532	534.69
561.744	545.69
561.956	533.69
562.168	539.69
562.381	546.69
562.593	544.69
562.805	564.69
563.017	527.69
563.229	530.69
563.441	542.69
563.653	543.69
563.865	546.69
564.077	540.69
564.289	550.69
564.501	564.69
564.713	573.69
564.925	572.69
565.137	578.69
565.349	596.69
565.561	608.69
565.773	637.69
565.985	640.69
566.197	694.69
566.408	734.69
566.62	842.69
566.832	908.69
567.044	935.69
567.255	882.69
567.467	900.69
567.679	992.69
567.891	1088.69
568.102	1111.69
568.314	1089.69
568.526	908.69
568.737	819.69
568.949	755.69
569.161	678.69
569.372	652.69
569.584	608.69
569.795	582.69
570.007	567.69
570.218	551.69
570.43	549.69
570.641	558.69
570.853	546.69
571.064	536.69
571.276	563.69
571.487	554.69
571.698	508.69
571.91	489.69
572.121	512.69
572.333	484.69
572.544	471.69
572.755	473.69
572.966	491.69
573.178	484.69
573.389	453.69
573.6	442.69
573.811	458.69
574.023	465.69
574.234	454.69
574.445	430.69
574.656	458.69
574.867	446.69
575.078	452.69
575.289	436.69
575.501	445.69
575.712	427.69
575.923	415.69
576.134	415.69
576.345	429.69
576.556	456.69
576.767	413.69
576.978	427.69
577.188	411.69
577.399	426.69
577.61	403.69
577.821	398.69
578.032	399.69
578.243	392.69
578.454	400.69
578.665	399.69
578.875	399.69
579.086	405.69
579.297	373.69
579.508	389.69
579.718	404.69
579.929	391.69
580.14	407.69
580.35	390.69
580.561	382.69
580.772	395.69
580.982	390.69
581.193	378.69
581.403	381.69
581.614	396.69
581.825	382.69
582.035	392.69
582.246	392.69
582.456	379.69
582.667	391.69
582.877	377.69
583.087	383.69
583.298	373.69
583.508	390.69
583.719	379.69
583.929	379.69
584.139	391.69
584.35	380.69
584.56	375.69
584.77	372.69
584.981	378.69
585.191	371.69
585.401	359.69
585.611	358.69
585.821	374.69
586.032	389.69
586.242	360.69
586.452	348.69
586.662	357.69
586.872	384.69
587.082	352.69
587.292	368.69
587.502	335.69
587.713	347.69
587.923	355.69
588.133	358.69
588.343	352.69
588.553	359.69
588.762	361.69
588.972	353.69
589.182	345.69
589.392	370.69
589.602	368.69
589.812	348.69
590.022	370.69
590.232	366.69
590.441	378.69
590.651	351.69
590.861	361.69
591.071	380.69
591.281	375.69
591.49	380.69
591.7	371.69
591.91	372.69
592.119	373.69
592.329	399.69
592.539	416.69
592.748	443.69
592.958	432.69
593.167	449.69
593.377	451.69
593.587	478.69
593.796	471.69
594.006	481.69
594.215	497.69
594.424	476.69
594.634	458.69
594.843	432.69
595.053	419.69
595.262	402.69
595.472	403.69
595.681	372.69
595.89	378.69
596.1	370.69
596.309	360.69
596.518	359.69
596.727	342.69
596.937	347.69
597.146	346.69
597.355	333.69
597.564	329.69
597.774	314.69
597.983	323.69
598.192	340.69
598.401	324.69
598.61	318.69
598.819	318.69
599.028	321.69
599.237	300.69
599.446	318.69
599.655	306.69
599.864	314.69
600.073	313.69
600.282	303.69
600.491	297.69
600.7	307.69
600.909	293.69
601.118	318.69
601.327	296.69
601.536	284.69
601.745	297.69
601.953	300.69
602.162	298.69
602.371	287.69
602.58	283.69
602.789	287.69
602.997	296.69
603.206	289.69
603.415	287.69
603.623	282.69
603.832	304.69
604.041	284.69
604.249	290.69
604.458	293.69
604.666	290.69
604.875	282.69
605.084	292.69
605.292	296.69
605.501	296.69
605.709	291.69
605.918	290.69
606.126	275.69
606.334	288.69
606.543	285.69
606.751	282.69
606.96	272.69
607.168	275.69
607.376	271.69
607.585	275.69
607.793	286.69
608.001	297.69
608.21	273.69
608.418	280.69
608.626	264.69
608.834	289.69
609.043	262.69
609.251	286.69
609.459	278.69
609.667	266.69
609.875	278.69
610.083	274.69
610.291	282.69
610.499	266.69
610.707	271.69
610.916	274.69
611.124	266.69
611.332	283.69
611.54	268.69
611.748	279.69
611.955	278.69
612.163	275.69
612.371	274.69
612.579	263.69
612.787	269.69
612.995	257.69
613.203	283.69
613.411	281.69
613.618	279.69
613.826	271.69
614.034	266.69
614.242	278.69
614.449	268.69
614.657	283.69
614.865	267.69
615.072	260.69
615.28	259.69
615.488	262.69
615.695	279.69
615.903	264.69
616.111	268.69
616.318	276.69
616.526	291.69
616.733	288.69
616.941	286.69
617.148	276.69
617.356	285.69
617.563	286.69
617.771	244.69
617.978	269.69
618.185	272.69
618.393	262.69
618.6	268.69
618.807	252.69
619.015	262.69
619.222	268.69
619.429	273.69
619.637	273.69
619.844	259.69
620.051	263.69
620.258	247.69
620.466	256.69
620.673	242.69
620.88	254.69
621.087	240.69
621.294	260.69
621.501	236.69
621.708	242.69
621.915	262.69
622.122	244.69
622.329	247.69
622.536	248.69
622.743	229.69
622.95	241.69
623.157	225.69
623.364	230.69
623.571	254.69
623.778	218.69
623.985	238.69
624.192	243.69
624.399	222.69
624.606	224.69
624.812	227.69
625.019	232.69
625.226	238.69
625.433	238.69
625.639	222.69
625.846	214.69
626.053	215.69
626.259	224.69
626.466	244.69
626.673	237.69
626.879	239.69
627.086	227.69
627.293	226.69
627.499	219.69
627.706	223.69
627.912	233.69
628.119	229.69
628.325	210.69
628.532	223.69
628.738	232.69
628.945	242.69
629.151	226.69
629.357	226.69
629.564	215.69
629.77	206.69
629.976	212.69
630.183	215.69
630.389	211.69
630.595	219.69
630.802	214.69
631.008	213.69
631.214	211.69
631.42	215.69
631.627	211.69
631.833	211.69
632.039	200.69
632.245	212.69
632.451	206.69
632.657	205.69
632.863	203.69
633.069	200.69
633.275	207.69
633.481	186.69
633.688	194.69
633.893	196.69
634.099	209.69
634.305	200.69
634.511	201.69
634.717	199.69
634.923	203.69
635.129	189.69
635.335	197.69
635.541	205.69
635.747	191.69
635.952	206.69
636.158	200.69
636.364	180.69
636.57	189.69
636.775	200.69
636.981	210.69
637.187	201.69
637.392	194.69
637.598	175.69
637.804	193.69
638.009	200.69
638.215	187.69
638.421	185.69
638.626	207.69
638.832	194.69
639.037	194.69
639.243	190.69
639.448	178.69
639.654	176.69
639.859	187.69
640.065	179.69
640.27	185.69
640.475	194.69
640.681	180.69
640.886	186.69
641.091	175.69
641.297	180.69
641.502	166.69
641.707	180.69
641.913	195.69
642.118	188.69
642.323	171.69
642.528	198.69
642.733	182.69
642.939	185.69
643.144	183.69
643.349	183.69
643.554	199.69
643.759	186.69
643.964	184.69
644.169	181.69
644.374	187.69
644.579	172.69
644.784	170.69
644.989	190.69
645.194	176.69
645.399	175.69
645.604	171.69
645.809	171.69
646.014	179.69
646.219	186.69
646.423	201.69
646.628	184.69
646.833	178.69
647.038	174.69
647.243	182.69
647.447	194.69
647.652	191.69
647.857	193.69
648.062	195.69
648.266	193.69
648.471	192.69
648.676	186.69
648.88	178.69
649.085	183.69
649.289	184.69
649.494	178.69
649.698	177.69
649.903	180.69
650.107	175.69
650.312	148.69
650.516	172.69
650.721	165.69
650.925	163.69
651.13	169.69
651.334	163.69
651.539	166.69
651.743	155.69
651.947	151.69
652.152	152.69
652.356	168.69
652.56	146.69
652.764	150.69
652.969	155.69
653.173	150.69
653.377	148.69
653.581	137.69
653.785	138.69
653.99	131.69
654.194	122.69
654.398	128.69
654.602	144.69
654.806	138.69
655.01	131.69
655.214	138.69
655.418	117.69
655.622	128.69
655.826	142.69
656.03	137.69
656.234	132.69
656.438	135.69
656.642	131.69
656.846	127.69
657.049	123.69
657.253	114.69
657.457	122.69
657.661	112.69
657.865	122.69
658.068	113.69
658.272	97.69
658.476	96.69
658.68	112.69
658.883	112.69
659.087	90.69
659.291	107.69
659.494	99.69
659.698	90.69
659.901	93.69
660.105	75.69
660.309	95.69
660.512	89.69
660.716	87.69
660.919	90.69
661.123	87.69
661.326	95.69
661.53	91.69
661.733	94.69
661.936	81.69
662.14	77.69
662.343	98.69
662.546	85.69
662.75	82.69
662.953	73.69
663.156	96.69
663.36	73.69
663.563	89.69
663.766	88.69
663.969	88.69
664.173	90.69
664.376	76.69
664.579	84.69
664.782	83.69
664.985	82.69
665.188	83.69
665.391	96.69
665.594	85.69
665.797	77.69
666	73.69
666.203	76.69
666.406	88.69
666.609	83.69
666.812	89.69
667.015	83.69
667.218	86.69
667.421	84.69
667.624	94.69
667.827	83.69
668.03	82.69
668.232	79.69
668.435	94.69
668.638	84.69
668.841	88.69
669.043	94.69
669.246	82.69
669.449	97.69
669.651	80.69
669.854	85.69
670.057	87.69
670.259	93.69
670.462	77.69
670.665	75.69
670.867	83.69
671.07	73.69
671.272	82.69
671.475	81.69
671.677	88.69
671.88	93.69
672.082	90.69
672.284	86.69
672.487	83.69
672.689	90.69
672.892	86.69
