Data from Ni(NO3)2@0.25M.TitratingCurve.Agarose3%dH2O.NegLispCup.LampEnergy10.LIBS07252019_HRD10591_18-03-31-565.txt Node
Date: Thu Jul 25 18:03:31 EDT 2019
User: cochatt
Spectrometer: HR+D1059
Trigger mode: 1
Integration Time (sec): 1.000000E-1
Scans to average: 1
Electric dark correction enabled: true
Nonlinearity correction enabled: false
Boxcar width: 0
XAxis mode: Wavelengths
Number of Pixels in Spectrum: 2048
>>>>>Begin Spectral Data<<<<<
223.165	-20.5
223.4	-20.5
223.635	-20.5
223.869	-6.5
224.104	-16.5
224.338	-14.5
224.573	-19.5
224.808	-21.5
225.042	-14.5
225.277	-10.5
225.511	-8.5
225.746	4.5
225.98	24.5
226.215	5.5
226.449	13.5
226.683	24.5
226.918	31.5
227.152	28.5
227.387	30.5
227.621	47.5
227.856	41.5
228.09	47.5
228.324	57.5
228.559	59.5
228.793	75.5
229.027	90.5
229.262	107.5
229.496	103.5
229.73	123.5
229.964	140.5
230.199	130.5
230.433	131.5
230.667	140.5
230.901	136.5
231.136	132.5
231.37	131.5
231.604	158.5
231.838	147.5
232.072	154.5
232.306	151.5
232.541	137.5
232.775	133.5
233.009	125.5
233.243	130.5
233.477	137.5
233.711	137.5
233.945	125.5
234.179	139.5
234.413	136.5
234.647	139.5
234.881	142.5
235.115	126.5
235.349	131.5
235.583	139.5
235.817	141.5
236.051	132.5
236.285	135.5
236.519	136.5
236.753	131.5
236.987	125.5
237.221	137.5
237.455	131.5
237.689	140.5
237.922	144.5
238.156	159.5
238.39	132.5
238.624	131.5
238.858	145.5
239.091	151.5
239.325	137.5
239.559	164.5
239.793	186.5
240.027	152.5
240.26	153.5
240.494	146.5
240.728	151.5
240.961	157.5
241.195	156.5
241.429	144.5
241.662	155.5
241.896	165.5
242.13	191.5
242.363	185.5
242.597	159.5
242.83	152.5
243.064	159.5
243.298	170.5
243.531	156.5
243.765	159.5
243.998	186.5
244.232	170.5
244.465	171.5
244.699	167.5
244.932	178.5
245.166	184.5
245.399	189.5
245.633	188.5
245.866	194.5
246.099	183.5
246.333	179.5
246.566	166.5
246.8	189.5
247.033	201.5
247.266	187.5
247.5	205.5
247.733	209.5
247.966	189.5
248.2	217.5
248.433	210.5
248.666	209.5
248.899	229.5
249.133	209.5
249.366	234.5
249.599	223.5
249.832	234.5
250.066	257.5
250.299	249.5
250.532	252.5
250.765	259.5
250.998	262.5
251.231	279.5
251.465	277.5
251.698	274.5
251.931	272.5
252.164	259.5
252.397	274.5
252.63	272.5
252.863	307.5
253.096	294.5
253.329	315.5
253.562	309.5
253.795	300.5
254.028	331.5
254.261	323.5
254.494	341.5
254.727	335.5
254.96	332.5
255.193	341.5
255.426	347.5
255.659	337.5
255.892	355.5
256.124	355.5
256.357	356.5
256.59	344.5
256.823	364.5
257.056	365.5
257.289	367.5
257.521	375.5
257.754	389.5
257.987	389.5
258.22	389.5
258.452	394.5
258.685	389.5
258.918	403.5
259.151	391.5
259.383	397.5
259.616	406.5
259.849	422.5
260.081	398.5
260.314	412.5
260.547	406.5
260.779	404.5
261.012	435.5
261.244	415.5
261.477	437.5
261.71	422.5
261.942	429.5
262.175	416.5
262.407	419.5
262.64	412.5
262.872	459.5
263.105	450.5
263.337	420.5
263.57	456.5
263.802	463.5
264.035	472.5
264.267	472.5
264.499	464.5
264.732	463.5
264.964	449.5
265.197	472.5
265.429	458.5
265.661	465.5
265.894	474.5
266.126	469.5
266.358	449.5
266.591	469.5
266.823	482.5
267.055	483.5
267.287	475.5
267.52	497.5
267.752	485.5
267.984	477.5
268.216	492.5
268.448	508.5
268.681	499.5
268.913	491.5
269.145	460.5
269.377	490.5
269.609	483.5
269.841	511.5
270.073	493.5
270.306	503.5
270.538	501.5
270.77	506.5
271.002	511.5
271.234	520.5
271.466	498.5
271.698	510.5
271.93	524.5
272.162	526.5
272.394	516.5
272.626	516.5
272.858	523.5
273.09	518.5
273.322	509.5
273.553	529.5
273.785	517.5
274.017	522.5
274.249	527.5
274.481	523.5
274.713	541.5
274.945	522.5
275.176	558.5
275.408	556.5
275.64	551.5
275.872	521.5
276.104	544.5
276.335	527.5
276.567	530.5
276.799	554.5
277.031	555.5
277.262	534.5
277.494	531.5
277.726	544.5
277.957	537.5
278.189	562.5
278.421	545.5
278.652	542.5
278.884	538.5
279.115	525.5
279.347	550.5
279.579	542.5
279.81	563.5
280.042	550.5
280.273	559.5
280.505	559.5
280.736	548.5
280.968	543.5
281.199	559.5
281.431	548.5
281.662	553.5
281.894	536.5
282.125	541.5
282.356	549.5
282.588	571.5
282.819	547.5
283.051	549.5
283.282	544.5
283.513	562.5
283.745	556.5
283.976	545.5
284.207	560.5
284.439	552.5
284.67	550.5
284.901	537.5
285.132	564.5
285.364	572.5
285.595	578.5
285.826	544.5
286.057	525.5
286.288	567.5
286.52	577.5
286.751	563.5
286.982	557.5
287.213	534.5
287.444	555.5
287.675	563.5
287.906	580.5
288.138	567.5
288.369	588.5
288.6	569.5
288.831	559.5
289.062	565.5
289.293	586.5
289.524	581.5
289.755	579.5
289.986	574.5
290.217	546.5
290.448	548.5
290.679	550.5
290.91	567.5
291.141	543.5
291.371	559.5
291.602	580.5
291.833	579.5
292.064	566.5
292.295	561.5
292.526	567.5
292.757	573.5
292.987	537.5
293.218	539.5
293.449	575.5
293.68	570.5
293.91	567.5
294.141	555.5
294.372	569.5
294.603	586.5
294.833	567.5
295.064	568.5
295.295	540.5
295.525	565.5
295.756	554.5
295.987	569.5
296.217	565.5
296.448	555.5
296.679	556.5
296.909	564.5
297.14	575.5
297.37	580.5
297.601	563.5
297.831	593.5
298.062	583.5
298.292	597.5
298.523	599.5
298.753	610.5
298.984	615.5
299.214	564.5
299.445	585.5
299.675	618.5
299.905	615.5
300.136	607.5
300.366	622.5
300.597	636.5
300.827	604.5
301.057	625.5
301.288	609.5
301.518	630.5
301.748	605.5
301.979	627.5
302.209	623.5
302.439	640.5
302.669	611.5
302.9	612.5
303.13	617.5
303.36	634.5
303.59	650.5
303.82	648.5
304.051	648.5
304.281	611.5
304.511	641.5
304.741	644.5
304.971	659.5
305.201	681.5
305.431	641.5
305.661	661.5
305.891	666.5
306.121	661.5
306.352	621.5
306.582	653.5
306.812	631.5
307.042	631.5
307.272	648.5
307.502	663.5
307.731	634.5
307.961	654.5
308.191	668.5
308.421	657.5
308.651	688.5
308.881	649.5
309.111	654.5
309.341	657.5
309.571	659.5
309.8	700.5
310.03	692.5
310.26	728.5
310.49	720.5
310.72	707.5
310.949	714.5
311.179	685.5
311.409	725.5
311.639	708.5
311.868	724.5
312.098	736.5
312.328	722.5
312.557	720.5
312.787	727.5
313.017	731.5
313.246	742.5
313.476	782.5
313.706	775.5
313.935	747.5
314.165	753.5
314.394	799.5
314.624	801.5
314.853	782.5
315.083	780.5
315.312	780.5
315.542	808.5
315.771	804.5
316.001	818.5
316.23	843.5
316.46	812.5
316.689	823.5
316.919	849.5
317.148	845.5
317.377	832.5
317.607	835.5
317.836	856.5
318.065	847.5
318.295	866.5
318.524	913.5
318.753	881.5
318.983	874.5
319.212	896.5
319.441	887.5
319.67	877.5
319.9	892.5
320.129	881.5
320.358	920.5
320.587	897.5
320.816	927.5
321.046	950.5
321.275	937.5
321.504	948.5
321.733	978.5
321.962	965.5
322.191	964.5
322.42	973.5
322.649	995.5
322.878	964.5
323.108	984.5
323.337	1034.5
323.566	1031.5
323.795	1033.5
324.024	1088.5
324.253	1041.5
324.482	1057.5
324.71	1093.5
324.939	1036.5
325.168	1081.5
325.397	1049.5
325.626	1076.5
325.855	1108.5
326.084	1104.5
326.313	1085.5
326.542	1129.5
326.77	1127.5
326.999	1147.5
327.228	1203.5
327.457	1159.5
327.686	1145.5
327.914	1172.5
328.143	1205.5
328.372	1171.5
328.6	1159.5
328.829	1155.5
329.058	1160.5
329.287	1194.5
329.515	1218.5
329.744	1225.5
329.972	1253.5
330.201	1225.5
330.43	1258.5
330.658	1223.5
330.887	1267.5
331.115	1254.5
331.344	1283.5
331.572	1289.5
331.801	1288.5
332.03	1305.5
332.258	1336.5
332.486	1324.5
332.715	1339.5
332.943	1330.5
333.172	1339.5
333.4	1397.5
333.629	1365.5
333.857	1398.5
334.085	1390.5
334.314	1400.5
334.542	1428.5
334.771	1447.5
334.999	1403.5
335.227	1460.5
335.455	1448.5
335.684	1474.5
335.912	1433.5
336.14	1472.5
336.369	1460.5
336.597	1462.5
336.825	1531.5
337.053	1484.5
337.281	1482.5
337.51	1466.5
337.738	1491.5
337.966	1461.5
338.194	1466.5
338.422	1446.5
338.65	1414.5
338.878	1415.5
339.106	1413.5
339.334	1445.5
339.562	1394.5
339.79	1374.5
340.018	1409.5
340.246	1416.5
340.474	1383.5
340.702	1413.5
340.93	1414.5
341.158	1403.5
341.386	1404.5
341.614	1445.5
341.842	1385.5
342.07	1384.5
342.298	1370.5
342.526	1384.5
342.754	1401.5
342.981	1373.5
343.209	1400.5
343.437	1452.5
343.665	1435.5
343.893	1423.5
344.12	1446.5
344.348	1468.5
344.576	1468.5
344.804	1474.5
345.031	1464.5
345.259	1456.5
345.487	1419.5
345.714	1408.5
345.942	1461.5
346.17	1424.5
346.397	1388.5
346.625	1378.5
346.853	1369.5
347.08	1341.5
347.308	1383.5
347.535	1376.5
347.763	1375.5
347.99	1373.5
348.218	1355.5
348.445	1379.5
348.673	1349.5
348.9	1375.5
349.128	1317.5
349.355	1349.5
349.583	1355.5
349.81	1342.5
350.037	1328.5
350.265	1338.5
350.492	1305.5
350.72	1343.5
350.947	1319.5
351.174	1331.5
351.402	1388.5
351.629	1385.5
351.856	1360.5
352.083	1349.5
352.311	1329.5
352.538	1373.5
352.765	1340.5
352.992	1273.5
353.22	1296.5
353.447	1305.5
353.674	1289.5
353.901	1288.5
354.128	1347.5
354.355	1309.5
354.583	1309.5
354.81	1308.5
355.037	1309.5
355.264	1332.5
355.491	1327.5
355.718	1303.5
355.945	1319.5
356.172	1317.5
356.399	1314.5
356.626	1352.5
356.853	1357.5
357.08	1300.5
357.307	1315.5
357.534	1314.5
357.761	1322.5
357.988	1305.5
358.215	1312.5
358.441	1298.5
358.668	1290.5
358.895	1299.5
359.122	1265.5
359.349	1322.5
359.576	1316.5
359.802	1332.5
360.029	1294.5
360.256	1299.5
360.483	1298.5
360.709	1307.5
360.936	1320.5
361.163	1312.5
361.39	1307.5
361.616	1293.5
361.843	1350.5
362.07	1395.5
362.296	1360.5
362.523	1305.5
362.749	1277.5
362.976	1266.5
363.203	1309.5
363.429	1285.5
363.656	1279.5
363.882	1285.5
364.109	1299.5
364.335	1265.5
364.562	1298.5
364.788	1299.5
365.015	1301.5
365.241	1307.5
365.468	1280.5
365.694	1279.5
365.92	1302.5
366.147	1293.5
366.373	1309.5
366.599	1277.5
366.826	1259.5
367.052	1289.5
367.278	1307.5
367.505	1307.5
367.731	1316.5
367.957	1263.5
368.184	1293.5
368.41	1279.5
368.636	1294.5
368.862	1313.5
369.089	1318.5
369.315	1315.5
369.541	1312.5
369.767	1275.5
369.993	1314.5
370.219	1297.5
370.445	1293.5
370.672	1284.5
370.898	1284.5
371.124	1330.5
371.35	1280.5
371.576	1296.5
371.802	1305.5
372.028	1311.5
372.254	1305.5
372.48	1344.5
372.706	1343.5
372.932	1289.5
373.158	1309.5
373.384	1324.5
373.61	1306.5
373.835	1312.5
374.061	1308.5
374.287	1320.5
374.513	1293.5
374.739	1353.5
374.965	1330.5
375.191	1312.5
375.416	1316.5
375.642	1287.5
375.868	1327.5
376.094	1276.5
376.319	1289.5
376.545	1288.5
376.771	1247.5
376.997	1254.5
377.222	1238.5
377.448	1272.5
377.674	1286.5
377.899	1264.5
378.125	1254.5
378.35	1248.5
378.576	1232.5
378.802	1242.5
379.027	1250.5
379.253	1238.5
379.478	1205.5
379.704	1239.5
379.929	1245.5
380.155	1263.5
380.38	1239.5
380.606	1245.5
380.831	1206.5
381.057	1234.5
381.282	1241.5
381.507	1248.5
381.733	1240.5
381.958	1244.5
382.184	1211.5
382.409	1261.5
382.634	1261.5
382.86	1238.5
383.085	1292.5
383.31	1281.5
383.535	1309.5
383.761	1257.5
383.986	1268.5
384.211	1251.5
384.436	1288.5
384.662	1308.5
384.887	1275.5
385.112	1295.5
385.337	1311.5
385.562	1319.5
385.787	1331.5
386.013	1354.5
386.238	1327.5
386.463	1303.5
386.688	1355.5
386.913	1297.5
387.138	1321.5
387.363	1362.5
387.588	1371.5
387.813	1368.5
388.038	1331.5
388.263	1346.5
388.488	1368.5
388.713	1357.5
388.938	1342.5
389.163	1347.5
389.387	1354.5
389.612	1322.5
389.837	1364.5
390.062	1344.5
390.287	1347.5
390.512	1379.5
390.736	1376.5
390.961	1391.5
391.186	1379.5
391.411	1403.5
391.636	1395.5
391.86	1410.5
392.085	1407.5
392.31	1382.5
392.534	1397.5
392.759	1425.5
392.984	1372.5
393.208	1381.5
393.433	1428.5
393.658	1409.5
393.882	1418.5
394.107	1434.5
394.331	1387.5
394.556	1395.5
394.78	1403.5
395.005	1393.5
395.229	1403.5
395.454	1424.5
395.678	1421.5
395.903	1414.5
396.127	1422.5
396.352	1412.5
396.576	1422.5
396.801	1467.5
397.025	1467.5
397.249	1453.5
397.474	1460.5
397.698	1481.5
397.922	1524.5
398.147	1496.5
398.371	1525.5
398.595	1545.5
398.82	1547.5
399.044	1625.5
399.268	1658.5
399.492	1651.5
399.717	1718.5
399.941	1763.5
400.165	1747.5
400.389	1689.5
400.613	1694.5
400.837	1649.5
401.062	1664.5
401.286	1632.5
401.51	1615.5
401.734	1607.5
401.958	1615.5
402.182	1634.5
402.406	1619.5
402.63	1592.5
402.854	1596.5
403.078	1597.5
403.302	1581.5
403.526	1616.5
403.75	1593.5
403.974	1622.5
404.198	1633.5
404.422	1636.5
404.645	1608.5
404.869	1594.5
405.093	1631.5
405.317	1635.5
405.541	1667.5
405.765	1657.5
405.988	1692.5
406.212	1704.5
406.436	1683.5
406.66	1717.5
406.883	1720.5
407.107	1746.5
407.331	1753.5
407.555	1796.5
407.778	1801.5
408.002	1795.5
408.226	1776.5
408.449	1805.5
408.673	1809.5
408.896	1784.5
409.12	1747.5
409.344	1793.5
409.567	1752.5
409.791	1757.5
410.014	1764.5
410.238	1779.5
410.461	1740.5
410.685	1720.5
410.908	1712.5
411.132	1719.5
411.355	1667.5
411.578	1703.5
411.802	1666.5
412.025	1686.5
412.249	1692.5
412.472	1712.5
412.695	1730.5
412.919	1665.5
413.142	1696.5
413.365	1715.5
413.589	1720.5
413.812	1693.5
414.035	1665.5
414.258	1648.5
414.482	1678.5
414.705	1695.5
414.928	1668.5
415.151	1683.5
415.374	1704.5
415.597	1689.5
415.821	1654.5
416.044	1665.5
416.267	1625.5
416.49	1615.5
416.713	1696.5
416.936	1655.5
417.159	1634.5
417.382	1646.5
417.605	1616.5
417.828	1647.5
418.051	1667.5
418.274	1659.5
418.497	1587.5
418.72	1667.5
418.943	1633.5
419.166	1718.5
419.389	1882.5
419.611	1827.5
419.834	1765.5
420.057	1771.5
420.28	1691.5
420.503	1652.5
420.726	1596.5
420.948	1611.5
421.171	1659.5
421.394	1640.5
421.617	1649.5
421.839	1667.5
422.062	1684.5
422.285	1647.5
422.507	1701.5
422.73	1666.5
422.953	1651.5
423.175	1675.5
423.398	1700.5
423.621	1661.5
423.843	1668.5
424.066	1658.5
424.288	1660.5
424.511	1684.5
424.733	1690.5
424.956	1674.5
425.178	1678.5
425.401	1741.5
425.623	1727.5
425.846	1677.5
426.068	1691.5
426.291	1688.5
426.513	1684.5
426.735	1698.5
426.958	1706.5
427.18	1629.5
427.402	1682.5
427.625	1706.5
427.847	1617.5
428.069	1668.5
428.292	1681.5
428.514	1682.5
428.736	1657.5
428.958	1748.5
429.181	1659.5
429.403	1643.5
429.625	1681.5
429.847	1682.5
430.069	1672.5
430.292	1685.5
430.514	1682.5
430.736	1698.5
430.958	1704.5
431.18	1673.5
431.402	1700.5
431.624	1670.5
431.846	1645.5
432.068	1694.5
432.29	1676.5
432.512	1667.5
432.734	1742.5
432.956	1693.5
433.178	1722.5
433.4	1708.5
433.622	1720.5
433.844	1728.5
434.066	1741.5
434.287	1714.5
434.509	1717.5
434.731	1751.5
434.953	1732.5
435.175	1758.5
435.397	1799.5
435.618	1760.5
435.84	1750.5
436.062	1713.5
436.284	1721.5
436.505	1709.5
436.727	1687.5
436.949	1680.5
437.17	1672.5
437.392	1711.5
437.614	1700.5
437.835	1643.5
438.057	1681.5
438.278	1640.5
438.5	1635.5
438.721	1692.5
438.943	1673.5
439.165	1663.5
439.386	1659.5
439.608	1674.5
439.829	1712.5
440.05	1685.5
440.272	1692.5
440.493	1701.5
440.715	1697.5
440.936	1723.5
441.158	1719.5
441.379	1737.5
441.6	1766.5
441.822	1731.5
442.043	1735.5
442.264	1748.5
442.486	1708.5
442.707	1767.5
442.928	1728.5
443.149	1800.5
443.371	1768.5
443.592	1829.5
443.813	1802.5
444.034	1805.5
444.255	1804.5
444.476	1827.5
444.698	1805.5
444.919	1830.5
445.14	1890.5
445.361	1834.5
445.582	1793.5
445.803	1747.5
446.024	1749.5
446.245	1741.5
446.466	1703.5
446.687	1695.5
446.908	1746.5
447.129	1629.5
447.35	1677.5
447.571	1664.5
447.792	1593.5
448.013	1635.5
448.234	1675.5
448.455	1648.5
448.675	1630.5
448.896	1618.5
449.117	1633.5
449.338	1606.5
449.559	1587.5
449.779	1567.5
450	1606.5
450.221	1557.5
450.442	1575.5
450.662	1555.5
450.883	1596.5
451.104	1595.5
451.324	1555.5
451.545	1594.5
451.766	1581.5
451.986	1522.5
452.207	1560.5
452.428	1583.5
452.648	1570.5
452.869	1538.5
453.089	1506.5
453.31	1530.5
453.53	1521.5
453.751	1516.5
453.971	1541.5
454.192	1546.5
454.412	1523.5
454.633	1514.5
454.853	1561.5
455.073	1514.5
455.294	1520.5
455.514	1494.5
455.734	1549.5
455.955	1522.5
456.175	1554.5
456.395	1496.5
456.616	1501.5
456.836	1533.5
457.056	1500.5
457.276	1501.5
457.497	1569.5
457.717	1551.5
457.937	1578.5
458.157	1539.5
458.377	1599.5
458.598	1588.5
458.818	1612.5
459.038	1617.5
459.258	1628.5
459.478	1696.5
459.698	1729.5
459.918	1741.5
460.138	1717.5
460.358	1784.5
460.578	1810.5
460.798	1818.5
461.018	1817.5
461.238	1804.5
461.458	1834.5
461.678	1773.5
461.898	1815.5
462.118	1803.5
462.338	1869.5
462.558	1872.5
462.777	1926.5
462.997	1965.5
463.217	1961.5
463.437	2003.5
463.657	1957.5
463.876	1960.5
464.096	1967.5
464.316	1925.5
464.536	1896.5
464.755	1899.5
464.975	1860.5
465.195	1845.5
465.414	1802.5
465.634	1760.5
465.854	1725.5
466.073	1741.5
466.293	1712.5
466.512	1697.5
466.732	1691.5
466.951	1682.5
467.171	1684.5
467.391	1704.5
467.61	1695.5
467.829	1629.5
468.049	1643.5
468.268	1614.5
468.488	1632.5
468.707	1638.5
468.927	1663.5
469.146	1655.5
469.365	1655.5
469.585	1641.5
469.804	1638.5
470.023	1660.5
470.243	1650.5
470.462	1663.5
470.681	1652.5
470.901	1695.5
471.12	1659.5
471.339	1679.5
471.558	1660.5
471.777	1687.5
471.997	1707.5
472.216	1684.5
472.435	1700.5
472.654	1669.5
472.873	1639.5
473.092	1659.5
473.311	1675.5
473.53	1712.5
473.749	1673.5
473.968	1673.5
474.187	1664.5
474.406	1657.5
474.625	1697.5
474.844	1717.5
475.063	1735.5
475.282	1723.5
475.501	1748.5
475.72	1767.5
475.939	1737.5
476.158	1752.5
476.377	1769.5
476.596	1744.5
476.814	1805.5
477.033	1822.5
477.252	1787.5
477.471	1830.5
477.69	1839.5
477.908	1849.5
478.127	1880.5
478.346	1855.5
478.564	1930.5
478.783	1939.5
479.002	1954.5
479.22	1994.5
479.439	1937.5
479.658	1956.5
479.876	1915.5
480.095	1977.5
480.313	2013.5
480.532	2035.5
480.751	2022.5
480.969	2003.5
481.188	1976.5
481.406	1960.5
481.624	1957.5
481.843	1975.5
482.061	1959.5
482.28	1985.5
482.498	1974.5
482.717	1942.5
482.935	1992.5
483.153	2044.5
483.372	2033.5
483.59	2070.5
483.808	2021.5
484.027	2012.5
484.245	2017.5
484.463	1990.5
484.681	2032.5
484.9	2048.5
485.118	2036.5
485.336	2060.5
485.554	2028.5
485.772	2006.5
485.99	2016.5
486.209	2044.5
486.427	2011.5
486.645	2050.5
486.863	2077.5
487.081	2047.5
487.299	2049.5
487.517	2049.5
487.735	2122.5
487.953	2130.5
488.171	2115.5
488.389	2108.5
488.607	2068.5
488.825	2073.5
489.043	2071.5
489.261	2013.5
489.479	2084.5
489.696	2051.5
489.914	2101.5
490.132	2081.5
490.35	2084.5
490.568	2079.5
490.786	2124.5
491.003	2130.5
491.221	2132.5
491.439	2116.5
491.657	2133.5
491.874	2185.5
492.092	2182.5
492.31	2190.5
492.527	2213.5
492.745	2156.5
492.963	2199.5
493.18	2177.5
493.398	2125.5
493.615	2185.5
493.833	2191.5
494.05	2211.5
494.268	2224.5
494.485	2199.5
494.703	2207.5
494.92	2217.5
495.138	2289.5
495.355	2247.5
495.573	2258.5
495.79	2287.5
496.008	2284.5
496.225	2323.5
496.442	2330.5
496.66	2349.5
496.877	2379.5
497.094	2365.5
497.312	2409.5
497.529	2443.5
497.746	2455.5
497.963	2594.5
498.181	2603.5
498.398	2612.5
498.615	2695.5
498.832	2713.5
499.049	2765.5
499.267	2855.5
499.484	2979.5
499.701	3012.5
499.918	3120.5
500.135	3127.5
500.352	3281.5
500.569	3249.5
500.786	3266.5
501.003	3223.5
501.22	3150.5
501.437	3096.5
501.654	2994.5
501.871	2956.5
502.088	2927.5
502.305	2858.5
502.522	2728.5
502.739	2699.5
502.956	2624.5
503.172	2587.5
503.389	2493.5
503.606	2506.5
503.823	2485.5
504.04	2454.5
504.256	2401.5
504.473	2361.5
504.69	2311.5
504.907	2304.5
505.123	2292.5
505.34	2305.5
505.557	2215.5
505.773	2155.5
505.99	2185.5
506.207	2104.5
506.423	2096.5
506.64	2080.5
506.856	2125.5
507.073	2074.5
507.289	2043.5
507.506	2082.5
507.722	2015.5
507.939	1997.5
508.155	1983.5
508.372	2031.5
508.588	1984.5
508.805	1940.5
509.021	1946.5
509.238	1941.5
509.454	1906.5
509.67	1927.5
509.887	1901.5
510.103	1878.5
510.319	1839.5
510.536	1806.5
510.752	1860.5
510.968	1845.5
511.184	1790.5
511.401	1838.5
511.617	1831.5
511.833	1843.5
512.049	1831.5
512.265	1862.5
512.481	1847.5
512.698	1786.5
512.914	1864.5
513.13	1862.5
513.346	1818.5
513.562	1864.5
513.778	1815.5
513.994	1865.5
514.21	1857.5
514.426	1836.5
514.642	1868.5
514.858	1836.5
515.074	1891.5
515.29	1844.5
515.506	1875.5
515.721	1939.5
515.937	1890.5
516.153	1900.5
516.369	1897.5
516.585	1943.5
516.801	1969.5
517.016	1929.5
517.232	1981.5
517.448	1977.5
517.664	1992.5
517.879	1981.5
518.095	1983.5
518.311	2010.5
518.527	1951.5
518.742	1959.5
518.958	1906.5
519.173	1885.5
519.389	1903.5
519.605	1897.5
519.82	1860.5
520.036	1891.5
520.251	1842.5
520.467	1842.5
520.682	1799.5
520.898	1807.5
521.113	1799.5
521.329	1777.5
521.544	1756.5
521.76	1741.5
521.975	1727.5
522.19	1751.5
522.406	1734.5
522.621	1712.5
522.836	1715.5
523.052	1714.5
523.267	1740.5
523.482	1722.5
523.698	1700.5
523.913	1674.5
524.128	1699.5
524.343	1682.5
524.559	1700.5
524.774	1676.5
524.989	1683.5
525.204	1706.5
525.419	1693.5
525.634	1668.5
525.849	1669.5
526.064	1672.5
526.28	1649.5
526.495	1625.5
526.71	1652.5
526.925	1635.5
527.14	1618.5
527.355	1610.5
527.57	1591.5
527.785	1639.5
527.999	1619.5
528.214	1630.5
528.429	1621.5
528.644	1632.5
528.859	1655.5
529.074	1596.5
529.289	1599.5
529.503	1609.5
529.718	1659.5
529.933	1574.5
530.148	1583.5
530.363	1601.5
530.577	1585.5
530.792	1601.5
531.007	1591.5
531.221	1607.5
531.436	1594.5
531.651	1583.5
531.865	1572.5
532.08	1539.5
532.295	1527.5
532.509	1548.5
532.724	1574.5
532.938	1591.5
533.153	1583.5
533.367	1522.5
533.582	1568.5
533.796	1554.5
534.011	1559.5
534.225	1559.5
534.44	1520.5
534.654	1537.5
534.868	1552.5
535.083	1567.5
535.297	1563.5
535.511	1541.5
535.726	1526.5
535.94	1491.5
536.154	1511.5
536.369	1515.5
536.583	1520.5
536.797	1511.5
537.011	1459.5
537.225	1504.5
537.44	1478.5
537.654	1486.5
537.868	1510.5
538.082	1444.5
538.296	1477.5
538.51	1477.5
538.724	1485.5
538.938	1464.5
539.153	1481.5
539.367	1482.5
539.581	1452.5
539.795	1456.5
540.009	1437.5
540.222	1436.5
540.436	1448.5
540.65	1433.5
540.864	1449.5
541.078	1443.5
541.292	1452.5
541.506	1479.5
541.72	1444.5
541.934	1474.5
542.147	1468.5
542.361	1461.5
542.575	1450.5
542.789	1411.5
543.002	1406.5
543.216	1430.5
543.43	1398.5
543.644	1404.5
543.857	1411.5
544.071	1437.5
544.285	1460.5
544.498	1405.5
544.712	1420.5
544.925	1445.5
545.139	1433.5
545.352	1417.5
545.566	1413.5
545.779	1447.5
545.993	1429.5
546.206	1417.5
546.42	1413.5
546.633	1431.5
546.847	1409.5
547.06	1422.5
547.274	1425.5
547.487	1414.5
547.7	1401.5
547.914	1418.5
548.127	1433.5
548.34	1399.5
548.554	1418.5
548.767	1415.5
548.98	1407.5
549.193	1401.5
549.407	1398.5
549.62	1397.5
549.833	1361.5
550.046	1409.5
550.259	1382.5
550.473	1409.5
550.686	1359.5
550.899	1388.5
551.112	1377.5
551.325	1376.5
551.538	1368.5
551.751	1370.5
551.964	1354.5
552.177	1372.5
552.39	1361.5
552.603	1409.5
552.816	1389.5
553.029	1372.5
553.242	1373.5
553.455	1403.5
553.667	1415.5
553.88	1366.5
554.093	1335.5
554.306	1348.5
554.519	1358.5
554.732	1360.5
554.944	1315.5
555.157	1321.5
555.37	1311.5
555.583	1289.5
555.795	1274.5
556.008	1303.5
556.221	1261.5
556.433	1289.5
556.646	1279.5
556.859	1222.5
557.071	1247.5
557.284	1248.5
557.496	1249.5
557.709	1250.5
557.921	1235.5
558.134	1194.5
558.346	1215.5
558.559	1222.5
558.771	1237.5
558.984	1199.5
559.196	1173.5
559.409	1203.5
559.621	1163.5
559.833	1205.5
560.046	1196.5
560.258	1190.5
560.47	1186.5
560.683	1207.5
560.895	1192.5
561.107	1184.5
561.32	1157.5
561.532	1174.5
561.744	1188.5
561.956	1214.5
562.168	1209.5
562.381	1196.5
562.593	1210.5
562.805	1196.5
563.017	1168.5
563.229	1177.5
563.441	1172.5
563.653	1177.5
563.865	1174.5
564.077	1180.5
564.289	1210.5
564.501	1219.5
564.713	1201.5
564.925	1231.5
565.137	1209.5
565.349	1236.5
565.561	1273.5
565.773	1276.5
565.985	1292.5
566.197	1297.5
566.408	1284.5
566.62	1346.5
566.832	1319.5
567.044	1353.5
567.255	1332.5
567.467	1344.5
567.679	1352.5
567.891	1341.5
568.102	1319.5
568.314	1315.5
568.526	1293.5
568.737	1276.5
568.949	1234.5
569.161	1212.5
569.372	1195.5
569.584	1164.5
569.795	1141.5
570.007	1144.5
570.218	1129.5
570.43	1119.5
570.641	1104.5
570.853	1070.5
571.064	1061.5
571.276	1069.5
571.487	1061.5
571.698	1056.5
571.91	1010.5
572.121	1047.5
572.333	1036.5
572.544	1008.5
572.755	983.5
572.966	1011.5
573.178	963.5
573.389	935.5
573.6	968.5
573.811	937.5
574.023	948.5
574.234	953.5
574.445	923.5
574.656	900.5
574.867	913.5
575.078	922.5
575.289	905.5
575.501	912.5
575.712	900.5
575.923	889.5
576.134	900.5
576.345	913.5
576.556	912.5
576.767	889.5
576.978	881.5
577.188	888.5
577.399	882.5
577.61	861.5
577.821	845.5
578.032	851.5
578.243	845.5
578.454	864.5
578.665	826.5
578.875	817.5
579.086	840.5
579.297	821.5
579.508	809.5
579.718	835.5
579.929	828.5
580.14	815.5
580.35	822.5
580.561	856.5
580.772	793.5
580.982	809.5
581.193	804.5
581.403	813.5
581.614	793.5
581.825	811.5
582.035	777.5
582.246	785.5
582.456	793.5
582.667	777.5
582.877	814.5
583.087	773.5
583.298	764.5
583.508	779.5
583.719	775.5
583.929	784.5
584.139	774.5
584.35	771.5
584.56	745.5
584.77	773.5
584.981	746.5
585.191	793.5
585.401	771.5
585.611	744.5
585.821	737.5
586.032	763.5
586.242	731.5
586.452	746.5
586.662	748.5
586.872	721.5
587.082	734.5
587.292	739.5
587.502	738.5
587.713	738.5
587.923	722.5
588.133	728.5
588.343	733.5
588.553	729.5
588.762	713.5
588.972	733.5
589.182	761.5
589.392	751.5
589.602	715.5
589.812	777.5
590.022	749.5
590.232	718.5
590.441	708.5
590.651	695.5
590.861	708.5
591.071	741.5
591.281	727.5
591.49	724.5
591.7	738.5
591.91	742.5
592.119	730.5
592.329	714.5
592.539	742.5
592.748	737.5
592.958	737.5
593.167	721.5
593.377	723.5
593.587	727.5
593.796	722.5
594.006	714.5
594.215	707.5
594.424	732.5
594.634	698.5
594.843	691.5
595.053	714.5
595.262	685.5
595.472	681.5
595.681	694.5
595.89	706.5
596.1	655.5
596.309	675.5
596.518	652.5
596.727	679.5
596.937	639.5
597.146	647.5
597.355	644.5
597.564	647.5
597.774	637.5
597.983	635.5
598.192	636.5
598.401	652.5
598.61	616.5
598.819	632.5
599.028	614.5
599.237	611.5
599.446	589.5
599.655	606.5
599.864	593.5
600.073	625.5
600.282	612.5
600.491	582.5
600.7	600.5
600.909	576.5
601.118	589.5
601.327	608.5
601.536	595.5
601.745	586.5
601.953	576.5
602.162	602.5
602.371	563.5
602.58	567.5
602.789	575.5
602.997	574.5
603.206	576.5
603.415	545.5
603.623	556.5
603.832	564.5
604.041	577.5
604.249	563.5
604.458	555.5
604.666	552.5
604.875	552.5
605.084	528.5
605.292	538.5
605.501	560.5
605.709	554.5
605.918	543.5
606.126	569.5
606.334	543.5
606.543	515.5
606.751	523.5
606.96	553.5
607.168	532.5
607.376	527.5
607.585	538.5
607.793	541.5
608.001	561.5
608.21	531.5
608.418	525.5
608.626	527.5
608.834	509.5
609.043	511.5
609.251	502.5
609.459	509.5
609.667	524.5
609.875	517.5
610.083	503.5
610.291	530.5
610.499	485.5
610.707	501.5
610.916	495.5
611.124	507.5
611.332	502.5
611.54	515.5
611.748	500.5
611.955	504.5
612.163	497.5
612.371	520.5
612.579	480.5
612.787	496.5
612.995	487.5
613.203	510.5
613.411	502.5
613.618	498.5
613.826	487.5
614.034	499.5
614.242	473.5
614.449	478.5
614.657	495.5
614.865	501.5
615.072	481.5
615.28	495.5
615.488	466.5
615.695	483.5
615.903	483.5
616.111	483.5
616.318	482.5
616.526	486.5
616.733	465.5
616.941	462.5
617.148	477.5
617.356	458.5
617.563	489.5
617.771	457.5
617.978	457.5
618.185	455.5
618.393	457.5
618.6	483.5
618.807	463.5
619.015	476.5
619.222	468.5
619.429	447.5
619.637	459.5
619.844	465.5
620.051	470.5
620.258	453.5
620.466	451.5
620.673	426.5
620.88	426.5
621.087	436.5
621.294	443.5
621.501	439.5
621.708	444.5
621.915	441.5
622.122	425.5
622.329	425.5
622.536	448.5
622.743	433.5
622.95	434.5
623.157	440.5
623.364	440.5
623.571	423.5
623.778	439.5
623.985	435.5
624.192	404.5
624.399	440.5
624.606	433.5
624.812	431.5
625.019	420.5
625.226	420.5
625.433	404.5
625.639	402.5
625.846	432.5
626.053	405.5
626.259	389.5
626.466	409.5
626.673	397.5
626.879	401.5
627.086	393.5
627.293	398.5
627.499	403.5
627.706	399.5
627.912	398.5
628.119	398.5
628.325	412.5
628.532	384.5
628.738	378.5
628.945	397.5
629.151	408.5
629.357	395.5
629.564	379.5
629.77	372.5
629.976	383.5
630.183	388.5
630.389	369.5
630.595	372.5
630.802	383.5
631.008	364.5
631.214	375.5
631.42	359.5
631.627	373.5
631.833	365.5
632.039	375.5
632.245	370.5
632.451	340.5
632.657	373.5
632.863	351.5
633.069	365.5
633.275	372.5
633.481	354.5
633.688	365.5
633.893	359.5
634.099	355.5
634.305	349.5
634.511	348.5
634.717	355.5
634.923	336.5
635.129	359.5
635.335	365.5
635.541	347.5
635.747	353.5
635.952	343.5
636.158	333.5
636.364	325.5
636.57	322.5
636.775	340.5
636.981	345.5
637.187	349.5
637.392	342.5
637.598	327.5
637.804	323.5
638.009	324.5
638.215	317.5
638.421	334.5
638.626	327.5
638.832	337.5
639.037	343.5
639.243	335.5
639.448	333.5
639.654	332.5
639.859	324.5
640.065	343.5
640.27	327.5
640.475	303.5
640.681	311.5
640.886	333.5
641.091	305.5
641.297	319.5
641.502	308.5
641.707	304.5
641.913	323.5
642.118	333.5
642.323	331.5
642.528	323.5
642.733	307.5
642.939	318.5
643.144	305.5
643.349	321.5
643.554	327.5
643.759	303.5
643.964	301.5
644.169	317.5
644.374	313.5
644.579	313.5
644.784	304.5
644.989	308.5
645.194	318.5
645.399	318.5
645.604	315.5
645.809	314.5
646.014	306.5
646.219	321.5
646.423	300.5
646.628	319.5
646.833	313.5
647.038	290.5
647.243	308.5
647.447	283.5
647.652	299.5
647.857	298.5
648.062	306.5
648.266	309.5
648.471	299.5
648.676	306.5
648.88	300.5
649.085	297.5
649.289	306.5
649.494	306.5
649.698	294.5
649.903	307.5
650.107	295.5
650.312	295.5
650.516	291.5
650.721	281.5
650.925	299.5
651.13	295.5
651.334	283.5
651.539	270.5
651.743	273.5
651.947	282.5
652.152	261.5
652.356	267.5
652.56	266.5
652.764	256.5
652.969	255.5
653.173	257.5
653.377	236.5
653.581	254.5
653.785	244.5
653.99	246.5
654.194	263.5
654.398	235.5
654.602	232.5
654.806	228.5
655.01	229.5
655.214	217.5
655.418	225.5
655.622	232.5
655.826	225.5
656.03	204.5
656.234	229.5
656.438	219.5
656.642	223.5
656.846	201.5
657.049	215.5
657.253	184.5
657.457	183.5
657.661	175.5
657.865	180.5
658.068	178.5
658.272	150.5
658.476	138.5
658.68	162.5
658.883	147.5
659.087	152.5
659.291	132.5
659.494	145.5
659.698	139.5
659.901	133.5
660.105	123.5
660.309	113.5
660.512	120.5
660.716	113.5
660.919	124.5
661.123	108.5
661.326	113.5
661.53	101.5
661.733	103.5
661.936	93.5
662.14	101.5
662.343	96.5
662.546	89.5
662.75	100.5
662.953	103.5
663.156	77.5
663.36	93.5
663.563	93.5
663.766	82.5
663.969	86.5
664.173	83.5
664.376	82.5
664.579	80.5
664.782	79.5
664.985	74.5
665.188	83.5
665.391	75.5
665.594	85.5
665.797	92.5
666	84.5
666.203	95.5
666.406	91.5
666.609	85.5
666.812	92.5
667.015	73.5
667.218	91.5
667.421	89.5
667.624	76.5
667.827	91.5
668.03	86.5
668.232	64.5
668.435	77.5
668.638	78.5
668.841	85.5
669.043	69.5
669.246	75.5
669.449	88.5
669.651	80.5
669.854	83.5
670.057	79.5
670.259	70.5
670.462	76.5
670.665	97.5
670.867	75.5
671.07	82.5
671.272	84.5
671.475	76.5
671.677	89.5
671.88	82.5
672.082	71.5
672.284	71.5
672.487	78.5
672.689	83.5
672.892	80.5
