Data from Ni(NO3)2@0.0625M.TitratingCurve.Agarose3%dH2O.NegLispCup.LampEnergy10.LIBS07252019_HRD10591_18-13-22-569.txt Node
Date: Thu Jul 25 18:13:22 EDT 2019
User: cochatt
Spectrometer: HR+D1059
Trigger mode: 1
Integration Time (sec): 1.000000E-1
Scans to average: 1
Electric dark correction enabled: true
Nonlinearity correction enabled: false
Boxcar width: 0
XAxis mode: Wavelengths
Number of Pixels in Spectrum: 2048
>>>>>Begin Spectral Data<<<<<
223.165	-14.94
223.4	-14.94
223.635	-14.94
223.869	-27.94
224.104	-26.94
224.338	-7.94
224.573	-5.94
224.808	-12.94
225.042	-12.94
225.277	1.06
225.511	-7.94
225.746	-14.94
225.98	24.06
226.215	8.06
226.449	20.06
226.683	22.06
226.918	26.06
227.152	31.06
227.387	34.06
227.621	35.06
227.856	36.06
228.09	53.06
228.324	40.06
228.559	50.06
228.793	71.06
229.027	93.06
229.262	103.06
229.496	105.06
229.73	102.06
229.964	95.06
230.199	116.06
230.433	112.06
230.667	113.06
230.901	106.06
231.136	119.06
231.37	103.06
231.604	125.06
231.838	132.06
232.072	120.06
232.306	133.06
232.541	115.06
232.775	97.06
233.009	133.06
233.243	134.06
233.477	128.06
233.711	126.06
233.945	127.06
234.179	131.06
234.413	136.06
234.647	121.06
234.881	125.06
235.115	136.06
235.349	128.06
235.583	126.06
235.817	126.06
236.051	129.06
236.285	142.06
236.519	138.06
236.753	137.06
236.987	125.06
237.221	119.06
237.455	128.06
237.689	140.06
237.922	139.06
238.156	137.06
238.39	133.06
238.624	149.06
238.858	145.06
239.091	121.06
239.325	143.06
239.559	142.06
239.793	138.06
240.027	143.06
240.26	145.06
240.494	149.06
240.728	142.06
240.961	150.06
241.195	144.06
241.429	149.06
241.662	159.06
241.896	164.06
242.13	161.06
242.363	153.06
242.597	161.06
242.83	139.06
243.064	167.06
243.298	168.06
243.531	170.06
243.765	162.06
243.998	159.06
244.232	167.06
244.465	158.06
244.699	170.06
244.932	175.06
245.166	170.06
245.399	177.06
245.633	170.06
245.866	154.06
246.099	188.06
246.333	175.06
246.566	174.06
246.8	157.06
247.033	193.06
247.266	173.06
247.5	181.06
247.733	184.06
247.966	190.06
248.2	184.06
248.433	200.06
248.666	191.06
248.899	180.06
249.133	182.06
249.366	208.06
249.599	201.06
249.832	202.06
250.066	183.06
250.299	193.06
250.532	199.06
250.765	203.06
250.998	199.06
251.231	213.06
251.465	194.06
251.698	210.06
251.931	207.06
252.164	196.06
252.397	208.06
252.63	234.06
252.863	227.06
253.096	225.06
253.329	211.06
253.562	223.06
253.795	205.06
254.028	229.06
254.261	221.06
254.494	224.06
254.727	230.06
254.96	217.06
255.193	222.06
255.426	228.06
255.659	225.06
255.892	233.06
256.124	228.06
256.357	219.06
256.59	211.06
256.823	224.06
257.056	209.06
257.289	207.06
257.521	216.06
257.754	245.06
257.987	226.06
258.22	243.06
258.452	249.06
258.685	219.06
258.918	214.06
259.151	258.06
259.383	243.06
259.616	231.06
259.849	241.06
260.081	245.06
260.314	245.06
260.547	249.06
260.779	242.06
261.012	261.06
261.244	245.06
261.477	253.06
261.71	233.06
261.942	234.06
262.175	247.06
262.407	258.06
262.64	246.06
262.872	249.06
263.105	243.06
263.337	256.06
263.57	254.06
263.802	272.06
264.035	264.06
264.267	273.06
264.499	259.06
264.732	262.06
264.964	268.06
265.197	243.06
265.429	263.06
265.661	267.06
265.894	270.06
266.126	263.06
266.358	289.06
266.591	275.06
266.823	279.06
267.055	266.06
267.287	276.06
267.52	270.06
267.752	288.06
267.984	262.06
268.216	296.06
268.448	281.06
268.681	304.06
268.913	280.06
269.145	289.06
269.377	282.06
269.609	284.06
269.841	284.06
270.073	288.06
270.306	270.06
270.538	300.06
270.77	290.06
271.002	285.06
271.234	301.06
271.466	296.06
271.698	292.06
271.93	295.06
272.162	293.06
272.394	317.06
272.626	293.06
272.858	293.06
273.09	292.06
273.322	289.06
273.553	298.06
273.785	312.06
274.017	320.06
274.249	294.06
274.481	288.06
274.713	307.06
274.945	331.06
275.176	320.06
275.408	320.06
275.64	313.06
275.872	343.06
276.104	324.06
276.335	317.06
276.567	326.06
276.799	324.06
277.031	324.06
277.262	326.06
277.494	318.06
277.726	328.06
277.957	337.06
278.189	334.06
278.421	306.06
278.652	315.06
278.884	342.06
279.115	327.06
279.347	339.06
279.579	342.06
279.81	331.06
280.042	341.06
280.273	342.06
280.505	339.06
280.736	341.06
280.968	344.06
281.199	340.06
281.431	353.06
281.662	345.06
281.894	354.06
282.125	345.06
282.356	338.06
282.588	341.06
282.819	356.06
283.051	367.06
283.282	367.06
283.513	368.06
283.745	371.06
283.976	373.06
284.207	372.06
284.439	348.06
284.67	351.06
284.901	376.06
285.132	360.06
285.364	359.06
285.595	385.06
285.826	362.06
286.057	367.06
286.288	361.06
286.52	395.06
286.751	369.06
286.982	379.06
287.213	381.06
287.444	360.06
287.675	394.06
287.906	375.06
288.138	391.06
288.369	388.06
288.6	377.06
288.831	378.06
289.062	371.06
289.293	401.06
289.524	381.06
289.755	385.06
289.986	381.06
290.217	412.06
290.448	380.06
290.679	392.06
290.91	404.06
291.141	385.06
291.371	391.06
291.602	392.06
291.833	405.06
292.064	367.06
292.295	404.06
292.526	398.06
292.757	407.06
292.987	400.06
293.218	382.06
293.449	407.06
293.68	395.06
293.91	401.06
294.141	392.06
294.372	392.06
294.603	403.06
294.833	399.06
295.064	424.06
295.295	395.06
295.525	395.06
295.756	405.06
295.987	412.06
296.217	403.06
296.448	415.06
296.679	417.06
296.909	426.06
297.14	423.06
297.37	421.06
297.601	417.06
297.831	435.06
298.062	424.06
298.292	442.06
298.523	419.06
298.753	426.06
298.984	429.06
299.214	433.06
299.445	434.06
299.675	426.06
299.905	435.06
300.136	422.06
300.366	426.06
300.597	458.06
300.827	446.06
301.057	442.06
301.288	451.06
301.518	460.06
301.748	456.06
301.979	449.06
302.209	459.06
302.439	448.06
302.669	431.06
302.9	449.06
303.13	445.06
303.36	454.06
303.59	457.06
303.82	441.06
304.051	434.06
304.281	458.06
304.511	430.06
304.741	442.06
304.971	445.06
305.201	448.06
305.431	452.06
305.661	464.06
305.891	432.06
306.121	443.06
306.352	437.06
306.582	413.06
306.812	425.06
307.042	447.06
307.272	438.06
307.502	447.06
307.731	420.06
307.961	439.06
308.191	430.06
308.421	435.06
308.651	468.06
308.881	436.06
309.111	434.06
309.341	413.06
309.571	442.06
309.8	439.06
310.03	445.06
310.26	456.06
310.49	437.06
310.72	420.06
310.949	424.06
311.179	449.06
311.409	447.06
311.639	440.06
311.868	443.06
312.098	454.06
312.328	438.06
312.557	453.06
312.787	467.06
313.017	457.06
313.246	457.06
313.476	469.06
313.706	476.06
313.935	477.06
314.165	471.06
314.394	483.06
314.624	496.06
314.853	437.06
315.083	475.06
315.312	472.06
315.542	462.06
315.771	445.06
316.001	453.06
316.23	473.06
316.46	456.06
316.689	440.06
316.919	463.06
317.148	453.06
317.377	479.06
317.607	483.06
317.836	440.06
318.065	469.06
318.295	467.06
318.524	451.06
318.753	459.06
318.983	459.06
319.212	447.06
319.441	446.06
319.67	457.06
319.9	465.06
320.129	465.06
320.358	460.06
320.587	442.06
320.816	461.06
321.046	460.06
321.275	482.06
321.504	455.06
321.733	477.06
321.962	467.06
322.191	454.06
322.42	481.06
322.649	474.06
322.878	468.06
323.108	474.06
323.337	467.06
323.566	451.06
323.795	479.06
324.024	493.06
324.253	513.06
324.482	491.06
324.71	482.06
324.939	474.06
325.168	489.06
325.397	474.06
325.626	490.06
325.855	497.06
326.084	495.06
326.313	498.06
326.542	513.06
326.77	528.06
326.999	526.06
327.228	494.06
327.457	521.06
327.686	523.06
327.914	505.06
328.143	522.06
328.372	502.06
328.6	518.06
328.829	505.06
329.058	493.06
329.287	500.06
329.515	519.06
329.744	511.06
329.972	536.06
330.201	534.06
330.43	529.06
330.658	522.06
330.887	553.06
331.115	554.06
331.344	543.06
331.572	547.06
331.801	563.06
332.03	570.06
332.258	581.06
332.486	590.06
332.715	611.06
332.943	635.06
333.172	669.06
333.4	703.06
333.629	686.06
333.857	682.06
334.085	691.06
334.314	672.06
334.542	649.06
334.771	647.06
334.999	630.06
335.227	626.06
335.455	623.06
335.684	616.06
335.912	607.06
336.14	618.06
336.369	614.06
336.597	608.06
336.825	619.06
337.053	626.06
337.281	613.06
337.51	585.06
337.738	584.06
337.966	559.06
338.194	575.06
338.422	554.06
338.65	577.06
338.878	569.06
339.106	558.06
339.334	565.06
339.562	560.06
339.79	521.06
340.018	545.06
340.246	530.06
340.474	527.06
340.702	538.06
340.93	534.06
341.158	537.06
341.386	531.06
341.614	538.06
341.842	543.06
342.07	527.06
342.298	542.06
342.526	536.06
342.754	538.06
342.981	527.06
343.209	559.06
343.437	573.06
343.665	607.06
343.893	640.06
344.12	665.06
344.348	639.06
344.576	609.06
344.804	586.06
345.031	571.06
345.259	555.06
345.487	548.06
345.714	536.06
345.942	535.06
346.17	516.06
346.397	527.06
346.625	518.06
346.853	509.06
347.08	514.06
347.308	544.06
347.535	535.06
347.763	539.06
347.99	538.06
348.218	522.06
348.445	502.06
348.673	538.06
348.9	531.06
349.128	520.06
349.355	515.06
349.583	515.06
349.81	522.06
350.037	503.06
350.265	493.06
350.492	520.06
350.72	499.06
350.947	504.06
351.174	515.06
351.402	513.06
351.629	495.06
351.856	516.06
352.083	481.06
352.311	520.06
352.538	509.06
352.765	513.06
352.992	478.06
353.22	487.06
353.447	481.06
353.674	491.06
353.901	489.06
354.128	507.06
354.355	474.06
354.583	495.06
354.81	488.06
355.037	521.06
355.264	499.06
355.491	500.06
355.718	484.06
355.945	515.06
356.172	520.06
356.399	503.06
356.626	510.06
356.853	521.06
357.08	507.06
357.307	505.06
357.534	512.06
357.761	481.06
357.988	515.06
358.215	499.06
358.441	505.06
358.668	517.06
358.895	513.06
359.122	493.06
359.349	496.06
359.576	495.06
359.802	500.06
360.029	497.06
360.256	509.06
360.483	494.06
360.709	497.06
360.936	497.06
361.163	505.06
361.39	523.06
361.616	493.06
361.843	500.06
362.07	489.06
362.296	486.06
362.523	493.06
362.749	493.06
362.976	510.06
363.203	515.06
363.429	503.06
363.656	495.06
363.882	499.06
364.109	507.06
364.335	510.06
364.562	487.06
364.788	497.06
365.015	505.06
365.241	522.06
365.468	519.06
365.694	488.06
365.92	489.06
366.147	495.06
366.373	499.06
366.599	498.06
366.826	505.06
367.052	512.06
367.278	512.06
367.505	503.06
367.731	510.06
367.957	499.06
368.184	520.06
368.41	494.06
368.636	513.06
368.862	510.06
369.089	505.06
369.315	507.06
369.541	536.06
369.767	525.06
369.993	540.06
370.219	513.06
370.445	532.06
370.672	524.06
370.898	540.06
371.124	544.06
371.35	563.06
371.576	543.06
371.802	549.06
372.028	526.06
372.254	537.06
372.48	536.06
372.706	563.06
372.932	578.06
373.158	561.06
373.384	561.06
373.61	544.06
373.835	533.06
374.061	559.06
374.287	559.06
374.513	555.06
374.739	573.06
374.965	598.06
375.191	615.06
375.416	592.06
375.642	590.06
375.868	590.06
376.094	573.06
376.319	556.06
376.545	579.06
376.771	578.06
376.997	560.06
377.222	567.06
377.448	533.06
377.674	545.06
377.899	549.06
378.125	561.06
378.35	524.06
378.576	571.06
378.802	533.06
379.027	543.06
379.253	537.06
379.478	556.06
379.704	545.06
379.929	550.06
380.155	521.06
380.38	534.06
380.606	539.06
380.831	552.06
381.057	543.06
381.282	553.06
381.507	565.06
381.733	534.06
381.958	541.06
382.184	571.06
382.409	561.06
382.634	565.06
382.86	578.06
383.085	573.06
383.31	602.06
383.535	607.06
383.761	596.06
383.986	605.06
384.211	630.06
384.436	657.06
384.662	670.06
384.887	672.06
385.112	631.06
385.337	677.06
385.562	636.06
385.787	650.06
386.013	667.06
386.238	660.06
386.463	673.06
386.688	665.06
386.913	678.06
387.138	649.06
387.363	651.06
387.588	651.06
387.813	641.06
388.038	639.06
388.263	644.06
388.488	645.06
388.713	661.06
388.938	642.06
389.163	633.06
389.387	645.06
389.612	634.06
389.837	647.06
390.062	624.06
390.287	646.06
390.512	648.06
390.736	645.06
390.961	667.06
391.186	667.06
391.411	715.06
391.636	724.06
391.86	729.06
392.085	729.06
392.31	740.06
392.534	755.06
392.759	677.06
392.984	688.06
393.208	696.06
393.433	681.06
393.658	677.06
393.882	703.06
394.107	707.06
394.331	687.06
394.556	691.06
394.78	720.06
395.005	719.06
395.229	716.06
395.454	744.06
395.678	742.06
395.903	734.06
396.127	733.06
396.352	677.06
396.576	670.06
396.801	687.06
397.025	705.06
397.249	712.06
397.474	747.06
397.698	734.06
397.922	742.06
398.147	720.06
398.371	747.06
398.595	769.06
398.82	789.06
399.044	842.06
399.268	960.06
399.492	1124.06
399.717	1290.06
399.941	1257.06
400.165	1103.06
400.389	967.06
400.613	900.06
400.837	836.06
401.062	813.06
401.286	818.06
401.51	815.06
401.734	802.06
401.958	846.06
402.182	840.06
402.406	852.06
402.63	856.06
402.854	873.06
403.078	891.06
403.302	911.06
403.526	930.06
403.75	950.06
403.974	1009.06
404.198	981.06
404.422	973.06
404.645	949.06
404.869	968.06
405.093	919.06
405.317	882.06
405.541	914.06
405.765	897.06
405.988	906.06
406.212	897.06
406.436	916.06
406.66	925.06
406.883	936.06
407.107	962.06
407.331	1051.06
407.555	1082.06
407.778	1059.06
408.002	1027.06
408.226	982.06
408.449	979.06
408.673	939.06
408.896	917.06
409.12	925.06
409.344	934.06
409.567	931.06
409.791	957.06
410.014	916.06
410.238	925.06
410.461	928.06
410.685	906.06
410.908	891.06
411.132	906.06
411.355	839.06
411.578	871.06
411.802	844.06
412.025	844.06
412.249	854.06
412.472	850.06
412.695	826.06
412.919	809.06
413.142	811.06
413.365	832.06
413.589	820.06
413.812	824.06
414.035	799.06
414.258	808.06
414.482	843.06
414.705	831.06
414.928	826.06
415.151	835.06
415.374	838.06
415.597	833.06
415.821	807.06
416.044	799.06
416.267	785.06
416.49	806.06
416.713	786.06
416.936	819.06
417.159	806.06
417.382	816.06
417.605	801.06
417.828	830.06
418.051	855.06
418.274	829.06
418.497	791.06
418.72	832.06
418.943	826.06
419.166	899.06
419.389	943.06
419.611	915.06
419.834	879.06
420.057	858.06
420.28	828.06
420.503	808.06
420.726	808.06
420.948	758.06
421.171	798.06
421.394	824.06
421.617	815.06
421.839	786.06
422.062	811.06
422.285	787.06
422.507	823.06
422.73	829.06
422.953	826.06
423.175	838.06
423.398	850.06
423.621	847.06
423.843	880.06
424.066	871.06
424.288	877.06
424.511	856.06
424.733	825.06
424.956	819.06
425.178	824.06
425.401	816.06
425.623	815.06
425.846	780.06
426.068	790.06
426.291	761.06
426.513	758.06
426.735	733.06
426.958	760.06
427.18	727.06
427.402	749.06
427.625	728.06
427.847	714.06
428.069	741.06
428.292	732.06
428.514	736.06
428.736	730.06
428.958	703.06
429.181	708.06
429.403	728.06
429.625	702.06
429.847	680.06
430.069	687.06
430.292	727.06
430.514	695.06
430.736	694.06
430.958	725.06
431.18	689.06
431.402	693.06
431.624	728.06
431.846	699.06
432.068	745.06
432.29	728.06
432.512	712.06
432.734	707.06
432.956	709.06
433.178	743.06
433.4	730.06
433.622	725.06
433.844	738.06
434.066	721.06
434.287	734.06
434.509	758.06
434.731	813.06
434.953	825.06
435.175	830.06
435.397	817.06
435.618	757.06
435.84	754.06
436.062	719.06
436.284	721.06
436.505	709.06
436.727	725.06
436.949	727.06
437.17	752.06
437.392	695.06
437.614	691.06
437.835	660.06
438.057	687.06
438.278	691.06
438.5	697.06
438.721	688.06
438.943	712.06
439.165	706.06
439.386	714.06
439.608	717.06
439.829	719.06
440.05	709.06
440.272	742.06
440.493	717.06
440.715	740.06
440.936	737.06
441.158	766.06
441.379	783.06
441.6	798.06
441.822	832.06
442.043	797.06
442.264	783.06
442.486	793.06
442.707	808.06
442.928	829.06
443.149	785.06
443.371	815.06
443.592	822.06
443.813	824.06
444.034	854.06
444.255	861.06
444.476	903.06
444.698	942.06
444.919	1010.06
445.14	1062.06
445.361	944.06
445.582	847.06
445.803	792.06
446.024	771.06
446.245	742.06
446.466	769.06
446.687	713.06
446.908	769.06
447.129	695.06
447.35	711.06
447.571	688.06
447.792	709.06
448.013	685.06
448.234	691.06
448.455	669.06
448.675	678.06
448.896	666.06
449.117	658.06
449.338	670.06
449.559	662.06
449.779	651.06
450	667.06
450.221	639.06
450.442	665.06
450.662	688.06
450.883	707.06
451.104	694.06
451.324	694.06
451.545	704.06
451.766	664.06
451.986	675.06
452.207	666.06
452.428	693.06
452.648	660.06
452.869	666.06
453.089	652.06
453.31	638.06
453.53	667.06
453.751	640.06
453.971	642.06
454.192	670.06
454.412	627.06
454.633	626.06
454.853	639.06
455.073	637.06
455.294	626.06
455.514	626.06
455.734	633.06
455.955	619.06
456.175	636.06
456.395	616.06
456.616	621.06
456.836	627.06
457.056	615.06
457.276	585.06
457.497	619.06
457.717	625.06
457.937	631.06
458.157	648.06
458.377	640.06
458.598	659.06
458.818	689.06
459.038	674.06
459.258	697.06
459.478	693.06
459.698	769.06
459.918	776.06
460.138	798.06
460.358	865.06
460.578	874.06
460.798	863.06
461.018	870.06
461.238	847.06
461.458	833.06
461.678	854.06
461.898	843.06
462.118	854.06
462.338	936.06
462.558	937.06
462.777	988.06
462.997	1069.06
463.217	1186.06
463.437	1181.06
463.657	1055.06
463.876	1007.06
464.096	1011.06
464.316	1025.06
464.536	1023.06
464.755	965.06
464.975	957.06
465.195	889.06
465.414	838.06
465.634	791.06
465.854	764.06
466.073	765.06
466.293	722.06
466.512	705.06
466.732	731.06
466.951	717.06
467.171	717.06
467.391	721.06
467.61	687.06
467.829	701.06
468.049	685.06
468.268	654.06
468.488	649.06
468.707	656.06
468.927	666.06
469.146	654.06
469.365	682.06
469.585	674.06
469.804	695.06
470.023	746.06
470.243	719.06
470.462	723.06
470.681	735.06
470.901	715.06
471.12	709.06
471.339	691.06
471.558	705.06
471.777	675.06
471.997	671.06
472.216	670.06
472.435	662.06
472.654	665.06
472.873	650.06
473.092	666.06
473.311	646.06
473.53	637.06
473.749	652.06
473.968	678.06
474.187	648.06
474.406	656.06
474.625	651.06
474.844	647.06
475.063	661.06
475.282	648.06
475.501	671.06
475.72	687.06
475.939	655.06
476.158	658.06
476.377	685.06
476.596	682.06
476.814	691.06
477.033	671.06
477.252	669.06
477.471	711.06
477.69	727.06
477.908	758.06
478.127	792.06
478.346	779.06
478.564	810.06
478.783	802.06
479.002	829.06
479.22	829.06
479.439	796.06
479.658	803.06
479.876	813.06
480.095	833.06
480.313	846.06
480.532	903.06
480.751	875.06
480.969	836.06
481.188	780.06
481.406	778.06
481.624	765.06
481.843	755.06
482.061	735.06
482.28	751.06
482.498	727.06
482.717	740.06
482.935	737.06
483.153	735.06
483.372	734.06
483.59	741.06
483.808	729.06
484.027	745.06
484.245	755.06
484.463	730.06
484.681	777.06
484.9	776.06
485.118	764.06
485.336	791.06
485.554	772.06
485.772	787.06
485.99	765.06
486.209	790.06
486.427	767.06
486.645	769.06
486.863	772.06
487.081	778.06
487.299	778.06
487.517	799.06
487.735	777.06
487.953	791.06
488.171	777.06
488.389	752.06
488.607	747.06
488.825	756.06
489.043	752.06
489.261	779.06
489.479	749.06
489.696	751.06
489.914	762.06
490.132	787.06
490.35	776.06
490.568	773.06
490.786	791.06
491.003	764.06
491.221	786.06
491.439	769.06
491.657	785.06
491.874	797.06
492.092	799.06
492.31	780.06
492.527	771.06
492.745	791.06
492.963	798.06
493.18	795.06
493.398	789.06
493.615	829.06
493.833	794.06
494.05	825.06
494.268	807.06
494.485	814.06
494.703	815.06
494.92	824.06
495.138	829.06
495.355	793.06
495.573	818.06
495.79	811.06
496.008	827.06
496.225	824.06
496.442	834.06
496.66	869.06
496.877	823.06
497.094	852.06
497.312	872.06
497.529	894.06
497.746	895.06
497.963	957.06
498.181	978.06
498.398	1014.06
498.615	1095.06
498.832	1166.06
499.049	1279.06
499.267	1353.06
499.484	1509.06
499.701	1665.06
499.918	1831.06
500.135	2141.06
500.352	2471.06
500.569	2623.06
500.786	2536.06
501.003	2320.06
501.22	2051.06
501.437	1802.06
501.654	1561.06
501.871	1407.06
502.088	1289.06
502.305	1205.06
502.522	1155.06
502.739	1127.06
502.956	1080.06
503.172	1015.06
503.389	947.06
503.606	954.06
503.823	917.06
504.04	925.06
504.256	929.06
504.473	977.06
504.69	994.06
504.907	977.06
505.123	901.06
505.34	850.06
505.557	797.06
505.773	793.06
505.99	783.06
506.207	774.06
506.423	765.06
506.64	762.06
506.856	729.06
507.073	745.06
507.289	729.06
507.506	713.06
507.722	711.06
507.939	726.06
508.155	726.06
508.372	686.06
508.588	703.06
508.805	696.06
509.021	687.06
509.238	674.06
509.454	708.06
509.67	663.06
509.887	688.06
510.103	683.06
510.319	693.06
510.536	691.06
510.752	658.06
510.968	663.06
511.184	670.06
511.401	656.06
511.617	661.06
511.833	675.06
512.049	647.06
512.265	661.06
512.481	642.06
512.698	643.06
512.914	662.06
513.13	676.06
513.346	661.06
513.562	666.06
513.778	660.06
513.994	665.06
514.21	667.06
514.426	654.06
514.642	662.06
514.858	677.06
515.074	693.06
515.29	698.06
515.506	709.06
515.721	696.06
515.937	734.06
516.153	740.06
516.369	736.06
516.585	762.06
516.801	783.06
517.016	801.06
517.232	853.06
517.448	921.06
517.664	929.06
517.879	927.06
518.095	930.06
518.311	910.06
518.527	846.06
518.742	842.06
518.958	786.06
519.173	793.06
519.389	745.06
519.605	733.06
519.82	691.06
520.036	698.06
520.251	689.06
520.467	671.06
520.682	667.06
520.898	687.06
521.113	662.06
521.329	671.06
521.544	634.06
521.76	637.06
521.975	643.06
522.19	641.06
522.406	624.06
522.621	607.06
522.836	617.06
523.052	657.06
523.267	637.06
523.482	608.06
523.698	598.06
523.913	609.06
524.128	623.06
524.343	605.06
524.559	618.06
524.774	594.06
524.989	579.06
525.204	593.06
525.419	616.06
525.634	613.06
525.849	596.06
526.064	602.06
526.28	621.06
526.495	586.06
526.71	624.06
526.925	602.06
527.14	613.06
527.355	573.06
527.57	589.06
527.785	606.06
527.999	611.06
528.214	595.06
528.429	606.06
528.644	597.06
528.859	617.06
529.074	605.06
529.289	610.06
529.503	621.06
529.718	585.06
529.933	579.06
530.148	604.06
530.363	620.06
530.577	604.06
530.792	594.06
531.007	596.06
531.221	606.06
531.436	581.06
531.651	596.06
531.865	601.06
532.08	606.06
532.295	627.06
532.509	585.06
532.724	610.06
532.938	618.06
533.153	607.06
533.367	586.06
533.582	623.06
533.796	594.06
534.011	598.06
534.225	613.06
534.44	596.06
534.654	599.06
534.868	585.06
535.083	596.06
535.297	591.06
535.511	579.06
535.726	580.06
535.94	588.06
536.154	599.06
536.369	558.06
536.583	559.06
536.797	574.06
537.011	541.06
537.225	538.06
537.44	547.06
537.654	558.06
537.868	557.06
538.082	558.06
538.296	552.06
538.51	555.06
538.724	586.06
538.938	566.06
539.153	561.06
539.367	575.06
539.581	547.06
539.795	541.06
540.009	553.06
540.222	547.06
540.436	527.06
540.65	551.06
540.864	516.06
541.078	554.06
541.292	545.06
541.506	552.06
541.72	546.06
541.934	563.06
542.147	548.06
542.361	537.06
542.575	542.06
542.789	533.06
543.002	547.06
543.216	539.06
543.43	528.06
543.644	551.06
543.857	526.06
544.071	544.06
544.285	537.06
544.498	543.06
544.712	542.06
544.925	549.06
545.139	559.06
545.352	579.06
545.566	561.06
545.779	552.06
545.993	566.06
546.206	559.06
546.42	552.06
546.633	576.06
546.847	565.06
547.06	543.06
547.274	521.06
547.487	523.06
547.7	532.06
547.914	559.06
548.127	564.06
548.34	561.06
548.554	549.06
548.767	531.06
548.98	587.06
549.193	587.06
549.407	565.06
549.62	535.06
549.833	579.06
550.046	575.06
550.259	567.06
550.473	532.06
550.686	545.06
550.899	525.06
551.112	518.06
551.325	558.06
551.538	549.06
551.751	541.06
551.964	551.06
552.177	551.06
552.39	558.06
552.603	579.06
552.816	593.06
553.029	595.06
553.242	614.06
553.455	616.06
553.667	633.06
553.88	623.06
554.093	610.06
554.306	551.06
554.519	566.06
554.732	545.06
554.944	559.06
555.157	547.06
555.37	538.06
555.583	539.06
555.795	545.06
556.008	499.06
556.221	513.06
556.433	480.06
556.646	487.06
556.859	486.06
557.071	485.06
557.284	466.06
557.496	489.06
557.709	484.06
557.921	477.06
558.134	460.06
558.346	462.06
558.559	473.06
558.771	472.06
558.984	445.06
559.196	467.06
559.409	458.06
559.621	459.06
559.833	440.06
560.046	459.06
560.258	466.06
560.47	459.06
560.683	439.06
560.895	465.06
561.107	456.06
561.32	445.06
561.532	465.06
561.744	455.06
561.956	459.06
562.168	472.06
562.381	469.06
562.593	459.06
562.805	458.06
563.017	472.06
563.229	458.06
563.441	459.06
563.653	474.06
563.865	478.06
564.077	472.06
564.289	475.06
564.501	454.06
564.713	493.06
564.925	499.06
565.137	510.06
565.349	516.06
565.561	537.06
565.773	543.06
565.985	549.06
566.197	598.06
566.408	630.06
566.62	670.06
566.832	758.06
567.044	784.06
567.255	729.06
567.467	783.06
567.679	811.06
567.891	905.06
568.102	949.06
568.314	881.06
568.526	805.06
568.737	709.06
568.949	643.06
569.161	575.06
569.372	538.06
569.584	542.06
569.795	534.06
570.007	493.06
570.218	477.06
570.43	479.06
570.641	490.06
570.853	493.06
571.064	499.06
571.276	491.06
571.487	480.06
571.698	470.06
571.91	441.06
572.121	442.06
572.333	411.06
572.544	403.06
572.755	402.06
572.966	390.06
573.178	382.06
573.389	396.06
573.6	398.06
573.811	381.06
574.023	381.06
574.234	374.06
574.445	388.06
574.656	384.06
574.867	387.06
575.078	393.06
575.289	397.06
575.501	384.06
575.712	363.06
575.923	367.06
576.134	356.06
576.345	358.06
576.556	383.06
576.767	370.06
576.978	362.06
577.188	380.06
577.399	379.06
577.61	373.06
577.821	335.06
578.032	353.06
578.243	354.06
578.454	356.06
578.665	355.06
578.875	345.06
579.086	331.06
579.297	347.06
579.508	342.06
579.718	321.06
579.929	336.06
580.14	340.06
580.35	341.06
580.561	350.06
580.772	333.06
580.982	320.06
581.193	327.06
581.403	313.06
581.614	337.06
581.825	331.06
582.035	324.06
582.246	343.06
582.456	344.06
582.667	311.06
582.877	321.06
583.087	333.06
583.298	329.06
583.508	334.06
583.719	321.06
583.929	327.06
584.139	329.06
584.35	291.06
584.56	318.06
584.77	318.06
584.981	297.06
585.191	322.06
585.401	320.06
585.611	318.06
585.821	321.06
586.032	299.06
586.242	310.06
586.452	305.06
586.662	309.06
586.872	323.06
587.082	322.06
587.292	334.06
587.502	309.06
587.713	312.06
587.923	298.06
588.133	326.06
588.343	313.06
588.553	332.06
588.762	320.06
588.972	322.06
589.182	314.06
589.392	298.06
589.602	306.06
589.812	317.06
590.022	293.06
590.232	319.06
590.441	321.06
590.651	330.06
590.861	322.06
591.071	304.06
591.281	335.06
591.49	339.06
591.7	354.06
591.91	346.06
592.119	330.06
592.329	335.06
592.539	352.06
592.748	367.06
592.958	372.06
593.167	397.06
593.377	385.06
593.587	386.06
593.796	408.06
594.006	387.06
594.215	417.06
594.424	401.06
594.634	406.06
594.843	375.06
595.053	378.06
595.262	351.06
595.472	345.06
595.681	340.06
595.89	335.06
596.1	314.06
596.309	324.06
596.518	299.06
596.727	282.06
596.937	298.06
597.146	302.06
597.355	277.06
597.564	301.06
597.774	292.06
597.983	280.06
598.192	286.06
598.401	277.06
598.61	287.06
598.819	285.06
599.028	274.06
599.237	271.06
599.446	269.06
599.655	286.06
599.864	281.06
600.073	255.06
600.282	282.06
600.491	266.06
600.7	277.06
600.909	265.06
601.118	267.06
601.327	269.06
601.536	289.06
601.745	256.06
601.953	278.06
602.162	261.06
602.371	263.06
602.58	249.06
602.789	273.06
602.997	263.06
603.206	270.06
603.415	263.06
603.623	268.06
603.832	269.06
604.041	258.06
604.249	252.06
604.458	250.06
604.666	245.06
604.875	245.06
605.084	239.06
605.292	251.06
605.501	233.06
605.709	244.06
605.918	253.06
606.126	239.06
606.334	258.06
606.543	242.06
606.751	239.06
606.96	251.06
607.168	226.06
607.376	235.06
607.585	222.06
607.793	241.06
608.001	217.06
608.21	244.06
608.418	241.06
608.626	245.06
608.834	226.06
609.043	234.06
609.251	243.06
609.459	241.06
609.667	238.06
609.875	258.06
610.083	238.06
610.291	227.06
610.499	241.06
610.707	223.06
610.916	230.06
611.124	242.06
611.332	220.06
611.54	228.06
611.748	214.06
611.955	245.06
612.163	235.06
612.371	231.06
612.579	222.06
612.787	238.06
612.995	221.06
613.203	244.06
613.411	232.06
613.618	240.06
613.826	230.06
614.034	248.06
614.242	213.06
614.449	233.06
614.657	215.06
614.865	248.06
615.072	232.06
615.28	238.06
615.488	249.06
615.695	236.06
615.903	229.06
616.111	241.06
616.318	235.06
616.526	250.06
616.733	237.06
616.941	245.06
617.148	237.06
617.356	254.06
617.563	231.06
617.771	251.06
617.978	236.06
618.185	230.06
618.393	231.06
618.6	232.06
618.807	227.06
619.015	224.06
619.222	209.06
619.429	218.06
619.637	225.06
619.844	219.06
620.051	224.06
620.258	228.06
620.466	199.06
620.673	206.06
620.88	201.06
621.087	205.06
621.294	223.06
621.501	219.06
621.708	228.06
621.915	220.06
622.122	225.06
622.329	230.06
622.536	198.06
622.743	223.06
622.95	213.06
623.157	224.06
623.364	200.06
623.571	206.06
623.778	213.06
623.985	207.06
624.192	209.06
624.399	197.06
624.606	222.06
624.812	214.06
625.019	175.06
625.226	202.06
625.433	220.06
625.639	202.06
625.846	201.06
626.053	204.06
626.259	214.06
626.466	188.06
626.673	206.06
626.879	207.06
627.086	189.06
627.293	198.06
627.499	200.06
627.706	195.06
627.912	187.06
628.119	203.06
628.325	208.06
628.532	185.06
628.738	194.06
628.945	195.06
629.151	186.06
629.357	192.06
629.564	197.06
629.77	184.06
629.976	185.06
630.183	178.06
630.389	200.06
630.595	192.06
630.802	190.06
631.008	182.06
631.214	199.06
631.42	186.06
631.627	184.06
631.833	169.06
632.039	181.06
632.245	192.06
632.451	182.06
632.657	179.06
632.863	174.06
633.069	176.06
633.275	177.06
633.481	185.06
633.688	170.06
633.893	187.06
634.099	168.06
634.305	181.06
634.511	164.06
634.717	174.06
634.923	178.06
635.129	184.06
635.335	175.06
635.541	168.06
635.747	177.06
635.952	183.06
636.158	169.06
636.364	174.06
636.57	181.06
636.775	171.06
636.981	177.06
637.187	176.06
637.392	161.06
637.598	161.06
637.804	182.06
638.009	178.06
638.215	154.06
638.421	174.06
638.626	174.06
638.832	169.06
639.037	169.06
639.243	178.06
639.448	170.06
639.654	167.06
639.859	171.06
640.065	169.06
640.27	179.06
640.475	160.06
640.681	157.06
640.886	152.06
641.091	186.06
641.297	164.06
641.502	154.06
641.707	163.06
641.913	160.06
642.118	161.06
642.323	167.06
642.528	177.06
642.733	159.06
642.939	159.06
643.144	149.06
643.349	165.06
643.554	177.06
643.759	159.06
643.964	139.06
644.169	161.06
644.374	157.06
644.579	154.06
644.784	159.06
644.989	167.06
645.194	142.06
645.399	162.06
645.604	146.06
645.809	154.06
646.014	160.06
646.219	146.06
646.423	170.06
646.628	151.06
646.833	160.06
647.038	164.06
647.243	173.06
647.447	175.06
647.652	156.06
647.857	147.06
648.062	173.06
648.266	164.06
648.471	166.06
648.676	175.06
648.88	179.06
649.085	159.06
649.289	174.06
649.494	157.06
649.698	152.06
649.903	154.06
650.107	154.06
650.312	156.06
650.516	147.06
650.721	148.06
650.925	153.06
651.13	155.06
651.334	153.06
651.539	157.06
651.743	154.06
651.947	145.06
652.152	130.06
652.356	127.06
652.56	157.06
652.764	141.06
652.969	133.06
653.173	137.06
653.377	130.06
653.581	128.06
653.785	133.06
653.99	132.06
654.194	127.06
654.398	128.06
654.602	125.06
654.806	118.06
655.01	134.06
655.214	130.06
655.418	127.06
655.622	119.06
655.826	130.06
656.03	133.06
656.234	132.06
656.438	120.06
656.642	109.06
656.846	126.06
657.049	119.06
657.253	121.06
657.457	115.06
657.661	111.06
657.865	126.06
658.068	115.06
658.272	98.06
658.476	100.06
658.68	102.06
658.883	101.06
659.087	98.06
659.291	105.06
659.494	98.06
659.698	95.06
659.901	92.06
660.105	95.06
660.309	98.06
660.512	87.06
660.716	95.06
660.919	82.06
661.123	90.06
661.326	94.06
661.53	102.06
661.733	83.06
661.936	83.06
662.14	83.06
662.343	94.06
662.546	86.06
662.75	80.06
662.953	97.06
663.156	70.06
663.36	80.06
663.563	79.06
663.766	89.06
663.969	90.06
664.173	90.06
664.376	77.06
664.579	91.06
664.782	90.06
664.985	83.06
665.188	78.06
665.391	84.06
665.594	84.06
665.797	77.06
666	78.06
666.203	84.06
666.406	73.06
666.609	80.06
666.812	77.06
667.015	86.06
667.218	92.06
667.421	84.06
667.624	78.06
667.827	80.06
668.03	86.06
668.232	68.06
668.435	84.06
668.638	72.06
668.841	77.06
669.043	87.06
669.246	65.06
669.449	75.06
669.651	79.06
669.854	98.06
670.057	69.06
670.259	87.06
670.462	93.06
670.665	72.06
670.867	66.06
671.07	70.06
671.272	70.06
671.475	80.06
671.677	80.06
671.88	87.06
672.082	65.06
672.284	79.06
672.487	75.06
672.689	70.06
672.892	87.06
