Data from Ni(NO3)2@0.5M.TitratingCurve.Agarose3%dH2O.NegLispCup.LampEnergy10.LIBS07252019_HRD10591_17-58-33-564.txt Node
Date: Thu Jul 25 17:58:33 EDT 2019
User: cochatt
Spectrometer: HR+D1059
Trigger mode: 1
Integration Time (sec): 1.000000E-1
Scans to average: 1
Electric dark correction enabled: true
Nonlinearity correction enabled: false
Boxcar width: 0
XAxis mode: Wavelengths
Number of Pixels in Spectrum: 2048
>>>>>Begin Spectral Data<<<<<
223.165	-25.5
223.4	-25.5
223.635	-25.5
223.869	-22.5
224.104	-29.5
224.338	-8.5
224.573	-19.5
224.808	2.5
225.042	-6.5
225.277	-0.5
225.511	5.5
225.746	11.5
225.98	8.5
226.215	0.5
226.449	22.5
226.683	9.5
226.918	16.5
227.152	35.5
227.387	45.5
227.621	28.5
227.856	35.5
228.09	43.5
228.324	45.5
228.559	52.5
228.793	77.5
229.027	138.5
229.262	144.5
229.496	141.5
229.73	152.5
229.964	185.5
230.199	223.5
230.433	238.5
230.667	223.5
230.901	204.5
231.136	167.5
231.37	185.5
231.604	209.5
231.838	218.5
232.072	230.5
232.306	225.5
232.541	197.5
232.775	197.5
233.009	186.5
233.243	164.5
233.477	171.5
233.711	192.5
233.945	185.5
234.179	182.5
234.413	199.5
234.647	181.5
234.881	198.5
235.115	180.5
235.349	168.5
235.583	164.5
235.817	182.5
236.051	188.5
236.285	178.5
236.519	175.5
236.753	169.5
236.987	184.5
237.221	191.5
237.455	187.5
237.689	192.5
237.922	198.5
238.156	204.5
238.39	190.5
238.624	178.5
238.858	187.5
239.091	202.5
239.325	192.5
239.559	242.5
239.793	246.5
240.027	242.5
240.26	215.5
240.494	209.5
240.728	204.5
240.961	214.5
241.195	201.5
241.429	215.5
241.662	231.5
241.896	263.5
242.13	265.5
242.363	237.5
242.597	227.5
242.83	229.5
243.064	215.5
243.298	210.5
243.531	233.5
243.765	246.5
243.998	251.5
244.232	263.5
244.465	254.5
244.699	250.5
244.932	251.5
245.166	231.5
245.399	256.5
245.633	244.5
245.866	235.5
246.099	273.5
246.333	262.5
246.566	244.5
246.8	241.5
247.033	257.5
247.266	266.5
247.5	286.5
247.733	291.5
247.966	302.5
248.2	289.5
248.433	282.5
248.666	276.5
248.899	282.5
249.133	306.5
249.366	282.5
249.599	309.5
249.832	305.5
250.066	291.5
250.299	303.5
250.532	311.5
250.765	311.5
250.998	302.5
251.231	332.5
251.465	361.5
251.698	363.5
251.931	324.5
252.164	328.5
252.397	322.5
252.63	313.5
252.863	351.5
253.096	338.5
253.329	349.5
253.562	334.5
253.795	352.5
254.028	352.5
254.261	339.5
254.494	373.5
254.727	366.5
254.96	359.5
255.193	369.5
255.426	376.5
255.659	379.5
255.892	367.5
256.124	350.5
256.357	367.5
256.59	363.5
256.823	380.5
257.056	386.5
257.289	400.5
257.521	383.5
257.754	389.5
257.987	400.5
258.22	375.5
258.452	383.5
258.685	388.5
258.918	400.5
259.151	395.5
259.383	387.5
259.616	406.5
259.849	384.5
260.081	397.5
260.314	417.5
260.547	412.5
260.779	408.5
261.012	431.5
261.244	434.5
261.477	439.5
261.71	422.5
261.942	418.5
262.175	428.5
262.407	428.5
262.64	428.5
262.872	428.5
263.105	438.5
263.337	427.5
263.57	450.5
263.802	443.5
264.035	443.5
264.267	468.5
264.499	458.5
264.732	455.5
264.964	465.5
265.197	467.5
265.429	454.5
265.661	444.5
265.894	455.5
266.126	489.5
266.358	453.5
266.591	474.5
266.823	472.5
267.055	455.5
267.287	475.5
267.52	463.5
267.752	451.5
267.984	488.5
268.216	494.5
268.448	481.5
268.681	508.5
268.913	515.5
269.145	482.5
269.377	476.5
269.609	484.5
269.841	492.5
270.073	493.5
270.306	494.5
270.538	515.5
270.77	500.5
271.002	506.5
271.234	515.5
271.466	476.5
271.698	522.5
271.93	499.5
272.162	501.5
272.394	498.5
272.626	520.5
272.858	542.5
273.09	515.5
273.322	543.5
273.553	548.5
273.785	539.5
274.017	542.5
274.249	553.5
274.481	541.5
274.713	534.5
274.945	555.5
275.176	549.5
275.408	529.5
275.64	553.5
275.872	540.5
276.104	530.5
276.335	540.5
276.567	564.5
276.799	569.5
277.031	577.5
277.262	569.5
277.494	569.5
277.726	585.5
277.957	570.5
278.189	572.5
278.421	579.5
278.652	574.5
278.884	590.5
279.115	580.5
279.347	593.5
279.579	597.5
279.81	571.5
280.042	589.5
280.273	576.5
280.505	616.5
280.736	616.5
280.968	619.5
281.199	624.5
281.431	583.5
281.662	590.5
281.894	613.5
282.125	597.5
282.356	614.5
282.588	619.5
282.819	615.5
283.051	601.5
283.282	618.5
283.513	636.5
283.745	619.5
283.976	639.5
284.207	620.5
284.439	622.5
284.67	629.5
284.901	638.5
285.132	632.5
285.364	640.5
285.595	636.5
285.826	634.5
286.057	655.5
286.288	642.5
286.52	638.5
286.751	641.5
286.982	654.5
287.213	668.5
287.444	634.5
287.675	655.5
287.906	682.5
288.138	662.5
288.369	649.5
288.6	649.5
288.831	656.5
289.062	681.5
289.293	671.5
289.524	683.5
289.755	659.5
289.986	667.5
290.217	672.5
290.448	655.5
290.679	678.5
290.91	672.5
291.141	671.5
291.371	670.5
291.602	677.5
291.833	662.5
292.064	686.5
292.295	675.5
292.526	664.5
292.757	658.5
292.987	678.5
293.218	660.5
293.449	675.5
293.68	692.5
293.91	706.5
294.141	694.5
294.372	677.5
294.603	681.5
294.833	720.5
295.064	698.5
295.295	670.5
295.525	680.5
295.756	679.5
295.987	700.5
296.217	712.5
296.448	694.5
296.679	711.5
296.909	668.5
297.14	699.5
297.37	714.5
297.601	705.5
297.831	726.5
298.062	716.5
298.292	708.5
298.523	753.5
298.753	723.5
298.984	708.5
299.214	722.5
299.445	723.5
299.675	745.5
299.905	738.5
300.136	767.5
300.366	799.5
300.597	825.5
300.827	784.5
301.057	768.5
301.288	785.5
301.518	785.5
301.748	768.5
301.979	788.5
302.209	780.5
302.439	757.5
302.669	747.5
302.9	762.5
303.13	778.5
303.36	789.5
303.59	779.5
303.82	787.5
304.051	793.5
304.281	793.5
304.511	823.5
304.741	778.5
304.971	799.5
305.201	815.5
305.431	872.5
305.661	836.5
305.891	823.5
306.121	805.5
306.352	777.5
306.582	793.5
306.812	800.5
307.042	788.5
307.272	793.5
307.502	807.5
307.731	790.5
307.961	800.5
308.191	785.5
308.421	810.5
308.651	818.5
308.881	802.5
309.111	800.5
309.341	788.5
309.571	784.5
309.8	832.5
310.03	844.5
310.26	881.5
310.49	862.5
310.72	822.5
310.949	819.5
311.179	836.5
311.409	863.5
311.639	850.5
311.868	818.5
312.098	841.5
312.328	837.5
312.557	874.5
312.787	851.5
313.017	852.5
313.246	865.5
313.476	892.5
313.706	902.5
313.935	856.5
314.165	887.5
314.394	882.5
314.624	876.5
314.853	859.5
315.083	880.5
315.312	868.5
315.542	917.5
315.771	896.5
316.001	863.5
316.23	893.5
316.46	875.5
316.689	884.5
316.919	886.5
317.148	898.5
317.377	908.5
317.607	903.5
317.836	925.5
318.065	917.5
318.295	902.5
318.524	905.5
318.753	923.5
318.983	927.5
319.212	893.5
319.441	922.5
319.67	921.5
319.9	926.5
320.129	918.5
320.358	922.5
320.587	923.5
320.816	939.5
321.046	943.5
321.275	957.5
321.504	957.5
321.733	958.5
321.962	947.5
322.191	963.5
322.42	977.5
322.649	963.5
322.878	962.5
323.108	954.5
323.337	971.5
323.566	1001.5
323.795	987.5
324.024	986.5
324.253	999.5
324.482	967.5
324.71	1001.5
324.939	976.5
325.168	985.5
325.397	1015.5
325.626	979.5
325.855	980.5
326.084	979.5
326.313	984.5
326.542	1011.5
326.77	1014.5
326.999	1013.5
327.228	1031.5
327.457	1016.5
327.686	994.5
327.914	1016.5
328.143	1062.5
328.372	1027.5
328.6	1042.5
328.829	1031.5
329.058	1025.5
329.287	1054.5
329.515	1047.5
329.744	1053.5
329.972	1033.5
330.201	1040.5
330.43	1081.5
330.658	1070.5
330.887	1057.5
331.115	1050.5
331.344	1086.5
331.572	1080.5
331.801	1082.5
332.03	1082.5
332.258	1105.5
332.486	1099.5
332.715	1116.5
332.943	1091.5
333.172	1106.5
333.4	1118.5
333.629	1138.5
333.857	1162.5
334.085	1161.5
334.314	1155.5
334.542	1193.5
334.771	1178.5
334.999	1199.5
335.227	1174.5
335.455	1178.5
335.684	1169.5
335.912	1185.5
336.14	1192.5
336.369	1199.5
336.597	1218.5
336.825	1225.5
337.053	1208.5
337.281	1214.5
337.51	1202.5
337.738	1215.5
337.966	1213.5
338.194	1226.5
338.422	1230.5
338.65	1161.5
338.878	1153.5
339.106	1186.5
339.334	1203.5
339.562	1209.5
339.79	1134.5
340.018	1139.5
340.246	1113.5
340.474	1154.5
340.702	1162.5
340.93	1154.5
341.158	1128.5
341.386	1179.5
341.614	1222.5
341.842	1206.5
342.07	1145.5
342.298	1155.5
342.526	1146.5
342.754	1154.5
342.981	1158.5
343.209	1141.5
343.437	1156.5
343.665	1207.5
343.893	1200.5
344.12	1248.5
344.348	1227.5
344.576	1186.5
344.804	1238.5
345.031	1194.5
345.259	1187.5
345.487	1192.5
345.714	1212.5
345.942	1219.5
346.17	1232.5
346.397	1194.5
346.625	1136.5
346.853	1130.5
347.08	1116.5
347.308	1136.5
347.535	1115.5
347.763	1107.5
347.99	1101.5
348.218	1097.5
348.445	1124.5
348.673	1090.5
348.9	1106.5
349.128	1150.5
349.355	1158.5
349.583	1165.5
349.81	1112.5
350.037	1067.5
350.265	1110.5
350.492	1129.5
350.72	1100.5
350.947	1105.5
351.174	1127.5
351.402	1190.5
351.629	1177.5
351.856	1149.5
352.083	1124.5
352.311	1150.5
352.538	1184.5
352.765	1172.5
352.992	1092.5
353.22	1077.5
353.447	1054.5
353.674	1070.5
353.901	1093.5
354.128	1061.5
354.355	1037.5
354.583	1115.5
354.81	1087.5
355.037	1051.5
355.264	1072.5
355.491	1055.5
355.718	1080.5
355.945	1068.5
356.172	1081.5
356.399	1081.5
356.626	1136.5
356.853	1125.5
357.08	1099.5
357.307	1102.5
357.534	1083.5
357.761	1070.5
357.988	1086.5
358.215	1059.5
358.441	1061.5
358.668	1050.5
358.895	1071.5
359.122	1064.5
359.349	1077.5
359.576	1081.5
359.802	1090.5
360.029	1068.5
360.256	1091.5
360.483	1081.5
360.709	1098.5
360.936	1084.5
361.163	1119.5
361.39	1068.5
361.616	1087.5
361.843	1145.5
362.07	1190.5
362.296	1168.5
362.523	1115.5
362.749	1104.5
362.976	1077.5
363.203	1072.5
363.429	1080.5
363.656	1088.5
363.882	1102.5
364.109	1084.5
364.335	1097.5
364.562	1081.5
364.788	1080.5
365.015	1114.5
365.241	1097.5
365.468	1082.5
365.694	1092.5
365.92	1092.5
366.147	1063.5
366.373	1111.5
366.599	1112.5
366.826	1095.5
367.052	1102.5
367.278	1123.5
367.505	1096.5
367.731	1102.5
367.957	1091.5
368.184	1103.5
368.41	1111.5
368.636	1098.5
368.862	1086.5
369.089	1091.5
369.315	1121.5
369.541	1127.5
369.767	1116.5
369.993	1137.5
370.219	1130.5
370.445	1136.5
370.672	1148.5
370.898	1119.5
371.124	1124.5
371.35	1147.5
371.576	1115.5
371.802	1165.5
372.028	1147.5
372.254	1160.5
372.48	1150.5
372.706	1157.5
372.932	1153.5
373.158	1162.5
373.384	1183.5
373.61	1181.5
373.835	1164.5
374.061	1171.5
374.287	1176.5
374.513	1154.5
374.739	1152.5
374.965	1189.5
375.191	1175.5
375.416	1185.5
375.642	1174.5
375.868	1182.5
376.094	1156.5
376.319	1163.5
376.545	1142.5
376.771	1154.5
376.997	1145.5
377.222	1179.5
377.448	1164.5
377.674	1143.5
377.899	1152.5
378.125	1147.5
378.35	1146.5
378.576	1159.5
378.802	1152.5
379.027	1136.5
379.253	1142.5
379.478	1129.5
379.704	1124.5
379.929	1122.5
380.155	1145.5
380.38	1141.5
380.606	1132.5
380.831	1176.5
381.057	1150.5
381.282	1152.5
381.507	1146.5
381.733	1152.5
381.958	1177.5
382.184	1163.5
382.409	1176.5
382.634	1165.5
382.86	1155.5
383.085	1193.5
383.31	1181.5
383.535	1223.5
383.761	1181.5
383.986	1217.5
384.211	1199.5
384.436	1205.5
384.662	1213.5
384.887	1239.5
385.112	1224.5
385.337	1204.5
385.562	1247.5
385.787	1267.5
386.013	1279.5
386.238	1289.5
386.463	1267.5
386.688	1244.5
386.913	1251.5
387.138	1284.5
387.363	1275.5
387.588	1286.5
387.813	1282.5
388.038	1279.5
388.263	1305.5
388.488	1239.5
388.713	1284.5
388.938	1297.5
389.163	1271.5
389.387	1259.5
389.612	1282.5
389.837	1299.5
390.062	1292.5
390.287	1312.5
390.512	1278.5
390.736	1281.5
390.961	1307.5
391.186	1318.5
391.411	1310.5
391.636	1322.5
391.86	1323.5
392.085	1326.5
392.31	1368.5
392.534	1345.5
392.759	1332.5
392.984	1322.5
393.208	1333.5
393.433	1360.5
393.658	1336.5
393.882	1350.5
394.107	1311.5
394.331	1302.5
394.556	1337.5
394.78	1329.5
395.005	1364.5
395.229	1343.5
395.454	1327.5
395.678	1349.5
395.903	1359.5
396.127	1353.5
396.352	1352.5
396.576	1384.5
396.801	1374.5
397.025	1379.5
397.249	1406.5
397.474	1406.5
397.698	1395.5
397.922	1415.5
398.147	1412.5
398.371	1471.5
398.595	1419.5
398.82	1483.5
399.044	1503.5
399.268	1526.5
399.492	1602.5
399.717	1636.5
399.941	1660.5
400.165	1636.5
400.389	1638.5
400.613	1559.5
400.837	1566.5
401.062	1550.5
401.286	1532.5
401.51	1495.5
401.734	1489.5
401.958	1468.5
402.182	1467.5
402.406	1461.5
402.63	1473.5
402.854	1479.5
403.078	1496.5
403.302	1524.5
403.526	1514.5
403.75	1507.5
403.974	1474.5
404.198	1484.5
404.422	1488.5
404.645	1498.5
404.869	1522.5
405.093	1483.5
405.317	1502.5
405.541	1508.5
405.765	1519.5
405.988	1541.5
406.212	1552.5
406.436	1542.5
406.66	1578.5
406.883	1564.5
407.107	1635.5
407.331	1646.5
407.555	1635.5
407.778	1619.5
408.002	1716.5
408.226	1615.5
408.449	1623.5
408.673	1633.5
408.896	1599.5
409.12	1587.5
409.344	1607.5
409.567	1551.5
409.791	1574.5
410.014	1559.5
410.238	1568.5
410.461	1608.5
410.685	1554.5
410.908	1522.5
411.132	1555.5
411.355	1568.5
411.578	1544.5
411.802	1528.5
412.025	1504.5
412.249	1531.5
412.472	1524.5
412.695	1519.5
412.919	1488.5
413.142	1548.5
413.365	1508.5
413.589	1492.5
413.812	1484.5
414.035	1493.5
414.258	1474.5
414.482	1463.5
414.705	1493.5
414.928	1491.5
415.151	1447.5
415.374	1426.5
415.597	1464.5
415.821	1487.5
416.044	1475.5
416.267	1437.5
416.49	1451.5
416.713	1431.5
416.936	1447.5
417.159	1431.5
417.382	1393.5
417.605	1404.5
417.828	1423.5
418.051	1438.5
418.274	1424.5
418.497	1410.5
418.72	1474.5
418.943	1407.5
419.166	1505.5
419.389	1584.5
419.611	1532.5
419.834	1503.5
420.057	1460.5
420.28	1424.5
420.503	1380.5
420.726	1384.5
420.948	1438.5
421.171	1387.5
421.394	1436.5
421.617	1410.5
421.839	1412.5
422.062	1420.5
422.285	1394.5
422.507	1430.5
422.73	1434.5
422.953	1412.5
423.175	1461.5
423.398	1421.5
423.621	1424.5
423.843	1412.5
424.066	1395.5
424.288	1385.5
424.511	1410.5
424.733	1400.5
424.956	1376.5
425.178	1410.5
425.401	1436.5
425.623	1467.5
425.846	1404.5
426.068	1401.5
426.291	1411.5
426.513	1396.5
426.735	1422.5
426.958	1436.5
427.18	1383.5
427.402	1392.5
427.625	1408.5
427.847	1396.5
428.069	1398.5
428.292	1404.5
428.514	1382.5
428.736	1378.5
428.958	1387.5
429.181	1375.5
429.403	1362.5
429.625	1383.5
429.847	1409.5
430.069	1390.5
430.292	1417.5
430.514	1384.5
430.736	1404.5
430.958	1406.5
431.18	1327.5
431.402	1381.5
431.624	1364.5
431.846	1414.5
432.068	1386.5
432.29	1389.5
432.512	1382.5
432.734	1413.5
432.956	1440.5
433.178	1424.5
433.4	1473.5
433.622	1438.5
433.844	1433.5
434.066	1430.5
434.287	1441.5
434.509	1428.5
434.731	1434.5
434.953	1446.5
435.175	1458.5
435.397	1486.5
435.618	1444.5
435.84	1435.5
436.062	1382.5
436.284	1424.5
436.505	1390.5
436.727	1401.5
436.949	1401.5
437.17	1374.5
437.392	1407.5
437.614	1387.5
437.835	1343.5
438.057	1356.5
438.278	1344.5
438.5	1364.5
438.721	1364.5
438.943	1367.5
439.165	1348.5
439.386	1383.5
439.608	1381.5
439.829	1360.5
440.05	1360.5
440.272	1393.5
440.493	1417.5
440.715	1388.5
440.936	1411.5
441.158	1409.5
441.379	1409.5
441.6	1454.5
441.822	1462.5
442.043	1443.5
442.264	1433.5
442.486	1431.5
442.707	1421.5
442.928	1434.5
443.149	1457.5
443.371	1458.5
443.592	1549.5
443.813	1507.5
444.034	1496.5
444.255	1484.5
444.476	1515.5
444.698	1511.5
444.919	1535.5
445.14	1659.5
445.361	1568.5
445.582	1516.5
445.803	1402.5
446.024	1396.5
446.245	1427.5
446.466	1433.5
446.687	1400.5
446.908	1383.5
447.129	1336.5
447.35	1352.5
447.571	1319.5
447.792	1314.5
448.013	1317.5
448.234	1316.5
448.455	1274.5
448.675	1303.5
448.896	1308.5
449.117	1271.5
449.338	1314.5
449.559	1293.5
449.779	1252.5
450	1247.5
450.221	1300.5
450.442	1298.5
450.662	1289.5
450.883	1320.5
451.104	1326.5
451.324	1269.5
451.545	1263.5
451.766	1271.5
451.986	1266.5
452.207	1290.5
452.428	1226.5
452.648	1206.5
452.869	1238.5
453.089	1311.5
453.31	1307.5
453.53	1227.5
453.751	1270.5
453.971	1257.5
454.192	1290.5
454.412	1279.5
454.633	1218.5
454.853	1241.5
455.073	1236.5
455.294	1257.5
455.514	1265.5
455.734	1295.5
455.955	1329.5
456.175	1297.5
456.395	1247.5
456.616	1232.5
456.836	1234.5
457.056	1237.5
457.276	1259.5
457.497	1265.5
457.717	1328.5
457.937	1303.5
458.157	1291.5
458.377	1285.5
458.598	1287.5
458.818	1313.5
459.038	1323.5
459.258	1339.5
459.478	1434.5
459.698	1528.5
459.918	1502.5
460.138	1505.5
460.358	1495.5
460.578	1506.5
460.798	1560.5
461.018	1546.5
461.238	1506.5
461.458	1476.5
461.678	1469.5
461.898	1494.5
462.118	1508.5
462.338	1569.5
462.558	1585.5
462.777	1635.5
462.997	1663.5
463.217	1659.5
463.437	1724.5
463.657	1680.5
463.876	1578.5
464.096	1610.5
464.316	1596.5
464.536	1599.5
464.755	1556.5
464.975	1522.5
465.195	1472.5
465.414	1464.5
465.634	1413.5
465.854	1420.5
466.073	1406.5
466.293	1400.5
466.512	1397.5
466.732	1363.5
466.951	1394.5
467.171	1402.5
467.391	1374.5
467.61	1369.5
467.829	1357.5
468.049	1357.5
468.268	1342.5
468.488	1328.5
468.707	1323.5
468.927	1354.5
469.146	1336.5
469.365	1375.5
469.585	1361.5
469.804	1348.5
470.023	1365.5
470.243	1347.5
470.462	1356.5
470.681	1349.5
470.901	1336.5
471.12	1319.5
471.339	1344.5
471.558	1346.5
471.777	1365.5
471.997	1328.5
472.216	1339.5
472.435	1323.5
472.654	1351.5
472.873	1334.5
473.092	1356.5
473.311	1355.5
473.53	1335.5
473.749	1344.5
473.968	1341.5
474.187	1322.5
474.406	1338.5
474.625	1351.5
474.844	1372.5
475.063	1336.5
475.282	1374.5
475.501	1384.5
475.72	1393.5
475.939	1386.5
476.158	1378.5
476.377	1416.5
476.596	1407.5
476.814	1403.5
477.033	1433.5
477.252	1431.5
477.471	1478.5
477.69	1463.5
477.908	1494.5
478.127	1535.5
478.346	1519.5
478.564	1540.5
478.783	1524.5
479.002	1621.5
479.22	1670.5
479.439	1637.5
479.658	1594.5
479.876	1611.5
480.095	1599.5
480.313	1566.5
480.532	1631.5
480.751	1592.5
480.969	1589.5
481.188	1571.5
481.406	1576.5
481.624	1585.5
481.843	1536.5
482.061	1548.5
482.28	1586.5
482.498	1566.5
482.717	1562.5
482.935	1558.5
483.153	1582.5
483.372	1643.5
483.59	1685.5
483.808	1608.5
484.027	1608.5
484.245	1631.5
484.463	1664.5
484.681	1606.5
484.9	1636.5
485.118	1609.5
485.336	1594.5
485.554	1616.5
485.772	1624.5
485.99	1624.5
486.209	1678.5
486.427	1600.5
486.645	1593.5
486.863	1656.5
487.081	1604.5
487.299	1629.5
487.517	1646.5
487.735	1682.5
487.953	1682.5
488.171	1650.5
488.389	1637.5
488.607	1636.5
488.825	1640.5
489.043	1636.5
489.261	1625.5
489.479	1609.5
489.696	1627.5
489.914	1643.5
490.132	1614.5
490.35	1658.5
490.568	1621.5
490.786	1658.5
491.003	1651.5
491.221	1700.5
491.439	1677.5
491.657	1715.5
491.874	1691.5
492.092	1675.5
492.31	1722.5
492.527	1723.5
492.745	1673.5
492.963	1717.5
493.18	1687.5
493.398	1710.5
493.615	1702.5
493.833	1722.5
494.05	1742.5
494.268	1739.5
494.485	1698.5
494.703	1694.5
494.92	1724.5
495.138	1744.5
495.355	1740.5
495.573	1768.5
495.79	1755.5
496.008	1797.5
496.225	1792.5
496.442	1798.5
496.66	1838.5
496.877	1852.5
497.094	1863.5
497.312	1876.5
497.529	1850.5
497.746	1904.5
497.963	1966.5
498.181	1993.5
498.398	2031.5
498.615	2058.5
498.832	2060.5
499.049	2147.5
499.267	2192.5
499.484	2293.5
499.701	2356.5
499.918	2411.5
500.135	2469.5
500.352	2546.5
500.569	2561.5
500.786	2521.5
501.003	2520.5
501.22	2442.5
501.437	2428.5
501.654	2338.5
501.871	2324.5
502.088	2216.5
502.305	2203.5
502.522	2136.5
502.739	2082.5
502.956	1996.5
503.172	1962.5
503.389	1942.5
503.606	1912.5
503.823	1934.5
504.04	1852.5
504.256	1803.5
504.473	1816.5
504.69	1774.5
504.907	1801.5
505.123	1788.5
505.34	1736.5
505.557	1706.5
505.773	1680.5
505.99	1658.5
506.207	1646.5
506.423	1622.5
506.64	1592.5
506.856	1612.5
507.073	1575.5
507.289	1593.5
507.506	1571.5
507.722	1586.5
507.939	1508.5
508.155	1548.5
508.372	1550.5
508.588	1544.5
508.805	1499.5
509.021	1503.5
509.238	1476.5
509.454	1438.5
509.67	1472.5
509.887	1458.5
510.103	1447.5
510.319	1391.5
510.536	1444.5
510.752	1409.5
510.968	1424.5
511.184	1412.5
511.401	1420.5
511.617	1410.5
511.833	1396.5
512.049	1410.5
512.265	1430.5
512.481	1416.5
512.698	1410.5
512.914	1388.5
513.13	1408.5
513.346	1447.5
513.562	1412.5
513.778	1370.5
513.994	1419.5
514.21	1418.5
514.426	1402.5
514.642	1395.5
514.858	1430.5
515.074	1412.5
515.29	1419.5
515.506	1409.5
515.721	1454.5
515.937	1436.5
516.153	1425.5
516.369	1455.5
516.585	1473.5
516.801	1472.5
517.016	1506.5
517.232	1462.5
517.448	1497.5
517.664	1504.5
517.879	1508.5
518.095	1492.5
518.311	1526.5
518.527	1492.5
518.742	1469.5
518.958	1439.5
519.173	1415.5
519.389	1408.5
519.605	1406.5
519.82	1387.5
520.036	1423.5
520.251	1366.5
520.467	1370.5
520.682	1355.5
520.898	1369.5
521.113	1383.5
521.329	1366.5
521.544	1369.5
521.76	1320.5
521.975	1347.5
522.19	1327.5
522.406	1295.5
522.621	1312.5
522.836	1279.5
523.052	1302.5
523.267	1279.5
523.482	1257.5
523.698	1298.5
523.913	1278.5
524.128	1287.5
524.343	1276.5
524.559	1290.5
524.774	1273.5
524.989	1296.5
525.204	1271.5
525.419	1265.5
525.634	1250.5
525.849	1289.5
526.064	1238.5
526.28	1218.5
526.495	1242.5
526.71	1237.5
526.925	1226.5
527.14	1214.5
527.355	1201.5
527.57	1220.5
527.785	1258.5
527.999	1232.5
528.214	1270.5
528.429	1250.5
528.644	1234.5
528.859	1223.5
529.074	1217.5
529.289	1227.5
529.503	1194.5
529.718	1232.5
529.933	1233.5
530.148	1169.5
530.363	1204.5
530.577	1185.5
530.792	1202.5
531.007	1208.5
531.221	1194.5
531.436	1208.5
531.651	1200.5
531.865	1168.5
532.08	1207.5
532.295	1201.5
532.509	1172.5
532.724	1166.5
532.938	1186.5
533.153	1154.5
533.367	1194.5
533.582	1191.5
533.796	1176.5
534.011	1127.5
534.225	1158.5
534.44	1134.5
534.654	1173.5
534.868	1170.5
535.083	1150.5
535.297	1144.5
535.511	1138.5
535.726	1131.5
535.94	1134.5
536.154	1154.5
536.369	1134.5
536.583	1145.5
536.797	1128.5
537.011	1106.5
537.225	1121.5
537.44	1132.5
537.654	1127.5
537.868	1099.5
538.082	1113.5
538.296	1095.5
538.51	1082.5
538.724	1111.5
538.938	1113.5
539.153	1081.5
539.367	1106.5
539.581	1098.5
539.795	1081.5
540.009	1090.5
540.222	1082.5
540.436	1089.5
540.65	1089.5
540.864	1094.5
541.078	1072.5
541.292	1086.5
541.506	1095.5
541.72	1122.5
541.934	1078.5
542.147	1090.5
542.361	1091.5
542.575	1072.5
542.789	1112.5
543.002	1061.5
543.216	1066.5
543.43	1077.5
543.644	1063.5
543.857	1062.5
544.071	1062.5
544.285	1071.5
544.498	1098.5
544.712	1076.5
544.925	1065.5
545.139	1063.5
545.352	1090.5
545.566	1062.5
545.779	1064.5
545.993	1084.5
546.206	1086.5
546.42	1059.5
546.633	1076.5
546.847	1087.5
547.06	1072.5
547.274	1070.5
547.487	1062.5
547.7	1080.5
547.914	1074.5
548.127	1100.5
548.34	1066.5
548.554	1040.5
548.767	1059.5
548.98	1059.5
549.193	1091.5
549.407	1066.5
549.62	1068.5
549.833	1056.5
550.046	1074.5
550.259	1048.5
550.473	1050.5
550.686	1049.5
550.899	1040.5
551.112	1043.5
551.325	1044.5
551.538	1066.5
551.751	1052.5
551.964	1035.5
552.177	1033.5
552.39	1038.5
552.603	1026.5
552.816	1029.5
553.029	1064.5
553.242	1047.5
553.455	1004.5
553.667	1002.5
553.88	1012.5
554.093	1001.5
554.306	1014.5
554.519	1019.5
554.732	1001.5
554.944	987.5
555.157	995.5
555.37	978.5
555.583	998.5
555.795	981.5
556.008	972.5
556.221	994.5
556.433	929.5
556.646	938.5
556.859	942.5
557.071	948.5
557.284	944.5
557.496	946.5
557.709	953.5
557.921	935.5
558.134	921.5
558.346	936.5
558.559	912.5
558.771	923.5
558.984	898.5
559.196	910.5
559.409	918.5
559.621	905.5
559.833	890.5
560.046	919.5
560.258	919.5
560.47	904.5
560.683	912.5
560.895	876.5
561.107	895.5
561.32	896.5
561.532	900.5
561.744	901.5
561.956	908.5
562.168	905.5
562.381	919.5
562.593	912.5
562.805	900.5
563.017	904.5
563.229	879.5
563.441	896.5
563.653	917.5
563.865	876.5
564.077	910.5
564.289	915.5
564.501	927.5
564.713	932.5
564.925	933.5
565.137	949.5
565.349	927.5
565.561	946.5
565.773	958.5
565.985	967.5
566.197	951.5
566.408	998.5
566.62	1020.5
566.832	1043.5
567.044	1052.5
567.255	1057.5
567.467	1033.5
567.679	1050.5
567.891	1083.5
568.102	1037.5
568.314	1016.5
568.526	990.5
568.737	986.5
568.949	971.5
569.161	933.5
569.372	907.5
569.584	888.5
569.795	897.5
570.007	874.5
570.218	882.5
570.43	837.5
570.641	861.5
570.853	816.5
571.064	842.5
571.276	829.5
571.487	803.5
571.698	784.5
571.91	787.5
572.121	799.5
572.333	769.5
572.544	745.5
572.755	756.5
572.966	757.5
573.178	742.5
573.389	740.5
573.6	733.5
573.811	726.5
574.023	721.5
574.234	715.5
574.445	715.5
574.656	705.5
574.867	718.5
575.078	698.5
575.289	703.5
575.501	694.5
575.712	701.5
575.923	691.5
576.134	688.5
576.345	686.5
576.556	677.5
576.767	662.5
576.978	681.5
577.188	679.5
577.399	646.5
577.61	668.5
577.821	657.5
578.032	665.5
578.243	651.5
578.454	667.5
578.665	671.5
578.875	658.5
579.086	635.5
579.297	646.5
579.508	640.5
579.718	652.5
579.929	651.5
580.14	597.5
580.35	638.5
580.561	614.5
580.772	624.5
580.982	622.5
581.193	623.5
581.403	634.5
581.614	594.5
581.825	606.5
582.035	603.5
582.246	610.5
582.456	607.5
582.667	603.5
582.877	622.5
583.087	597.5
583.298	595.5
583.508	605.5
583.719	610.5
583.929	611.5
584.139	600.5
584.35	586.5
584.56	588.5
584.77	575.5
584.981	578.5
585.191	569.5
585.401	558.5
585.611	587.5
585.821	568.5
586.032	576.5
586.242	588.5
586.452	579.5
586.662	566.5
586.872	576.5
587.082	575.5
587.292	578.5
587.502	578.5
587.713	561.5
587.923	584.5
588.133	561.5
588.343	578.5
588.553	575.5
588.762	559.5
588.972	575.5
589.182	651.5
589.392	619.5
589.602	579.5
589.812	631.5
590.022	601.5
590.232	557.5
590.441	540.5
590.651	560.5
590.861	557.5
591.071	547.5
591.281	585.5
591.49	571.5
591.7	574.5
591.91	582.5
592.119	559.5
592.329	588.5
592.539	588.5
592.748	593.5
592.958	553.5
593.167	580.5
593.377	568.5
593.587	574.5
593.796	575.5
594.006	571.5
594.215	574.5
594.424	558.5
594.634	559.5
594.843	555.5
595.053	572.5
595.262	553.5
595.472	544.5
595.681	523.5
595.89	523.5
596.1	499.5
596.309	511.5
596.518	540.5
596.727	536.5
596.937	504.5
597.146	509.5
597.355	512.5
597.564	522.5
597.774	486.5
597.983	514.5
598.192	496.5
598.401	495.5
598.61	496.5
598.819	494.5
599.028	458.5
599.237	461.5
599.446	456.5
599.655	494.5
599.864	484.5
600.073	455.5
600.282	454.5
600.491	462.5
600.7	466.5
600.909	490.5
601.118	466.5
601.327	486.5
601.536	456.5
601.745	453.5
601.953	454.5
602.162	447.5
602.371	462.5
602.58	465.5
602.789	478.5
602.997	459.5
603.206	444.5
603.415	472.5
603.623	444.5
603.832	448.5
604.041	437.5
604.249	440.5
604.458	442.5
604.666	434.5
604.875	443.5
605.084	424.5
605.292	420.5
605.501	415.5
605.709	432.5
605.918	446.5
606.126	440.5
606.334	443.5
606.543	427.5
606.751	426.5
606.96	430.5
607.168	422.5
607.376	400.5
607.585	413.5
607.793	439.5
608.001	434.5
608.21	404.5
608.418	440.5
608.626	412.5
608.834	419.5
609.043	413.5
609.251	397.5
609.459	419.5
609.667	427.5
609.875	403.5
610.083	427.5
610.291	433.5
610.499	394.5
610.707	398.5
610.916	402.5
611.124	382.5
611.332	397.5
611.54	405.5
611.748	407.5
611.955	405.5
612.163	403.5
612.371	402.5
612.579	394.5
612.787	407.5
612.995	419.5
613.203	409.5
613.411	397.5
613.618	386.5
613.826	404.5
614.034	394.5
614.242	412.5
614.449	384.5
614.657	384.5
614.865	399.5
615.072	390.5
615.28	414.5
615.488	382.5
615.695	388.5
615.903	405.5
616.111	398.5
616.318	375.5
616.526	402.5
616.733	389.5
616.941	381.5
617.148	379.5
617.356	381.5
617.563	383.5
617.771	384.5
617.978	375.5
618.185	361.5
618.393	375.5
618.6	382.5
618.807	390.5
619.015	391.5
619.222	394.5
619.429	383.5
619.637	380.5
619.844	376.5
620.051	379.5
620.258	370.5
620.466	348.5
620.673	368.5
620.88	354.5
621.087	374.5
621.294	368.5
621.501	370.5
621.708	362.5
621.915	347.5
622.122	373.5
622.329	353.5
622.536	350.5
622.743	355.5
622.95	364.5
623.157	371.5
623.364	343.5
623.571	352.5
623.778	345.5
623.985	358.5
624.192	359.5
624.399	350.5
624.606	346.5
624.812	345.5
625.019	354.5
625.226	343.5
625.433	346.5
625.639	345.5
625.846	328.5
626.053	321.5
626.259	341.5
626.466	323.5
626.673	341.5
626.879	347.5
627.086	331.5
627.293	330.5
627.499	339.5
627.706	344.5
627.912	303.5
628.119	346.5
628.325	346.5
628.532	335.5
628.738	337.5
628.945	313.5
629.151	305.5
629.357	310.5
629.564	304.5
629.77	317.5
629.976	299.5
630.183	320.5
630.389	303.5
630.595	296.5
630.802	307.5
631.008	292.5
631.214	318.5
631.42	316.5
631.627	318.5
631.833	313.5
632.039	290.5
632.245	305.5
632.451	310.5
632.657	300.5
632.863	287.5
633.069	289.5
633.275	307.5
633.481	308.5
633.688	296.5
633.893	313.5
634.099	299.5
634.305	289.5
634.511	306.5
634.717	286.5
634.923	278.5
635.129	287.5
635.335	286.5
635.541	290.5
635.747	280.5
635.952	304.5
636.158	293.5
636.364	292.5
636.57	297.5
636.775	297.5
636.981	282.5
637.187	294.5
637.392	272.5
637.598	275.5
637.804	286.5
638.009	289.5
638.215	283.5
638.421	278.5
638.626	294.5
638.832	275.5
639.037	273.5
639.243	279.5
639.448	282.5
639.654	266.5
639.859	286.5
640.065	287.5
640.27	290.5
640.475	267.5
640.681	276.5
640.886	268.5
641.091	284.5
641.297	274.5
641.502	274.5
641.707	272.5
641.913	280.5
642.118	277.5
642.323	274.5
642.528	278.5
642.733	280.5
642.939	272.5
643.144	288.5
643.349	273.5
643.554	261.5
643.759	247.5
643.964	262.5
644.169	274.5
644.374	266.5
644.579	269.5
644.784	267.5
644.989	265.5
645.194	259.5
645.399	272.5
645.604	276.5
645.809	268.5
646.014	277.5
646.219	284.5
646.423	289.5
646.628	265.5
646.833	279.5
647.038	280.5
647.243	259.5
647.447	282.5
647.652	283.5
647.857	256.5
648.062	262.5
648.266	272.5
648.471	277.5
648.676	284.5
648.88	276.5
649.085	285.5
649.289	273.5
649.494	285.5
649.698	268.5
649.903	281.5
650.107	279.5
650.312	266.5
650.516	263.5
650.721	271.5
650.925	258.5
651.13	258.5
651.334	256.5
651.539	257.5
651.743	260.5
651.947	266.5
652.152	255.5
652.356	255.5
652.56	250.5
652.764	261.5
652.969	218.5
653.173	228.5
653.377	225.5
653.581	223.5
653.785	243.5
653.99	225.5
654.194	233.5
654.398	238.5
654.602	230.5
654.806	231.5
655.01	229.5
655.214	230.5
655.418	233.5
655.622	246.5
655.826	225.5
656.03	229.5
656.234	226.5
656.438	235.5
656.642	223.5
656.846	221.5
657.049	206.5
657.253	210.5
657.457	182.5
657.661	182.5
657.865	187.5
658.068	182.5
658.272	180.5
658.476	168.5
658.68	158.5
658.883	153.5
659.087	134.5
659.291	143.5
659.494	135.5
659.698	129.5
659.901	126.5
660.105	126.5
660.309	114.5
660.512	121.5
660.716	114.5
660.919	125.5
661.123	116.5
661.326	118.5
661.53	97.5
661.733	107.5
661.936	106.5
662.14	114.5
662.343	101.5
662.546	101.5
662.75	81.5
662.953	100.5
663.156	95.5
663.36	76.5
663.563	84.5
663.766	87.5
663.969	74.5
664.173	67.5
664.376	80.5
664.579	64.5
664.782	96.5
664.985	88.5
665.188	81.5
665.391	81.5
665.594	75.5
665.797	82.5
666	74.5
666.203	94.5
666.406	76.5
666.609	91.5
666.812	87.5
667.015	79.5
667.218	86.5
667.421	97.5
667.624	83.5
667.827	83.5
668.03	74.5
668.232	87.5
668.435	79.5
668.638	69.5
668.841	90.5
669.043	86.5
669.246	84.5
669.449	70.5
669.651	67.5
669.854	80.5
670.057	93.5
670.259	82.5
670.462	90.5
670.665	81.5
670.867	83.5
671.07	73.5
671.272	83.5
671.475	80.5
671.677	80.5
671.88	80.5
672.082	68.5
672.284	93.5
672.487	88.5
672.689	92.5
672.892	87.5
