Data from Ni(NO3)2@0.125M.TitratingCurve.Agarose3%dH2O.NegLispCup.LampEnergy10.LIBS07252019_HRD10591_18-10-48-568.txt Node
Date: Thu Jul 25 18:10:48 EDT 2019
User: cochatt
Spectrometer: HR+D1059
Trigger mode: 1
Integration Time (sec): 1.000000E-1
Scans to average: 1
Electric dark correction enabled: true
Nonlinearity correction enabled: false
Boxcar width: 0
XAxis mode: Wavelengths
Number of Pixels in Spectrum: 2048
>>>>>Begin Spectral Data<<<<<
223.165	-9.62
223.4	-9.62
223.635	-9.62
223.869	-20.62
224.104	-25.62
224.338	-10.62
224.573	-4.62
224.808	-14.62
225.042	-15.62
225.277	-12.62
225.511	-0.62
225.746	10.38
225.98	11.38
226.215	2.38
226.449	18.38
226.683	18.38
226.918	23.38
227.152	30.38
227.387	39.38
227.621	36.38
227.856	39.38
228.09	45.38
228.324	62.38
228.559	64.38
228.793	75.38
229.027	103.38
229.262	114.38
229.496	105.38
229.73	119.38
229.964	134.38
230.199	129.38
230.433	152.38
230.667	134.38
230.901	134.38
231.136	120.38
231.37	124.38
231.604	133.38
231.838	136.38
232.072	142.38
232.306	147.38
232.541	146.38
232.775	133.38
233.009	121.38
233.243	153.38
233.477	166.38
233.711	158.38
233.945	138.38
234.179	129.38
234.413	136.38
234.647	148.38
234.881	157.38
235.115	150.38
235.349	149.38
235.583	153.38
235.817	151.38
236.051	142.38
236.285	150.38
236.519	150.38
236.753	161.38
236.987	160.38
237.221	140.38
237.455	163.38
237.689	152.38
237.922	144.38
238.156	155.38
238.39	173.38
238.624	176.38
238.858	157.38
239.091	159.38
239.325	156.38
239.559	162.38
239.793	168.38
240.027	194.38
240.26	168.38
240.494	177.38
240.728	181.38
240.961	169.38
241.195	175.38
241.429	175.38
241.662	179.38
241.896	181.38
242.13	178.38
242.363	193.38
242.597	177.38
242.83	205.38
243.064	201.38
243.298	205.38
243.531	202.38
243.765	206.38
243.998	210.38
244.232	201.38
244.465	205.38
244.699	210.38
244.932	188.38
245.166	210.38
245.399	212.38
245.633	195.38
245.866	206.38
246.099	211.38
246.333	217.38
246.566	206.38
246.8	217.38
247.033	219.38
247.266	222.38
247.5	200.38
247.733	228.38
247.966	212.38
248.2	221.38
248.433	226.38
248.666	229.38
248.899	229.38
249.133	243.38
249.366	231.38
249.599	243.38
249.832	233.38
250.066	229.38
250.299	227.38
250.532	252.38
250.765	237.38
250.998	243.38
251.231	245.38
251.465	246.38
251.698	257.38
251.931	267.38
252.164	236.38
252.397	246.38
252.63	260.38
252.863	262.38
253.096	273.38
253.329	270.38
253.562	257.38
253.795	277.38
254.028	260.38
254.261	272.38
254.494	254.38
254.727	267.38
254.96	279.38
255.193	280.38
255.426	280.38
255.659	278.38
255.892	270.38
256.124	261.38
256.357	275.38
256.59	273.38
256.823	286.38
257.056	274.38
257.289	268.38
257.521	288.38
257.754	297.38
257.987	305.38
258.22	307.38
258.452	293.38
258.685	294.38
258.918	313.38
259.151	307.38
259.383	285.38
259.616	292.38
259.849	301.38
260.081	289.38
260.314	291.38
260.547	314.38
260.779	308.38
261.012	308.38
261.244	315.38
261.477	303.38
261.71	307.38
261.942	307.38
262.175	315.38
262.407	311.38
262.64	321.38
262.872	320.38
263.105	321.38
263.337	312.38
263.57	316.38
263.802	314.38
264.035	334.38
264.267	320.38
264.499	334.38
264.732	343.38
264.964	343.38
265.197	340.38
265.429	345.38
265.661	336.38
265.894	345.38
266.126	361.38
266.358	361.38
266.591	338.38
266.823	337.38
267.055	341.38
267.287	334.38
267.52	337.38
267.752	335.38
267.984	346.38
268.216	349.38
268.448	340.38
268.681	342.38
268.913	364.38
269.145	360.38
269.377	364.38
269.609	374.38
269.841	364.38
270.073	368.38
270.306	381.38
270.538	345.38
270.77	357.38
271.002	353.38
271.234	359.38
271.466	379.38
271.698	380.38
271.93	364.38
272.162	376.38
272.394	370.38
272.626	371.38
272.858	386.38
273.09	375.38
273.322	371.38
273.553	402.38
273.785	384.38
274.017	372.38
274.249	402.38
274.481	399.38
274.713	388.38
274.945	382.38
275.176	411.38
275.408	401.38
275.64	383.38
275.872	396.38
276.104	403.38
276.335	399.38
276.567	396.38
276.799	400.38
277.031	400.38
277.262	409.38
277.494	408.38
277.726	399.38
277.957	408.38
278.189	424.38
278.421	405.38
278.652	404.38
278.884	437.38
279.115	416.38
279.347	427.38
279.579	412.38
279.81	424.38
280.042	427.38
280.273	431.38
280.505	435.38
280.736	423.38
280.968	416.38
281.199	434.38
281.431	445.38
281.662	444.38
281.894	450.38
282.125	442.38
282.356	449.38
282.588	436.38
282.819	456.38
283.051	452.38
283.282	456.38
283.513	450.38
283.745	458.38
283.976	459.38
284.207	457.38
284.439	467.38
284.67	468.38
284.901	453.38
285.132	463.38
285.364	466.38
285.595	461.38
285.826	454.38
286.057	468.38
286.288	464.38
286.52	473.38
286.751	450.38
286.982	473.38
287.213	484.38
287.444	465.38
287.675	482.38
287.906	464.38
288.138	495.38
288.369	480.38
288.6	483.38
288.831	491.38
289.062	499.38
289.293	482.38
289.524	462.38
289.755	472.38
289.986	501.38
290.217	485.38
290.448	481.38
290.679	490.38
290.91	478.38
291.141	500.38
291.371	502.38
291.602	509.38
291.833	513.38
292.064	496.38
292.295	498.38
292.526	494.38
292.757	491.38
292.987	494.38
293.218	492.38
293.449	517.38
293.68	528.38
293.91	500.38
294.141	500.38
294.372	514.38
294.603	490.38
294.833	508.38
295.064	494.38
295.295	524.38
295.525	514.38
295.756	531.38
295.987	516.38
296.217	533.38
296.448	536.38
296.679	513.38
296.909	523.38
297.14	537.38
297.37	541.38
297.601	536.38
297.831	552.38
298.062	527.38
298.292	546.38
298.523	539.38
298.753	534.38
298.984	549.38
299.214	538.38
299.445	548.38
299.675	538.38
299.905	548.38
300.136	558.38
300.366	562.38
300.597	549.38
300.827	566.38
301.057	576.38
301.288	585.38
301.518	585.38
301.748	572.38
301.979	608.38
302.209	581.38
302.439	566.38
302.669	588.38
302.9	568.38
303.13	558.38
303.36	580.38
303.59	558.38
303.82	557.38
304.051	577.38
304.281	577.38
304.511	579.38
304.741	561.38
304.971	545.38
305.201	563.38
305.431	564.38
305.661	541.38
305.891	552.38
306.121	540.38
306.352	558.38
306.582	553.38
306.812	546.38
307.042	553.38
307.272	580.38
307.502	562.38
307.731	536.38
307.961	555.38
308.191	536.38
308.421	540.38
308.651	536.38
308.881	546.38
309.111	538.38
309.341	544.38
309.571	559.38
309.8	579.38
310.03	551.38
310.26	555.38
310.49	560.38
310.72	583.38
310.949	546.38
311.179	558.38
311.409	546.38
311.639	576.38
311.868	569.38
312.098	581.38
312.328	582.38
312.557	594.38
312.787	587.38
313.017	584.38
313.246	573.38
313.476	592.38
313.706	615.38
313.935	610.38
314.165	595.38
314.394	596.38
314.624	587.38
314.853	600.38
315.083	572.38
315.312	595.38
315.542	586.38
315.771	576.38
316.001	600.38
316.23	580.38
316.46	590.38
316.689	582.38
316.919	587.38
317.148	598.38
317.377	593.38
317.607	582.38
317.836	583.38
318.065	578.38
318.295	583.38
318.524	596.38
318.753	591.38
318.983	596.38
319.212	586.38
319.441	568.38
319.67	584.38
319.9	603.38
320.129	589.38
320.358	598.38
320.587	587.38
320.816	585.38
321.046	603.38
321.275	595.38
321.504	588.38
321.733	593.38
321.962	584.38
322.191	584.38
322.42	598.38
322.649	580.38
322.878	594.38
323.108	587.38
323.337	600.38
323.566	600.38
323.795	629.38
324.024	604.38
324.253	617.38
324.482	631.38
324.71	617.38
324.939	625.38
325.168	616.38
325.397	617.38
325.626	624.38
325.855	650.38
326.084	649.38
326.313	648.38
326.542	615.38
326.77	650.38
326.999	644.38
327.228	660.38
327.457	628.38
327.686	619.38
327.914	660.38
328.143	646.38
328.372	631.38
328.6	650.38
328.829	658.38
329.058	639.38
329.287	644.38
329.515	641.38
329.744	634.38
329.972	664.38
330.201	676.38
330.43	660.38
330.658	673.38
330.887	661.38
331.115	691.38
331.344	682.38
331.572	685.38
331.801	712.38
332.03	712.38
332.258	731.38
332.486	756.38
332.715	778.38
332.943	818.38
333.172	845.38
333.4	880.38
333.629	874.38
333.857	896.38
334.085	884.38
334.314	845.38
334.542	839.38
334.771	792.38
334.999	833.38
335.227	800.38
335.455	808.38
335.684	804.38
335.912	787.38
336.14	792.38
336.369	787.38
336.597	800.38
336.825	803.38
337.053	776.38
337.281	765.38
337.51	770.38
337.738	717.38
337.966	741.38
338.194	731.38
338.422	705.38
338.65	695.38
338.878	706.38
339.106	724.38
339.334	698.38
339.562	694.38
339.79	676.38
340.018	680.38
340.246	685.38
340.474	704.38
340.702	663.38
340.93	683.38
341.158	728.38
341.386	672.38
341.614	678.38
341.842	675.38
342.07	674.38
342.298	666.38
342.526	676.38
342.754	666.38
342.981	678.38
343.209	685.38
343.437	714.38
343.665	737.38
343.893	819.38
344.12	866.38
344.348	827.38
344.576	778.38
344.804	756.38
345.031	722.38
345.259	702.38
345.487	688.38
345.714	675.38
345.942	678.38
346.17	653.38
346.397	690.38
346.625	684.38
346.853	664.38
347.08	669.38
347.308	685.38
347.535	680.38
347.763	672.38
347.99	681.38
348.218	657.38
348.445	675.38
348.673	644.38
348.9	664.38
349.128	693.38
349.355	650.38
349.583	655.38
349.81	654.38
350.037	644.38
350.265	634.38
350.492	636.38
350.72	657.38
350.947	615.38
351.174	620.38
351.402	638.38
351.629	633.38
351.856	630.38
352.083	666.38
352.311	641.38
352.538	618.38
352.765	642.38
352.992	594.38
353.22	621.38
353.447	652.38
353.674	636.38
353.901	647.38
354.128	636.38
354.355	622.38
354.583	638.38
354.81	650.38
355.037	649.38
355.264	631.38
355.491	641.38
355.718	620.38
355.945	672.38
356.172	632.38
356.399	654.38
356.626	639.38
356.853	633.38
357.08	632.38
357.307	645.38
357.534	648.38
357.761	647.38
357.988	640.38
358.215	633.38
358.441	624.38
358.668	646.38
358.895	646.38
359.122	653.38
359.349	632.38
359.576	644.38
359.802	624.38
360.029	634.38
360.256	633.38
360.483	649.38
360.709	621.38
360.936	655.38
361.163	627.38
361.39	633.38
361.616	645.38
361.843	636.38
362.07	647.38
362.296	652.38
362.523	648.38
362.749	649.38
362.976	624.38
363.203	644.38
363.429	619.38
363.656	612.38
363.882	611.38
364.109	635.38
364.335	630.38
364.562	646.38
364.788	630.38
365.015	626.38
365.241	620.38
365.468	629.38
365.694	632.38
365.92	624.38
366.147	628.38
366.373	639.38
366.599	625.38
366.826	635.38
367.052	643.38
367.278	641.38
367.505	635.38
367.731	648.38
367.957	640.38
368.184	645.38
368.41	657.38
368.636	638.38
368.862	640.38
369.089	648.38
369.315	638.38
369.541	649.38
369.767	673.38
369.993	670.38
370.219	656.38
370.445	682.38
370.672	664.38
370.898	658.38
371.124	676.38
371.35	678.38
371.576	698.38
371.802	690.38
372.028	669.38
372.254	681.38
372.48	691.38
372.706	686.38
372.932	721.38
373.158	724.38
373.384	698.38
373.61	676.38
373.835	681.38
374.061	683.38
374.287	679.38
374.513	688.38
374.739	740.38
374.965	752.38
375.191	763.38
375.416	774.38
375.642	729.38
375.868	710.38
376.094	732.38
376.319	718.38
376.545	696.38
376.771	691.38
376.997	678.38
377.222	686.38
377.448	678.38
377.674	686.38
377.899	677.38
378.125	676.38
378.35	681.38
378.576	693.38
378.802	680.38
379.027	666.38
379.253	673.38
379.478	689.38
379.704	697.38
379.929	687.38
380.155	683.38
380.38	677.38
380.606	669.38
380.831	668.38
381.057	672.38
381.282	680.38
381.507	686.38
381.733	703.38
381.958	696.38
382.184	704.38
382.409	714.38
382.634	708.38
382.86	713.38
383.085	730.38
383.31	740.38
383.535	749.38
383.761	761.38
383.986	795.38
384.211	784.38
384.436	789.38
384.662	817.38
384.887	842.38
385.112	818.38
385.337	838.38
385.562	840.38
385.787	832.38
386.013	881.38
386.238	853.38
386.463	833.38
386.688	852.38
386.913	838.38
387.138	820.38
387.363	822.38
387.588	785.38
387.813	811.38
388.038	815.38
388.263	804.38
388.488	809.38
388.713	802.38
388.938	811.38
389.163	778.38
389.387	821.38
389.612	785.38
389.837	806.38
390.062	822.38
390.287	820.38
390.512	811.38
390.736	808.38
390.961	842.38
391.186	828.38
391.411	867.38
391.636	929.38
391.86	939.38
392.085	931.38
392.31	914.38
392.534	894.38
392.759	889.38
392.984	891.38
393.208	873.38
393.433	843.38
393.658	886.38
393.882	856.38
394.107	883.38
394.331	895.38
394.556	867.38
394.78	896.38
395.005	885.38
395.229	881.38
395.454	901.38
395.678	926.38
395.903	941.38
396.127	910.38
396.352	896.38
396.576	848.38
396.801	862.38
397.025	875.38
397.249	896.38
397.474	901.38
397.698	905.38
397.922	920.38
398.147	906.38
398.371	944.38
398.595	936.38
398.82	1015.38
399.044	1095.38
399.268	1193.38
399.492	1392.38
399.717	1609.38
399.941	1613.38
400.165	1402.38
400.389	1240.38
400.613	1114.38
400.837	1073.38
401.062	1056.38
401.286	1043.38
401.51	1041.38
401.734	1003.38
401.958	1043.38
402.182	1033.38
402.406	1053.38
402.63	1083.38
402.854	1096.38
403.078	1126.38
403.302	1145.38
403.526	1209.38
403.75	1205.38
403.974	1225.38
404.198	1211.38
404.422	1209.38
404.645	1206.38
404.869	1164.38
405.093	1170.38
405.317	1173.38
405.541	1181.38
405.765	1115.38
405.988	1132.38
406.212	1116.38
406.436	1149.38
406.66	1172.38
406.883	1171.38
407.107	1242.38
407.331	1316.38
407.555	1357.38
407.778	1354.38
408.002	1323.38
408.226	1253.38
408.449	1222.38
408.673	1173.38
408.896	1174.38
409.12	1153.38
409.344	1152.38
409.567	1178.38
409.791	1200.38
410.014	1175.38
410.238	1176.38
410.461	1132.38
410.685	1161.38
410.908	1123.38
411.132	1118.38
411.355	1076.38
411.578	1089.38
411.802	1064.38
412.025	1105.38
412.249	1105.38
412.472	1108.38
412.695	1036.38
412.919	1053.38
413.142	1028.38
413.365	1027.38
413.589	1048.38
413.812	1048.38
414.035	1008.38
414.258	1014.38
414.482	1021.38
414.705	1036.38
414.928	1082.38
415.151	1016.38
415.374	1020.38
415.597	1018.38
415.821	1024.38
416.044	1022.38
416.267	986.38
416.49	1034.38
416.713	1007.38
416.936	1041.38
417.159	1032.38
417.382	1016.38
417.605	1018.38
417.828	1009.38
418.051	1003.38
418.274	1018.38
418.497	1019.38
418.72	1056.38
418.943	1072.38
419.166	1130.38
419.389	1209.38
419.611	1200.38
419.834	1141.38
420.057	1076.38
420.28	1017.38
420.503	1010.38
420.726	1001.38
420.948	994.38
421.171	1032.38
421.394	1014.38
421.617	1013.38
421.839	1045.38
422.062	1045.38
422.285	1031.38
422.507	1072.38
422.73	1042.38
422.953	1069.38
423.175	1102.38
423.398	1075.38
423.621	1088.38
423.843	1086.38
424.066	1115.38
424.288	1099.38
424.511	1121.38
424.733	1044.38
424.956	1028.38
425.178	1046.38
425.401	1028.38
425.623	1055.38
425.846	994.38
426.068	981.38
426.291	979.38
426.513	977.38
426.735	977.38
426.958	963.38
427.18	925.38
427.402	948.38
427.625	946.38
427.847	932.38
428.069	912.38
428.292	923.38
428.514	895.38
428.736	920.38
428.958	892.38
429.181	912.38
429.403	899.38
429.625	890.38
429.847	906.38
430.069	903.38
430.292	878.38
430.514	883.38
430.736	886.38
430.958	890.38
431.18	903.38
431.402	915.38
431.624	903.38
431.846	926.38
432.068	918.38
432.29	930.38
432.512	910.38
432.734	898.38
432.956	888.38
433.178	912.38
433.4	929.38
433.622	898.38
433.844	946.38
434.066	899.38
434.287	944.38
434.509	976.38
434.731	1024.38
434.953	1024.38
435.175	1042.38
435.397	1039.38
435.618	987.38
435.84	951.38
436.062	936.38
436.284	921.38
436.505	893.38
436.727	916.38
436.949	931.38
437.17	920.38
437.392	916.38
437.614	890.38
437.835	870.38
438.057	892.38
438.278	859.38
438.5	878.38
438.721	893.38
438.943	898.38
439.165	908.38
439.386	896.38
439.608	888.38
439.829	913.38
440.05	922.38
440.272	903.38
440.493	928.38
440.715	944.38
440.936	938.38
441.158	969.38
441.379	988.38
441.6	1026.38
441.822	1034.38
442.043	1035.38
442.264	1009.38
442.486	988.38
442.707	1008.38
442.928	1012.38
443.149	1036.38
443.371	1029.38
443.592	1045.38
443.813	1041.38
444.034	1062.38
444.255	1092.38
444.476	1124.38
444.698	1196.38
444.919	1235.38
445.14	1321.38
445.361	1185.38
445.582	1067.38
445.803	999.38
446.024	970.38
446.245	967.38
446.466	957.38
446.687	928.38
446.908	928.38
447.129	905.38
447.35	883.38
447.571	891.38
447.792	871.38
448.013	868.38
448.234	872.38
448.455	851.38
448.675	855.38
448.896	853.38
449.117	850.38
449.338	808.38
449.559	836.38
449.779	820.38
450	828.38
450.221	864.38
450.442	906.38
450.662	834.38
450.883	850.38
451.104	913.38
451.324	870.38
451.545	891.38
451.766	870.38
451.986	880.38
452.207	852.38
452.428	832.38
452.648	863.38
452.869	824.38
453.089	836.38
453.31	852.38
453.53	829.38
453.751	810.38
453.971	815.38
454.192	830.38
454.412	814.38
454.633	826.38
454.853	812.38
455.073	808.38
455.294	799.38
455.514	795.38
455.734	787.38
455.955	764.38
456.175	802.38
456.395	757.38
456.616	769.38
456.836	785.38
457.056	742.38
457.276	753.38
457.497	804.38
457.717	754.38
457.937	775.38
458.157	785.38
458.377	794.38
458.598	829.38
458.818	838.38
459.038	876.38
459.258	903.38
459.478	939.38
459.698	930.38
459.918	983.38
460.138	1028.38
460.358	1080.38
460.578	1085.38
460.798	1092.38
461.018	1109.38
461.238	1098.38
461.458	1083.38
461.678	1072.38
461.898	1081.38
462.118	1124.38
462.338	1165.38
462.558	1172.38
462.777	1214.38
462.997	1345.38
463.217	1508.38
463.437	1514.38
463.657	1374.38
463.876	1292.38
464.096	1282.38
464.316	1282.38
464.536	1303.38
464.755	1228.38
464.975	1167.38
465.195	1115.38
465.414	1067.38
465.634	976.38
465.854	962.38
466.073	936.38
466.293	925.38
466.512	914.38
466.732	876.38
466.951	892.38
467.171	887.38
467.391	906.38
467.61	877.38
467.829	889.38
468.049	878.38
468.268	841.38
468.488	848.38
468.707	835.38
468.927	832.38
469.146	832.38
469.365	841.38
469.585	871.38
469.804	885.38
470.023	916.38
470.243	916.38
470.462	910.38
470.681	932.38
470.901	915.38
471.12	903.38
471.339	921.38
471.558	870.38
471.777	863.38
471.997	840.38
472.216	865.38
472.435	831.38
472.654	824.38
472.873	819.38
473.092	816.38
473.311	810.38
473.53	811.38
473.749	803.38
473.968	836.38
474.187	805.38
474.406	816.38
474.625	808.38
474.844	823.38
475.063	844.38
475.282	801.38
475.501	822.38
475.72	829.38
475.939	834.38
476.158	842.38
476.377	871.38
476.596	860.38
476.814	859.38
477.033	884.38
477.252	858.38
477.471	893.38
477.69	929.38
477.908	945.38
478.127	968.38
478.346	990.38
478.564	983.38
478.783	1001.38
479.002	1042.38
479.22	1035.38
479.439	1048.38
479.658	1010.38
479.876	985.38
480.095	1037.38
480.313	1097.38
480.532	1112.38
480.751	1102.38
480.969	1041.38
481.188	1010.38
481.406	1018.38
481.624	973.38
481.843	958.38
482.061	949.38
482.28	940.38
482.498	918.38
482.717	908.38
482.935	930.38
483.153	938.38
483.372	942.38
483.59	932.38
483.808	955.38
484.027	971.38
484.245	936.38
484.463	931.38
484.681	960.38
484.9	965.38
485.118	992.38
485.336	986.38
485.554	980.38
485.772	1001.38
485.99	989.38
486.209	1021.38
486.427	1000.38
486.645	994.38
486.863	1015.38
487.081	1011.38
487.299	990.38
487.517	990.38
487.735	976.38
487.953	981.38
488.171	1003.38
488.389	998.38
488.607	995.38
488.825	960.38
489.043	966.38
489.261	940.38
489.479	963.38
489.696	982.38
489.914	993.38
490.132	978.38
490.35	975.38
490.568	1004.38
490.786	976.38
491.003	994.38
491.221	977.38
491.439	983.38
491.657	984.38
491.874	1010.38
492.092	972.38
492.31	978.38
492.527	1021.38
492.745	988.38
492.963	1010.38
493.18	1024.38
493.398	1013.38
493.615	1074.38
493.833	1049.38
494.05	1024.38
494.268	1044.38
494.485	1054.38
494.703	1024.38
494.92	1053.38
495.138	1048.38
495.355	1039.38
495.573	1038.38
495.79	1032.38
496.008	1037.38
496.225	1032.38
496.442	1054.38
496.66	1105.38
496.877	1095.38
497.094	1096.38
497.312	1145.38
497.529	1152.38
497.746	1147.38
497.963	1201.38
498.181	1304.38
498.398	1327.38
498.615	1411.38
498.832	1487.38
499.049	1603.38
499.267	1748.38
499.484	1892.38
499.701	2089.38
499.918	2319.38
500.135	2670.38
500.352	3153.38
500.569	3304.38
500.786	3261.38
501.003	3028.38
501.22	2650.38
501.437	2360.38
501.654	2046.38
501.871	1800.38
502.088	1658.38
502.305	1551.38
502.522	1478.38
502.739	1442.38
502.956	1358.38
503.172	1312.38
503.389	1212.38
503.606	1207.38
503.823	1206.38
504.04	1176.38
504.256	1186.38
504.473	1228.38
504.69	1269.38
504.907	1245.38
505.123	1157.38
505.34	1135.38
505.557	1069.38
505.773	1015.38
505.99	1001.38
506.207	970.38
506.423	967.38
506.64	955.38
506.856	960.38
507.073	922.38
507.289	917.38
507.506	942.38
507.722	943.38
507.939	896.38
508.155	888.38
508.372	881.38
508.588	887.38
508.805	895.38
509.021	898.38
509.238	861.38
509.454	856.38
509.67	855.38
509.887	842.38
510.103	858.38
510.319	845.38
510.536	857.38
510.752	825.38
510.968	852.38
511.184	835.38
511.401	835.38
511.617	829.38
511.833	837.38
512.049	849.38
512.265	847.38
512.481	835.38
512.698	823.38
512.914	827.38
513.13	818.38
513.346	822.38
513.562	826.38
513.778	823.38
513.994	842.38
514.21	867.38
514.426	852.38
514.642	864.38
514.858	867.38
515.074	862.38
515.29	868.38
515.506	892.38
515.721	902.38
515.937	906.38
516.153	934.38
516.369	942.38
516.585	965.38
516.801	1002.38
517.016	1012.38
517.232	1107.38
517.448	1147.38
517.664	1179.38
517.879	1192.38
518.095	1224.38
518.311	1179.38
518.527	1118.38
518.742	1061.38
518.958	1020.38
519.173	989.38
519.389	963.38
519.605	920.38
519.82	898.38
520.036	886.38
520.251	851.38
520.467	876.38
520.682	850.38
520.898	840.38
521.113	850.38
521.329	835.38
521.544	813.38
521.76	805.38
521.975	783.38
522.19	814.38
522.406	785.38
522.621	789.38
522.836	781.38
523.052	783.38
523.267	776.38
523.482	786.38
523.698	789.38
523.913	764.38
524.128	800.38
524.343	782.38
524.559	792.38
524.774	776.38
524.989	787.38
525.204	797.38
525.419	746.38
525.634	778.38
525.849	774.38
526.064	769.38
526.28	772.38
526.495	762.38
526.71	775.38
526.925	751.38
527.14	746.38
527.355	768.38
527.57	724.38
527.785	748.38
527.999	747.38
528.214	755.38
528.429	753.38
528.644	754.38
528.859	768.38
529.074	773.38
529.289	766.38
529.503	772.38
529.718	778.38
529.933	744.38
530.148	788.38
530.363	760.38
530.577	737.38
530.792	760.38
531.007	752.38
531.221	773.38
531.436	773.38
531.651	754.38
531.865	762.38
532.08	754.38
532.295	775.38
532.509	755.38
532.724	734.38
532.938	745.38
533.153	781.38
533.367	761.38
533.582	758.38
533.796	730.38
534.011	774.38
534.225	740.38
534.44	718.38
534.654	749.38
534.868	730.38
535.083	763.38
535.297	734.38
535.511	753.38
535.726	733.38
535.94	726.38
536.154	734.38
536.369	722.38
536.583	739.38
536.797	710.38
537.011	708.38
537.225	706.38
537.44	714.38
537.654	716.38
537.868	697.38
538.082	698.38
538.296	725.38
538.51	705.38
538.724	692.38
538.938	678.38
539.153	700.38
539.367	672.38
539.581	670.38
539.795	670.38
540.009	691.38
540.222	710.38
540.436	665.38
540.65	667.38
540.864	668.38
541.078	674.38
541.292	704.38
541.506	673.38
541.72	658.38
541.934	686.38
542.147	657.38
542.361	670.38
542.575	670.38
542.789	681.38
543.002	662.38
543.216	649.38
543.43	666.38
543.644	661.38
543.857	674.38
544.071	681.38
544.285	692.38
544.498	695.38
544.712	676.38
544.925	696.38
545.139	691.38
545.352	678.38
545.566	701.38
545.779	694.38
545.993	698.38
546.206	694.38
546.42	712.38
546.633	680.38
546.847	708.38
547.06	704.38
547.274	689.38
547.487	683.38
547.7	692.38
547.914	712.38
548.127	721.38
548.34	702.38
548.554	691.38
548.767	696.38
548.98	705.38
549.193	726.38
549.407	690.38
549.62	700.38
549.833	728.38
550.046	685.38
550.259	679.38
550.473	670.38
550.686	693.38
550.899	683.38
551.112	658.38
551.325	693.38
551.538	666.38
551.751	676.38
551.964	677.38
552.177	696.38
552.39	696.38
552.603	689.38
552.816	737.38
553.029	746.38
553.242	755.38
553.455	786.38
553.667	786.38
553.88	776.38
554.093	737.38
554.306	722.38
554.519	706.38
554.732	681.38
554.944	683.38
555.157	688.38
555.37	655.38
555.583	644.38
555.795	674.38
556.008	647.38
556.221	627.38
556.433	613.38
556.646	625.38
556.859	614.38
557.071	608.38
557.284	604.38
557.496	617.38
557.709	589.38
557.921	586.38
558.134	594.38
558.346	591.38
558.559	602.38
558.771	588.38
558.984	584.38
559.196	578.38
559.409	582.38
559.621	589.38
559.833	579.38
560.046	562.38
560.258	581.38
560.47	576.38
560.683	563.38
560.895	569.38
561.107	560.38
561.32	596.38
561.532	582.38
561.744	573.38
561.956	579.38
562.168	572.38
562.381	579.38
562.593	603.38
562.805	592.38
563.017	578.38
563.229	565.38
563.441	583.38
563.653	585.38
563.865	566.38
564.077	583.38
564.289	599.38
564.501	587.38
564.713	616.38
564.925	624.38
565.137	645.38
565.349	648.38
565.561	661.38
565.773	681.38
565.985	722.38
566.197	732.38
566.408	786.38
566.62	887.38
566.832	970.38
567.044	991.38
567.255	955.38
567.467	974.38
567.679	1031.38
567.891	1134.38
568.102	1160.38
568.314	1119.38
568.526	1023.38
568.737	897.38
568.949	783.38
569.161	718.38
569.372	691.38
569.584	662.38
569.795	619.38
570.007	604.38
570.218	600.38
570.43	582.38
570.641	605.38
570.853	593.38
571.064	611.38
571.276	620.38
571.487	583.38
571.698	552.38
571.91	550.38
572.121	541.38
572.333	523.38
572.544	487.38
572.755	495.38
572.966	517.38
573.178	512.38
573.389	511.38
573.6	474.38
573.811	493.38
574.023	482.38
574.234	462.38
574.445	481.38
574.656	472.38
574.867	497.38
575.078	482.38
575.289	497.38
575.501	476.38
575.712	477.38
575.923	469.38
576.134	445.38
576.345	438.38
576.556	452.38
576.767	432.38
576.978	461.38
577.188	442.38
577.399	452.38
577.61	457.38
577.821	451.38
578.032	430.38
578.243	439.38
578.454	434.38
578.665	435.38
578.875	443.38
579.086	429.38
579.297	422.38
579.508	433.38
579.718	415.38
579.929	407.38
580.14	410.38
580.35	402.38
580.561	415.38
580.772	421.38
580.982	416.38
581.193	424.38
581.403	422.38
581.614	412.38
581.825	389.38
582.035	413.38
582.246	418.38
582.456	416.38
582.667	387.38
582.877	420.38
583.087	403.38
583.298	425.38
583.508	402.38
583.719	410.38
583.929	411.38
584.139	403.38
584.35	397.38
584.56	379.38
584.77	396.38
584.981	384.38
585.191	389.38
585.401	412.38
585.611	387.38
585.821	388.38
586.032	403.38
586.242	390.38
586.452	386.38
586.662	378.38
586.872	374.38
587.082	382.38
587.292	385.38
587.502	382.38
587.713	398.38
587.923	361.38
588.133	390.38
588.343	372.38
588.553	360.38
588.762	390.38
588.972	372.38
589.182	390.38
589.392	372.38
589.602	372.38
589.812	379.38
590.022	377.38
590.232	395.38
590.441	384.38
590.651	388.38
590.861	392.38
591.071	386.38
591.281	393.38
591.49	409.38
591.7	399.38
591.91	402.38
592.119	411.38
592.329	432.38
592.539	450.38
592.748	471.38
592.958	474.38
593.167	476.38
593.377	491.38
593.587	486.38
593.796	509.38
594.006	492.38
594.215	489.38
594.424	514.38
594.634	488.38
594.843	485.38
595.053	442.38
595.262	407.38
595.472	404.38
595.681	387.38
595.89	410.38
596.1	393.38
596.309	386.38
596.518	363.38
596.727	358.38
596.937	340.38
597.146	356.38
597.355	352.38
597.564	351.38
597.774	340.38
597.983	352.38
598.192	335.38
598.401	342.38
598.61	341.38
598.819	345.38
599.028	339.38
599.237	349.38
599.446	344.38
599.655	338.38
599.864	316.38
600.073	332.38
600.282	322.38
600.491	326.38
600.7	319.38
600.909	321.38
601.118	320.38
601.327	295.38
601.536	332.38
601.745	312.38
601.953	324.38
602.162	323.38
602.371	328.38
602.58	326.38
602.789	318.38
602.997	309.38
603.206	328.38
603.415	314.38
603.623	296.38
603.832	305.38
604.041	299.38
604.249	310.38
604.458	300.38
604.666	298.38
604.875	293.38
605.084	297.38
605.292	294.38
605.501	329.38
605.709	298.38
605.918	298.38
606.126	302.38
606.334	305.38
606.543	307.38
606.751	309.38
606.96	296.38
607.168	285.38
607.376	294.38
607.585	298.38
607.793	313.38
608.001	298.38
608.21	301.38
608.418	304.38
608.626	306.38
608.834	309.38
609.043	293.38
609.251	295.38
609.459	298.38
609.667	302.38
609.875	297.38
610.083	290.38
610.291	286.38
610.499	289.38
610.707	292.38
610.916	306.38
611.124	301.38
611.332	284.38
611.54	300.38
611.748	286.38
611.955	306.38
612.163	284.38
612.371	287.38
612.579	293.38
612.787	283.38
612.995	282.38
613.203	310.38
613.411	284.38
613.618	285.38
613.826	281.38
614.034	281.38
614.242	269.38
614.449	284.38
614.657	290.38
614.865	279.38
615.072	292.38
615.28	292.38
615.488	287.38
615.695	279.38
615.903	292.38
616.111	291.38
616.318	290.38
616.526	301.38
616.733	288.38
616.941	304.38
617.148	298.38
617.356	284.38
617.563	309.38
617.771	293.38
617.978	283.38
618.185	283.38
618.393	286.38
618.6	291.38
618.807	300.38
619.015	285.38
619.222	288.38
619.429	285.38
619.637	282.38
619.844	257.38
620.051	272.38
620.258	274.38
620.466	279.38
620.673	273.38
620.88	250.38
621.087	261.38
621.294	281.38
621.501	267.38
621.708	260.38
621.915	248.38
622.122	262.38
622.329	248.38
622.536	280.38
622.743	249.38
622.95	261.38
623.157	262.38
623.364	256.38
623.571	262.38
623.778	258.38
623.985	260.38
624.192	269.38
624.399	243.38
624.606	253.38
624.812	256.38
625.019	249.38
625.226	233.38
625.433	235.38
625.639	222.38
625.846	233.38
626.053	232.38
626.259	229.38
626.466	249.38
626.673	253.38
626.879	233.38
627.086	241.38
627.293	240.38
627.499	232.38
627.706	245.38
627.912	237.38
628.119	247.38
628.325	243.38
628.532	235.38
628.738	238.38
628.945	227.38
629.151	233.38
629.357	227.38
629.564	237.38
629.77	219.38
629.976	232.38
630.183	240.38
630.389	218.38
630.595	228.38
630.802	227.38
631.008	217.38
631.214	231.38
631.42	225.38
631.627	207.38
631.833	232.38
632.039	210.38
632.245	219.38
632.451	228.38
632.657	230.38
632.863	212.38
633.069	211.38
633.275	215.38
633.481	220.38
633.688	212.38
633.893	211.38
634.099	222.38
634.305	214.38
634.511	225.38
634.717	182.38
634.923	210.38
635.129	212.38
635.335	202.38
635.541	203.38
635.747	214.38
635.952	205.38
636.158	216.38
636.364	212.38
636.57	207.38
636.775	225.38
636.981	215.38
637.187	212.38
637.392	202.38
637.598	189.38
637.804	194.38
638.009	192.38
638.215	209.38
638.421	185.38
638.626	211.38
638.832	201.38
639.037	184.38
639.243	196.38
639.448	210.38
639.654	218.38
639.859	192.38
640.065	174.38
640.27	178.38
640.475	204.38
640.681	197.38
640.886	212.38
641.091	203.38
641.297	202.38
641.502	197.38
641.707	173.38
641.913	186.38
642.118	171.38
642.323	185.38
642.528	191.38
642.733	190.38
642.939	187.38
643.144	190.38
643.349	183.38
643.554	200.38
643.759	201.38
643.964	190.38
644.169	184.38
644.374	192.38
644.579	194.38
644.784	174.38
644.989	208.38
645.194	174.38
645.399	192.38
645.604	195.38
645.809	178.38
646.014	189.38
646.219	185.38
646.423	186.38
646.628	198.38
646.833	182.38
647.038	192.38
647.243	185.38
647.447	196.38
647.652	211.38
647.857	196.38
648.062	206.38
648.266	201.38
648.471	212.38
648.676	191.38
648.88	207.38
649.085	192.38
649.289	192.38
649.494	184.38
649.698	193.38
649.903	197.38
650.107	199.38
650.312	193.38
650.516	175.38
650.721	183.38
650.925	151.38
651.13	178.38
651.334	159.38
651.539	170.38
651.743	171.38
651.947	172.38
652.152	178.38
652.356	156.38
652.56	156.38
652.764	162.38
652.969	139.38
653.173	155.38
653.377	142.38
653.581	149.38
653.785	152.38
653.99	154.38
654.194	161.38
654.398	145.38
654.602	157.38
654.806	134.38
655.01	157.38
655.214	136.38
655.418	136.38
655.622	132.38
655.826	131.38
656.03	143.38
656.234	145.38
656.438	143.38
656.642	153.38
656.846	147.38
657.049	135.38
657.253	137.38
657.457	134.38
657.661	131.38
657.865	123.38
658.068	126.38
658.272	103.38
658.476	121.38
658.68	96.38
658.883	101.38
659.087	99.38
659.291	91.38
659.494	105.38
659.698	99.38
659.901	96.38
660.105	109.38
660.309	98.38
660.512	97.38
660.716	81.38
660.919	88.38
661.123	99.38
661.326	104.38
661.53	86.38
661.733	92.38
661.936	88.38
662.14	77.38
662.343	85.38
662.546	105.38
662.75	91.38
662.953	84.38
663.156	77.38
663.36	89.38
663.563	73.38
663.766	81.38
663.969	77.38
664.173	89.38
664.376	91.38
664.579	91.38
664.782	84.38
664.985	84.38
665.188	81.38
665.391	85.38
665.594	82.38
665.797	82.38
666	77.38
666.203	93.38
666.406	91.38
666.609	89.38
666.812	74.38
667.015	89.38
667.218	96.38
667.421	95.38
667.624	77.38
667.827	91.38
668.03	87.38
668.232	89.38
668.435	93.38
668.638	93.38
668.841	87.38
669.043	73.38
669.246	73.38
669.449	78.38
669.651	71.38
669.854	86.38
670.057	96.38
670.259	89.38
670.462	73.38
670.665	86.38
670.867	99.38
671.07	78.38
671.272	89.38
671.475	84.38
671.677	87.38
671.88	96.38
672.082	87.38
672.284	92.38
672.487	93.38
672.689	81.38
672.892	72.38
