Data from Ni(NO3)2@0.125M.TitratingCurve.Agarose3%dH2O.NegLispCup.LampEnergy10.LIBS07252019_HRD10591_18-08-54-567.txt Node
Date: Thu Jul 25 18:08:54 EDT 2019
User: cochatt
Spectrometer: HR+D1059
Trigger mode: 1
Integration Time (sec): 1.000000E-1
Scans to average: 1
Electric dark correction enabled: true
Nonlinearity correction enabled: false
Boxcar width: 0
XAxis mode: Wavelengths
Number of Pixels in Spectrum: 2048
>>>>>Begin Spectral Data<<<<<
223.165	-16.06
223.4	-16.06
223.635	-16.06
223.869	-19.06
224.104	-13.06
224.338	2.94
224.573	-20.06
224.808	-18.06
225.042	-5.06
225.277	-22.06
225.511	-10.06
225.746	-4.06
225.98	9.94
226.215	16.94
226.449	24.94
226.683	26.94
226.918	16.94
227.152	28.94
227.387	37.94
227.621	38.94
227.856	56.94
228.09	46.94
228.324	60.94
228.559	61.94
228.793	80.94
229.027	97.94
229.262	106.94
229.496	103.94
229.73	132.94
229.964	122.94
230.199	133.94
230.433	133.94
230.667	131.94
230.901	127.94
231.136	130.94
231.37	128.94
231.604	139.94
231.838	134.94
232.072	164.94
232.306	143.94
232.541	147.94
232.775	144.94
233.009	138.94
233.243	144.94
233.477	146.94
233.711	149.94
233.945	147.94
234.179	160.94
234.413	150.94
234.647	144.94
234.881	159.94
235.115	143.94
235.349	151.94
235.583	152.94
235.817	145.94
236.051	141.94
236.285	158.94
236.519	155.94
236.753	155.94
236.987	150.94
237.221	141.94
237.455	149.94
237.689	161.94
237.922	150.94
238.156	153.94
238.39	162.94
238.624	151.94
238.858	159.94
239.091	173.94
239.325	168.94
239.559	156.94
239.793	184.94
240.027	180.94
240.26	171.94
240.494	170.94
240.728	163.94
240.961	171.94
241.195	163.94
241.429	178.94
241.662	180.94
241.896	183.94
242.13	189.94
242.363	175.94
242.597	174.94
242.83	187.94
243.064	202.94
243.298	184.94
243.531	189.94
243.765	188.94
243.998	204.94
244.232	206.94
244.465	198.94
244.699	206.94
244.932	200.94
245.166	210.94
245.399	216.94
245.633	204.94
245.866	190.94
246.099	216.94
246.333	191.94
246.566	208.94
246.8	218.94
247.033	218.94
247.266	205.94
247.5	211.94
247.733	239.94
247.966	219.94
248.2	239.94
248.433	226.94
248.666	228.94
248.899	227.94
249.133	231.94
249.366	220.94
249.599	243.94
249.832	237.94
250.066	237.94
250.299	237.94
250.532	266.94
250.765	244.94
250.998	239.94
251.231	232.94
251.465	242.94
251.698	235.94
251.931	251.94
252.164	269.94
252.397	242.94
252.63	267.94
252.863	285.94
253.096	278.94
253.329	274.94
253.562	277.94
253.795	282.94
254.028	284.94
254.261	261.94
254.494	270.94
254.727	273.94
254.96	270.94
255.193	265.94
255.426	274.94
255.659	279.94
255.892	271.94
256.124	292.94
256.357	282.94
256.59	288.94
256.823	288.94
257.056	268.94
257.289	291.94
257.521	290.94
257.754	306.94
257.987	293.94
258.22	293.94
258.452	298.94
258.685	314.94
258.918	304.94
259.151	308.94
259.383	321.94
259.616	301.94
259.849	306.94
260.081	308.94
260.314	311.94
260.547	300.94
260.779	302.94
261.012	327.94
261.244	331.94
261.477	331.94
261.71	314.94
261.942	285.94
262.175	315.94
262.407	325.94
262.64	306.94
262.872	332.94
263.105	339.94
263.337	327.94
263.57	330.94
263.802	316.94
264.035	344.94
264.267	351.94
264.499	338.94
264.732	353.94
264.964	334.94
265.197	337.94
265.429	328.94
265.661	326.94
265.894	347.94
266.126	350.94
266.358	342.94
266.591	354.94
266.823	341.94
267.055	348.94
267.287	366.94
267.52	376.94
267.752	366.94
267.984	362.94
268.216	344.94
268.448	350.94
268.681	361.94
268.913	367.94
269.145	364.94
269.377	359.94
269.609	367.94
269.841	366.94
270.073	364.94
270.306	357.94
270.538	352.94
270.77	367.94
271.002	388.94
271.234	380.94
271.466	373.94
271.698	384.94
271.93	389.94
272.162	380.94
272.394	386.94
272.626	376.94
272.858	385.94
273.09	387.94
273.322	389.94
273.553	381.94
273.785	380.94
274.017	398.94
274.249	383.94
274.481	396.94
274.713	411.94
274.945	405.94
275.176	398.94
275.408	413.94
275.64	400.94
275.872	406.94
276.104	400.94
276.335	395.94
276.567	414.94
276.799	407.94
277.031	405.94
277.262	398.94
277.494	413.94
277.726	400.94
277.957	439.94
278.189	414.94
278.421	399.94
278.652	406.94
278.884	421.94
279.115	437.94
279.347	430.94
279.579	412.94
279.81	431.94
280.042	415.94
280.273	418.94
280.505	422.94
280.736	451.94
280.968	444.94
281.199	426.94
281.431	446.94
281.662	437.94
281.894	466.94
282.125	454.94
282.356	468.94
282.588	465.94
282.819	446.94
283.051	461.94
283.282	475.94
283.513	451.94
283.745	473.94
283.976	460.94
284.207	462.94
284.439	458.94
284.67	454.94
284.901	471.94
285.132	464.94
285.364	481.94
285.595	463.94
285.826	464.94
286.057	483.94
286.288	475.94
286.52	468.94
286.751	493.94
286.982	486.94
287.213	487.94
287.444	487.94
287.675	478.94
287.906	507.94
288.138	510.94
288.369	492.94
288.6	506.94
288.831	480.94
289.062	482.94
289.293	495.94
289.524	491.94
289.755	508.94
289.986	501.94
290.217	495.94
290.448	504.94
290.679	493.94
290.91	490.94
291.141	514.94
291.371	513.94
291.602	498.94
291.833	501.94
292.064	521.94
292.295	515.94
292.526	496.94
292.757	496.94
292.987	510.94
293.218	484.94
293.449	512.94
293.68	492.94
293.91	507.94
294.141	518.94
294.372	514.94
294.603	514.94
294.833	504.94
295.064	489.94
295.295	498.94
295.525	531.94
295.756	527.94
295.987	533.94
296.217	532.94
296.448	512.94
296.679	535.94
296.909	530.94
297.14	546.94
297.37	556.94
297.601	541.94
297.831	537.94
298.062	555.94
298.292	559.94
298.523	575.94
298.753	573.94
298.984	574.94
299.214	547.94
299.445	527.94
299.675	540.94
299.905	548.94
300.136	551.94
300.366	565.94
300.597	578.94
300.827	548.94
301.057	578.94
301.288	570.94
301.518	578.94
301.748	589.94
301.979	564.94
302.209	564.94
302.439	578.94
302.669	567.94
302.9	559.94
303.13	550.94
303.36	570.94
303.59	562.94
303.82	562.94
304.051	575.94
304.281	577.94
304.511	572.94
304.741	559.94
304.971	584.94
305.201	556.94
305.431	572.94
305.661	573.94
305.891	560.94
306.121	570.94
306.352	549.94
306.582	571.94
306.812	562.94
307.042	575.94
307.272	569.94
307.502	546.94
307.731	553.94
307.961	581.94
308.191	562.94
308.421	542.94
308.651	540.94
308.881	538.94
309.111	528.94
309.341	558.94
309.571	581.94
309.8	558.94
310.03	553.94
310.26	556.94
310.49	564.94
310.72	564.94
310.949	560.94
311.179	580.94
311.409	594.94
311.639	569.94
311.868	570.94
312.098	571.94
312.328	592.94
312.557	581.94
312.787	594.94
313.017	572.94
313.246	597.94
313.476	580.94
313.706	631.94
313.935	617.94
314.165	590.94
314.394	595.94
314.624	631.94
314.853	615.94
315.083	602.94
315.312	598.94
315.542	600.94
315.771	617.94
316.001	580.94
316.23	597.94
316.46	607.94
316.689	595.94
316.919	591.94
317.148	592.94
317.377	568.94
317.607	585.94
317.836	569.94
318.065	614.94
318.295	617.94
318.524	611.94
318.753	608.94
318.983	587.94
319.212	587.94
319.441	593.94
319.67	603.94
319.9	592.94
320.129	602.94
320.358	595.94
320.587	604.94
320.816	593.94
321.046	608.94
321.275	622.94
321.504	608.94
321.733	613.94
321.962	602.94
322.191	626.94
322.42	593.94
322.649	628.94
322.878	619.94
323.108	606.94
323.337	616.94
323.566	608.94
323.795	606.94
324.024	620.94
324.253	637.94
324.482	652.94
324.71	646.94
324.939	637.94
325.168	652.94
325.397	650.94
325.626	644.94
325.855	651.94
326.084	670.94
326.313	682.94
326.542	671.94
326.77	675.94
326.999	661.94
327.228	640.94
327.457	642.94
327.686	660.94
327.914	676.94
328.143	701.94
328.372	659.94
328.6	665.94
328.829	683.94
329.058	652.94
329.287	657.94
329.515	682.94
329.744	677.94
329.972	662.94
330.201	690.94
330.43	677.94
330.658	697.94
330.887	687.94
331.115	709.94
331.344	715.94
331.572	696.94
331.801	713.94
332.03	756.94
332.258	749.94
332.486	786.94
332.715	816.94
332.943	892.94
333.172	878.94
333.4	898.94
333.629	928.94
333.857	924.94
334.085	892.94
334.314	888.94
334.542	864.94
334.771	869.94
334.999	839.94
335.227	852.94
335.455	842.94
335.684	839.94
335.912	836.94
336.14	805.94
336.369	815.94
336.597	804.94
336.825	823.94
337.053	819.94
337.281	819.94
337.51	810.94
337.738	772.94
337.966	764.94
338.194	770.94
338.422	763.94
338.65	751.94
338.878	728.94
339.106	742.94
339.334	742.94
339.562	728.94
339.79	741.94
340.018	710.94
340.246	726.94
340.474	717.94
340.702	703.94
340.93	714.94
341.158	713.94
341.386	721.94
341.614	723.94
341.842	714.94
342.07	703.94
342.298	711.94
342.526	714.94
342.754	711.94
342.981	707.94
343.209	730.94
343.437	757.94
343.665	791.94
343.893	875.94
344.12	921.94
344.348	860.94
344.576	790.94
344.804	750.94
345.031	765.94
345.259	755.94
345.487	731.94
345.714	725.94
345.942	721.94
346.17	717.94
346.397	715.94
346.625	690.94
346.853	666.94
347.08	683.94
347.308	682.94
347.535	722.94
347.763	707.94
347.99	733.94
348.218	721.94
348.445	708.94
348.673	690.94
348.9	698.94
349.128	698.94
349.355	676.94
349.583	684.94
349.81	659.94
350.037	680.94
350.265	642.94
350.492	674.94
350.72	668.94
350.947	672.94
351.174	664.94
351.402	688.94
351.629	665.94
351.856	666.94
352.083	693.94
352.311	658.94
352.538	668.94
352.765	676.94
352.992	663.94
353.22	652.94
353.447	677.94
353.674	654.94
353.901	657.94
354.128	638.94
354.355	664.94
354.583	668.94
354.81	660.94
355.037	669.94
355.264	666.94
355.491	676.94
355.718	660.94
355.945	671.94
356.172	683.94
356.399	671.94
356.626	709.94
356.853	671.94
357.08	663.94
357.307	662.94
357.534	684.94
357.761	667.94
357.988	648.94
358.215	683.94
358.441	678.94
358.668	681.94
358.895	677.94
359.122	662.94
359.349	641.94
359.576	670.94
359.802	658.94
360.029	647.94
360.256	676.94
360.483	678.94
360.709	649.94
360.936	682.94
361.163	688.94
361.39	658.94
361.616	685.94
361.843	675.94
362.07	663.94
362.296	658.94
362.523	656.94
362.749	643.94
362.976	664.94
363.203	650.94
363.429	660.94
363.656	650.94
363.882	662.94
364.109	650.94
364.335	644.94
364.562	642.94
364.788	669.94
365.015	636.94
365.241	672.94
365.468	680.94
365.694	669.94
365.92	672.94
366.147	656.94
366.373	661.94
366.599	647.94
366.826	675.94
367.052	641.94
367.278	647.94
367.505	676.94
367.731	670.94
367.957	664.94
368.184	656.94
368.41	676.94
368.636	668.94
368.862	670.94
369.089	695.94
369.315	692.94
369.541	680.94
369.767	687.94
369.993	701.94
370.219	720.94
370.445	720.94
370.672	706.94
370.898	685.94
371.124	702.94
371.35	736.94
371.576	748.94
371.802	719.94
372.028	697.94
372.254	724.94
372.48	720.94
372.706	718.94
372.932	750.94
373.158	748.94
373.384	757.94
373.61	699.94
373.835	722.94
374.061	715.94
374.287	745.94
374.513	724.94
374.739	742.94
374.965	780.94
375.191	779.94
375.416	796.94
375.642	780.94
375.868	784.94
376.094	781.94
376.319	757.94
376.545	727.94
376.771	709.94
376.997	733.94
377.222	717.94
377.448	722.94
377.674	721.94
377.899	688.94
378.125	718.94
378.35	723.94
378.576	685.94
378.802	727.94
379.027	735.94
379.253	691.94
379.478	693.94
379.704	710.94
379.929	698.94
380.155	710.94
380.38	703.94
380.606	708.94
380.831	692.94
381.057	711.94
381.282	706.94
381.507	720.94
381.733	686.94
381.958	700.94
382.184	729.94
382.409	734.94
382.634	727.94
382.86	748.94
383.085	766.94
383.31	758.94
383.535	766.94
383.761	793.94
383.986	809.94
384.211	823.94
384.436	847.94
384.662	847.94
384.887	848.94
385.112	859.94
385.337	840.94
385.562	874.94
385.787	856.94
386.013	866.94
386.238	877.94
386.463	891.94
386.688	846.94
386.913	864.94
387.138	839.94
387.363	842.94
387.588	847.94
387.813	819.94
388.038	841.94
388.263	847.94
388.488	851.94
388.713	857.94
388.938	839.94
389.163	824.94
389.387	846.94
389.612	850.94
389.837	843.94
390.062	846.94
390.287	818.94
390.512	840.94
390.736	839.94
390.961	831.94
391.186	860.94
391.411	886.94
391.636	916.94
391.86	966.94
392.085	976.94
392.31	961.94
392.534	932.94
392.759	910.94
392.984	922.94
393.208	935.94
393.433	896.94
393.658	908.94
393.882	895.94
394.107	897.94
394.331	884.94
394.556	901.94
394.78	933.94
395.005	906.94
395.229	948.94
395.454	934.94
395.678	948.94
395.903	970.94
396.127	949.94
396.352	930.94
396.576	886.94
396.801	893.94
397.025	898.94
397.249	923.94
397.474	944.94
397.698	943.94
397.922	975.94
398.147	947.94
398.371	972.94
398.595	977.94
398.82	1037.94
399.044	1115.94
399.268	1252.94
399.492	1475.94
399.717	1682.94
399.941	1656.94
400.165	1420.94
400.389	1287.94
400.613	1172.94
400.837	1106.94
401.062	1071.94
401.286	1069.94
401.51	1071.94
401.734	1067.94
401.958	1083.94
402.182	1068.94
402.406	1107.94
402.63	1134.94
402.854	1133.94
403.078	1142.94
403.302	1198.94
403.526	1213.94
403.75	1223.94
403.974	1260.94
404.198	1255.94
404.422	1292.94
404.645	1251.94
404.869	1237.94
405.093	1218.94
405.317	1215.94
405.541	1212.94
405.765	1167.94
405.988	1172.94
406.212	1195.94
406.436	1164.94
406.66	1197.94
406.883	1217.94
407.107	1298.94
407.331	1398.94
407.555	1450.94
407.778	1422.94
408.002	1357.94
408.226	1277.94
408.449	1275.94
408.673	1237.94
408.896	1223.94
409.12	1203.94
409.344	1246.94
409.567	1268.94
409.791	1233.94
410.014	1245.94
410.238	1218.94
410.461	1229.94
410.685	1207.94
410.908	1203.94
411.132	1179.94
411.355	1132.94
411.578	1134.94
411.802	1119.94
412.025	1136.94
412.249	1170.94
412.472	1122.94
412.695	1131.94
412.919	1088.94
413.142	1089.94
413.365	1068.94
413.589	1083.94
413.812	1085.94
414.035	1078.94
414.258	1105.94
414.482	1108.94
414.705	1114.94
414.928	1096.94
415.151	1095.94
415.374	1092.94
415.597	1088.94
415.821	1066.94
416.044	1045.94
416.267	1026.94
416.49	1034.94
416.713	1052.94
416.936	1067.94
417.159	1064.94
417.382	1048.94
417.605	1047.94
417.828	1077.94
418.051	1093.94
418.274	1086.94
418.497	1078.94
418.72	1091.94
418.943	1107.94
419.166	1178.94
419.389	1227.94
419.611	1164.94
419.834	1177.94
420.057	1130.94
420.28	1106.94
420.503	1044.94
420.726	1092.94
420.948	1064.94
421.171	1080.94
421.394	1098.94
421.617	1074.94
421.839	1074.94
422.062	1108.94
422.285	1072.94
422.507	1117.94
422.73	1118.94
422.953	1104.94
423.175	1129.94
423.398	1142.94
423.621	1160.94
423.843	1166.94
424.066	1173.94
424.288	1160.94
424.511	1165.94
424.733	1144.94
424.956	1129.94
425.178	1090.94
425.401	1078.94
425.623	1071.94
425.846	1049.94
426.068	1058.94
426.291	1035.94
426.513	992.94
426.735	992.94
426.958	980.94
427.18	988.94
427.402	959.94
427.625	981.94
427.847	984.94
428.069	980.94
428.292	975.94
428.514	967.94
428.736	953.94
428.958	961.94
429.181	939.94
429.403	934.94
429.625	940.94
429.847	930.94
430.069	934.94
430.292	942.94
430.514	911.94
430.736	921.94
430.958	954.94
431.18	930.94
431.402	937.94
431.624	969.94
431.846	991.94
432.068	970.94
432.29	990.94
432.512	972.94
432.734	976.94
432.956	964.94
433.178	948.94
433.4	978.94
433.622	971.94
433.844	950.94
434.066	952.94
434.287	1006.94
434.509	1028.94
434.731	1035.94
434.953	1115.94
435.175	1100.94
435.397	1110.94
435.618	1029.94
435.84	999.94
436.062	983.94
436.284	976.94
436.505	993.94
436.727	964.94
436.949	980.94
437.17	949.94
437.392	940.94
437.614	958.94
437.835	916.94
438.057	929.94
438.278	924.94
438.5	927.94
438.721	925.94
438.943	947.94
439.165	950.94
439.386	964.94
439.608	951.94
439.829	990.94
440.05	985.94
440.272	1007.94
440.493	982.94
440.715	1015.94
440.936	1046.94
441.158	1050.94
441.379	1031.94
441.6	1103.94
441.822	1114.94
442.043	1139.94
442.264	1090.94
442.486	1058.94
442.707	1102.94
442.928	1052.94
443.149	1097.94
443.371	1066.94
443.592	1110.94
443.813	1115.94
444.034	1102.94
444.255	1150.94
444.476	1181.94
444.698	1248.94
444.919	1376.94
445.14	1397.94
445.361	1272.94
445.582	1144.94
445.803	1068.94
446.024	1035.94
446.245	1013.94
446.466	1020.94
446.687	999.94
446.908	982.94
447.129	981.94
447.35	947.94
447.571	943.94
447.792	935.94
448.013	927.94
448.234	911.94
448.455	904.94
448.675	898.94
448.896	896.94
449.117	894.94
449.338	885.94
449.559	884.94
449.779	902.94
450	894.94
450.221	893.94
450.442	898.94
450.662	914.94
450.883	933.94
451.104	939.94
451.324	904.94
451.545	910.94
451.766	922.94
451.986	916.94
452.207	902.94
452.428	900.94
452.648	923.94
452.869	884.94
453.089	894.94
453.31	899.94
453.53	873.94
453.751	879.94
453.971	877.94
454.192	886.94
454.412	866.94
454.633	847.94
454.853	852.94
455.073	836.94
455.294	840.94
455.514	839.94
455.734	854.94
455.955	814.94
456.175	842.94
456.395	835.94
456.616	806.94
456.836	822.94
457.056	802.94
457.276	781.94
457.497	838.94
457.717	828.94
457.937	848.94
458.157	837.94
458.377	835.94
458.598	867.94
458.818	890.94
459.038	910.94
459.258	930.94
459.478	991.94
459.698	1030.94
459.918	1050.94
460.138	1070.94
460.358	1164.94
460.578	1167.94
460.798	1172.94
461.018	1169.94
461.238	1155.94
461.458	1160.94
461.678	1133.94
461.898	1146.94
462.118	1156.94
462.338	1226.94
462.558	1264.94
462.777	1295.94
462.997	1458.94
463.217	1560.94
463.437	1557.94
463.657	1450.94
463.876	1309.94
464.096	1348.94
464.316	1352.94
464.536	1353.94
464.755	1310.94
464.975	1262.94
465.195	1202.94
465.414	1122.94
465.634	1052.94
465.854	1002.94
466.073	986.94
466.293	972.94
466.512	960.94
466.732	907.94
466.951	954.94
467.171	957.94
467.391	954.94
467.61	938.94
467.829	948.94
468.049	933.94
468.268	911.94
468.488	883.94
468.707	911.94
468.927	888.94
469.146	887.94
469.365	887.94
469.585	891.94
469.804	938.94
470.023	941.94
470.243	945.94
470.462	957.94
470.681	958.94
470.901	968.94
471.12	940.94
471.339	959.94
471.558	971.94
471.777	911.94
471.997	887.94
472.216	889.94
472.435	878.94
472.654	892.94
472.873	868.94
473.092	879.94
473.311	866.94
473.53	869.94
473.749	877.94
473.968	870.94
474.187	854.94
474.406	870.94
474.625	890.94
474.844	858.94
475.063	889.94
475.282	879.94
475.501	882.94
475.72	889.94
475.939	884.94
476.158	877.94
476.377	906.94
476.596	905.94
476.814	929.94
477.033	936.94
477.252	953.94
477.471	937.94
477.69	971.94
477.908	1010.94
478.127	1020.94
478.346	1026.94
478.564	1067.94
478.783	1059.94
479.002	1062.94
479.22	1117.94
479.439	1097.94
479.658	1058.94
479.876	1087.94
480.095	1100.94
480.313	1159.94
480.532	1218.94
480.751	1194.94
480.969	1123.94
481.188	1056.94
481.406	1057.94
481.624	1034.94
481.843	967.94
482.061	982.94
482.28	992.94
482.498	1001.94
482.717	1000.94
482.935	976.94
483.153	1017.94
483.372	985.94
483.59	984.94
483.808	982.94
484.027	976.94
484.245	982.94
484.463	999.94
484.681	1042.94
484.9	1001.94
485.118	1048.94
485.336	1034.94
485.554	1069.94
485.772	1048.94
485.99	1051.94
486.209	1050.94
486.427	1044.94
486.645	1067.94
486.863	1065.94
487.081	1074.94
487.299	1048.94
487.517	1060.94
487.735	1039.94
487.953	1040.94
488.171	1043.94
488.389	1059.94
488.607	1045.94
488.825	1069.94
489.043	1028.94
489.261	1051.94
489.479	1040.94
489.696	1018.94
489.914	1044.94
490.132	1024.94
490.35	1026.94
490.568	1059.94
490.786	1066.94
491.003	1054.94
491.221	1044.94
491.439	1039.94
491.657	1054.94
491.874	1065.94
492.092	1075.94
492.31	1098.94
492.527	1082.94
492.745	1084.94
492.963	1101.94
493.18	1082.94
493.398	1111.94
493.615	1108.94
493.833	1093.94
494.05	1113.94
494.268	1107.94
494.485	1164.94
494.703	1117.94
494.92	1115.94
495.138	1143.94
495.355	1095.94
495.573	1112.94
495.79	1098.94
496.008	1108.94
496.225	1158.94
496.442	1126.94
496.66	1146.94
496.877	1189.94
497.094	1172.94
497.312	1204.94
497.529	1226.94
497.746	1242.94
497.963	1287.94
498.181	1322.94
498.398	1381.94
498.615	1470.94
498.832	1584.94
499.049	1734.94
499.267	1825.94
499.484	1990.94
499.701	2252.94
499.918	2463.94
500.135	2875.94
500.352	3343.94
500.569	3526.94
500.786	3498.94
501.003	3216.94
501.22	2833.94
501.437	2465.94
501.654	2166.94
501.871	1943.94
502.088	1765.94
502.305	1651.94
502.522	1600.94
502.739	1516.94
502.956	1426.94
503.172	1406.94
503.389	1307.94
503.606	1282.94
503.823	1295.94
504.04	1291.94
504.256	1252.94
504.473	1304.94
504.69	1362.94
504.907	1273.94
505.123	1218.94
505.34	1135.94
505.557	1134.94
505.773	1093.94
505.99	1068.94
506.207	1006.94
506.423	1019.94
506.64	983.94
506.856	975.94
507.073	1002.94
507.289	968.94
507.506	982.94
507.722	980.94
507.939	961.94
508.155	946.94
508.372	944.94
508.588	923.94
508.805	935.94
509.021	913.94
509.238	941.94
509.454	885.94
509.67	908.94
509.887	900.94
510.103	898.94
510.319	891.94
510.536	896.94
510.752	884.94
510.968	896.94
511.184	867.94
511.401	871.94
511.617	872.94
511.833	908.94
512.049	892.94
512.265	925.94
512.481	889.94
512.698	893.94
512.914	888.94
513.13	916.94
513.346	907.94
513.562	889.94
513.778	911.94
513.994	873.94
514.21	883.94
514.426	895.94
514.642	909.94
514.858	923.94
515.074	900.94
515.29	906.94
515.506	936.94
515.721	953.94
515.937	930.94
516.153	965.94
516.369	999.94
516.585	997.94
516.801	1060.94
517.016	1089.94
517.232	1141.94
517.448	1194.94
517.664	1269.94
517.879	1247.94
518.095	1248.94
518.311	1237.94
518.527	1185.94
518.742	1126.94
518.958	1076.94
519.173	1053.94
519.389	979.94
519.605	962.94
519.82	938.94
520.036	946.94
520.251	907.94
520.467	906.94
520.682	927.94
520.898	894.94
521.113	905.94
521.329	885.94
521.544	861.94
521.76	900.94
521.975	856.94
522.19	844.94
522.406	876.94
522.621	848.94
522.836	816.94
523.052	842.94
523.267	805.94
523.482	846.94
523.698	845.94
523.913	823.94
524.128	814.94
524.343	826.94
524.559	829.94
524.774	823.94
524.989	851.94
525.204	832.94
525.419	809.94
525.634	798.94
525.849	794.94
526.064	784.94
526.28	813.94
526.495	775.94
526.71	804.94
526.925	817.94
527.14	814.94
527.355	825.94
527.57	780.94
527.785	782.94
527.999	809.94
528.214	799.94
528.429	834.94
528.644	784.94
528.859	840.94
529.074	824.94
529.289	807.94
529.503	798.94
529.718	814.94
529.933	832.94
530.148	810.94
530.363	802.94
530.577	793.94
530.792	796.94
531.007	799.94
531.221	828.94
531.436	832.94
531.651	828.94
531.865	811.94
532.08	820.94
532.295	803.94
532.509	809.94
532.724	784.94
532.938	824.94
533.153	830.94
533.367	819.94
533.582	793.94
533.796	808.94
534.011	792.94
534.225	805.94
534.44	800.94
534.654	785.94
534.868	780.94
535.083	752.94
535.297	787.94
535.511	772.94
535.726	783.94
535.94	757.94
536.154	760.94
536.369	759.94
536.583	738.94
536.797	756.94
537.011	759.94
537.225	751.94
537.44	724.94
537.654	752.94
537.868	728.94
538.082	729.94
538.296	733.94
538.51	698.94
538.724	727.94
538.938	720.94
539.153	743.94
539.367	744.94
539.581	731.94
539.795	716.94
540.009	712.94
540.222	718.94
540.436	711.94
540.65	700.94
540.864	724.94
541.078	711.94
541.292	719.94
541.506	740.94
541.72	739.94
541.934	742.94
542.147	735.94
542.361	750.94
542.575	714.94
542.789	732.94
543.002	719.94
543.216	711.94
543.43	713.94
543.644	709.94
543.857	697.94
544.071	711.94
544.285	745.94
544.498	730.94
544.712	738.94
544.925	714.94
545.139	717.94
545.352	725.94
545.566	769.94
545.779	752.94
545.993	752.94
546.206	751.94
546.42	759.94
546.633	734.94
546.847	732.94
547.06	768.94
547.274	749.94
547.487	733.94
547.7	741.94
547.914	757.94
548.127	745.94
548.34	780.94
548.554	770.94
548.767	771.94
548.98	744.94
549.193	768.94
549.407	776.94
549.62	759.94
549.833	758.94
550.046	763.94
550.259	769.94
550.473	727.94
550.686	741.94
550.899	726.94
551.112	705.94
551.325	714.94
551.538	721.94
551.751	745.94
551.964	723.94
552.177	740.94
552.39	751.94
552.603	778.94
552.816	778.94
553.029	823.94
553.242	828.94
553.455	826.94
553.667	834.94
553.88	821.94
554.093	771.94
554.306	759.94
554.519	757.94
554.732	725.94
554.944	735.94
555.157	728.94
555.37	704.94
555.583	713.94
555.795	670.94
556.008	662.94
556.221	651.94
556.433	668.94
556.646	676.94
556.859	635.94
557.071	645.94
557.284	657.94
557.496	619.94
557.709	611.94
557.921	650.94
558.134	597.94
558.346	629.94
558.559	628.94
558.771	621.94
558.984	607.94
559.196	631.94
559.409	622.94
559.621	614.94
559.833	610.94
560.046	638.94
560.258	607.94
560.47	602.94
560.683	611.94
560.895	617.94
561.107	605.94
561.32	596.94
561.532	596.94
561.744	615.94
561.956	620.94
562.168	595.94
562.381	592.94
562.593	589.94
562.805	605.94
563.017	606.94
563.229	611.94
563.441	605.94
563.653	590.94
563.865	624.94
564.077	600.94
564.289	642.94
564.501	626.94
564.713	651.94
564.925	675.94
565.137	669.94
565.349	670.94
565.561	707.94
565.773	727.94
565.985	768.94
566.197	793.94
566.408	846.94
566.62	933.94
566.832	1018.94
567.044	1041.94
567.255	1019.94
567.467	1021.94
567.679	1091.94
567.891	1186.94
568.102	1250.94
568.314	1186.94
568.526	1032.94
568.737	944.94
568.949	871.94
569.161	808.94
569.372	709.94
569.584	693.94
569.795	663.94
570.007	642.94
570.218	612.94
570.43	618.94
570.641	629.94
570.853	635.94
571.064	636.94
571.276	639.94
571.487	620.94
571.698	596.94
571.91	569.94
572.121	558.94
572.333	523.94
572.544	531.94
572.755	536.94
572.966	530.94
573.178	529.94
573.389	527.94
573.6	536.94
573.811	551.94
574.023	535.94
574.234	508.94
574.445	528.94
574.656	501.94
574.867	495.94
575.078	496.94
575.289	500.94
575.501	482.94
575.712	461.94
575.923	490.94
576.134	501.94
576.345	481.94
576.556	478.94
576.767	469.94
576.978	476.94
577.188	452.94
577.399	467.94
577.61	470.94
577.821	469.94
578.032	447.94
578.243	469.94
578.454	455.94
578.665	434.94
578.875	440.94
579.086	446.94
579.297	439.94
579.508	440.94
579.718	425.94
579.929	454.94
580.14	454.94
580.35	446.94
580.561	445.94
580.772	424.94
580.982	418.94
581.193	429.94
581.403	438.94
581.614	424.94
581.825	418.94
582.035	428.94
582.246	430.94
582.456	425.94
582.667	420.94
582.877	414.94
583.087	416.94
583.298	400.94
583.508	416.94
583.719	418.94
583.929	415.94
584.139	425.94
584.35	413.94
584.56	417.94
584.77	412.94
584.981	417.94
585.191	411.94
585.401	416.94
585.611	414.94
585.821	416.94
586.032	414.94
586.242	414.94
586.452	395.94
586.662	416.94
586.872	419.94
587.082	401.94
587.292	407.94
587.502	411.94
587.713	378.94
587.923	381.94
588.133	393.94
588.343	395.94
588.553	399.94
588.762	399.94
588.972	412.94
589.182	412.94
589.392	400.94
589.602	387.94
589.812	419.94
590.022	382.94
590.232	409.94
590.441	396.94
590.651	402.94
590.861	405.94
591.071	414.94
591.281	420.94
591.49	416.94
591.7	416.94
591.91	434.94
592.119	428.94
592.329	466.94
592.539	468.94
592.748	478.94
592.958	472.94
593.167	490.94
593.377	504.94
593.587	516.94
593.796	516.94
594.006	519.94
594.215	528.94
594.424	523.94
594.634	505.94
594.843	476.94
595.053	456.94
595.262	471.94
595.472	437.94
595.681	419.94
595.89	413.94
596.1	416.94
596.309	386.94
596.518	403.94
596.727	404.94
596.937	392.94
597.146	367.94
597.355	370.94
597.564	362.94
597.774	341.94
597.983	362.94
598.192	363.94
598.401	337.94
598.61	346.94
598.819	367.94
599.028	357.94
599.237	354.94
599.446	323.94
599.655	336.94
599.864	334.94
600.073	334.94
600.282	352.94
600.491	350.94
600.7	346.94
600.909	348.94
601.118	340.94
601.327	337.94
601.536	336.94
601.745	326.94
601.953	337.94
602.162	355.94
602.371	332.94
602.58	346.94
602.789	319.94
602.997	323.94
603.206	336.94
603.415	352.94
603.623	316.94
603.832	326.94
604.041	334.94
604.249	320.94
604.458	311.94
604.666	303.94
604.875	332.94
605.084	304.94
605.292	307.94
605.501	321.94
605.709	303.94
605.918	308.94
606.126	306.94
606.334	317.94
606.543	311.94
606.751	323.94
606.96	315.94
607.168	321.94
607.376	326.94
607.585	302.94
607.793	313.94
608.001	298.94
608.21	294.94
608.418	320.94
608.626	312.94
608.834	297.94
609.043	299.94
609.251	295.94
609.459	307.94
609.667	308.94
609.875	316.94
610.083	315.94
610.291	300.94
610.499	308.94
610.707	307.94
610.916	300.94
611.124	306.94
611.332	295.94
611.54	292.94
611.748	312.94
611.955	309.94
612.163	292.94
612.371	310.94
612.579	317.94
612.787	315.94
612.995	294.94
613.203	300.94
613.411	306.94
613.618	309.94
613.826	301.94
614.034	303.94
614.242	293.94
614.449	296.94
614.657	292.94
614.865	297.94
615.072	294.94
615.28	290.94
615.488	287.94
615.695	310.94
615.903	320.94
616.111	305.94
616.318	297.94
616.526	294.94
616.733	292.94
616.941	302.94
617.148	291.94
617.356	300.94
617.563	319.94
617.771	290.94
617.978	312.94
618.185	294.94
618.393	285.94
618.6	319.94
618.807	305.94
619.015	288.94
619.222	294.94
619.429	297.94
619.637	299.94
619.844	278.94
620.051	282.94
620.258	289.94
620.466	266.94
620.673	271.94
620.88	282.94
621.087	264.94
621.294	282.94
621.501	289.94
621.708	260.94
621.915	273.94
622.122	282.94
622.329	268.94
622.536	279.94
622.743	268.94
622.95	278.94
623.157	262.94
623.364	267.94
623.571	281.94
623.778	273.94
623.985	262.94
624.192	251.94
624.399	260.94
624.606	262.94
624.812	259.94
625.019	276.94
625.226	257.94
625.433	257.94
625.639	243.94
625.846	245.94
626.053	259.94
626.259	237.94
626.466	233.94
626.673	264.94
626.879	246.94
627.086	255.94
627.293	258.94
627.499	234.94
627.706	242.94
627.912	246.94
628.119	235.94
628.325	224.94
628.532	253.94
628.738	250.94
628.945	244.94
629.151	260.94
629.357	235.94
629.564	235.94
629.77	248.94
629.976	224.94
630.183	226.94
630.389	215.94
630.595	224.94
630.802	228.94
631.008	229.94
631.214	234.94
631.42	218.94
631.627	239.94
631.833	208.94
632.039	210.94
632.245	223.94
632.451	239.94
632.657	224.94
632.863	232.94
633.069	230.94
633.275	230.94
633.481	212.94
633.688	218.94
633.893	231.94
634.099	206.94
634.305	227.94
634.511	226.94
634.717	202.94
634.923	231.94
635.129	201.94
635.335	217.94
635.541	222.94
635.747	202.94
635.952	219.94
636.158	206.94
636.364	203.94
636.57	212.94
636.775	212.94
636.981	216.94
637.187	238.94
637.392	207.94
637.598	209.94
637.804	200.94
638.009	209.94
638.215	222.94
638.421	203.94
638.626	208.94
638.832	192.94
639.037	190.94
639.243	213.94
639.448	217.94
639.654	210.94
639.859	213.94
640.065	198.94
640.27	218.94
640.475	206.94
640.681	212.94
640.886	198.94
641.091	200.94
641.297	199.94
641.502	189.94
641.707	209.94
641.913	200.94
642.118	194.94
642.323	199.94
642.528	204.94
642.733	188.94
642.939	204.94
643.144	193.94
643.349	190.94
643.554	207.94
643.759	194.94
643.964	195.94
644.169	202.94
644.374	190.94
644.579	186.94
644.784	188.94
644.989	181.94
645.194	189.94
645.399	186.94
645.604	188.94
645.809	201.94
646.014	184.94
646.219	190.94
646.423	182.94
646.628	193.94
646.833	179.94
647.038	193.94
647.243	196.94
647.447	212.94
647.652	201.94
647.857	208.94
648.062	212.94
648.266	222.94
648.471	226.94
648.676	213.94
648.88	186.94
649.085	194.94
649.289	192.94
649.494	210.94
649.698	198.94
649.903	201.94
650.107	203.94
650.312	209.94
650.516	188.94
650.721	184.94
650.925	198.94
651.13	184.94
651.334	158.94
651.539	182.94
651.743	174.94
651.947	162.94
652.152	179.94
652.356	164.94
652.56	166.94
652.764	172.94
652.969	160.94
653.173	160.94
653.377	167.94
653.581	153.94
653.785	148.94
653.99	174.94
654.194	153.94
654.398	152.94
654.602	154.94
654.806	147.94
655.01	143.94
655.214	151.94
655.418	146.94
655.622	151.94
655.826	154.94
656.03	150.94
656.234	154.94
656.438	141.94
656.642	138.94
656.846	142.94
657.049	134.94
657.253	137.94
657.457	123.94
657.661	109.94
657.865	133.94
658.068	128.94
658.272	120.94
658.476	116.94
658.68	103.94
658.883	99.94
659.087	119.94
659.291	109.94
659.494	103.94
659.698	122.94
659.901	106.94
660.105	109.94
660.309	107.94
660.512	106.94
660.716	110.94
660.919	89.94
661.123	99.94
661.326	106.94
661.53	96.94
661.733	106.94
661.936	90.94
662.14	89.94
662.343	100.94
662.546	105.94
662.75	102.94
662.953	98.94
663.156	108.94
663.36	114.94
663.563	84.94
663.766	93.94
663.969	79.94
664.173	75.94
664.376	84.94
664.579	83.94
664.782	89.94
664.985	84.94
665.188	101.94
665.391	76.94
665.594	73.94
665.797	86.94
666	93.94
666.203	103.94
666.406	81.94
666.609	79.94
666.812	76.94
667.015	95.94
667.218	95.94
667.421	69.94
667.624	74.94
667.827	93.94
668.03	80.94
668.232	90.94
668.435	84.94
668.638	91.94
668.841	89.94
669.043	77.94
669.246	77.94
669.449	80.94
669.651	79.94
669.854	83.94
670.057	89.94
670.259	88.94
670.462	82.94
670.665	92.94
670.867	82.94
671.07	80.94
671.272	87.94
671.475	97.94
671.677	102.94
671.88	94.94
672.082	91.94
672.284	77.94
672.487	78.94
672.689	83.94
672.892	87.94
