Data from Ni(NO3)2@0.5M.TitratingCurve.Agarose3%dH2O.NegLispCup.LampEnergy10.LIBS07252019_HRD10591_17-57-50-564.txt Node
Date: Thu Jul 25 17:57:50 EDT 2019
User: cochatt
Spectrometer: HR+D1059
Trigger mode: 1
Integration Time (sec): 1.000000E-1
Scans to average: 1
Electric dark correction enabled: true
Nonlinearity correction enabled: false
Boxcar width: 0
XAxis mode: Wavelengths
Number of Pixels in Spectrum: 2048
>>>>>Begin Spectral Data<<<<<
223.165	-10.56
223.4	-10.56
223.635	-10.56
223.869	2.44
224.104	-23.56
224.338	-8.56
224.573	-21.56
224.808	-12.56
225.042	-7.56
225.277	-12.56
225.511	-8.56
225.746	5.44
225.98	4.44
226.215	7.44
226.449	18.44
226.683	17.44
226.918	16.44
227.152	33.44
227.387	32.44
227.621	39.44
227.856	42.44
228.09	52.44
228.324	55.44
228.559	64.44
228.793	72.44
229.027	143.44
229.262	158.44
229.496	157.44
229.73	157.44
229.964	192.44
230.199	219.44
230.433	226.44
230.667	215.44
230.901	212.44
231.136	191.44
231.37	172.44
231.604	183.44
231.838	227.44
232.072	223.44
232.306	219.44
232.541	206.44
232.775	192.44
233.009	165.44
233.243	180.44
233.477	172.44
233.711	172.44
233.945	182.44
234.179	195.44
234.413	173.44
234.647	201.44
234.881	204.44
235.115	186.44
235.349	185.44
235.583	171.44
235.817	171.44
236.051	176.44
236.285	189.44
236.519	173.44
236.753	179.44
236.987	191.44
237.221	182.44
237.455	186.44
237.689	192.44
237.922	211.44
238.156	192.44
238.39	201.44
238.624	192.44
238.858	185.44
239.091	211.44
239.325	198.44
239.559	225.44
239.793	263.44
240.027	259.44
240.26	222.44
240.494	193.44
240.728	201.44
240.961	217.44
241.195	211.44
241.429	219.44
241.662	237.44
241.896	257.44
242.13	292.44
242.363	241.44
242.597	232.44
242.83	234.44
243.064	233.44
243.298	242.44
243.531	231.44
243.765	243.44
243.998	247.44
244.232	272.44
244.465	246.44
244.699	239.44
244.932	268.44
245.166	241.44
245.399	247.44
245.633	260.44
245.866	273.44
246.099	254.44
246.333	253.44
246.566	239.44
246.8	263.44
247.033	260.44
247.266	284.44
247.5	267.44
247.733	294.44
247.966	274.44
248.2	287.44
248.433	290.44
248.666	276.44
248.899	292.44
249.133	306.44
249.366	303.44
249.599	304.44
249.832	310.44
250.066	301.44
250.299	321.44
250.532	327.44
250.765	352.44
250.998	354.44
251.231	372.44
251.465	385.44
251.698	374.44
251.931	348.44
252.164	351.44
252.397	364.44
252.63	365.44
252.863	340.44
253.096	354.44
253.329	349.44
253.562	341.44
253.795	374.44
254.028	379.44
254.261	362.44
254.494	355.44
254.727	391.44
254.96	416.44
255.193	389.44
255.426	400.44
255.659	393.44
255.892	420.44
256.124	405.44
256.357	408.44
256.59	423.44
256.823	397.44
257.056	404.44
257.289	426.44
257.521	426.44
257.754	421.44
257.987	435.44
258.22	438.44
258.452	422.44
258.685	418.44
258.918	437.44
259.151	442.44
259.383	460.44
259.616	445.44
259.849	443.44
260.081	452.44
260.314	460.44
260.547	471.44
260.779	456.44
261.012	478.44
261.244	465.44
261.477	477.44
261.71	494.44
261.942	488.44
262.175	477.44
262.407	503.44
262.64	476.44
262.872	497.44
263.105	481.44
263.337	512.44
263.57	497.44
263.802	519.44
264.035	520.44
264.267	508.44
264.499	497.44
264.732	529.44
264.964	513.44
265.197	518.44
265.429	521.44
265.661	538.44
265.894	533.44
266.126	553.44
266.358	511.44
266.591	535.44
266.823	528.44
267.055	522.44
267.287	524.44
267.52	551.44
267.752	527.44
267.984	513.44
268.216	550.44
268.448	550.44
268.681	538.44
268.913	555.44
269.145	563.44
269.377	567.44
269.609	550.44
269.841	547.44
270.073	567.44
270.306	575.44
270.538	566.44
270.77	540.44
271.002	556.44
271.234	581.44
271.466	581.44
271.698	569.44
271.93	604.44
272.162	594.44
272.394	600.44
272.626	584.44
272.858	559.44
273.09	583.44
273.322	602.44
273.553	608.44
273.785	604.44
274.017	603.44
274.249	613.44
274.481	605.44
274.713	642.44
274.945	625.44
275.176	585.44
275.408	590.44
275.64	616.44
275.872	627.44
276.104	635.44
276.335	629.44
276.567	624.44
276.799	627.44
277.031	635.44
277.262	634.44
277.494	623.44
277.726	631.44
277.957	648.44
278.189	664.44
278.421	649.44
278.652	669.44
278.884	662.44
279.115	639.44
279.347	646.44
279.579	612.44
279.81	657.44
280.042	651.44
280.273	663.44
280.505	675.44
280.736	666.44
280.968	664.44
281.199	651.44
281.431	661.44
281.662	656.44
281.894	676.44
282.125	634.44
282.356	680.44
282.588	650.44
282.819	700.44
283.051	698.44
283.282	657.44
283.513	677.44
283.745	670.44
283.976	689.44
284.207	655.44
284.439	696.44
284.67	677.44
284.901	699.44
285.132	669.44
285.364	693.44
285.595	673.44
285.826	704.44
286.057	703.44
286.288	695.44
286.52	710.44
286.751	709.44
286.982	699.44
287.213	710.44
287.444	689.44
287.675	707.44
287.906	701.44
288.138	737.44
288.369	704.44
288.6	684.44
288.831	724.44
289.062	683.44
289.293	714.44
289.524	714.44
289.755	705.44
289.986	720.44
290.217	713.44
290.448	717.44
290.679	705.44
290.91	719.44
291.141	705.44
291.371	705.44
291.602	717.44
291.833	733.44
292.064	723.44
292.295	733.44
292.526	741.44
292.757	727.44
292.987	714.44
293.218	722.44
293.449	709.44
293.68	737.44
293.91	724.44
294.141	715.44
294.372	724.44
294.603	731.44
294.833	741.44
295.064	751.44
295.295	727.44
295.525	760.44
295.756	735.44
295.987	736.44
296.217	731.44
296.448	731.44
296.679	739.44
296.909	727.44
297.14	732.44
297.37	754.44
297.601	769.44
297.831	746.44
298.062	746.44
298.292	757.44
298.523	771.44
298.753	772.44
298.984	735.44
299.214	753.44
299.445	769.44
299.675	760.44
299.905	775.44
300.136	771.44
300.366	809.44
300.597	805.44
300.827	789.44
301.057	795.44
301.288	803.44
301.518	816.44
301.748	785.44
301.979	804.44
302.209	802.44
302.439	781.44
302.669	782.44
302.9	805.44
303.13	795.44
303.36	819.44
303.59	782.44
303.82	841.44
304.051	824.44
304.281	834.44
304.511	823.44
304.741	834.44
304.971	840.44
305.201	877.44
305.431	889.44
305.661	868.44
305.891	851.44
306.121	828.44
306.352	847.44
306.582	849.44
306.812	829.44
307.042	830.44
307.272	828.44
307.502	875.44
307.731	859.44
307.961	844.44
308.191	835.44
308.421	852.44
308.651	874.44
308.881	839.44
309.111	858.44
309.341	857.44
309.571	864.44
309.8	875.44
310.03	921.44
310.26	937.44
310.49	924.44
310.72	887.44
310.949	869.44
311.179	889.44
311.409	872.44
311.639	891.44
311.868	888.44
312.098	892.44
312.328	921.44
312.557	905.44
312.787	910.44
313.017	945.44
313.246	955.44
313.476	954.44
313.706	961.44
313.935	923.44
314.165	913.44
314.394	930.44
314.624	930.44
314.853	952.44
315.083	954.44
315.312	949.44
315.542	930.44
315.771	977.44
316.001	949.44
316.23	964.44
316.46	963.44
316.689	986.44
316.919	984.44
317.148	1005.44
317.377	998.44
317.607	969.44
317.836	981.44
318.065	1005.44
318.295	1021.44
318.524	1043.44
318.753	1045.44
318.983	1008.44
319.212	1037.44
319.441	1030.44
319.67	1032.44
319.9	1069.44
320.129	1064.44
320.358	1044.44
320.587	1049.44
320.816	1068.44
321.046	1072.44
321.275	1087.44
321.504	1068.44
321.733	1100.44
321.962	1104.44
322.191	1124.44
322.42	1073.44
322.649	1113.44
322.878	1092.44
323.108	1097.44
323.337	1154.44
323.566	1147.44
323.795	1112.44
324.024	1146.44
324.253	1137.44
324.482	1123.44
324.71	1155.44
324.939	1150.44
325.168	1149.44
325.397	1128.44
325.626	1117.44
325.855	1132.44
326.084	1155.44
326.313	1179.44
326.542	1168.44
326.77	1180.44
326.999	1176.44
327.228	1168.44
327.457	1178.44
327.686	1168.44
327.914	1189.44
328.143	1173.44
328.372	1204.44
328.6	1216.44
328.829	1184.44
329.058	1184.44
329.287	1189.44
329.515	1221.44
329.744	1216.44
329.972	1257.44
330.201	1211.44
330.43	1209.44
330.658	1209.44
330.887	1223.44
331.115	1208.44
331.344	1257.44
331.572	1232.44
331.801	1253.44
332.03	1274.44
332.258	1252.44
332.486	1235.44
332.715	1260.44
332.943	1241.44
333.172	1266.44
333.4	1253.44
333.629	1260.44
333.857	1270.44
334.085	1293.44
334.314	1288.44
334.542	1275.44
334.771	1308.44
334.999	1261.44
335.227	1303.44
335.455	1320.44
335.684	1284.44
335.912	1332.44
336.14	1343.44
336.369	1270.44
336.597	1337.44
336.825	1363.44
337.053	1353.44
337.281	1392.44
337.51	1355.44
337.738	1337.44
337.966	1345.44
338.194	1390.44
338.422	1308.44
338.65	1292.44
338.878	1331.44
339.106	1309.44
339.334	1355.44
339.562	1346.44
339.79	1293.44
340.018	1266.44
340.246	1285.44
340.474	1297.44
340.702	1347.44
340.93	1318.44
341.158	1305.44
341.386	1350.44
341.614	1364.44
341.842	1338.44
342.07	1329.44
342.298	1304.44
342.526	1309.44
342.754	1282.44
342.981	1284.44
343.209	1293.44
343.437	1295.44
343.665	1334.44
343.893	1308.44
344.12	1295.44
344.348	1324.44
344.576	1343.44
344.804	1343.44
345.031	1293.44
345.259	1311.44
345.487	1301.44
345.714	1316.44
345.942	1340.44
346.17	1370.44
346.397	1353.44
346.625	1276.44
346.853	1270.44
347.08	1272.44
347.308	1299.44
347.535	1303.44
347.763	1268.44
347.99	1301.44
348.218	1277.44
348.445	1316.44
348.673	1275.44
348.9	1261.44
349.128	1286.44
349.355	1297.44
349.583	1291.44
349.81	1255.44
350.037	1256.44
350.265	1255.44
350.492	1268.44
350.72	1276.44
350.947	1286.44
351.174	1270.44
351.402	1314.44
351.629	1363.44
351.856	1314.44
352.083	1278.44
352.311	1290.44
352.538	1343.44
352.765	1331.44
352.992	1251.44
353.22	1233.44
353.447	1237.44
353.674	1204.44
353.901	1239.44
354.128	1252.44
354.355	1236.44
354.583	1254.44
354.81	1257.44
355.037	1232.44
355.264	1229.44
355.491	1276.44
355.718	1257.44
355.945	1262.44
356.172	1257.44
356.399	1271.44
356.626	1309.44
356.853	1355.44
357.08	1297.44
357.307	1255.44
357.534	1229.44
357.761	1269.44
357.988	1288.44
358.215	1249.44
358.441	1280.44
358.668	1250.44
358.895	1253.44
359.122	1256.44
359.349	1266.44
359.576	1264.44
359.802	1265.44
360.029	1260.44
360.256	1241.44
360.483	1258.44
360.709	1246.44
360.936	1258.44
361.163	1300.44
361.39	1271.44
361.616	1285.44
361.843	1311.44
362.07	1374.44
362.296	1323.44
362.523	1247.44
362.749	1266.44
362.976	1256.44
363.203	1269.44
363.429	1249.44
363.656	1272.44
363.882	1252.44
364.109	1274.44
364.335	1265.44
364.562	1265.44
364.788	1277.44
365.015	1285.44
365.241	1285.44
365.468	1302.44
365.694	1271.44
365.92	1271.44
366.147	1273.44
366.373	1295.44
366.599	1246.44
366.826	1277.44
367.052	1263.44
367.278	1295.44
367.505	1274.44
367.731	1253.44
367.957	1279.44
368.184	1277.44
368.41	1277.44
368.636	1288.44
368.862	1287.44
369.089	1293.44
369.315	1285.44
369.541	1284.44
369.767	1279.44
369.993	1282.44
370.219	1277.44
370.445	1307.44
370.672	1301.44
370.898	1303.44
371.124	1299.44
371.35	1290.44
371.576	1299.44
371.802	1304.44
372.028	1272.44
372.254	1290.44
372.48	1301.44
372.706	1313.44
372.932	1308.44
373.158	1266.44
373.384	1307.44
373.61	1321.44
373.835	1311.44
374.061	1253.44
374.287	1312.44
374.513	1285.44
374.739	1258.44
374.965	1276.44
375.191	1315.44
375.416	1294.44
375.642	1304.44
375.868	1282.44
376.094	1271.44
376.319	1260.44
376.545	1261.44
376.771	1274.44
376.997	1247.44
377.222	1249.44
377.448	1229.44
377.674	1254.44
377.899	1236.44
378.125	1224.44
378.35	1251.44
378.576	1279.44
378.802	1252.44
379.027	1243.44
379.253	1282.44
379.478	1238.44
379.704	1239.44
379.929	1252.44
380.155	1244.44
380.38	1243.44
380.606	1215.44
380.831	1260.44
381.057	1235.44
381.282	1236.44
381.507	1220.44
381.733	1225.44
381.958	1258.44
382.184	1283.44
382.409	1290.44
382.634	1266.44
382.86	1252.44
383.085	1284.44
383.31	1283.44
383.535	1268.44
383.761	1282.44
383.986	1273.44
384.211	1289.44
384.436	1276.44
384.662	1273.44
384.887	1281.44
385.112	1314.44
385.337	1312.44
385.562	1287.44
385.787	1308.44
386.013	1354.44
386.238	1316.44
386.463	1314.44
386.688	1301.44
386.913	1284.44
387.138	1331.44
387.363	1325.44
387.588	1308.44
387.813	1299.44
388.038	1319.44
388.263	1312.44
388.488	1314.44
388.713	1308.44
388.938	1339.44
389.163	1321.44
389.387	1381.44
389.612	1306.44
389.837	1319.44
390.062	1320.44
390.287	1328.44
390.512	1324.44
390.736	1300.44
390.961	1297.44
391.186	1303.44
391.411	1305.44
391.636	1317.44
391.86	1336.44
392.085	1336.44
392.31	1292.44
392.534	1349.44
392.759	1324.44
392.984	1306.44
393.208	1335.44
393.433	1345.44
393.658	1349.44
393.882	1330.44
394.107	1337.44
394.331	1337.44
394.556	1319.44
394.78	1305.44
395.005	1301.44
395.229	1283.44
395.454	1336.44
395.678	1341.44
395.903	1338.44
396.127	1323.44
396.352	1344.44
396.576	1339.44
396.801	1368.44
397.025	1354.44
397.249	1383.44
397.474	1354.44
397.698	1342.44
397.922	1363.44
398.147	1349.44
398.371	1358.44
398.595	1397.44
398.82	1376.44
399.044	1411.44
399.268	1387.44
399.492	1419.44
399.717	1423.44
399.941	1448.44
400.165	1417.44
400.389	1435.44
400.613	1462.44
400.837	1419.44
401.062	1394.44
401.286	1395.44
401.51	1410.44
401.734	1400.44
401.958	1406.44
402.182	1398.44
402.406	1415.44
402.63	1423.44
402.854	1422.44
403.078	1411.44
403.302	1417.44
403.526	1398.44
403.75	1399.44
403.974	1414.44
404.198	1406.44
404.422	1404.44
404.645	1395.44
404.869	1376.44
405.093	1395.44
405.317	1403.44
405.541	1423.44
405.765	1427.44
405.988	1415.44
406.212	1432.44
406.436	1466.44
406.66	1467.44
406.883	1456.44
407.107	1487.44
407.331	1477.44
407.555	1491.44
407.778	1475.44
408.002	1475.44
408.226	1484.44
408.449	1504.44
408.673	1469.44
408.896	1487.44
409.12	1473.44
409.344	1502.44
409.567	1450.44
409.791	1436.44
410.014	1462.44
410.238	1463.44
410.461	1480.44
410.685	1460.44
410.908	1463.44
411.132	1490.44
411.355	1431.44
411.578	1398.44
411.802	1420.44
412.025	1416.44
412.249	1444.44
412.472	1425.44
412.695	1411.44
412.919	1419.44
413.142	1463.44
413.365	1434.44
413.589	1435.44
413.812	1441.44
414.035	1384.44
414.258	1433.44
414.482	1390.44
414.705	1401.44
414.928	1382.44
415.151	1413.44
415.374	1393.44
415.597	1407.44
415.821	1387.44
416.044	1395.44
416.267	1381.44
416.49	1403.44
416.713	1372.44
416.936	1375.44
417.159	1407.44
417.382	1384.44
417.605	1369.44
417.828	1353.44
418.051	1377.44
418.274	1361.44
418.497	1323.44
418.72	1386.44
418.943	1315.44
419.166	1419.44
419.389	1469.44
419.611	1485.44
419.834	1408.44
420.057	1407.44
420.28	1373.44
420.503	1347.44
420.726	1365.44
420.948	1321.44
421.171	1393.44
421.394	1390.44
421.617	1365.44
421.839	1371.44
422.062	1370.44
422.285	1355.44
422.507	1348.44
422.73	1385.44
422.953	1379.44
423.175	1375.44
423.398	1352.44
423.621	1337.44
423.843	1384.44
424.066	1361.44
424.288	1355.44
424.511	1363.44
424.733	1360.44
424.956	1384.44
425.178	1394.44
425.401	1380.44
425.623	1395.44
425.846	1381.44
426.068	1358.44
426.291	1381.44
426.513	1380.44
426.735	1395.44
426.958	1403.44
427.18	1380.44
427.402	1368.44
427.625	1398.44
427.847	1383.44
428.069	1349.44
428.292	1399.44
428.514	1340.44
428.736	1375.44
428.958	1409.44
429.181	1349.44
429.403	1369.44
429.625	1391.44
429.847	1401.44
430.069	1361.44
430.292	1361.44
430.514	1369.44
430.736	1383.44
430.958	1412.44
431.18	1387.44
431.402	1341.44
431.624	1356.44
431.846	1333.44
432.068	1361.44
432.29	1395.44
432.512	1377.44
432.734	1380.44
432.956	1383.44
433.178	1401.44
433.4	1391.44
433.622	1450.44
433.844	1417.44
434.066	1435.44
434.287	1384.44
434.509	1382.44
434.731	1413.44
434.953	1395.44
435.175	1431.44
435.397	1480.44
435.618	1419.44
435.84	1406.44
436.062	1398.44
436.284	1389.44
436.505	1387.44
436.727	1392.44
436.949	1399.44
437.17	1401.44
437.392	1411.44
437.614	1370.44
437.835	1347.44
438.057	1348.44
438.278	1323.44
438.5	1324.44
438.721	1347.44
438.943	1379.44
439.165	1348.44
439.386	1385.44
439.608	1336.44
439.829	1393.44
440.05	1357.44
440.272	1389.44
440.493	1398.44
440.715	1407.44
440.936	1398.44
441.158	1380.44
441.379	1382.44
441.6	1424.44
441.822	1432.44
442.043	1397.44
442.264	1371.44
442.486	1359.44
442.707	1395.44
442.928	1388.44
443.149	1431.44
443.371	1429.44
443.592	1466.44
443.813	1465.44
444.034	1400.44
444.255	1411.44
444.476	1448.44
444.698	1405.44
444.919	1458.44
445.14	1592.44
445.361	1498.44
445.582	1440.44
445.803	1396.44
446.024	1379.44
446.245	1388.44
446.466	1354.44
446.687	1339.44
446.908	1341.44
447.129	1335.44
447.35	1324.44
447.571	1321.44
447.792	1322.44
448.013	1320.44
448.234	1309.44
448.455	1319.44
448.675	1271.44
448.896	1292.44
449.117	1267.44
449.338	1331.44
449.559	1292.44
449.779	1249.44
450	1291.44
450.221	1271.44
450.442	1309.44
450.662	1242.44
450.883	1298.44
451.104	1313.44
451.324	1294.44
451.545	1312.44
451.766	1284.44
451.986	1258.44
452.207	1265.44
452.428	1231.44
452.648	1275.44
452.869	1249.44
453.089	1291.44
453.31	1322.44
453.53	1285.44
453.751	1254.44
453.971	1272.44
454.192	1292.44
454.412	1306.44
454.633	1264.44
454.853	1277.44
455.073	1252.44
455.294	1267.44
455.514	1271.44
455.734	1292.44
455.955	1314.44
456.175	1344.44
456.395	1256.44
456.616	1226.44
456.836	1226.44
457.056	1249.44
457.276	1237.44
457.497	1314.44
457.717	1319.44
457.937	1289.44
458.157	1287.44
458.377	1271.44
458.598	1251.44
458.818	1270.44
459.038	1313.44
459.258	1311.44
459.478	1370.44
459.698	1448.44
459.918	1447.44
460.138	1397.44
460.358	1408.44
460.578	1376.44
460.798	1420.44
461.018	1434.44
461.238	1367.44
461.458	1331.44
461.678	1361.44
461.898	1379.44
462.118	1339.44
462.338	1371.44
462.558	1437.44
462.777	1487.44
462.997	1461.44
463.217	1456.44
463.437	1503.44
463.657	1489.44
463.876	1404.44
464.096	1423.44
464.316	1414.44
464.536	1431.44
464.755	1373.44
464.975	1409.44
465.195	1380.44
465.414	1374.44
465.634	1375.44
465.854	1340.44
466.073	1359.44
466.293	1340.44
466.512	1317.44
466.732	1352.44
466.951	1331.44
467.171	1329.44
467.391	1353.44
467.61	1355.44
467.829	1334.44
468.049	1353.44
468.268	1324.44
468.488	1324.44
468.707	1323.44
468.927	1332.44
469.146	1329.44
469.365	1379.44
469.585	1314.44
469.804	1340.44
470.023	1331.44
470.243	1292.44
470.462	1301.44
470.681	1354.44
470.901	1363.44
471.12	1372.44
471.339	1352.44
471.558	1345.44
471.777	1366.44
471.997	1369.44
472.216	1333.44
472.435	1324.44
472.654	1315.44
472.873	1353.44
473.092	1356.44
473.311	1379.44
473.53	1315.44
473.749	1385.44
473.968	1393.44
474.187	1369.44
474.406	1371.44
474.625	1401.44
474.844	1374.44
475.063	1407.44
475.282	1399.44
475.501	1419.44
475.72	1433.44
475.939	1401.44
476.158	1432.44
476.377	1457.44
476.596	1427.44
476.814	1430.44
477.033	1445.44
477.252	1441.44
477.471	1461.44
477.69	1480.44
477.908	1460.44
478.127	1491.44
478.346	1495.44
478.564	1553.44
478.783	1549.44
479.002	1607.44
479.22	1670.44
479.439	1619.44
479.658	1586.44
479.876	1577.44
480.095	1601.44
480.313	1573.44
480.532	1542.44
480.751	1576.44
480.969	1586.44
481.188	1571.44
481.406	1595.44
481.624	1546.44
481.843	1552.44
482.061	1572.44
482.28	1613.44
482.498	1585.44
482.717	1596.44
482.935	1631.44
483.153	1674.44
483.372	1675.44
483.59	1760.44
483.808	1691.44
484.027	1627.44
484.245	1616.44
484.463	1617.44
484.681	1633.44
484.9	1660.44
485.118	1648.44
485.336	1641.44
485.554	1675.44
485.772	1692.44
485.99	1667.44
486.209	1629.44
486.427	1665.44
486.645	1657.44
486.863	1668.44
487.081	1672.44
487.299	1680.44
487.517	1718.44
487.735	1708.44
487.953	1761.44
488.171	1743.44
488.389	1679.44
488.607	1698.44
488.825	1701.44
489.043	1684.44
489.261	1664.44
489.479	1661.44
489.696	1655.44
489.914	1697.44
490.132	1676.44
490.35	1709.44
490.568	1713.44
490.786	1736.44
491.003	1736.44
491.221	1735.44
491.439	1723.44
491.657	1752.44
491.874	1728.44
492.092	1760.44
492.31	1760.44
492.527	1733.44
492.745	1693.44
492.963	1706.44
493.18	1726.44
493.398	1717.44
493.615	1755.44
493.833	1726.44
494.05	1764.44
494.268	1749.44
494.485	1765.44
494.703	1740.44
494.92	1755.44
495.138	1747.44
495.355	1746.44
495.573	1714.44
495.79	1735.44
496.008	1765.44
496.225	1755.44
496.442	1756.44
496.66	1763.44
496.877	1814.44
497.094	1753.44
497.312	1796.44
497.529	1793.44
497.746	1796.44
497.963	1840.44
498.181	1845.44
498.398	1889.44
498.615	1868.44
498.832	1846.44
499.049	1893.44
499.267	1894.44
499.484	1950.44
499.701	1938.44
499.918	1942.44
500.135	1996.44
500.352	2014.44
500.569	1969.44
500.786	2010.44
501.003	1976.44
501.22	2003.44
501.437	1979.44
501.654	1902.44
501.871	1932.44
502.088	1944.44
502.305	1919.44
502.522	1932.44
502.739	1909.44
502.956	1819.44
503.172	1785.44
503.389	1771.44
503.606	1794.44
503.823	1760.44
504.04	1745.44
504.256	1681.44
504.473	1728.44
504.69	1690.44
504.907	1665.44
505.123	1696.44
505.34	1691.44
505.557	1651.44
505.773	1626.44
505.99	1645.44
506.207	1621.44
506.423	1572.44
506.64	1564.44
506.856	1615.44
507.073	1600.44
507.289	1574.44
507.506	1592.44
507.722	1587.44
507.939	1583.44
508.155	1552.44
508.372	1584.44
508.588	1532.44
508.805	1523.44
509.021	1479.44
509.238	1501.44
509.454	1555.44
509.67	1511.44
509.887	1466.44
510.103	1488.44
510.319	1485.44
510.536	1477.44
510.752	1453.44
510.968	1505.44
511.184	1453.44
511.401	1456.44
511.617	1441.44
511.833	1439.44
512.049	1444.44
512.265	1442.44
512.481	1451.44
512.698	1456.44
512.914	1421.44
513.13	1429.44
513.346	1469.44
513.562	1459.44
513.778	1485.44
513.994	1446.44
514.21	1452.44
514.426	1407.44
514.642	1406.44
514.858	1450.44
515.074	1439.44
515.29	1443.44
515.506	1457.44
515.721	1447.44
515.937	1448.44
516.153	1474.44
516.369	1440.44
516.585	1445.44
516.801	1440.44
517.016	1444.44
517.232	1446.44
517.448	1453.44
517.664	1471.44
517.879	1432.44
518.095	1470.44
518.311	1476.44
518.527	1455.44
518.742	1425.44
518.958	1439.44
519.173	1429.44
519.389	1424.44
519.605	1419.44
519.82	1419.44
520.036	1414.44
520.251	1408.44
520.467	1400.44
520.682	1357.44
520.898	1371.44
521.113	1341.44
521.329	1376.44
521.544	1363.44
521.76	1333.44
521.975	1372.44
522.19	1353.44
522.406	1360.44
522.621	1324.44
522.836	1334.44
523.052	1353.44
523.267	1364.44
523.482	1337.44
523.698	1352.44
523.913	1317.44
524.128	1307.44
524.343	1330.44
524.559	1322.44
524.774	1307.44
524.989	1330.44
525.204	1299.44
525.419	1332.44
525.634	1336.44
525.849	1327.44
526.064	1337.44
526.28	1302.44
526.495	1292.44
526.71	1264.44
526.925	1268.44
527.14	1282.44
527.355	1271.44
527.57	1319.44
527.785	1303.44
527.999	1303.44
528.214	1253.44
528.429	1299.44
528.644	1264.44
528.859	1260.44
529.074	1268.44
529.289	1301.44
529.503	1283.44
529.718	1268.44
529.933	1263.44
530.148	1257.44
530.363	1269.44
530.577	1208.44
530.792	1247.44
531.007	1279.44
531.221	1232.44
531.436	1235.44
531.651	1223.44
531.865	1223.44
532.08	1229.44
532.295	1229.44
532.509	1237.44
532.724	1221.44
532.938	1250.44
533.153	1216.44
533.367	1237.44
533.582	1210.44
533.796	1243.44
534.011	1218.44
534.225	1216.44
534.44	1199.44
534.654	1230.44
534.868	1164.44
535.083	1182.44
535.297	1202.44
535.511	1201.44
535.726	1184.44
535.94	1186.44
536.154	1161.44
536.369	1153.44
536.583	1161.44
536.797	1162.44
537.011	1172.44
537.225	1172.44
537.44	1180.44
537.654	1145.44
537.868	1141.44
538.082	1131.44
538.296	1140.44
538.51	1158.44
538.724	1153.44
538.938	1129.44
539.153	1163.44
539.367	1145.44
539.581	1122.44
539.795	1128.44
540.009	1123.44
540.222	1115.44
540.436	1105.44
540.65	1140.44
540.864	1129.44
541.078	1148.44
541.292	1154.44
541.506	1144.44
541.72	1153.44
541.934	1142.44
542.147	1152.44
542.361	1139.44
542.575	1116.44
542.789	1109.44
543.002	1093.44
543.216	1094.44
543.43	1077.44
543.644	1109.44
543.857	1093.44
544.071	1094.44
544.285	1122.44
544.498	1106.44
544.712	1093.44
544.925	1092.44
545.139	1089.44
545.352	1113.44
545.566	1119.44
545.779	1095.44
545.993	1080.44
546.206	1110.44
546.42	1089.44
546.633	1094.44
546.847	1098.44
547.06	1093.44
547.274	1100.44
547.487	1097.44
547.7	1127.44
547.914	1126.44
548.127	1068.44
548.34	1084.44
548.554	1092.44
548.767	1074.44
548.98	1054.44
549.193	1064.44
549.407	1053.44
549.62	1068.44
549.833	1060.44
550.046	1068.44
550.259	1034.44
550.473	1040.44
550.686	1071.44
550.899	1047.44
551.112	1007.44
551.325	1049.44
551.538	1025.44
551.751	1042.44
551.964	1041.44
552.177	1032.44
552.39	1004.44
552.603	1041.44
552.816	1020.44
553.029	1033.44
553.242	1048.44
553.455	1019.44
553.667	988.44
553.88	1038.44
554.093	1002.44
554.306	993.44
554.519	964.44
554.732	983.44
554.944	1013.44
555.157	975.44
555.37	972.44
555.583	1004.44
555.795	985.44
556.008	1000.44
556.221	967.44
556.433	976.44
556.646	953.44
556.859	939.44
557.071	962.44
557.284	939.44
557.496	945.44
557.709	924.44
557.921	919.44
558.134	905.44
558.346	929.44
558.559	921.44
558.771	940.44
558.984	927.44
559.196	903.44
559.409	953.44
559.621	919.44
559.833	931.44
560.046	897.44
560.258	890.44
560.47	916.44
560.683	923.44
560.895	901.44
561.107	907.44
561.32	870.44
561.532	895.44
561.744	919.44
561.956	884.44
562.168	891.44
562.381	901.44
562.593	884.44
562.805	908.44
563.017	907.44
563.229	899.44
563.441	915.44
563.653	905.44
563.865	904.44
564.077	892.44
564.289	899.44
564.501	883.44
564.713	890.44
564.925	915.44
565.137	893.44
565.349	876.44
565.561	884.44
565.773	901.44
565.985	918.44
566.197	881.44
566.408	883.44
566.62	865.44
566.832	892.44
567.044	882.44
567.255	905.44
567.467	880.44
567.679	887.44
567.891	892.44
568.102	872.44
568.314	847.44
568.526	867.44
568.737	851.44
568.949	862.44
569.161	827.44
569.372	807.44
569.584	841.44
569.795	810.44
570.007	789.44
570.218	793.44
570.43	807.44
570.641	801.44
570.853	791.44
571.064	791.44
571.276	788.44
571.487	780.44
571.698	778.44
571.91	777.44
572.121	764.44
572.333	745.44
572.544	738.44
572.755	711.44
572.966	716.44
573.178	719.44
573.389	721.44
573.6	695.44
573.811	716.44
574.023	728.44
574.234	690.44
574.445	691.44
574.656	676.44
574.867	688.44
575.078	695.44
575.289	690.44
575.501	685.44
575.712	676.44
575.923	689.44
576.134	681.44
576.345	688.44
576.556	679.44
576.767	653.44
576.978	689.44
577.188	675.44
577.399	675.44
577.61	641.44
577.821	667.44
578.032	680.44
578.243	664.44
578.454	663.44
578.665	659.44
578.875	665.44
579.086	660.44
579.297	639.44
579.508	643.44
579.718	646.44
579.929	640.44
580.14	613.44
580.35	610.44
580.561	628.44
580.772	629.44
580.982	632.44
581.193	610.44
581.403	621.44
581.614	628.44
581.825	612.44
582.035	622.44
582.246	607.44
582.456	609.44
582.667	629.44
582.877	628.44
583.087	598.44
583.298	589.44
583.508	602.44
583.719	592.44
583.929	596.44
584.139	597.44
584.35	580.44
584.56	580.44
584.77	592.44
584.981	588.44
585.191	614.44
585.401	591.44
585.611	607.44
585.821	598.44
586.032	548.44
586.242	566.44
586.452	571.44
586.662	570.44
586.872	551.44
587.082	565.44
587.292	571.44
587.502	570.44
587.713	576.44
587.923	579.44
588.133	526.44
588.343	567.44
588.553	558.44
588.762	550.44
588.972	569.44
589.182	620.44
589.392	625.44
589.602	581.44
589.812	600.44
590.022	563.44
590.232	530.44
590.441	565.44
590.651	530.44
590.861	532.44
591.071	548.44
591.281	554.44
591.49	544.44
591.7	543.44
591.91	550.44
592.119	541.44
592.329	525.44
592.539	526.44
592.748	545.44
592.958	540.44
593.167	527.44
593.377	523.44
593.587	532.44
593.796	541.44
594.006	518.44
594.215	523.44
594.424	532.44
594.634	523.44
594.843	524.44
595.053	525.44
595.262	493.44
595.472	511.44
595.681	521.44
595.89	487.44
596.1	507.44
596.309	500.44
596.518	514.44
596.727	503.44
596.937	496.44
597.146	487.44
597.355	497.44
597.564	495.44
597.774	488.44
597.983	484.44
598.192	482.44
598.401	460.44
598.61	483.44
598.819	473.44
599.028	491.44
599.237	483.44
599.446	465.44
599.655	456.44
599.864	457.44
600.073	474.44
600.282	473.44
600.491	467.44
600.7	472.44
600.909	459.44
601.118	468.44
601.327	475.44
601.536	459.44
601.745	438.44
601.953	456.44
602.162	456.44
602.371	457.44
602.58	467.44
602.789	449.44
602.997	447.44
603.206	457.44
603.415	449.44
603.623	455.44
603.832	444.44
604.041	426.44
604.249	424.44
604.458	451.44
604.666	443.44
604.875	456.44
605.084	444.44
605.292	431.44
605.501	431.44
605.709	425.44
605.918	436.44
606.126	435.44
606.334	438.44
606.543	425.44
606.751	428.44
606.96	400.44
607.168	420.44
607.376	414.44
607.585	424.44
607.793	422.44
608.001	437.44
608.21	443.44
608.418	424.44
608.626	421.44
608.834	415.44
609.043	431.44
609.251	398.44
609.459	416.44
609.667	422.44
609.875	408.44
610.083	409.44
610.291	403.44
610.499	398.44
610.707	411.44
610.916	415.44
611.124	413.44
611.332	418.44
611.54	417.44
611.748	401.44
611.955	400.44
612.163	413.44
612.371	397.44
612.579	387.44
612.787	402.44
612.995	423.44
613.203	398.44
613.411	406.44
613.618	404.44
613.826	401.44
614.034	389.44
614.242	391.44
614.449	388.44
614.657	389.44
614.865	389.44
615.072	401.44
615.28	406.44
615.488	372.44
615.695	383.44
615.903	383.44
616.111	399.44
616.318	403.44
616.526	407.44
616.733	389.44
616.941	359.44
617.148	389.44
617.356	393.44
617.563	377.44
617.771	374.44
617.978	362.44
618.185	376.44
618.393	382.44
618.6	386.44
618.807	395.44
619.015	382.44
619.222	375.44
619.429	372.44
619.637	373.44
619.844	363.44
620.051	345.44
620.258	367.44
620.466	356.44
620.673	355.44
620.88	350.44
621.087	349.44
621.294	358.44
621.501	361.44
621.708	364.44
621.915	367.44
622.122	348.44
622.329	340.44
622.536	349.44
622.743	346.44
622.95	353.44
623.157	352.44
623.364	364.44
623.571	340.44
623.778	353.44
623.985	343.44
624.192	348.44
624.399	342.44
624.606	348.44
624.812	336.44
625.019	334.44
625.226	349.44
625.433	346.44
625.639	340.44
625.846	333.44
626.053	330.44
626.259	335.44
626.466	324.44
626.673	338.44
626.879	324.44
627.086	313.44
627.293	332.44
627.499	335.44
627.706	329.44
627.912	331.44
628.119	332.44
628.325	324.44
628.532	326.44
628.738	327.44
628.945	323.44
629.151	324.44
629.357	321.44
629.564	320.44
629.77	331.44
629.976	311.44
630.183	317.44
630.389	306.44
630.595	306.44
630.802	319.44
631.008	290.44
631.214	308.44
631.42	323.44
631.627	319.44
631.833	322.44
632.039	311.44
632.245	297.44
632.451	290.44
632.657	281.44
632.863	318.44
633.069	313.44
633.275	328.44
633.481	292.44
633.688	284.44
633.893	283.44
634.099	301.44
634.305	292.44
634.511	308.44
634.717	282.44
634.923	298.44
635.129	277.44
635.335	295.44
635.541	290.44
635.747	290.44
635.952	288.44
636.158	290.44
636.364	299.44
636.57	294.44
636.775	285.44
636.981	286.44
637.187	280.44
637.392	281.44
637.598	288.44
637.804	277.44
638.009	285.44
638.215	300.44
638.421	290.44
638.626	270.44
638.832	266.44
639.037	270.44
639.243	259.44
639.448	249.44
639.654	282.44
639.859	279.44
640.065	248.44
640.27	274.44
640.475	270.44
640.681	274.44
640.886	273.44
641.091	288.44
641.297	281.44
641.502	247.44
641.707	275.44
641.913	269.44
642.118	267.44
642.323	262.44
642.528	267.44
642.733	284.44
642.939	256.44
643.144	274.44
643.349	256.44
643.554	284.44
643.759	273.44
643.964	257.44
644.169	253.44
644.374	265.44
644.579	265.44
644.784	279.44
644.989	263.44
645.194	266.44
645.399	270.44
645.604	284.44
645.809	264.44
646.014	269.44
646.219	274.44
646.423	273.44
646.628	271.44
646.833	259.44
647.038	273.44
647.243	284.44
647.447	271.44
647.652	275.44
647.857	271.44
648.062	278.44
648.266	279.44
648.471	266.44
648.676	265.44
648.88	263.44
649.085	269.44
649.289	257.44
649.494	257.44
649.698	272.44
649.903	264.44
650.107	264.44
650.312	280.44
650.516	256.44
650.721	244.44
650.925	252.44
651.13	233.44
651.334	244.44
651.539	255.44
651.743	258.44
651.947	243.44
652.152	260.44
652.356	244.44
652.56	249.44
652.764	246.44
652.969	241.44
653.173	212.44
653.377	230.44
653.581	249.44
653.785	229.44
653.99	243.44
654.194	251.44
654.398	231.44
654.602	216.44
654.806	232.44
655.01	229.44
655.214	232.44
655.418	246.44
655.622	233.44
655.826	205.44
656.03	230.44
656.234	227.44
656.438	240.44
656.642	232.44
656.846	226.44
657.049	221.44
657.253	201.44
657.457	196.44
657.661	169.44
657.865	175.44
658.068	180.44
658.272	189.44
658.476	171.44
658.68	154.44
658.883	162.44
659.087	156.44
659.291	151.44
659.494	141.44
659.698	123.44
659.901	133.44
660.105	129.44
660.309	131.44
660.512	125.44
660.716	121.44
660.919	122.44
661.123	102.44
661.326	105.44
661.53	90.44
661.733	106.44
661.936	108.44
662.14	80.44
662.343	100.44
662.546	97.44
662.75	106.44
662.953	83.44
663.156	88.44
663.36	91.44
663.563	84.44
663.766	93.44
663.969	88.44
664.173	86.44
664.376	88.44
664.579	82.44
664.782	74.44
664.985	72.44
665.188	80.44
665.391	67.44
665.594	75.44
665.797	89.44
666	96.44
666.203	99.44
666.406	79.44
666.609	87.44
666.812	64.44
667.015	91.44
667.218	75.44
667.421	84.44
667.624	65.44
667.827	85.44
668.03	73.44
668.232	81.44
668.435	81.44
668.638	77.44
668.841	95.44
669.043	90.44
669.246	79.44
669.449	105.44
669.651	71.44
669.854	76.44
670.057	85.44
670.259	77.44
670.462	87.44
670.665	86.44
670.867	74.44
671.07	77.44
671.272	81.44
671.475	81.44
671.677	83.44
671.88	89.44
672.082	84.44
672.284	79.44
672.487	76.44
672.689	69.44
672.892	81.44
