Data from Ni(NO3)2@0.5M.TitratingCurve.Agarose3%dH2O.NegLispCup.LampEnergy10.LIBS07252019_HRD10591_17-57-59-569.txt Node
Date: Thu Jul 25 17:57:59 EDT 2019
User: cochatt
Spectrometer: HR+D1059
Trigger mode: 1
Integration Time (sec): 1.000000E-1
Scans to average: 1
Electric dark correction enabled: true
Nonlinearity correction enabled: false
Boxcar width: 0
XAxis mode: Wavelengths
Number of Pixels in Spectrum: 2048
>>>>>Begin Spectral Data<<<<<
223.165	-8.62
223.4	-8.62
223.635	-8.62
223.869	-25.62
224.104	-12.62
224.338	-2.62
224.573	-3.62
224.808	0.38
225.042	-5.62
225.277	-9.62
225.511	-20.62
225.746	2.38
225.98	7.38
226.215	9.38
226.449	-2.62
226.683	14.38
226.918	30.38
227.152	27.38
227.387	33.38
227.621	43.38
227.856	43.38
228.09	53.38
228.324	58.38
228.559	50.38
228.793	73.38
229.027	124.38
229.262	124.38
229.496	135.38
229.73	146.38
229.964	148.38
230.199	188.38
230.433	201.38
230.667	174.38
230.901	172.38
231.136	154.38
231.37	169.38
231.604	168.38
231.838	192.38
232.072	208.38
232.306	205.38
232.541	176.38
232.775	180.38
233.009	187.38
233.243	171.38
233.477	156.38
233.711	148.38
233.945	155.38
234.179	168.38
234.413	173.38
234.647	166.38
234.881	171.38
235.115	182.38
235.349	160.38
235.583	170.38
235.817	164.38
236.051	169.38
236.285	160.38
236.519	156.38
236.753	170.38
236.987	166.38
237.221	164.38
237.455	155.38
237.689	171.38
237.922	171.38
238.156	173.38
238.39	180.38
238.624	178.38
238.858	174.38
239.091	167.38
239.325	183.38
239.559	190.38
239.793	190.38
240.027	198.38
240.26	201.38
240.494	186.38
240.728	198.38
240.961	193.38
241.195	187.38
241.429	200.38
241.662	202.38
241.896	233.38
242.13	242.38
242.363	220.38
242.597	186.38
242.83	193.38
243.064	206.38
243.298	206.38
243.531	204.38
243.765	209.38
243.998	212.38
244.232	203.38
244.465	228.38
244.699	192.38
244.932	201.38
245.166	214.38
245.399	220.38
245.633	212.38
245.866	203.38
246.099	212.38
246.333	221.38
246.566	214.38
246.8	230.38
247.033	235.38
247.266	222.38
247.5	235.38
247.733	241.38
247.966	240.38
248.2	228.38
248.433	256.38
248.666	243.38
248.899	254.38
249.133	236.38
249.366	250.38
249.599	259.38
249.832	245.38
250.066	269.38
250.299	255.38
250.532	276.38
250.765	266.38
250.998	280.38
251.231	296.38
251.465	327.38
251.698	312.38
251.931	276.38
252.164	284.38
252.397	273.38
252.63	268.38
252.863	283.38
253.096	292.38
253.329	296.38
253.562	299.38
253.795	297.38
254.028	300.38
254.261	316.38
254.494	316.38
254.727	309.38
254.96	324.38
255.193	315.38
255.426	329.38
255.659	323.38
255.892	332.38
256.124	325.38
256.357	332.38
256.59	321.38
256.823	343.38
257.056	315.38
257.289	341.38
257.521	340.38
257.754	340.38
257.987	349.38
258.22	342.38
258.452	370.38
258.685	349.38
258.918	373.38
259.151	355.38
259.383	350.38
259.616	350.38
259.849	359.38
260.081	348.38
260.314	354.38
260.547	362.38
260.779	375.38
261.012	364.38
261.244	388.38
261.477	364.38
261.71	376.38
261.942	372.38
262.175	381.38
262.407	369.38
262.64	365.38
262.872	385.38
263.105	382.38
263.337	406.38
263.57	391.38
263.802	382.38
264.035	387.38
264.267	392.38
264.499	386.38
264.732	400.38
264.964	392.38
265.197	397.38
265.429	413.38
265.661	403.38
265.894	417.38
266.126	411.38
266.358	420.38
266.591	411.38
266.823	414.38
267.055	384.38
267.287	426.38
267.52	398.38
267.752	421.38
267.984	424.38
268.216	431.38
268.448	437.38
268.681	419.38
268.913	443.38
269.145	445.38
269.377	446.38
269.609	437.38
269.841	431.38
270.073	417.38
270.306	434.38
270.538	450.38
270.77	431.38
271.002	441.38
271.234	440.38
271.466	437.38
271.698	440.38
271.93	436.38
272.162	454.38
272.394	450.38
272.626	460.38
272.858	470.38
273.09	465.38
273.322	464.38
273.553	464.38
273.785	475.38
274.017	442.38
274.249	454.38
274.481	483.38
274.713	459.38
274.945	467.38
275.176	470.38
275.408	461.38
275.64	472.38
275.872	470.38
276.104	500.38
276.335	484.38
276.567	478.38
276.799	480.38
277.031	496.38
277.262	496.38
277.494	505.38
277.726	499.38
277.957	500.38
278.189	497.38
278.421	504.38
278.652	508.38
278.884	508.38
279.115	526.38
279.347	508.38
279.579	523.38
279.81	501.38
280.042	500.38
280.273	500.38
280.505	512.38
280.736	526.38
280.968	503.38
281.199	498.38
281.431	492.38
281.662	498.38
281.894	523.38
282.125	520.38
282.356	531.38
282.588	526.38
282.819	519.38
283.051	517.38
283.282	530.38
283.513	536.38
283.745	532.38
283.976	540.38
284.207	505.38
284.439	534.38
284.67	532.38
284.901	557.38
285.132	530.38
285.364	532.38
285.595	537.38
285.826	542.38
286.057	534.38
286.288	544.38
286.52	567.38
286.751	557.38
286.982	566.38
287.213	565.38
287.444	576.38
287.675	564.38
287.906	550.38
288.138	541.38
288.369	549.38
288.6	556.38
288.831	564.38
289.062	568.38
289.293	562.38
289.524	553.38
289.755	577.38
289.986	570.38
290.217	588.38
290.448	583.38
290.679	569.38
290.91	565.38
291.141	571.38
291.371	569.38
291.602	565.38
291.833	569.38
292.064	563.38
292.295	551.38
292.526	549.38
292.757	554.38
292.987	550.38
293.218	576.38
293.449	578.38
293.68	565.38
293.91	578.38
294.141	575.38
294.372	586.38
294.603	569.38
294.833	597.38
295.064	583.38
295.295	560.38
295.525	574.38
295.756	594.38
295.987	584.38
296.217	572.38
296.448	588.38
296.679	571.38
296.909	571.38
297.14	578.38
297.37	615.38
297.601	602.38
297.831	590.38
298.062	588.38
298.292	603.38
298.523	610.38
298.753	620.38
298.984	605.38
299.214	629.38
299.445	635.38
299.675	612.38
299.905	606.38
300.136	632.38
300.366	653.38
300.597	663.38
300.827	635.38
301.057	654.38
301.288	644.38
301.518	655.38
301.748	640.38
301.979	648.38
302.209	622.38
302.439	645.38
302.669	646.38
302.9	635.38
303.13	639.38
303.36	643.38
303.59	644.38
303.82	650.38
304.051	650.38
304.281	660.38
304.511	660.38
304.741	648.38
304.971	644.38
305.201	668.38
305.431	692.38
305.661	685.38
305.891	696.38
306.121	653.38
306.352	660.38
306.582	653.38
306.812	676.38
307.042	650.38
307.272	649.38
307.502	660.38
307.731	665.38
307.961	673.38
308.191	685.38
308.421	661.38
308.651	634.38
308.881	674.38
309.111	668.38
309.341	657.38
309.571	681.38
309.8	694.38
310.03	724.38
310.26	736.38
310.49	742.38
310.72	711.38
310.949	663.38
311.179	664.38
311.409	696.38
311.639	683.38
311.868	689.38
312.098	702.38
312.328	707.38
312.557	693.38
312.787	710.38
313.017	713.38
313.246	713.38
313.476	734.38
313.706	716.38
313.935	736.38
314.165	725.38
314.394	724.38
314.624	738.38
314.853	721.38
315.083	736.38
315.312	715.38
315.542	743.38
315.771	733.38
316.001	745.38
316.23	724.38
316.46	727.38
316.689	764.38
316.919	744.38
317.148	776.38
317.377	756.38
317.607	727.38
317.836	754.38
318.065	760.38
318.295	754.38
318.524	746.38
318.753	780.38
318.983	748.38
319.212	768.38
319.441	779.38
319.67	793.38
319.9	794.38
320.129	792.38
320.358	803.38
320.587	768.38
320.816	793.38
321.046	800.38
321.275	802.38
321.504	799.38
321.733	826.38
321.962	826.38
322.191	795.38
322.42	826.38
322.649	833.38
322.878	822.38
323.108	828.38
323.337	841.38
323.566	850.38
323.795	827.38
324.024	801.38
324.253	796.38
324.482	855.38
324.71	851.38
324.939	825.38
325.168	844.38
325.397	825.38
325.626	838.38
325.855	846.38
326.084	843.38
326.313	871.38
326.542	876.38
326.77	898.38
326.999	859.38
327.228	857.38
327.457	852.38
327.686	859.38
327.914	866.38
328.143	883.38
328.372	867.38
328.6	867.38
328.829	873.38
329.058	902.38
329.287	888.38
329.515	890.38
329.744	877.38
329.972	884.38
330.201	922.38
330.43	907.38
330.658	905.38
330.887	910.38
331.115	917.38
331.344	898.38
331.572	928.38
331.801	901.38
332.03	933.38
332.258	955.38
332.486	968.38
332.715	922.38
332.943	915.38
333.172	926.38
333.4	945.38
333.629	920.38
333.857	940.38
334.085	919.38
334.314	961.38
334.542	956.38
334.771	948.38
334.999	949.38
335.227	960.38
335.455	972.38
335.684	948.38
335.912	971.38
336.14	974.38
336.369	977.38
336.597	978.38
336.825	1026.38
337.053	1012.38
337.281	1005.38
337.51	995.38
337.738	979.38
337.966	980.38
338.194	1004.38
338.422	1011.38
338.65	940.38
338.878	967.38
339.106	986.38
339.334	1000.38
339.562	988.38
339.79	968.38
340.018	944.38
340.246	956.38
340.474	946.38
340.702	956.38
340.93	970.38
341.158	964.38
341.386	1011.38
341.614	1034.38
341.842	1019.38
342.07	946.38
342.298	964.38
342.526	991.38
342.754	951.38
342.981	964.38
343.209	978.38
343.437	1009.38
343.665	1026.38
343.893	1001.38
344.12	1009.38
344.348	1005.38
344.576	991.38
344.804	1021.38
345.031	1000.38
345.259	954.38
345.487	996.38
345.714	981.38
345.942	1005.38
346.17	1051.38
346.397	986.38
346.625	966.38
346.853	929.38
347.08	968.38
347.308	946.38
347.535	936.38
347.763	938.38
347.99	940.38
348.218	948.38
348.445	901.38
348.673	937.38
348.9	969.38
349.128	956.38
349.355	963.38
349.583	1004.38
349.81	935.38
350.037	912.38
350.265	956.38
350.492	930.38
350.72	909.38
350.947	952.38
351.174	970.38
351.402	984.38
351.629	973.38
351.856	969.38
352.083	953.38
352.311	981.38
352.538	986.38
352.765	1000.38
352.992	932.38
353.22	920.38
353.447	924.38
353.674	922.38
353.901	908.38
354.128	908.38
354.355	908.38
354.583	909.38
354.81	892.38
355.037	904.38
355.264	908.38
355.491	904.38
355.718	920.38
355.945	905.38
356.172	915.38
356.399	934.38
356.626	948.38
356.853	997.38
357.08	972.38
357.307	920.38
357.534	913.38
357.761	919.38
357.988	966.38
358.215	916.38
358.441	902.38
358.668	918.38
358.895	911.38
359.122	890.38
359.349	922.38
359.576	924.38
359.802	902.38
360.029	917.38
360.256	907.38
360.483	931.38
360.709	896.38
360.936	938.38
361.163	953.38
361.39	933.38
361.616	948.38
361.843	970.38
362.07	1012.38
362.296	966.38
362.523	939.38
362.749	907.38
362.976	927.38
363.203	923.38
363.429	906.38
363.656	910.38
363.882	922.38
364.109	929.38
364.335	898.38
364.562	917.38
364.788	933.38
365.015	933.38
365.241	923.38
365.468	916.38
365.694	932.38
365.92	956.38
366.147	906.38
366.373	923.38
366.599	931.38
366.826	934.38
367.052	924.38
367.278	956.38
367.505	931.38
367.731	926.38
367.957	922.38
368.184	904.38
368.41	888.38
368.636	938.38
368.862	921.38
369.089	969.38
369.315	926.38
369.541	956.38
369.767	936.38
369.993	925.38
370.219	941.38
370.445	941.38
370.672	948.38
370.898	923.38
371.124	937.38
371.35	973.38
371.576	955.38
371.802	931.38
372.028	941.38
372.254	948.38
372.48	955.38
372.706	980.38
372.932	945.38
373.158	913.38
373.384	939.38
373.61	964.38
373.835	970.38
374.061	946.38
374.287	953.38
374.513	958.38
374.739	925.38
374.965	962.38
375.191	941.38
375.416	979.38
375.642	930.38
375.868	960.38
376.094	946.38
376.319	924.38
376.545	944.38
376.771	940.38
376.997	935.38
377.222	949.38
377.448	928.38
377.674	966.38
377.899	901.38
378.125	956.38
378.35	951.38
378.576	919.38
378.802	930.38
379.027	937.38
379.253	920.38
379.478	925.38
379.704	910.38
379.929	909.38
380.155	945.38
380.38	934.38
380.606	935.38
380.831	919.38
381.057	940.38
381.282	918.38
381.507	937.38
381.733	928.38
381.958	928.38
382.184	931.38
382.409	947.38
382.634	921.38
382.86	928.38
383.085	942.38
383.31	923.38
383.535	938.38
383.761	958.38
383.986	966.38
384.211	966.38
384.436	934.38
384.662	981.38
384.887	965.38
385.112	955.38
385.337	994.38
385.562	977.38
385.787	986.38
386.013	1024.38
386.238	989.38
386.463	984.38
386.688	978.38
386.913	984.38
387.138	980.38
387.363	996.38
387.588	978.38
387.813	992.38
388.038	973.38
388.263	994.38
388.488	996.38
388.713	998.38
388.938	1012.38
389.163	965.38
389.387	976.38
389.612	971.38
389.837	973.38
390.062	979.38
390.287	991.38
390.512	1017.38
390.736	998.38
390.961	1012.38
391.186	1004.38
391.411	1018.38
391.636	1005.38
391.86	1019.38
392.085	1022.38
392.31	1002.38
392.534	1012.38
392.759	1000.38
392.984	1028.38
393.208	1045.38
393.433	1038.38
393.658	1029.38
393.882	1014.38
394.107	997.38
394.331	998.38
394.556	1025.38
394.78	986.38
395.005	994.38
395.229	999.38
395.454	998.38
395.678	1015.38
395.903	1005.38
396.127	999.38
396.352	1035.38
396.576	1000.38
396.801	1041.38
397.025	1004.38
397.249	1056.38
397.474	1057.38
397.698	1021.38
397.922	1050.38
398.147	1066.38
398.371	1051.38
398.595	1058.38
398.82	1060.38
399.044	1078.38
399.268	1107.38
399.492	1161.38
399.717	1156.38
399.941	1158.38
400.165	1158.38
400.389	1145.38
400.613	1115.38
400.837	1122.38
401.062	1106.38
401.286	1097.38
401.51	1107.38
401.734	1102.38
401.958	1104.38
402.182	1105.38
402.406	1059.38
402.63	1092.38
402.854	1084.38
403.078	1110.38
403.302	1120.38
403.526	1089.38
403.75	1121.38
403.974	1101.38
404.198	1077.38
404.422	1092.38
404.645	1115.38
404.869	1112.38
405.093	1121.38
405.317	1098.38
405.541	1124.38
405.765	1122.38
405.988	1124.38
406.212	1135.38
406.436	1098.38
406.66	1127.38
406.883	1108.38
407.107	1161.38
407.331	1167.38
407.555	1207.38
407.778	1192.38
408.002	1161.38
408.226	1190.38
408.449	1162.38
408.673	1180.38
408.896	1166.38
409.12	1155.38
409.344	1156.38
409.567	1163.38
409.791	1154.38
410.014	1175.38
410.238	1123.38
410.461	1129.38
410.685	1134.38
410.908	1137.38
411.132	1152.38
411.355	1113.38
411.578	1143.38
411.802	1123.38
412.025	1119.38
412.249	1106.38
412.472	1112.38
412.695	1112.38
412.919	1126.38
413.142	1088.38
413.365	1081.38
413.589	1125.38
413.812	1073.38
414.035	1083.38
414.258	1078.38
414.482	1081.38
414.705	1077.38
414.928	1094.38
415.151	1085.38
415.374	1110.38
415.597	1095.38
415.821	1082.38
416.044	1073.38
416.267	1065.38
416.49	1084.38
416.713	1099.38
416.936	1091.38
417.159	1065.38
417.382	1046.38
417.605	1053.38
417.828	1052.38
418.051	1069.38
418.274	1047.38
418.497	1003.38
418.72	1048.38
418.943	1070.38
419.166	1093.38
419.389	1162.38
419.611	1148.38
419.834	1092.38
420.057	1071.38
420.28	1080.38
420.503	1036.38
420.726	1034.38
420.948	1034.38
421.171	1054.38
421.394	1052.38
421.617	1066.38
421.839	1078.38
422.062	1074.38
422.285	1055.38
422.507	1056.38
422.73	1058.38
422.953	1080.38
423.175	1038.38
423.398	1092.38
423.621	1063.38
423.843	1076.38
424.066	1072.38
424.288	1079.38
424.511	1099.38
424.733	1063.38
424.956	1043.38
425.178	1077.38
425.401	1068.38
425.623	1106.38
425.846	1056.38
426.068	1083.38
426.291	1082.38
426.513	1078.38
426.735	1099.38
426.958	1056.38
427.18	1056.38
427.402	1081.38
427.625	1045.38
427.847	1048.38
428.069	1052.38
428.292	1091.38
428.514	1041.38
428.736	1037.38
428.958	1077.38
429.181	1034.38
429.403	1049.38
429.625	1028.38
429.847	1033.38
430.069	1041.38
430.292	1078.38
430.514	1046.38
430.736	1066.38
430.958	1094.38
431.18	1065.38
431.402	1058.38
431.624	1014.38
431.846	1044.38
432.068	1044.38
432.29	1060.38
432.512	1053.38
432.734	1094.38
432.956	1081.38
433.178	1091.38
433.4	1091.38
433.622	1120.38
433.844	1116.38
434.066	1091.38
434.287	1097.38
434.509	1065.38
434.731	1063.38
434.953	1087.38
435.175	1143.38
435.397	1133.38
435.618	1101.38
435.84	1114.38
436.062	1078.38
436.284	1088.38
436.505	1051.38
436.727	1060.38
436.949	1076.38
437.17	1077.38
437.392	1050.38
437.614	1079.38
437.835	1053.38
438.057	1042.38
438.278	1035.38
438.5	1031.38
438.721	1053.38
438.943	1055.38
439.165	1050.38
439.386	1079.38
439.608	1041.38
439.829	1062.38
440.05	1018.38
440.272	1032.38
440.493	1060.38
440.715	1049.38
440.936	1056.38
441.158	1065.38
441.379	1060.38
441.6	1129.38
441.822	1103.38
442.043	1107.38
442.264	1094.38
442.486	1097.38
442.707	1095.38
442.928	1127.38
443.149	1081.38
443.371	1110.38
443.592	1147.38
443.813	1120.38
444.034	1133.38
444.255	1104.38
444.476	1109.38
444.698	1125.38
444.919	1143.38
445.14	1259.38
445.361	1160.38
445.582	1125.38
445.803	1091.38
446.024	1079.38
446.245	1085.38
446.466	1094.38
446.687	1052.38
446.908	1043.38
447.129	1031.38
447.35	1050.38
447.571	1046.38
447.792	986.38
448.013	1020.38
448.234	1012.38
448.455	988.38
448.675	1034.38
448.896	1015.38
449.117	988.38
449.338	982.38
449.559	999.38
449.779	981.38
450	985.38
450.221	1004.38
450.442	1018.38
450.662	982.38
450.883	982.38
451.104	1025.38
451.324	1001.38
451.545	994.38
451.766	989.38
451.986	995.38
452.207	973.38
452.428	968.38
452.648	978.38
452.869	941.38
453.089	983.38
453.31	1000.38
453.53	961.38
453.751	949.38
453.971	974.38
454.192	997.38
454.412	991.38
454.633	978.38
454.853	968.38
455.073	962.38
455.294	998.38
455.514	1003.38
455.734	999.38
455.955	995.38
456.175	989.38
456.395	946.38
456.616	954.38
456.836	962.38
457.056	950.38
457.276	968.38
457.497	965.38
457.717	986.38
457.937	988.38
458.157	980.38
458.377	958.38
458.598	981.38
458.818	978.38
459.038	995.38
459.258	987.38
459.478	1052.38
459.698	1106.38
459.918	1118.38
460.138	1116.38
460.358	1128.38
460.578	1080.38
460.798	1144.38
461.018	1138.38
461.238	1106.38
461.458	1075.38
461.678	1087.38
461.898	1082.38
462.118	1095.38
462.338	1120.38
462.558	1148.38
462.777	1186.38
462.997	1200.38
463.217	1197.38
463.437	1254.38
463.657	1236.38
463.876	1162.38
464.096	1170.38
464.316	1174.38
464.536	1145.38
464.755	1144.38
464.975	1105.38
465.195	1096.38
465.414	1101.38
465.634	1062.38
465.854	1053.38
466.073	1044.38
466.293	1057.38
466.512	979.38
466.732	1006.38
466.951	1027.38
467.171	1048.38
467.391	1045.38
467.61	1051.38
467.829	1035.38
468.049	1025.38
468.268	1048.38
468.488	1044.38
468.707	1013.38
468.927	1054.38
469.146	1056.38
469.365	1080.38
469.585	1033.38
469.804	1046.38
470.023	1024.38
470.243	1025.38
470.462	1038.38
470.681	1020.38
470.901	1053.38
471.12	1000.38
471.339	1035.38
471.558	1072.38
471.777	1052.38
471.997	1060.38
472.216	1040.38
472.435	1063.38
472.654	1021.38
472.873	1051.38
473.092	1042.38
473.311	1058.38
473.53	1027.38
473.749	1044.38
473.968	1021.38
474.187	1022.38
474.406	1041.38
474.625	1068.38
474.844	1064.38
475.063	1063.38
475.282	1075.38
475.501	1065.38
475.72	1097.38
475.939	1077.38
476.158	1100.38
476.377	1121.38
476.596	1093.38
476.814	1074.38
477.033	1094.38
477.252	1079.38
477.471	1111.38
477.69	1136.38
477.908	1168.38
478.127	1164.38
478.346	1195.38
478.564	1191.38
478.783	1188.38
479.002	1237.38
479.22	1277.38
479.439	1255.38
479.658	1200.38
479.876	1223.38
480.095	1194.38
480.313	1227.38
480.532	1210.38
480.751	1258.38
480.969	1223.38
481.188	1211.38
481.406	1191.38
481.624	1212.38
481.843	1228.38
482.061	1206.38
482.28	1193.38
482.498	1200.38
482.717	1230.38
482.935	1246.38
483.153	1248.38
483.372	1281.38
483.59	1313.38
483.808	1272.38
484.027	1268.38
484.245	1241.38
484.463	1225.38
484.681	1239.38
484.9	1249.38
485.118	1259.38
485.336	1222.38
485.554	1228.38
485.772	1272.38
485.99	1255.38
486.209	1246.38
486.427	1211.38
486.645	1241.38
486.863	1272.38
487.081	1252.38
487.299	1248.38
487.517	1258.38
487.735	1316.38
487.953	1346.38
488.171	1280.38
488.389	1299.38
488.607	1286.38
488.825	1274.38
489.043	1253.38
489.261	1272.38
489.479	1255.38
489.696	1236.38
489.914	1244.38
490.132	1266.38
490.35	1265.38
490.568	1280.38
490.786	1286.38
491.003	1323.38
491.221	1285.38
491.439	1298.38
491.657	1304.38
491.874	1339.38
492.092	1337.38
492.31	1348.38
492.527	1321.38
492.745	1314.38
492.963	1307.38
493.18	1316.38
493.398	1310.38
493.615	1324.38
493.833	1329.38
494.05	1337.38
494.268	1334.38
494.485	1319.38
494.703	1350.38
494.92	1355.38
495.138	1350.38
495.355	1337.38
495.573	1338.38
495.79	1323.38
496.008	1370.38
496.225	1365.38
496.442	1349.38
496.66	1338.38
496.877	1352.38
497.094	1359.38
497.312	1376.38
497.529	1380.38
497.746	1422.38
497.963	1430.38
498.181	1429.38
498.398	1439.38
498.615	1493.38
498.832	1489.38
499.049	1490.38
499.267	1549.38
499.484	1568.38
499.701	1610.38
499.918	1662.38
500.135	1698.38
500.352	1738.38
500.569	1774.38
500.786	1773.38
501.003	1747.38
501.22	1668.38
501.437	1635.38
501.654	1613.38
501.871	1588.38
502.088	1546.38
502.305	1543.38
502.522	1516.38
502.739	1490.38
502.956	1434.38
503.172	1434.38
503.389	1394.38
503.606	1381.38
503.823	1388.38
504.04	1394.38
504.256	1364.38
504.473	1354.38
504.69	1309.38
504.907	1329.38
505.123	1312.38
505.34	1265.38
505.557	1255.38
505.773	1256.38
505.99	1267.38
506.207	1253.38
506.423	1224.38
506.64	1213.38
506.856	1196.38
507.073	1224.38
507.289	1215.38
507.506	1214.38
507.722	1203.38
507.939	1173.38
508.155	1197.38
508.372	1151.38
508.588	1152.38
508.805	1154.38
509.021	1139.38
509.238	1119.38
509.454	1125.38
509.67	1107.38
509.887	1145.38
510.103	1102.38
510.319	1114.38
510.536	1120.38
510.752	1142.38
510.968	1137.38
511.184	1074.38
511.401	1092.38
511.617	1120.38
511.833	1088.38
512.049	1081.38
512.265	1074.38
512.481	1087.38
512.698	1068.38
512.914	1092.38
513.13	1100.38
513.346	1087.38
513.562	1106.38
513.778	1067.38
513.994	1090.38
514.21	1108.38
514.426	1080.38
514.642	1062.38
514.858	1101.38
515.074	1094.38
515.29	1086.38
515.506	1083.38
515.721	1093.38
515.937	1074.38
516.153	1096.38
516.369	1122.38
516.585	1096.38
516.801	1108.38
517.016	1141.38
517.232	1137.38
517.448	1125.38
517.664	1118.38
517.879	1106.38
518.095	1116.38
518.311	1106.38
518.527	1084.38
518.742	1088.38
518.958	1069.38
519.173	1120.38
519.389	1088.38
519.605	1077.38
519.82	1039.38
520.036	1065.38
520.251	1076.38
520.467	1037.38
520.682	1040.38
520.898	1052.38
521.113	1021.38
521.329	1046.38
521.544	1004.38
521.76	1022.38
521.975	1024.38
522.19	1024.38
522.406	1021.38
522.621	1038.38
522.836	1022.38
523.052	1032.38
523.267	1004.38
523.482	983.38
523.698	990.38
523.913	998.38
524.128	1010.38
524.343	1046.38
524.559	1017.38
524.774	981.38
524.989	1000.38
525.204	976.38
525.419	1011.38
525.634	992.38
525.849	992.38
526.064	974.38
526.28	974.38
526.495	964.38
526.71	977.38
526.925	955.38
527.14	948.38
527.355	971.38
527.57	968.38
527.785	965.38
527.999	948.38
528.214	956.38
528.429	969.38
528.644	958.38
528.859	954.38
529.074	940.38
529.289	976.38
529.503	978.38
529.718	958.38
529.933	956.38
530.148	931.38
530.363	971.38
530.577	950.38
530.792	955.38
531.007	917.38
531.221	931.38
531.436	918.38
531.651	937.38
531.865	928.38
532.08	942.38
532.295	934.38
532.509	928.38
532.724	903.38
532.938	916.38
533.153	932.38
533.367	934.38
533.582	924.38
533.796	926.38
534.011	938.38
534.225	917.38
534.44	932.38
534.654	898.38
534.868	901.38
535.083	913.38
535.297	932.38
535.511	896.38
535.726	898.38
535.94	902.38
536.154	887.38
536.369	888.38
536.583	877.38
536.797	902.38
537.011	890.38
537.225	886.38
537.44	907.38
537.654	877.38
537.868	891.38
538.082	840.38
538.296	884.38
538.51	877.38
538.724	867.38
538.938	870.38
539.153	869.38
539.367	874.38
539.581	842.38
539.795	864.38
540.009	842.38
540.222	822.38
540.436	873.38
540.65	868.38
540.864	865.38
541.078	870.38
541.292	864.38
541.506	889.38
541.72	856.38
541.934	892.38
542.147	880.38
542.361	877.38
542.575	859.38
542.789	849.38
543.002	851.38
543.216	851.38
543.43	830.38
543.644	840.38
543.857	834.38
544.071	884.38
544.285	857.38
544.498	840.38
544.712	866.38
544.925	888.38
545.139	824.38
545.352	837.38
545.566	871.38
545.779	856.38
545.993	854.38
546.206	877.38
546.42	853.38
546.633	836.38
546.847	842.38
547.06	847.38
547.274	856.38
547.487	854.38
547.7	844.38
547.914	802.38
548.127	831.38
548.34	856.38
548.554	822.38
548.767	818.38
548.98	843.38
549.193	821.38
549.407	816.38
549.62	806.38
549.833	820.38
550.046	845.38
550.259	818.38
550.473	793.38
550.686	811.38
550.899	824.38
551.112	798.38
551.325	823.38
551.538	811.38
551.751	791.38
551.964	818.38
552.177	818.38
552.39	822.38
552.603	785.38
552.816	829.38
553.029	810.38
553.242	825.38
553.455	824.38
553.667	812.38
553.88	800.38
554.093	797.38
554.306	756.38
554.519	758.38
554.732	780.38
554.944	749.38
555.157	773.38
555.37	772.38
555.583	770.38
555.795	781.38
556.008	765.38
556.221	754.38
556.433	747.38
556.646	766.38
556.859	736.38
557.071	726.38
557.284	739.38
557.496	737.38
557.709	756.38
557.921	740.38
558.134	732.38
558.346	737.38
558.559	713.38
558.771	707.38
558.984	696.38
559.196	725.38
559.409	697.38
559.621	700.38
559.833	710.38
560.046	688.38
560.258	716.38
560.47	708.38
560.683	684.38
560.895	707.38
561.107	703.38
561.32	727.38
561.532	694.38
561.744	708.38
561.956	686.38
562.168	718.38
562.381	690.38
562.593	674.38
562.805	693.38
563.017	700.38
563.229	692.38
563.441	727.38
563.653	701.38
563.865	684.38
564.077	710.38
564.289	706.38
564.501	717.38
564.713	724.38
564.925	694.38
565.137	695.38
565.349	688.38
565.561	717.38
565.773	715.38
565.985	685.38
566.197	722.38
566.408	730.38
566.62	736.38
566.832	730.38
567.044	742.38
567.255	760.38
567.467	713.38
567.679	729.38
567.891	744.38
568.102	735.38
568.314	734.38
568.526	711.38
568.737	708.38
568.949	702.38
569.161	669.38
569.372	646.38
569.584	657.38
569.795	668.38
570.007	658.38
570.218	645.38
570.43	632.38
570.641	603.38
570.853	621.38
571.064	621.38
571.276	634.38
571.487	619.38
571.698	610.38
571.91	610.38
572.121	604.38
572.333	593.38
572.544	579.38
572.755	599.38
572.966	581.38
573.178	609.38
573.389	552.38
573.6	553.38
573.811	568.38
574.023	562.38
574.234	566.38
574.445	571.38
574.656	541.38
574.867	537.38
575.078	546.38
575.289	547.38
575.501	534.38
575.712	521.38
575.923	536.38
576.134	519.38
576.345	507.38
576.556	532.38
576.767	534.38
576.978	535.38
577.188	523.38
577.399	530.38
577.61	523.38
577.821	524.38
578.032	521.38
578.243	515.38
578.454	513.38
578.665	511.38
578.875	502.38
579.086	502.38
579.297	504.38
579.508	514.38
579.718	496.38
579.929	517.38
580.14	482.38
580.35	483.38
580.561	514.38
580.772	498.38
580.982	500.38
581.193	494.38
581.403	489.38
581.614	472.38
581.825	481.38
582.035	481.38
582.246	473.38
582.456	489.38
582.667	483.38
582.877	473.38
583.087	483.38
583.298	466.38
583.508	465.38
583.719	456.38
583.929	480.38
584.139	460.38
584.35	467.38
584.56	446.38
584.77	484.38
584.981	469.38
585.191	475.38
585.401	457.38
585.611	462.38
585.821	458.38
586.032	464.38
586.242	459.38
586.452	460.38
586.662	476.38
586.872	464.38
587.082	435.38
587.292	440.38
587.502	451.38
587.713	455.38
587.923	453.38
588.133	436.38
588.343	451.38
588.553	447.38
588.762	429.38
588.972	454.38
589.182	503.38
589.392	491.38
589.602	447.38
589.812	491.38
590.022	455.38
590.232	436.38
590.441	438.38
590.651	443.38
590.861	441.38
591.071	445.38
591.281	454.38
591.49	448.38
591.7	426.38
591.91	450.38
592.119	421.38
592.329	438.38
592.539	434.38
592.748	440.38
592.958	429.38
593.167	418.38
593.377	428.38
593.587	444.38
593.796	425.38
594.006	422.38
594.215	432.38
594.424	440.38
594.634	462.38
594.843	428.38
595.053	445.38
595.262	432.38
595.472	410.38
595.681	398.38
595.89	420.38
596.1	421.38
596.309	416.38
596.518	419.38
596.727	413.38
596.937	394.38
597.146	418.38
597.355	396.38
597.564	406.38
597.774	397.38
597.983	406.38
598.192	398.38
598.401	378.38
598.61	395.38
598.819	389.38
599.028	380.38
599.237	386.38
599.446	380.38
599.655	368.38
599.864	382.38
600.073	378.38
600.282	377.38
600.491	369.38
600.7	372.38
600.909	378.38
601.118	352.38
601.327	358.38
601.536	388.38
601.745	381.38
601.953	366.38
602.162	359.38
602.371	345.38
602.58	352.38
602.789	374.38
602.997	362.38
603.206	373.38
603.415	372.38
603.623	352.38
603.832	362.38
604.041	366.38
604.249	367.38
604.458	344.38
604.666	332.38
604.875	336.38
605.084	334.38
605.292	370.38
605.501	352.38
605.709	359.38
605.918	341.38
606.126	353.38
606.334	339.38
606.543	348.38
606.751	333.38
606.96	333.38
607.168	352.38
607.376	338.38
607.585	342.38
607.793	352.38
608.001	342.38
608.21	352.38
608.418	354.38
608.626	353.38
608.834	352.38
609.043	325.38
609.251	340.38
609.459	346.38
609.667	333.38
609.875	343.38
610.083	341.38
610.291	343.38
610.499	327.38
610.707	331.38
610.916	336.38
611.124	322.38
611.332	324.38
611.54	326.38
611.748	329.38
611.955	330.38
612.163	343.38
612.371	320.38
612.579	316.38
612.787	320.38
612.995	340.38
613.203	330.38
613.411	329.38
613.618	325.38
613.826	347.38
614.034	346.38
614.242	334.38
614.449	341.38
614.657	330.38
614.865	333.38
615.072	338.38
615.28	318.38
615.488	318.38
615.695	307.38
615.903	318.38
616.111	305.38
616.318	312.38
616.526	331.38
616.733	322.38
616.941	323.38
617.148	318.38
617.356	283.38
617.563	300.38
617.771	320.38
617.978	313.38
618.185	322.38
618.393	326.38
618.6	300.38
618.807	310.38
619.015	296.38
619.222	306.38
619.429	314.38
619.637	312.38
619.844	307.38
620.051	297.38
620.258	284.38
620.466	295.38
620.673	289.38
620.88	287.38
621.087	300.38
621.294	288.38
621.501	299.38
621.708	297.38
621.915	299.38
622.122	278.38
622.329	298.38
622.536	299.38
622.743	297.38
622.95	306.38
623.157	295.38
623.364	303.38
623.571	300.38
623.778	280.38
623.985	289.38
624.192	280.38
624.399	284.38
624.606	279.38
624.812	284.38
625.019	284.38
625.226	282.38
625.433	274.38
625.639	281.38
625.846	280.38
626.053	261.38
626.259	262.38
626.466	261.38
626.673	268.38
626.879	294.38
627.086	289.38
627.293	275.38
627.499	282.38
627.706	276.38
627.912	288.38
628.119	269.38
628.325	273.38
628.532	260.38
628.738	274.38
628.945	254.38
629.151	246.38
629.357	246.38
629.564	268.38
629.77	273.38
629.976	266.38
630.183	259.38
630.389	266.38
630.595	260.38
630.802	250.38
631.008	258.38
631.214	252.38
631.42	251.38
631.627	256.38
631.833	244.38
632.039	252.38
632.245	250.38
632.451	245.38
632.657	248.38
632.863	260.38
633.069	260.38
633.275	242.38
633.481	264.38
633.688	264.38
633.893	262.38
634.099	267.38
634.305	244.38
634.511	244.38
634.717	254.38
634.923	256.38
635.129	250.38
635.335	260.38
635.541	263.38
635.747	246.38
635.952	231.38
636.158	242.38
636.364	230.38
636.57	255.38
636.775	244.38
636.981	233.38
637.187	252.38
637.392	235.38
637.598	249.38
637.804	244.38
638.009	223.38
638.215	240.38
638.421	234.38
638.626	216.38
638.832	219.38
639.037	247.38
639.243	229.38
639.448	230.38
639.654	227.38
639.859	226.38
640.065	219.38
640.27	237.38
640.475	231.38
640.681	237.38
640.886	227.38
641.091	240.38
641.297	240.38
641.502	233.38
641.707	214.38
641.913	228.38
642.118	227.38
642.323	235.38
642.528	231.38
642.733	230.38
642.939	219.38
643.144	241.38
643.349	220.38
643.554	226.38
643.759	222.38
643.964	218.38
644.169	218.38
644.374	236.38
644.579	221.38
644.784	249.38
644.989	206.38
645.194	223.38
645.399	224.38
645.604	242.38
645.809	245.38
646.014	226.38
646.219	210.38
646.423	216.38
646.628	222.38
646.833	220.38
647.038	224.38
647.243	227.38
647.447	221.38
647.652	214.38
647.857	232.38
648.062	227.38
648.266	227.38
648.471	212.38
648.676	230.38
648.88	241.38
649.085	241.38
649.289	224.38
649.494	222.38
649.698	226.38
649.903	226.38
650.107	226.38
650.312	222.38
650.516	233.38
650.721	204.38
650.925	214.38
651.13	209.38
651.334	225.38
651.539	218.38
651.743	220.38
651.947	212.38
652.152	200.38
652.356	194.38
652.56	196.38
652.764	193.38
652.969	194.38
653.173	213.38
653.377	211.38
653.581	196.38
653.785	198.38
653.99	203.38
654.194	196.38
654.398	200.38
654.602	211.38
654.806	199.38
655.01	179.38
655.214	186.38
655.418	193.38
655.622	189.38
655.826	196.38
656.03	200.38
656.234	196.38
656.438	179.38
656.642	171.38
656.846	177.38
657.049	182.38
657.253	154.38
657.457	161.38
657.661	154.38
657.865	155.38
658.068	155.38
658.272	142.38
658.476	133.38
658.68	149.38
658.883	127.38
659.087	138.38
659.291	129.38
659.494	117.38
659.698	122.38
659.901	107.38
660.105	111.38
660.309	125.38
660.512	124.38
660.716	105.38
660.919	97.38
661.123	105.38
661.326	98.38
661.53	96.38
661.733	90.38
661.936	109.38
662.14	91.38
662.343	106.38
662.546	91.38
662.75	89.38
662.953	98.38
663.156	89.38
663.36	92.38
663.563	90.38
663.766	94.38
663.969	98.38
664.173	99.38
664.376	96.38
664.579	78.38
664.782	90.38
664.985	90.38
665.188	73.38
665.391	80.38
665.594	90.38
665.797	91.38
666	83.38
666.203	84.38
666.406	81.38
666.609	79.38
666.812	91.38
667.015	77.38
667.218	82.38
667.421	81.38
667.624	84.38
667.827	92.38
668.03	87.38
668.232	71.38
668.435	68.38
668.638	80.38
668.841	77.38
669.043	67.38
669.246	72.38
669.449	82.38
669.651	78.38
669.854	79.38
670.057	78.38
670.259	75.38
670.462	89.38
670.665	90.38
670.867	85.38
671.07	80.38
671.272	94.38
671.475	89.38
671.677	87.38
671.88	76.38
672.082	71.38
672.284	81.38
672.487	92.38
672.689	91.38
672.892	86.38
