Data from Ni(NO3)2Standard.Agarose3%.GreenCap.LampEnergy5.5.E.O_HRD10591_14-43-05-188.txt Node
Date: Mon Jul 22 14:43:05 EDT 2019
User: cochatt
Spectrometer: HR+D1059
Trigger mode: 1
Integration Time (sec): 1.000000E-1
Scans to average: 1
Electric dark correction enabled: true
Nonlinearity correction enabled: false
Boxcar width: 0
XAxis mode: Wavelengths
Number of Pixels in Spectrum: 2048
>>>>>Begin Spectral Data<<<<<
223.165	-17.62
223.4	-17.62
223.635	-17.62
223.869	-20.62
224.104	-15.62
224.338	-9.62
224.573	-17.62
224.808	-12.62
225.042	-16.62
225.277	-9.62
225.511	3.38
225.746	-2.62
225.98	8.38
226.215	14.38
226.449	14.38
226.683	23.38
226.918	35.38
227.152	23.38
227.387	43.38
227.621	37.38
227.856	49.38
228.09	47.38
228.324	49.38
228.559	51.38
228.793	58.38
229.027	63.38
229.262	60.38
229.496	52.38
229.73	65.38
229.964	71.38
230.199	68.38
230.433	92.38
230.667	89.38
230.901	92.38
231.136	80.38
231.37	72.38
231.604	96.38
231.838	70.38
232.072	84.38
232.306	81.38
232.541	86.38
232.775	72.38
233.009	72.38
233.243	88.38
233.477	92.38
233.711	90.38
233.945	71.38
234.179	86.38
234.413	78.38
234.647	79.38
234.881	73.38
235.115	84.38
235.349	83.38
235.583	75.38
235.817	68.38
236.051	84.38
236.285	81.38
236.519	72.38
236.753	89.38
236.987	64.38
237.221	88.38
237.455	88.38
237.689	84.38
237.922	72.38
238.156	66.38
238.39	72.38
238.624	84.38
238.858	78.38
239.091	89.38
239.325	79.38
239.559	86.38
239.793	61.38
240.027	78.38
240.26	90.38
240.494	85.38
240.728	66.38
240.961	88.38
241.195	77.38
241.429	88.38
241.662	68.38
241.896	83.38
242.13	84.38
242.363	75.38
242.597	89.38
242.83	87.38
243.064	88.38
243.298	76.38
243.531	79.38
243.765	70.38
243.998	54.38
244.232	78.38
244.465	74.38
244.699	92.38
244.932	90.38
245.166	79.38
245.399	71.38
245.633	63.38
245.866	83.38
246.099	87.38
246.333	78.38
246.566	84.38
246.8	87.38
247.033	89.38
247.266	88.38
247.5	87.38
247.733	84.38
247.966	86.38
248.2	84.38
248.433	84.38
248.666	76.38
248.899	97.38
249.133	80.38
249.366	93.38
249.599	78.38
249.832	82.38
250.066	75.38
250.299	68.38
250.532	77.38
250.765	94.38
250.998	84.38
251.231	77.38
251.465	80.38
251.698	102.38
251.931	81.38
252.164	85.38
252.397	77.38
252.63	87.38
252.863	73.38
253.096	59.38
253.329	95.38
253.562	91.38
253.795	89.38
254.028	78.38
254.261	69.38
254.494	77.38
254.727	71.38
254.96	81.38
255.193	86.38
255.426	81.38
255.659	89.38
255.892	90.38
256.124	78.38
256.357	92.38
256.59	79.38
256.823	75.38
257.056	81.38
257.289	83.38
257.521	80.38
257.754	79.38
257.987	81.38
258.22	82.38
258.452	86.38
258.685	83.38
258.918	82.38
259.151	81.38
259.383	88.38
259.616	74.38
259.849	112.38
260.081	69.38
260.314	78.38
260.547	93.38
260.779	80.38
261.012	86.38
261.244	80.38
261.477	83.38
261.71	80.38
261.942	80.38
262.175	81.38
262.407	73.38
262.64	73.38
262.872	73.38
263.105	86.38
263.337	93.38
263.57	84.38
263.802	88.38
264.035	88.38
264.267	80.38
264.499	82.38
264.732	86.38
264.964	95.38
265.197	91.38
265.429	90.38
265.661	96.38
265.894	85.38
266.126	92.38
266.358	74.38
266.591	74.38
266.823	83.38
267.055	87.38
267.287	80.38
267.52	75.38
267.752	83.38
267.984	88.38
268.216	96.38
268.448	71.38
268.681	89.38
268.913	80.38
269.145	86.38
269.377	90.38
269.609	85.38
269.841	87.38
270.073	87.38
270.306	88.38
270.538	87.38
270.77	67.38
271.002	95.38
271.234	87.38
271.466	92.38
271.698	81.38
271.93	90.38
272.162	72.38
272.394	82.38
272.626	108.38
272.858	85.38
273.09	98.38
273.322	89.38
273.553	91.38
273.785	94.38
274.017	84.38
274.249	86.38
274.481	99.38
274.713	69.38
274.945	70.38
275.176	86.38
275.408	88.38
275.64	82.38
275.872	76.38
276.104	86.38
276.335	86.38
276.567	78.38
276.799	86.38
277.031	83.38
277.262	88.38
277.494	90.38
277.726	91.38
277.957	99.38
278.189	84.38
278.421	97.38
278.652	93.38
278.884	91.38
279.115	89.38
279.347	91.38
279.579	94.38
279.81	81.38
280.042	81.38
280.273	88.38
280.505	82.38
280.736	90.38
280.968	94.38
281.199	92.38
281.431	64.38
281.662	84.38
281.894	87.38
282.125	82.38
282.356	102.38
282.588	76.38
282.819	93.38
283.051	79.38
283.282	79.38
283.513	89.38
283.745	92.38
283.976	97.38
284.207	100.38
284.439	85.38
284.67	81.38
284.901	77.38
285.132	81.38
285.364	92.38
285.595	89.38
285.826	80.38
286.057	72.38
286.288	71.38
286.52	96.38
286.751	82.38
286.982	81.38
287.213	80.38
287.444	79.38
287.675	106.38
287.906	93.38
288.138	85.38
288.369	84.38
288.6	107.38
288.831	77.38
289.062	94.38
289.293	89.38
289.524	88.38
289.755	83.38
289.986	79.38
290.217	81.38
290.448	82.38
290.679	87.38
290.91	77.38
291.141	93.38
291.371	88.38
291.602	85.38
291.833	84.38
292.064	86.38
292.295	87.38
292.526	92.38
292.757	80.38
292.987	81.38
293.218	101.38
293.449	80.38
293.68	100.38
293.91	97.38
294.141	92.38
294.372	85.38
294.603	87.38
294.833	99.38
295.064	81.38
295.295	87.38
295.525	85.38
295.756	90.38
295.987	70.38
296.217	98.38
296.448	92.38
296.679	92.38
296.909	94.38
297.14	96.38
297.37	74.38
297.601	75.38
297.831	103.38
298.062	91.38
298.292	79.38
298.523	87.38
298.753	81.38
298.984	90.38
299.214	89.38
299.445	89.38
299.675	84.38
299.905	85.38
300.136	88.38
300.366	84.38
300.597	94.38
300.827	87.38
301.057	96.38
301.288	81.38
301.518	88.38
301.748	87.38
301.979	84.38
302.209	83.38
302.439	104.38
302.669	87.38
302.9	73.38
303.13	86.38
303.36	96.38
303.59	88.38
303.82	85.38
304.051	99.38
304.281	89.38
304.511	95.38
304.741	101.38
304.971	80.38
305.201	93.38
305.431	89.38
305.661	90.38
305.891	94.38
306.121	83.38
306.352	88.38
306.582	81.38
306.812	96.38
307.042	87.38
307.272	85.38
307.502	87.38
307.731	72.38
307.961	95.38
308.191	87.38
308.421	94.38
308.651	91.38
308.881	90.38
309.111	90.38
309.341	97.38
309.571	76.38
309.8	77.38
310.03	89.38
310.26	83.38
310.49	95.38
310.72	80.38
310.949	88.38
311.179	76.38
311.409	95.38
311.639	93.38
311.868	85.38
312.098	73.38
312.328	97.38
312.557	90.38
312.787	101.38
313.017	81.38
313.246	93.38
313.476	90.38
313.706	90.38
313.935	83.38
314.165	89.38
314.394	81.38
314.624	108.38
314.853	105.38
315.083	92.38
315.312	79.38
315.542	94.38
315.771	91.38
316.001	77.38
316.23	83.38
316.46	76.38
316.689	94.38
316.919	102.38
317.148	96.38
317.377	97.38
317.607	87.38
317.836	87.38
318.065	91.38
318.295	99.38
318.524	105.38
318.753	96.38
318.983	90.38
319.212	99.38
319.441	99.38
319.67	92.38
319.9	80.38
320.129	83.38
320.358	81.38
320.587	89.38
320.816	88.38
321.046	104.38
321.275	102.38
321.504	91.38
321.733	87.38
321.962	88.38
322.191	95.38
322.42	91.38
322.649	82.38
322.878	101.38
323.108	86.38
323.337	92.38
323.566	87.38
323.795	93.38
324.024	90.38
324.253	86.38
324.482	95.38
324.71	92.38
324.939	77.38
325.168	95.38
325.397	106.38
325.626	91.38
325.855	87.38
326.084	91.38
326.313	96.38
326.542	86.38
326.77	92.38
326.999	82.38
327.228	86.38
327.457	81.38
327.686	91.38
327.914	100.38
328.143	81.38
328.372	91.38
328.6	96.38
328.829	80.38
329.058	89.38
329.287	108.38
329.515	87.38
329.744	99.38
329.972	104.38
330.201	107.38
330.43	83.38
330.658	80.38
330.887	91.38
331.115	84.38
331.344	87.38
331.572	98.38
331.801	107.38
332.03	84.38
332.258	100.38
332.486	108.38
332.715	98.38
332.943	91.38
333.172	91.38
333.4	88.38
333.629	82.38
333.857	91.38
334.085	101.38
334.314	96.38
334.542	76.38
334.771	87.38
334.999	96.38
335.227	93.38
335.455	104.38
335.684	97.38
335.912	84.38
336.14	87.38
336.369	88.38
336.597	73.38
336.825	92.38
337.053	96.38
337.281	93.38
337.51	103.38
337.738	94.38
337.966	92.38
338.194	79.38
338.422	104.38
338.65	82.38
338.878	105.38
339.106	97.38
339.334	87.38
339.562	85.38
339.79	88.38
340.018	93.38
340.246	86.38
340.474	81.38
340.702	83.38
340.93	67.38
341.158	84.38
341.386	83.38
341.614	85.38
341.842	95.38
342.07	107.38
342.298	78.38
342.526	92.38
342.754	106.38
342.981	81.38
343.209	101.38
343.437	100.38
343.665	90.38
343.893	88.38
344.12	87.38
344.348	72.38
344.576	80.38
344.804	90.38
345.031	86.38
345.259	88.38
345.487	84.38
345.714	91.38
345.942	86.38
346.17	91.38
346.397	86.38
346.625	99.38
346.853	90.38
347.08	85.38
347.308	87.38
347.535	82.38
347.763	79.38
347.99	88.38
348.218	93.38
348.445	88.38
348.673	82.38
348.9	95.38
349.128	102.38
349.355	87.38
349.583	82.38
349.81	86.38
350.037	85.38
350.265	87.38
350.492	86.38
350.72	92.38
350.947	83.38
351.174	89.38
351.402	79.38
351.629	86.38
351.856	84.38
352.083	99.38
352.311	99.38
352.538	78.38
352.765	86.38
352.992	93.38
353.22	105.38
353.447	84.38
353.674	93.38
353.901	90.38
354.128	96.38
354.355	93.38
354.583	86.38
354.81	86.38
355.037	101.38
355.264	92.38
355.491	91.38
355.718	84.38
355.945	90.38
356.172	104.38
356.399	87.38
356.626	101.38
356.853	84.38
357.08	97.38
357.307	90.38
357.534	88.38
357.761	88.38
357.988	74.38
358.215	86.38
358.441	84.38
358.668	80.38
358.895	107.38
359.122	104.38
359.349	87.38
359.576	92.38
359.802	84.38
360.029	77.38
360.256	85.38
360.483	94.38
360.709	80.38
360.936	94.38
361.163	87.38
361.39	86.38
361.616	95.38
361.843	96.38
362.07	85.38
362.296	107.38
362.523	101.38
362.749	78.38
362.976	97.38
363.203	101.38
363.429	99.38
363.656	102.38
363.882	98.38
364.109	94.38
364.335	88.38
364.562	95.38
364.788	92.38
365.015	91.38
365.241	91.38
365.468	90.38
365.694	91.38
365.92	101.38
366.147	94.38
366.373	88.38
366.599	95.38
366.826	93.38
367.052	84.38
367.278	100.38
367.505	98.38
367.731	98.38
367.957	92.38
368.184	89.38
368.41	80.38
368.636	93.38
368.862	83.38
369.089	86.38
369.315	84.38
369.541	104.38
369.767	93.38
369.993	93.38
370.219	99.38
370.445	85.38
370.672	89.38
370.898	95.38
371.124	81.38
371.35	87.38
371.576	91.38
371.802	81.38
372.028	94.38
372.254	87.38
372.48	91.38
372.706	75.38
372.932	80.38
373.158	84.38
373.384	96.38
373.61	72.38
373.835	85.38
374.061	81.38
374.287	85.38
374.513	75.38
374.739	93.38
374.965	86.38
375.191	95.38
375.416	80.38
375.642	93.38
375.868	98.38
376.094	92.38
376.319	88.38
376.545	91.38
376.771	89.38
376.997	104.38
377.222	88.38
377.448	95.38
377.674	78.38
377.899	102.38
378.125	76.38
378.35	88.38
378.576	77.38
378.802	83.38
379.027	77.38
379.253	95.38
379.478	86.38
379.704	80.38
379.929	84.38
380.155	89.38
380.38	78.38
380.606	74.38
380.831	70.38
381.057	101.38
381.282	96.38
381.507	81.38
381.733	87.38
381.958	107.38
382.184	87.38
382.409	89.38
382.634	89.38
382.86	93.38
383.085	79.38
383.31	68.38
383.535	96.38
383.761	103.38
383.986	81.38
384.211	76.38
384.436	92.38
384.662	90.38
384.887	85.38
385.112	84.38
385.337	89.38
385.562	83.38
385.787	85.38
386.013	95.38
386.238	87.38
386.463	79.38
386.688	84.38
386.913	80.38
387.138	87.38
387.363	78.38
387.588	87.38
387.813	92.38
388.038	95.38
388.263	86.38
388.488	78.38
388.713	94.38
388.938	87.38
389.163	80.38
389.387	96.38
389.612	89.38
389.837	86.38
390.062	84.38
390.287	77.38
390.512	95.38
390.736	89.38
390.961	90.38
391.186	88.38
391.411	84.38
391.636	88.38
391.86	90.38
392.085	76.38
392.31	95.38
392.534	89.38
392.759	95.38
392.984	90.38
393.208	86.38
393.433	77.38
393.658	88.38
393.882	75.38
394.107	90.38
394.331	73.38
394.556	88.38
394.78	95.38
395.005	88.38
395.229	85.38
395.454	102.38
395.678	86.38
395.903	93.38
396.127	75.38
396.352	93.38
396.576	95.38
396.801	101.38
397.025	94.38
397.249	87.38
397.474	81.38
397.698	78.38
397.922	98.38
398.147	86.38
398.371	88.38
398.595	82.38
398.82	86.38
399.044	97.38
399.268	107.38
399.492	90.38
399.717	104.38
399.941	72.38
400.165	88.38
400.389	87.38
400.613	84.38
400.837	87.38
401.062	102.38
401.286	85.38
401.51	99.38
401.734	93.38
401.958	97.38
402.182	99.38
402.406	101.38
402.63	78.38
402.854	101.38
403.078	94.38
403.302	73.38
403.526	85.38
403.75	81.38
403.974	89.38
404.198	87.38
404.422	76.38
404.645	81.38
404.869	95.38
405.093	84.38
405.317	85.38
405.541	90.38
405.765	90.38
405.988	81.38
406.212	99.38
406.436	91.38
406.66	91.38
406.883	81.38
407.107	87.38
407.331	85.38
407.555	92.38
407.778	76.38
408.002	92.38
408.226	91.38
408.449	81.38
408.673	85.38
408.896	83.38
409.12	94.38
409.344	94.38
409.567	85.38
409.791	71.38
410.014	80.38
410.238	93.38
410.461	84.38
410.685	91.38
410.908	87.38
411.132	80.38
411.355	95.38
411.578	84.38
411.802	82.38
412.025	75.38
412.249	81.38
412.472	79.38
412.695	92.38
412.919	96.38
413.142	104.38
413.365	102.38
413.589	84.38
413.812	88.38
414.035	85.38
414.258	85.38
414.482	99.38
414.705	86.38
414.928	92.38
415.151	91.38
415.374	74.38
415.597	86.38
415.821	86.38
416.044	88.38
416.267	74.38
416.49	67.38
416.713	89.38
416.936	88.38
417.159	81.38
417.382	87.38
417.605	98.38
417.828	84.38
418.051	92.38
418.274	85.38
418.497	93.38
418.72	93.38
418.943	91.38
419.166	73.38
419.389	82.38
419.611	94.38
419.834	81.38
420.057	82.38
420.28	97.38
420.503	86.38
420.726	84.38
420.948	82.38
421.171	89.38
421.394	88.38
421.617	93.38
421.839	75.38
422.062	93.38
422.285	89.38
422.507	84.38
422.73	81.38
422.953	88.38
423.175	79.38
423.398	90.38
423.621	105.38
423.843	96.38
424.066	94.38
424.288	83.38
424.511	69.38
424.733	84.38
424.956	87.38
425.178	98.38
425.401	79.38
425.623	81.38
425.846	77.38
426.068	87.38
426.291	76.38
426.513	92.38
426.735	99.38
426.958	81.38
427.18	91.38
427.402	89.38
427.625	90.38
427.847	87.38
428.069	91.38
428.292	81.38
428.514	83.38
428.736	92.38
428.958	95.38
429.181	93.38
429.403	81.38
429.625	93.38
429.847	84.38
430.069	82.38
430.292	78.38
430.514	77.38
430.736	79.38
430.958	95.38
431.18	82.38
431.402	80.38
431.624	86.38
431.846	74.38
432.068	88.38
432.29	88.38
432.512	96.38
432.734	92.38
432.956	92.38
433.178	76.38
433.4	84.38
433.622	89.38
433.844	93.38
434.066	84.38
434.287	83.38
434.509	93.38
434.731	75.38
434.953	81.38
435.175	95.38
435.397	81.38
435.618	73.38
435.84	87.38
436.062	88.38
436.284	77.38
436.505	91.38
436.727	80.38
436.949	90.38
437.17	88.38
437.392	101.38
437.614	85.38
437.835	74.38
438.057	83.38
438.278	80.38
438.5	85.38
438.721	86.38
438.943	83.38
439.165	77.38
439.386	89.38
439.608	88.38
439.829	81.38
440.05	84.38
440.272	78.38
440.493	92.38
440.715	82.38
440.936	78.38
441.158	87.38
441.379	87.38
441.6	99.38
441.822	78.38
442.043	81.38
442.264	108.38
442.486	74.38
442.707	99.38
442.928	96.38
443.149	64.38
443.371	90.38
443.592	84.38
443.813	90.38
444.034	96.38
444.255	86.38
444.476	85.38
444.698	86.38
444.919	94.38
445.14	202.38
445.361	147.38
445.582	106.38
445.803	86.38
446.024	75.38
446.245	88.38
446.466	82.38
446.687	86.38
446.908	91.38
447.129	90.38
447.35	83.38
447.571	100.38
447.792	80.38
448.013	84.38
448.234	95.38
448.455	82.38
448.675	80.38
448.896	97.38
449.117	102.38
449.338	79.38
449.559	87.38
449.779	93.38
450	100.38
450.221	87.38
450.442	93.38
450.662	91.38
450.883	87.38
451.104	94.38
451.324	87.38
451.545	82.38
451.766	84.38
451.986	78.38
452.207	79.38
452.428	90.38
452.648	89.38
452.869	70.38
453.089	90.38
453.31	93.38
453.53	87.38
453.751	68.38
453.971	83.38
454.192	82.38
454.412	89.38
454.633	88.38
454.853	86.38
455.073	78.38
455.294	75.38
455.514	86.38
455.734	96.38
455.955	81.38
456.175	73.38
456.395	93.38
456.616	85.38
456.836	87.38
457.056	77.38
457.276	83.38
457.497	90.38
457.717	87.38
457.937	69.38
458.157	95.38
458.377	76.38
458.598	95.38
458.818	81.38
459.038	100.38
459.258	75.38
459.478	86.38
459.698	95.38
459.918	92.38
460.138	96.38
460.358	90.38
460.578	86.38
460.798	81.38
461.018	73.38
461.238	90.38
461.458	101.38
461.678	94.38
461.898	82.38
462.118	92.38
462.338	80.38
462.558	86.38
462.777	91.38
462.997	103.38
463.217	93.38
463.437	90.38
463.657	75.38
463.876	93.38
464.096	76.38
464.316	108.38
464.536	101.38
464.755	95.38
464.975	95.38
465.195	80.38
465.414	89.38
465.634	89.38
465.854	82.38
466.073	91.38
466.293	93.38
466.512	74.38
466.732	85.38
466.951	91.38
467.171	77.38
467.391	87.38
467.61	88.38
467.829	81.38
468.049	85.38
468.268	96.38
468.488	87.38
468.707	87.38
468.927	84.38
469.146	73.38
469.365	96.38
469.585	83.38
469.804	87.38
470.023	81.38
470.243	90.38
470.462	97.38
470.681	89.38
470.901	88.38
471.12	87.38
471.339	84.38
471.558	102.38
471.777	68.38
471.997	80.38
472.216	85.38
472.435	77.38
472.654	84.38
472.873	92.38
473.092	89.38
473.311	87.38
473.53	71.38
473.749	75.38
473.968	86.38
474.187	83.38
474.406	84.38
474.625	85.38
474.844	87.38
475.063	84.38
475.282	71.38
475.501	75.38
475.72	81.38
475.939	98.38
476.158	83.38
476.377	89.38
476.596	89.38
476.814	75.38
477.033	75.38
477.252	89.38
477.471	97.38
477.69	83.38
477.908	85.38
478.127	92.38
478.346	99.38
478.564	96.38
478.783	77.38
479.002	92.38
479.22	89.38
479.439	98.38
479.658	95.38
479.876	93.38
480.095	95.38
480.313	99.38
480.532	91.38
480.751	89.38
480.969	93.38
481.188	99.38
481.406	84.38
481.624	92.38
481.843	77.38
482.061	89.38
482.28	85.38
482.498	106.38
482.717	89.38
482.935	83.38
483.153	89.38
483.372	93.38
483.59	89.38
483.808	91.38
484.027	95.38
484.245	81.38
484.463	94.38
484.681	97.38
484.9	96.38
485.118	93.38
485.336	103.38
485.554	93.38
485.772	87.38
485.99	82.38
486.209	80.38
486.427	87.38
486.645	98.38
486.863	101.38
487.081	74.38
487.299	77.38
487.517	86.38
487.735	95.38
487.953	98.38
488.171	97.38
488.389	83.38
488.607	101.38
488.825	104.38
489.043	102.38
489.261	94.38
489.479	79.38
489.696	86.38
489.914	91.38
490.132	92.38
490.35	103.38
490.568	106.38
490.786	87.38
491.003	100.38
491.221	96.38
491.439	102.38
491.657	81.38
491.874	99.38
492.092	91.38
492.31	94.38
492.527	90.38
492.745	89.38
492.963	86.38
493.18	101.38
493.398	95.38
493.615	101.38
493.833	96.38
494.05	87.38
494.268	94.38
494.485	96.38
494.703	99.38
494.92	104.38
495.138	72.38
495.355	103.38
495.573	94.38
495.79	89.38
496.008	105.38
496.225	109.38
496.442	91.38
496.66	88.38
496.877	98.38
497.094	99.38
497.312	98.38
497.529	105.38
497.746	93.38
497.963	108.38
498.181	97.38
498.398	109.38
498.615	104.38
498.832	93.38
499.049	104.38
499.267	96.38
499.484	103.38
499.701	110.38
499.918	109.38
500.135	112.38
500.352	119.38
500.569	111.38
500.786	114.38
501.003	103.38
501.22	112.38
501.437	104.38
501.654	93.38
501.871	107.38
502.088	96.38
502.305	83.38
502.522	102.38
502.739	89.38
502.956	83.38
503.172	97.38
503.389	103.38
503.606	85.38
503.823	103.38
504.04	94.38
504.256	87.38
504.473	101.38
504.69	102.38
504.907	103.38
505.123	75.38
505.34	87.38
505.557	89.38
505.773	91.38
505.99	97.38
506.207	89.38
506.423	82.38
506.64	82.38
506.856	94.38
507.073	104.38
507.289	92.38
507.506	93.38
507.722	97.38
507.939	98.38
508.155	92.38
508.372	87.38
508.588	87.38
508.805	86.38
509.021	93.38
509.238	101.38
509.454	71.38
509.67	84.38
509.887	80.38
510.103	88.38
510.319	96.38
510.536	95.38
510.752	87.38
510.968	82.38
511.184	98.38
511.401	98.38
511.617	87.38
511.833	89.38
512.049	88.38
512.265	84.38
512.481	87.38
512.698	112.38
512.914	85.38
513.13	89.38
513.346	80.38
513.562	103.38
513.778	90.38
513.994	80.38
514.21	81.38
514.426	95.38
514.642	86.38
514.858	101.38
515.074	90.38
515.29	89.38
515.506	85.38
515.721	93.38
515.937	100.38
516.153	89.38
516.369	86.38
516.585	93.38
516.801	94.38
517.016	91.38
517.232	94.38
517.448	90.38
517.664	92.38
517.879	111.38
518.095	95.38
518.311	94.38
518.527	103.38
518.742	95.38
518.958	91.38
519.173	104.38
519.389	108.38
519.605	94.38
519.82	79.38
520.036	94.38
520.251	90.38
520.467	90.38
520.682	99.38
520.898	87.38
521.113	85.38
521.329	102.38
521.544	89.38
521.76	91.38
521.975	93.38
522.19	101.38
522.406	101.38
522.621	97.38
522.836	93.38
523.052	99.38
523.267	88.38
523.482	93.38
523.698	87.38
523.913	89.38
524.128	76.38
524.343	90.38
524.559	96.38
524.774	91.38
524.989	85.38
525.204	87.38
525.419	79.38
525.634	85.38
525.849	91.38
526.064	88.38
526.28	88.38
526.495	83.38
526.71	95.38
526.925	96.38
527.14	87.38
527.355	85.38
527.57	93.38
527.785	93.38
527.999	80.38
528.214	88.38
528.429	88.38
528.644	86.38
528.859	92.38
529.074	82.38
529.289	100.38
529.503	101.38
529.718	85.38
529.933	81.38
530.148	100.38
530.363	101.38
530.577	101.38
530.792	81.38
531.007	95.38
531.221	88.38
531.436	95.38
531.651	104.38
531.865	88.38
532.08	85.38
532.295	81.38
532.509	104.38
532.724	101.38
532.938	85.38
533.153	71.38
533.367	83.38
533.582	79.38
533.796	105.38
534.011	94.38
534.225	76.38
534.44	78.38
534.654	82.38
534.868	95.38
535.083	99.38
535.297	87.38
535.511	107.38
535.726	95.38
535.94	96.38
536.154	86.38
536.369	91.38
536.583	102.38
536.797	92.38
537.011	96.38
537.225	92.38
537.44	99.38
537.654	92.38
537.868	86.38
538.082	91.38
538.296	102.38
538.51	81.38
538.724	90.38
538.938	79.38
539.153	91.38
539.367	93.38
539.581	84.38
539.795	81.38
540.009	90.38
540.222	91.38
540.436	100.38
540.65	78.38
540.864	84.38
541.078	87.38
541.292	108.38
541.506	93.38
541.72	88.38
541.934	93.38
542.147	95.38
542.361	85.38
542.575	96.38
542.789	96.38
543.002	75.38
543.216	92.38
543.43	103.38
543.644	95.38
543.857	86.38
544.071	87.38
544.285	88.38
544.498	86.38
544.712	88.38
544.925	88.38
545.139	92.38
545.352	97.38
545.566	97.38
545.779	89.38
545.993	87.38
546.206	90.38
546.42	99.38
546.633	87.38
546.847	77.38
547.06	89.38
547.274	101.38
547.487	104.38
547.7	94.38
547.914	101.38
548.127	104.38
548.34	97.38
548.554	87.38
548.767	85.38
548.98	90.38
549.193	84.38
549.407	92.38
549.62	95.38
549.833	82.38
550.046	95.38
550.259	93.38
550.473	93.38
550.686	87.38
550.899	89.38
551.112	98.38
551.325	98.38
551.538	73.38
551.751	104.38
551.964	100.38
552.177	75.38
552.39	88.38
552.603	76.38
552.816	86.38
553.029	96.38
553.242	103.38
553.455	85.38
553.667	93.38
553.88	71.38
554.093	67.38
554.306	94.38
554.519	99.38
554.732	94.38
554.944	91.38
555.157	91.38
555.37	87.38
555.583	78.38
555.795	94.38
556.008	89.38
556.221	82.38
556.433	101.38
556.646	87.38
556.859	94.38
557.071	91.38
557.284	67.38
557.496	103.38
557.709	81.38
557.921	85.38
558.134	89.38
558.346	87.38
558.559	89.38
558.771	85.38
558.984	95.38
559.196	102.38
559.409	97.38
559.621	108.38
559.833	93.38
560.046	95.38
560.258	97.38
560.47	96.38
560.683	99.38
560.895	97.38
561.107	85.38
561.32	82.38
561.532	93.38
561.744	78.38
561.956	87.38
562.168	95.38
562.381	101.38
562.593	88.38
562.805	91.38
563.017	72.38
563.229	75.38
563.441	80.38
563.653	97.38
563.865	88.38
564.077	92.38
564.289	88.38
564.501	86.38
564.713	91.38
564.925	84.38
565.137	89.38
565.349	99.38
565.561	89.38
565.773	92.38
565.985	80.38
566.197	91.38
566.408	92.38
566.62	105.38
566.832	100.38
567.044	95.38
567.255	92.38
567.467	96.38
567.679	91.38
567.891	93.38
568.102	87.38
568.314	99.38
568.526	78.38
568.737	91.38
568.949	82.38
569.161	89.38
569.372	95.38
569.584	73.38
569.795	84.38
570.007	101.38
570.218	91.38
570.43	95.38
570.641	88.38
570.853	88.38
571.064	87.38
571.276	93.38
571.487	93.38
571.698	92.38
571.91	96.38
572.121	81.38
572.333	95.38
572.544	102.38
572.755	79.38
572.966	91.38
573.178	94.38
573.389	96.38
573.6	94.38
573.811	88.38
574.023	100.38
574.234	89.38
574.445	89.38
574.656	92.38
574.867	100.38
575.078	80.38
575.289	94.38
575.501	85.38
575.712	92.38
575.923	103.38
576.134	83.38
576.345	92.38
576.556	84.38
576.767	88.38
576.978	87.38
577.188	89.38
577.399	77.38
577.61	91.38
577.821	83.38
578.032	95.38
578.243	85.38
578.454	92.38
578.665	93.38
578.875	102.38
579.086	91.38
579.297	82.38
579.508	105.38
579.718	92.38
579.929	85.38
580.14	96.38
580.35	87.38
580.561	87.38
580.772	80.38
580.982	81.38
581.193	87.38
581.403	85.38
581.614	93.38
581.825	88.38
582.035	89.38
582.246	79.38
582.456	81.38
582.667	101.38
582.877	98.38
583.087	91.38
583.298	89.38
583.508	93.38
583.719	83.38
583.929	79.38
584.139	94.38
584.35	83.38
584.56	94.38
584.77	94.38
584.981	100.38
585.191	86.38
585.401	96.38
585.611	97.38
585.821	96.38
586.032	89.38
586.242	94.38
586.452	90.38
586.662	92.38
586.872	67.38
587.082	80.38
587.292	83.38
587.502	96.38
587.713	93.38
587.923	72.38
588.133	92.38
588.343	92.38
588.553	97.38
588.762	84.38
588.972	83.38
589.182	77.38
589.392	108.38
589.602	91.38
589.812	83.38
590.022	96.38
590.232	80.38
590.441	81.38
590.651	80.38
590.861	104.38
591.071	77.38
591.281	87.38
591.49	90.38
591.7	71.38
591.91	83.38
592.119	82.38
592.329	95.38
592.539	97.38
592.748	87.38
592.958	86.38
593.167	83.38
593.377	88.38
593.587	94.38
593.796	101.38
594.006	99.38
594.215	92.38
594.424	91.38
594.634	103.38
594.843	82.38
595.053	84.38
595.262	95.38
595.472	80.38
595.681	95.38
595.89	77.38
596.1	97.38
596.309	88.38
596.518	84.38
596.727	95.38
596.937	94.38
597.146	86.38
597.355	89.38
597.564	90.38
597.774	83.38
597.983	83.38
598.192	79.38
598.401	87.38
598.61	91.38
598.819	72.38
599.028	93.38
599.237	101.38
599.446	81.38
599.655	101.38
599.864	97.38
600.073	90.38
600.282	81.38
600.491	88.38
600.7	76.38
600.909	100.38
601.118	101.38
601.327	80.38
601.536	87.38
601.745	90.38
601.953	96.38
602.162	89.38
602.371	86.38
602.58	83.38
602.789	94.38
602.997	102.38
603.206	96.38
603.415	86.38
603.623	67.38
603.832	92.38
604.041	71.38
604.249	80.38
604.458	83.38
604.666	78.38
604.875	86.38
605.084	81.38
605.292	79.38
605.501	92.38
605.709	69.38
605.918	97.38
606.126	91.38
606.334	72.38
606.543	80.38
606.751	95.38
606.96	87.38
607.168	100.38
607.376	88.38
607.585	93.38
607.793	100.38
608.001	107.38
608.21	84.38
608.418	99.38
608.626	87.38
608.834	80.38
609.043	86.38
609.251	86.38
609.459	75.38
609.667	96.38
609.875	80.38
610.083	89.38
610.291	94.38
610.499	91.38
610.707	95.38
610.916	95.38
611.124	96.38
611.332	72.38
611.54	86.38
611.748	76.38
611.955	79.38
612.163	89.38
612.371	77.38
612.579	91.38
612.787	91.38
612.995	79.38
613.203	99.38
613.411	93.38
613.618	99.38
613.826	79.38
614.034	85.38
614.242	99.38
614.449	90.38
614.657	88.38
614.865	95.38
615.072	96.38
615.28	87.38
615.488	96.38
615.695	74.38
615.903	88.38
616.111	85.38
616.318	97.38
616.526	91.38
616.733	90.38
616.941	84.38
617.148	87.38
617.356	88.38
617.563	70.38
617.771	94.38
617.978	87.38
618.185	87.38
618.393	91.38
618.6	85.38
618.807	81.38
619.015	86.38
619.222	82.38
619.429	73.38
619.637	97.38
619.844	86.38
620.051	102.38
620.258	89.38
620.466	87.38
620.673	80.38
620.88	85.38
621.087	83.38
621.294	89.38
621.501	96.38
621.708	99.38
621.915	93.38
622.122	84.38
622.329	86.38
622.536	90.38
622.743	85.38
622.95	97.38
623.157	84.38
623.364	98.38
623.571	88.38
623.778	78.38
623.985	106.38
624.192	96.38
624.399	80.38
624.606	89.38
624.812	78.38
625.019	80.38
625.226	77.38
625.433	89.38
625.639	88.38
625.846	90.38
626.053	85.38
626.259	91.38
626.466	94.38
626.673	94.38
626.879	92.38
627.086	99.38
627.293	85.38
627.499	89.38
627.706	71.38
627.912	84.38
628.119	91.38
628.325	99.38
628.532	78.38
628.738	80.38
628.945	81.38
629.151	75.38
629.357	78.38
629.564	89.38
629.77	92.38
629.976	92.38
630.183	92.38
630.389	93.38
630.595	80.38
630.802	90.38
631.008	92.38
631.214	99.38
631.42	97.38
631.627	91.38
631.833	85.38
632.039	85.38
632.245	88.38
632.451	87.38
632.657	95.38
632.863	88.38
633.069	87.38
633.275	91.38
633.481	87.38
633.688	72.38
633.893	71.38
634.099	75.38
634.305	85.38
634.511	96.38
634.717	82.38
634.923	97.38
635.129	102.38
635.335	91.38
635.541	79.38
635.747	80.38
635.952	80.38
636.158	100.38
636.364	87.38
636.57	91.38
636.775	80.38
636.981	89.38
637.187	87.38
637.392	79.38
637.598	74.38
637.804	91.38
638.009	97.38
638.215	91.38
638.421	92.38
638.626	86.38
638.832	89.38
639.037	87.38
639.243	85.38
639.448	79.38
639.654	80.38
639.859	76.38
640.065	92.38
640.27	97.38
640.475	86.38
640.681	79.38
640.886	82.38
641.091	89.38
641.297	87.38
641.502	96.38
641.707	86.38
641.913	87.38
642.118	86.38
642.323	89.38
642.528	84.38
642.733	100.38
642.939	92.38
643.144	84.38
643.349	83.38
643.554	95.38
643.759	86.38
643.964	83.38
644.169	90.38
644.374	86.38
644.579	72.38
644.784	70.38
644.989	89.38
645.194	95.38
645.399	87.38
645.604	89.38
645.809	88.38
646.014	92.38
646.219	80.38
646.423	88.38
646.628	66.38
646.833	79.38
647.038	82.38
647.243	82.38
647.447	85.38
647.652	92.38
647.857	97.38
648.062	88.38
648.266	77.38
648.471	82.38
648.676	88.38
648.88	80.38
649.085	86.38
649.289	91.38
649.494	76.38
649.698	105.38
649.903	93.38
650.107	78.38
650.312	86.38
650.516	80.38
650.721	85.38
650.925	87.38
651.13	83.38
651.334	89.38
651.539	100.38
651.743	92.38
651.947	93.38
652.152	81.38
652.356	99.38
652.56	79.38
652.764	81.38
652.969	85.38
653.173	80.38
653.377	78.38
653.581	91.38
653.785	89.38
653.99	83.38
654.194	85.38
654.398	83.38
654.602	90.38
654.806	97.38
655.01	92.38
655.214	75.38
655.418	79.38
655.622	80.38
655.826	89.38
656.03	82.38
656.234	81.38
656.438	79.38
656.642	82.38
656.846	103.38
657.049	78.38
657.253	85.38
657.457	73.38
657.661	71.38
657.865	86.38
658.068	80.38
658.272	78.38
658.476	74.38
658.68	84.38
658.883	78.38
659.087	79.38
659.291	89.38
659.494	77.38
659.698	79.38
659.901	95.38
660.105	80.38
660.309	74.38
660.512	78.38
660.716	87.38
660.919	94.38
661.123	94.38
661.326	96.38
661.53	90.38
661.733	88.38
661.936	89.38
662.14	88.38
662.343	88.38
662.546	80.38
662.75	63.38
662.953	85.38
663.156	87.38
663.36	73.38
663.563	85.38
663.766	80.38
663.969	81.38
664.173	91.38
664.376	86.38
664.579	84.38
664.782	79.38
664.985	83.38
665.188	87.38
665.391	70.38
665.594	93.38
665.797	80.38
666	87.38
666.203	88.38
666.406	82.38
666.609	83.38
666.812	67.38
667.015	86.38
667.218	84.38
667.421	91.38
667.624	86.38
667.827	83.38
668.03	77.38
668.232	87.38
668.435	87.38
668.638	75.38
668.841	79.38
669.043	84.38
669.246	71.38
669.449	85.38
669.651	79.38
669.854	92.38
670.057	91.38
670.259	73.38
670.462	68.38
670.665	92.38
670.867	91.38
671.07	101.38
671.272	93.38
671.475	78.38
671.677	92.38
671.88	79.38
672.082	82.38
672.284	92.38
672.487	82.38
672.689	92.38
672.892	72.38
