Data from Ni(NO3)2@0.25M.TitratingCurve.Agarose3%dH2O.NegLispCup.LampEnergy10.LIBS07252019_HRD10591_18-05-30-566.txt Node
Date: Thu Jul 25 18:05:30 EDT 2019
User: cochatt
Spectrometer: HR+D1059
Trigger mode: 1
Integration Time (sec): 1.000000E-1
Scans to average: 1
Electric dark correction enabled: true
Nonlinearity correction enabled: false
Boxcar width: 0
XAxis mode: Wavelengths
Number of Pixels in Spectrum: 2048
>>>>>Begin Spectral Data<<<<<
223.165	-8.75
223.4	-8.75
223.635	-8.75
223.869	-22.75
224.104	-19.75
224.338	-9.75
224.573	-27.75
224.808	-24.75
225.042	-2.75
225.277	5.25
225.511	-5.75
225.746	-0.75
225.98	0.25
226.215	15.25
226.449	13.25
226.683	29.25
226.918	33.25
227.152	26.25
227.387	47.25
227.621	37.25
227.856	42.25
228.09	57.25
228.324	51.25
228.559	60.25
228.793	51.25
229.027	80.25
229.262	106.25
229.496	92.25
229.73	103.25
229.964	102.25
230.199	108.25
230.433	102.25
230.667	108.25
230.901	101.25
231.136	102.25
231.37	123.25
231.604	106.25
231.838	122.25
232.072	120.25
232.306	123.25
232.541	113.25
232.775	131.25
233.009	128.25
233.243	125.25
233.477	126.25
233.711	128.25
233.945	127.25
234.179	116.25
234.413	122.25
234.647	128.25
234.881	123.25
235.115	111.25
235.349	120.25
235.583	136.25
235.817	135.25
236.051	125.25
236.285	127.25
236.519	118.25
236.753	123.25
236.987	117.25
237.221	126.25
237.455	107.25
237.689	135.25
237.922	129.25
238.156	126.25
238.39	123.25
238.624	126.25
238.858	121.25
239.091	138.25
239.325	137.25
239.559	132.25
239.793	138.25
240.027	153.25
240.26	121.25
240.494	125.25
240.728	151.25
240.961	136.25
241.195	122.25
241.429	135.25
241.662	125.25
241.896	133.25
242.13	134.25
242.363	135.25
242.597	136.25
242.83	147.25
243.064	131.25
243.298	132.25
243.531	150.25
243.765	139.25
243.998	153.25
244.232	165.25
244.465	160.25
244.699	163.25
244.932	156.25
245.166	163.25
245.399	158.25
245.633	164.25
245.866	163.25
246.099	161.25
246.333	170.25
246.566	149.25
246.8	169.25
247.033	160.25
247.266	169.25
247.5	158.25
247.733	167.25
247.966	160.25
248.2	162.25
248.433	170.25
248.666	177.25
248.899	182.25
249.133	167.25
249.366	163.25
249.599	181.25
249.832	179.25
250.066	178.25
250.299	157.25
250.532	165.25
250.765	185.25
250.998	183.25
251.231	183.25
251.465	184.25
251.698	189.25
251.931	188.25
252.164	190.25
252.397	196.25
252.63	182.25
252.863	196.25
253.096	194.25
253.329	200.25
253.562	199.25
253.795	181.25
254.028	210.25
254.261	190.25
254.494	194.25
254.727	199.25
254.96	194.25
255.193	200.25
255.426	200.25
255.659	202.25
255.892	211.25
256.124	192.25
256.357	208.25
256.59	206.25
256.823	213.25
257.056	191.25
257.289	209.25
257.521	209.25
257.754	203.25
257.987	215.25
258.22	226.25
258.452	206.25
258.685	217.25
258.918	216.25
259.151	205.25
259.383	229.25
259.616	232.25
259.849	223.25
260.081	229.25
260.314	214.25
260.547	223.25
260.779	222.25
261.012	236.25
261.244	238.25
261.477	230.25
261.71	227.25
261.942	235.25
262.175	224.25
262.407	244.25
262.64	234.25
262.872	231.25
263.105	230.25
263.337	230.25
263.57	230.25
263.802	253.25
264.035	246.25
264.267	244.25
264.499	231.25
264.732	260.25
264.964	251.25
265.197	261.25
265.429	245.25
265.661	237.25
265.894	236.25
266.126	244.25
266.358	254.25
266.591	254.25
266.823	263.25
267.055	237.25
267.287	259.25
267.52	256.25
267.752	278.25
267.984	269.25
268.216	252.25
268.448	247.25
268.681	267.25
268.913	274.25
269.145	260.25
269.377	239.25
269.609	253.25
269.841	255.25
270.073	268.25
270.306	274.25
270.538	269.25
270.77	262.25
271.002	266.25
271.234	280.25
271.466	273.25
271.698	280.25
271.93	279.25
272.162	273.25
272.394	274.25
272.626	271.25
272.858	281.25
273.09	273.25
273.322	280.25
273.553	285.25
273.785	289.25
274.017	271.25
274.249	287.25
274.481	288.25
274.713	285.25
274.945	285.25
275.176	283.25
275.408	267.25
275.64	287.25
275.872	272.25
276.104	296.25
276.335	272.25
276.567	277.25
276.799	283.25
277.031	289.25
277.262	284.25
277.494	313.25
277.726	311.25
277.957	293.25
278.189	303.25
278.421	302.25
278.652	301.25
278.884	303.25
279.115	283.25
279.347	294.25
279.579	318.25
279.81	305.25
280.042	300.25
280.273	299.25
280.505	301.25
280.736	319.25
280.968	301.25
281.199	299.25
281.431	314.25
281.662	323.25
281.894	331.25
282.125	333.25
282.356	334.25
282.588	327.25
282.819	305.25
283.051	313.25
283.282	307.25
283.513	329.25
283.745	338.25
283.976	315.25
284.207	331.25
284.439	317.25
284.67	332.25
284.901	329.25
285.132	312.25
285.364	312.25
285.595	337.25
285.826	327.25
286.057	324.25
286.288	316.25
286.52	336.25
286.751	332.25
286.982	338.25
287.213	318.25
287.444	341.25
287.675	363.25
287.906	334.25
288.138	336.25
288.369	343.25
288.6	347.25
288.831	326.25
289.062	322.25
289.293	345.25
289.524	333.25
289.755	343.25
289.986	337.25
290.217	348.25
290.448	353.25
290.679	370.25
290.91	348.25
291.141	371.25
291.371	339.25
291.602	334.25
291.833	334.25
292.064	342.25
292.295	347.25
292.526	343.25
292.757	345.25
292.987	338.25
293.218	344.25
293.449	350.25
293.68	358.25
293.91	353.25
294.141	347.25
294.372	354.25
294.603	363.25
294.833	364.25
295.064	342.25
295.295	359.25
295.525	330.25
295.756	349.25
295.987	370.25
296.217	339.25
296.448	353.25
296.679	358.25
296.909	368.25
297.14	355.25
297.37	360.25
297.601	350.25
297.831	382.25
298.062	387.25
298.292	366.25
298.523	396.25
298.753	377.25
298.984	359.25
299.214	376.25
299.445	374.25
299.675	387.25
299.905	368.25
300.136	381.25
300.366	374.25
300.597	375.25
300.827	386.25
301.057	395.25
301.288	400.25
301.518	407.25
301.748	403.25
301.979	399.25
302.209	399.25
302.439	381.25
302.669	385.25
302.9	409.25
303.13	392.25
303.36	410.25
303.59	388.25
303.82	389.25
304.051	402.25
304.281	405.25
304.511	401.25
304.741	393.25
304.971	406.25
305.201	414.25
305.431	413.25
305.661	399.25
305.891	401.25
306.121	391.25
306.352	404.25
306.582	389.25
306.812	397.25
307.042	395.25
307.272	385.25
307.502	404.25
307.731	377.25
307.961	392.25
308.191	391.25
308.421	375.25
308.651	400.25
308.881	384.25
309.111	400.25
309.341	376.25
309.571	390.25
309.8	384.25
310.03	396.25
310.26	399.25
310.49	392.25
310.72	384.25
310.949	405.25
311.179	404.25
311.409	380.25
311.639	408.25
311.868	407.25
312.098	397.25
312.328	418.25
312.557	407.25
312.787	423.25
313.017	396.25
313.246	415.25
313.476	439.25
313.706	445.25
313.935	435.25
314.165	425.25
314.394	426.25
314.624	431.25
314.853	427.25
315.083	424.25
315.312	439.25
315.542	423.25
315.771	418.25
316.001	431.25
316.23	430.25
316.46	427.25
316.689	434.25
316.919	428.25
317.148	419.25
317.377	421.25
317.607	432.25
317.836	412.25
318.065	430.25
318.295	439.25
318.524	435.25
318.753	432.25
318.983	429.25
319.212	421.25
319.441	425.25
319.67	420.25
319.9	433.25
320.129	436.25
320.358	431.25
320.587	431.25
320.816	431.25
321.046	421.25
321.275	436.25
321.504	433.25
321.733	445.25
321.962	450.25
322.191	451.25
322.42	444.25
322.649	455.25
322.878	451.25
323.108	460.25
323.337	467.25
323.566	454.25
323.795	441.25
324.024	465.25
324.253	468.25
324.482	464.25
324.71	472.25
324.939	477.25
325.168	460.25
325.397	460.25
325.626	460.25
325.855	474.25
326.084	472.25
326.313	484.25
326.542	483.25
326.77	492.25
326.999	486.25
327.228	489.25
327.457	483.25
327.686	486.25
327.914	491.25
328.143	494.25
328.372	500.25
328.6	492.25
328.829	511.25
329.058	493.25
329.287	508.25
329.515	491.25
329.744	513.25
329.972	524.25
330.201	506.25
330.43	518.25
330.658	520.25
330.887	540.25
331.115	535.25
331.344	526.25
331.572	536.25
331.801	551.25
332.03	554.25
332.258	558.25
332.486	597.25
332.715	619.25
332.943	622.25
333.172	642.25
333.4	667.25
333.629	669.25
333.857	676.25
334.085	673.25
334.314	675.25
334.542	671.25
334.771	640.25
334.999	644.25
335.227	636.25
335.455	639.25
335.684	637.25
335.912	625.25
336.14	614.25
336.369	617.25
336.597	627.25
336.825	596.25
337.053	629.25
337.281	603.25
337.51	611.25
337.738	580.25
337.966	583.25
338.194	567.25
338.422	577.25
338.65	550.25
338.878	567.25
339.106	580.25
339.334	573.25
339.562	559.25
339.79	547.25
340.018	557.25
340.246	554.25
340.474	524.25
340.702	534.25
340.93	540.25
341.158	524.25
341.386	554.25
341.614	540.25
341.842	556.25
342.07	549.25
342.298	513.25
342.526	556.25
342.754	539.25
342.981	553.25
343.209	579.25
343.437	617.25
343.665	630.25
343.893	644.25
344.12	662.25
344.348	639.25
344.576	600.25
344.804	571.25
345.031	571.25
345.259	564.25
345.487	567.25
345.714	545.25
345.942	537.25
346.17	557.25
346.397	552.25
346.625	522.25
346.853	545.25
347.08	522.25
347.308	539.25
347.535	548.25
347.763	536.25
347.99	542.25
348.218	550.25
348.445	523.25
348.673	522.25
348.9	512.25
349.128	530.25
349.355	537.25
349.583	564.25
349.81	521.25
350.037	510.25
350.265	515.25
350.492	488.25
350.72	517.25
350.947	519.25
351.174	500.25
351.402	520.25
351.629	519.25
351.856	504.25
352.083	504.25
352.311	523.25
352.538	509.25
352.765	521.25
352.992	517.25
353.22	509.25
353.447	502.25
353.674	504.25
353.901	502.25
354.128	521.25
354.355	495.25
354.583	512.25
354.81	497.25
355.037	489.25
355.264	495.25
355.491	504.25
355.718	519.25
355.945	497.25
356.172	521.25
356.399	495.25
356.626	522.25
356.853	523.25
357.08	504.25
357.307	533.25
357.534	519.25
357.761	535.25
357.988	503.25
358.215	510.25
358.441	511.25
358.668	488.25
358.895	509.25
359.122	496.25
359.349	492.25
359.576	499.25
359.802	494.25
360.029	493.25
360.256	495.25
360.483	491.25
360.709	511.25
360.936	527.25
361.163	519.25
361.39	511.25
361.616	493.25
361.843	518.25
362.07	519.25
362.296	529.25
362.523	506.25
362.749	503.25
362.976	506.25
363.203	502.25
363.429	496.25
363.656	505.25
363.882	492.25
364.109	497.25
364.335	519.25
364.562	505.25
364.788	498.25
365.015	508.25
365.241	528.25
365.468	507.25
365.694	489.25
365.92	487.25
366.147	490.25
366.373	517.25
366.599	512.25
366.826	515.25
367.052	490.25
367.278	489.25
367.505	487.25
367.731	491.25
367.957	503.25
368.184	501.25
368.41	512.25
368.636	521.25
368.862	519.25
369.089	492.25
369.315	505.25
369.541	514.25
369.767	506.25
369.993	542.25
370.219	520.25
370.445	519.25
370.672	513.25
370.898	518.25
371.124	555.25
371.35	544.25
371.576	551.25
371.802	529.25
372.028	540.25
372.254	552.25
372.48	535.25
372.706	565.25
372.932	564.25
373.158	545.25
373.384	533.25
373.61	529.25
373.835	558.25
374.061	539.25
374.287	562.25
374.513	563.25
374.739	560.25
374.965	573.25
375.191	596.25
375.416	584.25
375.642	559.25
375.868	569.25
376.094	559.25
376.319	546.25
376.545	550.25
376.771	541.25
376.997	525.25
377.222	528.25
377.448	541.25
377.674	540.25
377.899	525.25
378.125	517.25
378.35	538.25
378.576	529.25
378.802	526.25
379.027	547.25
379.253	532.25
379.478	523.25
379.704	535.25
379.929	534.25
380.155	538.25
380.38	541.25
380.606	535.25
380.831	520.25
381.057	531.25
381.282	535.25
381.507	541.25
381.733	542.25
381.958	536.25
382.184	563.25
382.409	547.25
382.634	575.25
382.86	581.25
383.085	545.25
383.31	553.25
383.535	601.25
383.761	580.25
383.986	604.25
384.211	617.25
384.436	615.25
384.662	614.25
384.887	639.25
385.112	630.25
385.337	629.25
385.562	646.25
385.787	644.25
386.013	637.25
386.238	641.25
386.463	650.25
386.688	627.25
386.913	622.25
387.138	622.25
387.363	635.25
387.588	655.25
387.813	624.25
388.038	647.25
388.263	636.25
388.488	637.25
388.713	613.25
388.938	612.25
389.163	631.25
389.387	619.25
389.612	599.25
389.837	628.25
390.062	629.25
390.287	622.25
390.512	629.25
390.736	645.25
390.961	658.25
391.186	645.25
391.411	675.25
391.636	691.25
391.86	714.25
392.085	715.25
392.31	711.25
392.534	700.25
392.759	668.25
392.984	682.25
393.208	666.25
393.433	678.25
393.658	693.25
393.882	682.25
394.107	653.25
394.331	689.25
394.556	673.25
394.78	691.25
395.005	680.25
395.229	687.25
395.454	695.25
395.678	719.25
395.903	701.25
396.127	719.25
396.352	693.25
396.576	689.25
396.801	654.25
397.025	719.25
397.249	674.25
397.474	725.25
397.698	693.25
397.922	727.25
398.147	731.25
398.371	731.25
398.595	734.25
398.82	823.25
399.044	839.25
399.268	942.25
399.492	1065.25
399.717	1187.25
399.941	1154.25
400.165	1057.25
400.389	957.25
400.613	914.25
400.837	867.25
401.062	835.25
401.286	804.25
401.51	833.25
401.734	812.25
401.958	834.25
402.182	813.25
402.406	823.25
402.63	817.25
402.854	852.25
403.078	852.25
403.302	857.25
403.526	885.25
403.75	877.25
403.974	903.25
404.198	917.25
404.422	923.25
404.645	902.25
404.869	899.25
405.093	879.25
405.317	901.25
405.541	896.25
405.765	879.25
405.988	880.25
406.212	889.25
406.436	877.25
406.66	891.25
406.883	914.25
407.107	944.25
407.331	1002.25
407.555	1060.25
407.778	1047.25
408.002	1016.25
408.226	941.25
408.449	951.25
408.673	916.25
408.896	905.25
409.12	907.25
409.344	890.25
409.567	883.25
409.791	927.25
410.014	889.25
410.238	876.25
410.461	901.25
410.685	880.25
410.908	885.25
411.132	854.25
411.355	844.25
411.578	844.25
411.802	855.25
412.025	849.25
412.249	841.25
412.472	849.25
412.695	813.25
412.919	798.25
413.142	801.25
413.365	813.25
413.589	825.25
413.812	817.25
414.035	816.25
414.258	825.25
414.482	806.25
414.705	841.25
414.928	817.25
415.151	814.25
415.374	825.25
415.597	841.25
415.821	807.25
416.044	803.25
416.267	807.25
416.49	790.25
416.713	789.25
416.936	789.25
417.159	801.25
417.382	800.25
417.605	782.25
417.828	782.25
418.051	828.25
418.274	811.25
418.497	792.25
418.72	832.25
418.943	841.25
419.166	894.25
419.389	939.25
419.611	881.25
419.834	871.25
420.057	846.25
420.28	837.25
420.503	819.25
420.726	800.25
420.948	793.25
421.171	825.25
421.394	838.25
421.617	814.25
421.839	820.25
422.062	850.25
422.285	816.25
422.507	812.25
422.73	841.25
422.953	865.25
423.175	847.25
423.398	845.25
423.621	837.25
423.843	879.25
424.066	892.25
424.288	848.25
424.511	843.25
424.733	837.25
424.956	834.25
425.178	822.25
425.401	826.25
425.623	820.25
425.846	797.25
426.068	800.25
426.291	788.25
426.513	790.25
426.735	804.25
426.958	764.25
427.18	745.25
427.402	753.25
427.625	757.25
427.847	745.25
428.069	755.25
428.292	747.25
428.514	760.25
428.736	750.25
428.958	715.25
429.181	716.25
429.403	731.25
429.625	729.25
429.847	719.25
430.069	716.25
430.292	742.25
430.514	701.25
430.736	735.25
430.958	721.25
431.18	725.25
431.402	717.25
431.624	747.25
431.846	731.25
432.068	774.25
432.29	752.25
432.512	745.25
432.734	768.25
432.956	767.25
433.178	748.25
433.4	759.25
433.622	765.25
433.844	766.25
434.066	744.25
434.287	752.25
434.509	799.25
434.731	803.25
434.953	808.25
435.175	844.25
435.397	792.25
435.618	783.25
435.84	766.25
436.062	764.25
436.284	768.25
436.505	745.25
436.727	772.25
436.949	727.25
437.17	741.25
437.392	739.25
437.614	725.25
437.835	717.25
438.057	716.25
438.278	715.25
438.5	733.25
438.721	726.25
438.943	745.25
439.165	728.25
439.386	753.25
439.608	730.25
439.829	739.25
440.05	760.25
440.272	773.25
440.493	755.25
440.715	759.25
440.936	777.25
441.158	801.25
441.379	817.25
441.6	885.25
441.822	865.25
442.043	853.25
442.264	838.25
442.486	826.25
442.707	852.25
442.928	845.25
443.149	839.25
443.371	827.25
443.592	845.25
443.813	862.25
444.034	871.25
444.255	889.25
444.476	903.25
444.698	926.25
444.919	999.25
445.14	1083.25
445.361	953.25
445.582	913.25
445.803	854.25
446.024	814.25
446.245	808.25
446.466	797.25
446.687	773.25
446.908	794.25
447.129	748.25
447.35	733.25
447.571	741.25
447.792	730.25
448.013	715.25
448.234	716.25
448.455	713.25
448.675	684.25
448.896	703.25
449.117	697.25
449.338	716.25
449.559	721.25
449.779	707.25
450	701.25
450.221	672.25
450.442	713.25
450.662	716.25
450.883	688.25
451.104	718.25
451.324	703.25
451.545	692.25
451.766	688.25
451.986	688.25
452.207	700.25
452.428	675.25
452.648	677.25
452.869	674.25
453.089	677.25
453.31	677.25
453.53	657.25
453.751	672.25
453.971	645.25
454.192	683.25
454.412	658.25
454.633	637.25
454.853	653.25
455.073	646.25
455.294	663.25
455.514	666.25
455.734	665.25
455.955	645.25
456.175	647.25
456.395	667.25
456.616	632.25
456.836	647.25
457.056	643.25
457.276	633.25
457.497	656.25
457.717	666.25
457.937	647.25
458.157	675.25
458.377	662.25
458.598	677.25
458.818	714.25
459.038	720.25
459.258	707.25
459.478	787.25
459.698	784.25
459.918	796.25
460.138	827.25
460.358	873.25
460.578	858.25
460.798	881.25
461.018	879.25
461.238	885.25
461.458	891.25
461.678	883.25
461.898	906.25
462.118	913.25
462.338	944.25
462.558	984.25
462.777	1013.25
462.997	1087.25
463.217	1163.25
463.437	1136.25
463.657	1065.25
463.876	1047.25
464.096	1028.25
464.316	990.25
464.536	1056.25
464.755	991.25
464.975	931.25
465.195	918.25
465.414	855.25
465.634	826.25
465.854	791.25
466.073	757.25
466.293	803.25
466.512	745.25
466.732	730.25
466.951	743.25
467.171	751.25
467.391	735.25
467.61	718.25
467.829	732.25
468.049	741.25
468.268	716.25
468.488	709.25
468.707	698.25
468.927	701.25
469.146	691.25
469.365	709.25
469.585	735.25
469.804	717.25
470.023	755.25
470.243	752.25
470.462	761.25
470.681	732.25
470.901	757.25
471.12	744.25
471.339	725.25
471.558	726.25
471.777	720.25
471.997	694.25
472.216	698.25
472.435	704.25
472.654	671.25
472.873	689.25
473.092	692.25
473.311	695.25
473.53	714.25
473.749	685.25
473.968	686.25
474.187	662.25
474.406	680.25
474.625	689.25
474.844	685.25
475.063	671.25
475.282	677.25
475.501	686.25
475.72	663.25
475.939	714.25
476.158	698.25
476.377	712.25
476.596	697.25
476.814	727.25
477.033	702.25
477.252	727.25
477.471	771.25
477.69	766.25
477.908	760.25
478.127	795.25
478.346	807.25
478.564	807.25
478.783	823.25
479.002	840.25
479.22	854.25
479.439	853.25
479.658	831.25
479.876	842.25
480.095	831.25
480.313	879.25
480.532	926.25
480.751	890.25
480.969	872.25
481.188	827.25
481.406	819.25
481.624	818.25
481.843	777.25
482.061	789.25
482.28	789.25
482.498	775.25
482.717	763.25
482.935	736.25
483.153	780.25
483.372	798.25
483.59	783.25
483.808	778.25
484.027	779.25
484.245	759.25
484.463	774.25
484.681	795.25
484.9	790.25
485.118	786.25
485.336	806.25
485.554	791.25
485.772	795.25
485.99	791.25
486.209	802.25
486.427	799.25
486.645	790.25
486.863	807.25
487.081	791.25
487.299	804.25
487.517	803.25
487.735	812.25
487.953	830.25
488.171	820.25
488.389	821.25
488.607	790.25
488.825	820.25
489.043	784.25
489.261	823.25
489.479	777.25
489.696	804.25
489.914	797.25
490.132	789.25
490.35	801.25
490.568	842.25
490.786	807.25
491.003	823.25
491.221	838.25
491.439	827.25
491.657	820.25
491.874	856.25
492.092	858.25
492.31	872.25
492.527	865.25
492.745	858.25
492.963	856.25
493.18	854.25
493.398	863.25
493.615	862.25
493.833	857.25
494.05	858.25
494.268	867.25
494.485	859.25
494.703	895.25
494.92	873.25
495.138	870.25
495.355	879.25
495.573	876.25
495.79	870.25
496.008	896.25
496.225	878.25
496.442	911.25
496.66	957.25
496.877	897.25
497.094	951.25
497.312	973.25
497.529	960.25
497.746	979.25
497.963	1015.25
498.181	1083.25
498.398	1113.25
498.615	1165.25
498.832	1259.25
499.049	1349.25
499.267	1463.25
499.484	1561.25
499.701	1718.25
499.918	1898.25
500.135	2114.25
500.352	2373.25
500.569	2500.25
500.786	2412.25
501.003	2257.25
501.22	2076.25
501.437	1837.25
501.654	1658.25
501.871	1516.25
502.088	1403.25
502.305	1302.25
502.522	1256.25
502.739	1198.25
502.956	1120.25
503.172	1076.25
503.389	1063.25
503.606	1019.25
503.823	1014.25
504.04	1003.25
504.256	1031.25
504.473	1010.25
504.69	1012.25
504.907	1003.25
505.123	953.25
505.34	912.25
505.557	871.25
505.773	878.25
505.99	823.25
506.207	809.25
506.423	806.25
506.64	816.25
506.856	807.25
507.073	781.25
507.289	772.25
507.506	776.25
507.722	771.25
507.939	759.25
508.155	729.25
508.372	773.25
508.588	748.25
508.805	721.25
509.021	731.25
509.238	729.25
509.454	717.25
509.67	737.25
509.887	703.25
510.103	692.25
510.319	711.25
510.536	685.25
510.752	699.25
510.968	732.25
511.184	718.25
511.401	725.25
511.617	691.25
511.833	703.25
512.049	675.25
512.265	691.25
512.481	693.25
512.698	704.25
512.914	715.25
513.13	710.25
513.346	691.25
513.562	691.25
513.778	712.25
513.994	704.25
514.21	704.25
514.426	699.25
514.642	716.25
514.858	731.25
515.074	742.25
515.29	736.25
515.506	731.25
515.721	751.25
515.937	744.25
516.153	756.25
516.369	787.25
516.585	784.25
516.801	812.25
517.016	857.25
517.232	892.25
517.448	914.25
517.664	912.25
517.879	960.25
518.095	958.25
518.311	906.25
518.527	900.25
518.742	873.25
518.958	839.25
519.173	809.25
519.389	796.25
519.605	766.25
519.82	745.25
520.036	737.25
520.251	718.25
520.467	731.25
520.682	710.25
520.898	705.25
521.113	711.25
521.329	677.25
521.544	673.25
521.76	670.25
521.975	696.25
522.19	684.25
522.406	672.25
522.621	652.25
522.836	650.25
523.052	676.25
523.267	658.25
523.482	648.25
523.698	655.25
523.913	646.25
524.128	663.25
524.343	628.25
524.559	650.25
524.774	643.25
524.989	646.25
525.204	675.25
525.419	637.25
525.634	624.25
525.849	651.25
526.064	665.25
526.28	627.25
526.495	637.25
526.71	623.25
526.925	624.25
527.14	614.25
527.355	629.25
527.57	635.25
527.785	629.25
527.999	624.25
528.214	627.25
528.429	620.25
528.644	632.25
528.859	615.25
529.074	647.25
529.289	621.25
529.503	625.25
529.718	653.25
529.933	624.25
530.148	635.25
530.363	607.25
530.577	636.25
530.792	623.25
531.007	624.25
531.221	631.25
531.436	630.25
531.651	637.25
531.865	610.25
532.08	611.25
532.295	623.25
532.509	634.25
532.724	615.25
532.938	633.25
533.153	616.25
533.367	612.25
533.582	635.25
533.796	610.25
534.011	622.25
534.225	628.25
534.44	625.25
534.654	616.25
534.868	621.25
535.083	601.25
535.297	608.25
535.511	608.25
535.726	609.25
535.94	591.25
536.154	602.25
536.369	612.25
536.583	607.25
536.797	584.25
537.011	579.25
537.225	581.25
537.44	594.25
537.654	588.25
537.868	587.25
538.082	590.25
538.296	589.25
538.51	587.25
538.724	594.25
538.938	590.25
539.153	585.25
539.367	598.25
539.581	572.25
539.795	583.25
540.009	572.25
540.222	577.25
540.436	571.25
540.65	569.25
540.864	586.25
541.078	567.25
541.292	596.25
541.506	583.25
541.72	587.25
541.934	592.25
542.147	598.25
542.361	575.25
542.575	579.25
542.789	577.25
543.002	570.25
543.216	592.25
543.43	567.25
543.644	563.25
543.857	587.25
544.071	570.25
544.285	591.25
544.498	588.25
544.712	593.25
544.925	616.25
545.139	599.25
545.352	567.25
545.566	581.25
545.779	587.25
545.993	590.25
546.206	614.25
546.42	598.25
546.633	590.25
546.847	576.25
547.06	601.25
547.274	597.25
547.487	618.25
547.7	597.25
547.914	597.25
548.127	621.25
548.34	609.25
548.554	628.25
548.767	585.25
548.98	618.25
549.193	613.25
549.407	616.25
549.62	616.25
549.833	609.25
550.046	615.25
550.259	588.25
550.473	631.25
550.686	577.25
550.899	593.25
551.112	573.25
551.325	586.25
551.538	574.25
551.751	589.25
551.964	571.25
552.177	584.25
552.39	618.25
552.603	623.25
552.816	630.25
553.029	660.25
553.242	627.25
553.455	649.25
553.667	652.25
553.88	637.25
554.093	629.25
554.306	601.25
554.519	597.25
554.732	606.25
554.944	583.25
555.157	581.25
555.37	544.25
555.583	556.25
555.795	557.25
556.008	539.25
556.221	536.25
556.433	525.25
556.646	512.25
556.859	517.25
557.071	519.25
557.284	495.25
557.496	512.25
557.709	504.25
557.921	494.25
558.134	501.25
558.346	517.25
558.559	494.25
558.771	519.25
558.984	519.25
559.196	507.25
559.409	495.25
559.621	500.25
559.833	471.25
560.046	492.25
560.258	511.25
560.47	495.25
560.683	505.25
560.895	488.25
561.107	488.25
561.32	469.25
561.532	481.25
561.744	501.25
561.956	501.25
562.168	477.25
562.381	500.25
562.593	489.25
562.805	507.25
563.017	490.25
563.229	483.25
563.441	492.25
563.653	486.25
563.865	485.25
564.077	515.25
564.289	525.25
564.501	560.25
564.713	534.25
564.925	530.25
565.137	528.25
565.349	560.25
565.561	567.25
565.773	579.25
565.985	600.25
566.197	657.25
566.408	697.25
566.62	743.25
566.832	743.25
567.044	768.25
567.255	805.25
567.467	797.25
567.679	840.25
567.891	885.25
568.102	897.25
568.314	839.25
568.526	785.25
568.737	713.25
568.949	656.25
569.161	631.25
569.372	573.25
569.584	543.25
569.795	539.25
570.007	516.25
570.218	508.25
570.43	490.25
570.641	488.25
570.853	500.25
571.064	504.25
571.276	487.25
571.487	483.25
571.698	471.25
571.91	464.25
572.121	427.25
572.333	459.25
572.544	422.25
572.755	420.25
572.966	424.25
573.178	413.25
573.389	423.25
573.6	423.25
573.811	400.25
574.023	407.25
574.234	406.25
574.445	404.25
574.656	408.25
574.867	390.25
575.078	393.25
575.289	402.25
575.501	392.25
575.712	363.25
575.923	397.25
576.134	375.25
576.345	400.25
576.556	399.25
576.767	403.25
576.978	367.25
577.188	359.25
577.399	380.25
577.61	379.25
577.821	386.25
578.032	371.25
578.243	374.25
578.454	367.25
578.665	369.25
578.875	360.25
579.086	364.25
579.297	384.25
579.508	380.25
579.718	357.25
579.929	353.25
580.14	355.25
580.35	350.25
580.561	371.25
580.772	343.25
580.982	351.25
581.193	372.25
581.403	361.25
581.614	345.25
581.825	359.25
582.035	360.25
582.246	353.25
582.456	342.25
582.667	339.25
582.877	354.25
583.087	335.25
583.298	327.25
583.508	344.25
583.719	327.25
583.929	349.25
584.139	350.25
584.35	343.25
584.56	335.25
584.77	332.25
584.981	345.25
585.191	340.25
585.401	321.25
585.611	332.25
585.821	340.25
586.032	334.25
586.242	347.25
586.452	318.25
586.662	334.25
586.872	329.25
587.082	313.25
587.292	338.25
587.502	337.25
587.713	299.25
587.923	324.25
588.133	329.25
588.343	338.25
588.553	320.25
588.762	319.25
588.972	329.25
589.182	354.25
589.392	327.25
589.602	329.25
589.812	323.25
590.022	329.25
590.232	335.25
590.441	356.25
590.651	329.25
590.861	343.25
591.071	333.25
591.281	339.25
591.49	328.25
591.7	326.25
591.91	360.25
592.119	346.25
592.329	357.25
592.539	368.25
592.748	382.25
592.958	382.25
593.167	385.25
593.377	381.25
593.587	421.25
593.796	391.25
594.006	399.25
594.215	402.25
594.424	396.25
594.634	413.25
594.843	387.25
595.053	371.25
595.262	362.25
595.472	335.25
595.681	344.25
595.89	320.25
596.1	335.25
596.309	330.25
596.518	318.25
596.727	318.25
596.937	316.25
597.146	303.25
597.355	308.25
597.564	299.25
597.774	317.25
597.983	310.25
598.192	307.25
598.401	287.25
598.61	275.25
598.819	307.25
599.028	290.25
599.237	283.25
599.446	277.25
599.655	280.25
599.864	286.25
600.073	282.25
600.282	287.25
600.491	279.25
600.7	291.25
600.909	278.25
601.118	275.25
601.327	295.25
601.536	273.25
601.745	270.25
601.953	283.25
602.162	281.25
602.371	271.25
602.58	277.25
602.789	257.25
602.997	273.25
603.206	297.25
603.415	287.25
603.623	270.25
603.832	275.25
604.041	269.25
604.249	265.25
604.458	270.25
604.666	262.25
604.875	251.25
605.084	254.25
605.292	263.25
605.501	271.25
605.709	256.25
605.918	273.25
606.126	261.25
606.334	268.25
606.543	255.25
606.751	263.25
606.96	261.25
607.168	252.25
607.376	263.25
607.585	257.25
607.793	273.25
608.001	263.25
608.21	272.25
608.418	262.25
608.626	256.25
608.834	273.25
609.043	232.25
609.251	252.25
609.459	255.25
609.667	243.25
609.875	238.25
610.083	251.25
610.291	233.25
610.499	249.25
610.707	263.25
610.916	231.25
611.124	229.25
611.332	237.25
611.54	264.25
611.748	249.25
611.955	248.25
612.163	233.25
612.371	237.25
612.579	240.25
612.787	255.25
612.995	273.25
613.203	237.25
613.411	248.25
613.618	238.25
613.826	241.25
614.034	239.25
614.242	240.25
614.449	235.25
614.657	230.25
614.865	250.25
615.072	239.25
615.28	257.25
615.488	249.25
615.695	236.25
615.903	238.25
616.111	232.25
616.318	239.25
616.526	247.25
616.733	248.25
616.941	240.25
617.148	250.25
617.356	235.25
617.563	240.25
617.771	238.25
617.978	243.25
618.185	225.25
618.393	233.25
618.6	235.25
618.807	237.25
619.015	237.25
619.222	262.25
619.429	249.25
619.637	237.25
619.844	229.25
620.051	226.25
620.258	234.25
620.466	225.25
620.673	230.25
620.88	214.25
621.087	240.25
621.294	222.25
621.501	238.25
621.708	230.25
621.915	244.25
622.122	231.25
622.329	232.25
622.536	232.25
622.743	235.25
622.95	218.25
623.157	218.25
623.364	220.25
623.571	223.25
623.778	231.25
623.985	216.25
624.192	212.25
624.399	226.25
624.606	227.25
624.812	220.25
625.019	194.25
625.226	231.25
625.433	227.25
625.639	227.25
625.846	213.25
626.053	224.25
626.259	208.25
626.466	207.25
626.673	207.25
626.879	219.25
627.086	221.25
627.293	214.25
627.499	209.25
627.706	210.25
627.912	203.25
628.119	201.25
628.325	191.25
628.532	196.25
628.738	188.25
628.945	207.25
629.151	209.25
629.357	214.25
629.564	201.25
629.77	199.25
629.976	192.25
630.183	207.25
630.389	194.25
630.595	191.25
630.802	202.25
631.008	185.25
631.214	193.25
631.42	206.25
631.627	202.25
631.833	175.25
632.039	188.25
632.245	202.25
632.451	187.25
632.657	184.25
632.863	199.25
633.069	196.25
633.275	191.25
633.481	183.25
633.688	176.25
633.893	214.25
634.099	177.25
634.305	200.25
634.511	180.25
634.717	195.25
634.923	181.25
635.129	173.25
635.335	184.25
635.541	199.25
635.747	184.25
635.952	191.25
636.158	173.25
636.364	192.25
636.57	186.25
636.775	192.25
636.981	173.25
637.187	197.25
637.392	179.25
637.598	191.25
637.804	183.25
638.009	179.25
638.215	184.25
638.421	170.25
638.626	185.25
638.832	179.25
639.037	184.25
639.243	172.25
639.448	169.25
639.654	196.25
639.859	170.25
640.065	163.25
640.27	184.25
640.475	196.25
640.681	186.25
640.886	176.25
641.091	176.25
641.297	183.25
641.502	169.25
641.707	170.25
641.913	166.25
642.118	172.25
642.323	175.25
642.528	166.25
642.733	176.25
642.939	171.25
643.144	166.25
643.349	178.25
643.554	161.25
643.759	169.25
643.964	168.25
644.169	160.25
644.374	168.25
644.579	159.25
644.784	171.25
644.989	147.25
645.194	181.25
645.399	155.25
645.604	177.25
645.809	181.25
646.014	166.25
646.219	169.25
646.423	168.25
646.628	167.25
646.833	156.25
647.038	171.25
647.243	154.25
647.447	157.25
647.652	154.25
647.857	179.25
648.062	182.25
648.266	174.25
648.471	176.25
648.676	175.25
648.88	155.25
649.085	159.25
649.289	174.25
649.494	182.25
649.698	166.25
649.903	167.25
650.107	160.25
650.312	169.25
650.516	156.25
650.721	163.25
650.925	170.25
651.13	158.25
651.334	147.25
651.539	146.25
651.743	139.25
651.947	153.25
652.152	143.25
652.356	139.25
652.56	135.25
652.764	145.25
652.969	129.25
653.173	143.25
653.377	147.25
653.581	124.25
653.785	140.25
653.99	123.25
654.194	141.25
654.398	153.25
654.602	136.25
654.806	127.25
655.01	119.25
655.214	141.25
655.418	137.25
655.622	132.25
655.826	125.25
656.03	135.25
656.234	123.25
656.438	124.25
656.642	137.25
656.846	113.25
657.049	127.25
657.253	121.25
657.457	109.25
657.661	123.25
657.865	120.25
658.068	118.25
658.272	108.25
658.476	107.25
658.68	112.25
658.883	121.25
659.087	119.25
659.291	95.25
659.494	102.25
659.698	97.25
659.901	105.25
660.105	108.25
660.309	99.25
660.512	97.25
660.716	88.25
660.919	93.25
661.123	100.25
661.326	92.25
661.53	103.25
661.733	106.25
661.936	105.25
662.14	88.25
662.343	94.25
662.546	83.25
662.75	106.25
662.953	81.25
663.156	100.25
663.36	69.25
663.563	87.25
663.766	74.25
663.969	100.25
664.173	92.25
664.376	79.25
664.579	80.25
664.782	96.25
664.985	79.25
665.188	83.25
665.391	81.25
665.594	91.25
665.797	83.25
666	93.25
666.203	76.25
666.406	69.25
666.609	86.25
666.812	85.25
667.015	81.25
667.218	82.25
667.421	84.25
667.624	73.25
667.827	83.25
668.03	75.25
668.232	96.25
668.435	86.25
668.638	79.25
668.841	91.25
669.043	103.25
669.246	96.25
669.449	89.25
669.651	83.25
669.854	78.25
670.057	89.25
670.259	90.25
670.462	90.25
670.665	79.25
670.867	85.25
671.07	74.25
671.272	95.25
671.475	87.25
671.677	91.25
671.88	91.25
672.082	79.25
672.284	79.25
672.487	88.25
672.689	91.25
672.892	86.25
