Data from Ni(NO3)2@0.25M.TitratingCurve.Agarose3%dH2O.NegLispCup.LampEnergy10.LIBS07252019_HRD10591_18-05-27-566.txt Node
Date: Thu Jul 25 18:05:27 EDT 2019
User: cochatt
Spectrometer: HR+D1059
Trigger mode: 1
Integration Time (sec): 1.000000E-1
Scans to average: 1
Electric dark correction enabled: true
Nonlinearity correction enabled: false
Boxcar width: 0
XAxis mode: Wavelengths
Number of Pixels in Spectrum: 2048
>>>>>Begin Spectral Data<<<<<
223.165	-18.44
223.4	-18.44
223.635	-18.44
223.869	-9.44
224.104	-14.44
224.338	-27.44
224.573	-22.44
224.808	-14.44
225.042	-18.44
225.277	-4.44
225.511	-0.44
225.746	12.56
225.98	15.56
226.215	18.56
226.449	4.56
226.683	24.56
226.918	26.56
227.152	27.56
227.387	35.56
227.621	53.56
227.856	53.56
228.09	38.56
228.324	57.56
228.559	51.56
228.793	74.56
229.027	97.56
229.262	115.56
229.496	109.56
229.73	98.56
229.964	119.56
230.199	115.56
230.433	125.56
230.667	129.56
230.901	118.56
231.136	123.56
231.37	141.56
231.604	119.56
231.838	139.56
232.072	125.56
232.306	109.56
232.541	139.56
232.775	138.56
233.009	135.56
233.243	149.56
233.477	149.56
233.711	126.56
233.945	140.56
234.179	123.56
234.413	135.56
234.647	137.56
234.881	150.56
235.115	157.56
235.349	135.56
235.583	137.56
235.817	140.56
236.051	127.56
236.285	150.56
236.519	138.56
236.753	147.56
236.987	135.56
237.221	147.56
237.455	149.56
237.689	147.56
237.922	151.56
238.156	133.56
238.39	140.56
238.624	151.56
238.858	151.56
239.091	144.56
239.325	149.56
239.559	145.56
239.793	153.56
240.027	158.56
240.26	158.56
240.494	172.56
240.728	162.56
240.961	149.56
241.195	166.56
241.429	174.56
241.662	167.56
241.896	171.56
242.13	181.56
242.363	161.56
242.597	175.56
242.83	181.56
243.064	168.56
243.298	175.56
243.531	163.56
243.765	183.56
243.998	191.56
244.232	199.56
244.465	196.56
244.699	191.56
244.932	188.56
245.166	193.56
245.399	188.56
245.633	184.56
245.866	194.56
246.099	203.56
246.333	174.56
246.566	190.56
246.8	205.56
247.033	194.56
247.266	208.56
247.5	213.56
247.733	205.56
247.966	227.56
248.2	199.56
248.433	213.56
248.666	198.56
248.899	210.56
249.133	221.56
249.366	225.56
249.599	225.56
249.832	229.56
250.066	230.56
250.299	220.56
250.532	222.56
250.765	237.56
250.998	239.56
251.231	233.56
251.465	232.56
251.698	237.56
251.931	238.56
252.164	238.56
252.397	236.56
252.63	246.56
252.863	271.56
253.096	274.56
253.329	270.56
253.562	251.56
253.795	257.56
254.028	255.56
254.261	255.56
254.494	267.56
254.727	267.56
254.96	258.56
255.193	271.56
255.426	261.56
255.659	247.56
255.892	275.56
256.124	266.56
256.357	260.56
256.59	291.56
256.823	286.56
257.056	271.56
257.289	267.56
257.521	288.56
257.754	278.56
257.987	288.56
258.22	312.56
258.452	290.56
258.685	285.56
258.918	315.56
259.151	286.56
259.383	302.56
259.616	284.56
259.849	291.56
260.081	293.56
260.314	336.56
260.547	293.56
260.779	291.56
261.012	312.56
261.244	311.56
261.477	322.56
261.71	309.56
261.942	331.56
262.175	318.56
262.407	315.56
262.64	323.56
262.872	326.56
263.105	323.56
263.337	321.56
263.57	328.56
263.802	340.56
264.035	326.56
264.267	349.56
264.499	318.56
264.732	320.56
264.964	340.56
265.197	324.56
265.429	325.56
265.661	346.56
265.894	358.56
266.126	354.56
266.358	357.56
266.591	351.56
266.823	344.56
267.055	328.56
267.287	364.56
267.52	370.56
267.752	351.56
267.984	374.56
268.216	366.56
268.448	357.56
268.681	349.56
268.913	354.56
269.145	339.56
269.377	349.56
269.609	373.56
269.841	365.56
270.073	362.56
270.306	372.56
270.538	356.56
270.77	357.56
271.002	382.56
271.234	356.56
271.466	371.56
271.698	371.56
271.93	360.56
272.162	377.56
272.394	369.56
272.626	372.56
272.858	378.56
273.09	378.56
273.322	376.56
273.553	386.56
273.785	375.56
274.017	401.56
274.249	406.56
274.481	395.56
274.713	408.56
274.945	407.56
275.176	398.56
275.408	395.56
275.64	396.56
275.872	398.56
276.104	388.56
276.335	424.56
276.567	406.56
276.799	412.56
277.031	398.56
277.262	398.56
277.494	410.56
277.726	413.56
277.957	398.56
278.189	429.56
278.421	411.56
278.652	424.56
278.884	430.56
279.115	417.56
279.347	427.56
279.579	412.56
279.81	422.56
280.042	419.56
280.273	409.56
280.505	428.56
280.736	444.56
280.968	424.56
281.199	414.56
281.431	428.56
281.662	411.56
281.894	442.56
282.125	435.56
282.356	439.56
282.588	424.56
282.819	433.56
283.051	451.56
283.282	459.56
283.513	431.56
283.745	447.56
283.976	437.56
284.207	445.56
284.439	442.56
284.67	452.56
284.901	471.56
285.132	437.56
285.364	433.56
285.595	449.56
285.826	441.56
286.057	455.56
286.288	450.56
286.52	469.56
286.751	462.56
286.982	478.56
287.213	473.56
287.444	475.56
287.675	458.56
287.906	473.56
288.138	478.56
288.369	475.56
288.6	450.56
288.831	473.56
289.062	470.56
289.293	486.56
289.524	473.56
289.755	461.56
289.986	470.56
290.217	467.56
290.448	461.56
290.679	457.56
290.91	495.56
291.141	464.56
291.371	481.56
291.602	469.56
291.833	485.56
292.064	452.56
292.295	489.56
292.526	501.56
292.757	479.56
292.987	469.56
293.218	480.56
293.449	486.56
293.68	491.56
293.91	476.56
294.141	469.56
294.372	474.56
294.603	475.56
294.833	466.56
295.064	490.56
295.295	472.56
295.525	474.56
295.756	493.56
295.987	469.56
296.217	503.56
296.448	499.56
296.679	477.56
296.909	479.56
297.14	495.56
297.37	507.56
297.601	507.56
297.831	513.56
298.062	490.56
298.292	512.56
298.523	527.56
298.753	510.56
298.984	499.56
299.214	526.56
299.445	502.56
299.675	513.56
299.905	518.56
300.136	533.56
300.366	531.56
300.597	530.56
300.827	533.56
301.057	523.56
301.288	528.56
301.518	509.56
301.748	543.56
301.979	548.56
302.209	539.56
302.439	510.56
302.669	536.56
302.9	553.56
303.13	533.56
303.36	527.56
303.59	540.56
303.82	545.56
304.051	541.56
304.281	553.56
304.511	554.56
304.741	533.56
304.971	551.56
305.201	551.56
305.431	539.56
305.661	549.56
305.891	558.56
306.121	565.56
306.352	527.56
306.582	512.56
306.812	543.56
307.042	541.56
307.272	546.56
307.502	515.56
307.731	545.56
307.961	539.56
308.191	545.56
308.421	528.56
308.651	508.56
308.881	531.56
309.111	549.56
309.341	559.56
309.571	563.56
309.8	539.56
310.03	561.56
310.26	553.56
310.49	569.56
310.72	560.56
310.949	532.56
311.179	571.56
311.409	565.56
311.639	554.56
311.868	563.56
312.098	559.56
312.328	576.56
312.557	584.56
312.787	585.56
313.017	567.56
313.246	591.56
313.476	580.56
313.706	593.56
313.935	576.56
314.165	589.56
314.394	609.56
314.624	605.56
314.853	623.56
315.083	603.56
315.312	574.56
315.542	610.56
315.771	599.56
316.001	579.56
316.23	612.56
316.46	610.56
316.689	591.56
316.919	596.56
317.148	605.56
317.377	588.56
317.607	570.56
317.836	605.56
318.065	591.56
318.295	613.56
318.524	606.56
318.753	610.56
318.983	595.56
319.212	607.56
319.441	615.56
319.67	611.56
319.9	592.56
320.129	617.56
320.358	628.56
320.587	604.56
320.816	632.56
321.046	619.56
321.275	660.56
321.504	597.56
321.733	608.56
321.962	610.56
322.191	615.56
322.42	630.56
322.649	645.56
322.878	637.56
323.108	651.56
323.337	618.56
323.566	658.56
323.795	647.56
324.024	634.56
324.253	638.56
324.482	656.56
324.71	633.56
324.939	651.56
325.168	670.56
325.397	653.56
325.626	667.56
325.855	656.56
326.084	671.56
326.313	684.56
326.542	683.56
326.77	701.56
326.999	681.56
327.228	670.56
327.457	699.56
327.686	667.56
327.914	678.56
328.143	692.56
328.372	706.56
328.6	678.56
328.829	682.56
329.058	686.56
329.287	684.56
329.515	707.56
329.744	717.56
329.972	708.56
330.201	716.56
330.43	728.56
330.658	721.56
330.887	735.56
331.115	726.56
331.344	751.56
331.572	743.56
331.801	768.56
332.03	782.56
332.258	778.56
332.486	810.56
332.715	800.56
332.943	811.56
333.172	859.56
333.4	869.56
333.629	902.56
333.857	909.56
334.085	888.56
334.314	907.56
334.542	884.56
334.771	916.56
334.999	909.56
335.227	890.56
335.455	900.56
335.684	878.56
335.912	870.56
336.14	867.56
336.369	878.56
336.597	898.56
336.825	877.56
337.053	888.56
337.281	831.56
337.51	849.56
337.738	842.56
337.966	825.56
338.194	809.56
338.422	823.56
338.65	773.56
338.878	817.56
339.106	813.56
339.334	814.56
339.562	797.56
339.79	769.56
340.018	766.56
340.246	767.56
340.474	770.56
340.702	766.56
340.93	762.56
341.158	775.56
341.386	770.56
341.614	789.56
341.842	757.56
342.07	738.56
342.298	753.56
342.526	741.56
342.754	785.56
342.981	762.56
343.209	787.56
343.437	798.56
343.665	841.56
343.893	860.56
344.12	886.56
344.348	857.56
344.576	855.56
344.804	842.56
345.031	818.56
345.259	810.56
345.487	773.56
345.714	762.56
345.942	782.56
346.17	790.56
346.397	794.56
346.625	762.56
346.853	730.56
347.08	736.56
347.308	729.56
347.535	732.56
347.763	758.56
347.99	772.56
348.218	765.56
348.445	762.56
348.673	730.56
348.9	725.56
349.128	737.56
349.355	724.56
349.583	742.56
349.81	716.56
350.037	730.56
350.265	708.56
350.492	713.56
350.72	723.56
350.947	731.56
351.174	718.56
351.402	727.56
351.629	731.56
351.856	728.56
352.083	712.56
352.311	706.56
352.538	737.56
352.765	756.56
352.992	689.56
353.22	685.56
353.447	681.56
353.674	703.56
353.901	718.56
354.128	702.56
354.355	678.56
354.583	713.56
354.81	702.56
355.037	715.56
355.264	727.56
355.491	707.56
355.718	723.56
355.945	706.56
356.172	703.56
356.399	742.56
356.626	735.56
356.853	732.56
357.08	683.56
357.307	729.56
357.534	727.56
357.761	727.56
357.988	712.56
358.215	710.56
358.441	694.56
358.668	694.56
358.895	726.56
359.122	721.56
359.349	705.56
359.576	706.56
359.802	716.56
360.029	711.56
360.256	725.56
360.483	710.56
360.709	712.56
360.936	721.56
361.163	691.56
361.39	719.56
361.616	696.56
361.843	715.56
362.07	728.56
362.296	743.56
362.523	723.56
362.749	694.56
362.976	720.56
363.203	700.56
363.429	701.56
363.656	719.56
363.882	727.56
364.109	691.56
364.335	686.56
364.562	712.56
364.788	695.56
365.015	711.56
365.241	694.56
365.468	697.56
365.694	692.56
365.92	708.56
366.147	700.56
366.373	697.56
366.599	703.56
366.826	713.56
367.052	694.56
367.278	687.56
367.505	705.56
367.731	714.56
367.957	707.56
368.184	702.56
368.41	717.56
368.636	740.56
368.862	729.56
369.089	714.56
369.315	729.56
369.541	722.56
369.767	740.56
369.993	715.56
370.219	745.56
370.445	732.56
370.672	732.56
370.898	749.56
371.124	750.56
371.35	783.56
371.576	723.56
371.802	764.56
372.028	755.56
372.254	745.56
372.48	742.56
372.706	787.56
372.932	765.56
373.158	777.56
373.384	753.56
373.61	765.56
373.835	734.56
374.061	759.56
374.287	755.56
374.513	758.56
374.739	803.56
374.965	799.56
375.191	787.56
375.416	782.56
375.642	815.56
375.868	819.56
376.094	750.56
376.319	776.56
376.545	761.56
376.771	782.56
376.997	786.56
377.222	761.56
377.448	764.56
377.674	753.56
377.899	730.56
378.125	733.56
378.35	728.56
378.576	731.56
378.802	739.56
379.027	749.56
379.253	748.56
379.478	735.56
379.704	741.56
379.929	740.56
380.155	729.56
380.38	740.56
380.606	738.56
380.831	746.56
381.057	757.56
381.282	716.56
381.507	742.56
381.733	730.56
381.958	741.56
382.184	764.56
382.409	783.56
382.634	771.56
382.86	761.56
383.085	769.56
383.31	764.56
383.535	804.56
383.761	807.56
383.986	835.56
384.211	820.56
384.436	817.56
384.662	831.56
384.887	845.56
385.112	827.56
385.337	836.56
385.562	859.56
385.787	862.56
386.013	884.56
386.238	843.56
386.463	871.56
386.688	886.56
386.913	841.56
387.138	870.56
387.363	875.56
387.588	883.56
387.813	879.56
388.038	853.56
388.263	859.56
388.488	860.56
388.713	859.56
388.938	847.56
389.163	859.56
389.387	890.56
389.612	838.56
389.837	832.56
390.062	869.56
390.287	866.56
390.512	862.56
390.736	864.56
390.961	890.56
391.186	898.56
391.411	908.56
391.636	941.56
391.86	959.56
392.085	961.56
392.31	948.56
392.534	930.56
392.759	912.56
392.984	903.56
393.208	947.56
393.433	925.56
393.658	906.56
393.882	937.56
394.107	905.56
394.331	941.56
394.556	903.56
394.78	906.56
395.005	934.56
395.229	929.56
395.454	929.56
395.678	940.56
395.903	984.56
396.127	967.56
396.352	975.56
396.576	955.56
396.801	961.56
397.025	956.56
397.249	976.56
397.474	995.56
397.698	969.56
397.922	989.56
398.147	1021.56
398.371	989.56
398.595	1019.56
398.82	1099.56
399.044	1094.56
399.268	1197.56
399.492	1326.56
399.717	1445.56
399.941	1419.56
400.165	1362.56
400.389	1307.56
400.613	1230.56
400.837	1142.56
401.062	1099.56
401.286	1127.56
401.51	1102.56
401.734	1103.56
401.958	1117.56
402.182	1092.56
402.406	1081.56
402.63	1120.56
402.854	1109.56
403.078	1118.56
403.302	1129.56
403.526	1164.56
403.75	1139.56
403.974	1163.56
404.198	1140.56
404.422	1166.56
404.645	1159.56
404.869	1166.56
405.093	1155.56
405.317	1133.56
405.541	1153.56
405.765	1166.56
405.988	1155.56
406.212	1214.56
406.436	1138.56
406.66	1195.56
406.883	1199.56
407.107	1276.56
407.331	1307.56
407.555	1331.56
407.778	1350.56
408.002	1326.56
408.226	1309.56
408.449	1271.56
408.673	1260.56
408.896	1225.56
409.12	1191.56
409.344	1273.56
409.567	1193.56
409.791	1230.56
410.014	1245.56
410.238	1220.56
410.461	1219.56
410.685	1177.56
410.908	1163.56
411.132	1203.56
411.355	1124.56
411.578	1124.56
411.802	1121.56
412.025	1134.56
412.249	1155.56
412.472	1145.56
412.695	1141.56
412.919	1134.56
413.142	1078.56
413.365	1112.56
413.589	1108.56
413.812	1099.56
414.035	1103.56
414.258	1126.56
414.482	1115.56
414.705	1110.56
414.928	1107.56
415.151	1115.56
415.374	1080.56
415.597	1111.56
415.821	1074.56
416.044	1061.56
416.267	1073.56
416.49	1073.56
416.713	1078.56
416.936	1092.56
417.159	1075.56
417.382	1065.56
417.605	1075.56
417.828	1072.56
418.051	1067.56
418.274	1060.56
418.497	1067.56
418.72	1091.56
418.943	1091.56
419.166	1164.56
419.389	1228.56
419.611	1225.56
419.834	1156.56
420.057	1155.56
420.28	1097.56
420.503	1055.56
420.726	1083.56
420.948	1075.56
421.171	1093.56
421.394	1085.56
421.617	1098.56
421.839	1063.56
422.062	1133.56
422.285	1056.56
422.507	1109.56
422.73	1095.56
422.953	1058.56
423.175	1100.56
423.398	1138.56
423.621	1126.56
423.843	1114.56
424.066	1134.56
424.288	1143.56
424.511	1119.56
424.733	1124.56
424.956	1113.56
425.178	1099.56
425.401	1078.56
425.623	1088.56
425.846	1063.56
426.068	1089.56
426.291	1092.56
426.513	1044.56
426.735	1039.56
426.958	1038.56
427.18	1000.56
427.402	1025.56
427.625	1058.56
427.847	1002.56
428.069	996.56
428.292	1032.56
428.514	1031.56
428.736	1015.56
428.958	1013.56
429.181	997.56
429.403	992.56
429.625	997.56
429.847	990.56
430.069	985.56
430.292	1004.56
430.514	960.56
430.736	1003.56
430.958	1002.56
431.18	979.56
431.402	1015.56
431.624	1019.56
431.846	1038.56
432.068	1013.56
432.29	1039.56
432.512	1021.56
432.734	999.56
432.956	1023.56
433.178	1017.56
433.4	1012.56
433.622	1005.56
433.844	1039.56
434.066	1036.56
434.287	1047.56
434.509	1067.56
434.731	1081.56
434.953	1103.56
435.175	1090.56
435.397	1110.56
435.618	1090.56
435.84	1035.56
436.062	1032.56
436.284	1007.56
436.505	1027.56
436.727	1031.56
436.949	1050.56
437.17	1037.56
437.392	1012.56
437.614	1005.56
437.835	986.56
438.057	982.56
438.278	969.56
438.5	976.56
438.721	982.56
438.943	1000.56
439.165	1022.56
439.386	1001.56
439.608	998.56
439.829	1049.56
440.05	1011.56
440.272	1026.56
440.493	1004.56
440.715	1031.56
440.936	1049.56
441.158	1053.56
441.379	1081.56
441.6	1128.56
441.822	1125.56
442.043	1095.56
442.264	1093.56
442.486	1089.56
442.707	1080.56
442.928	1095.56
443.149	1113.56
443.371	1099.56
443.592	1100.56
443.813	1115.56
444.034	1108.56
444.255	1152.56
444.476	1172.56
444.698	1229.56
444.919	1230.56
445.14	1325.56
445.361	1226.56
445.582	1151.56
445.803	1109.56
446.024	1075.56
446.245	1091.56
446.466	1078.56
446.687	1054.56
446.908	1034.56
447.129	1026.56
447.35	1004.56
447.571	1036.56
447.792	970.56
448.013	959.56
448.234	950.56
448.455	948.56
448.675	939.56
448.896	962.56
449.117	953.56
449.338	935.56
449.559	899.56
449.779	921.56
450	900.56
450.221	905.56
450.442	937.56
450.662	952.56
450.883	947.56
451.104	956.56
451.324	981.56
451.545	954.56
451.766	957.56
451.986	926.56
452.207	926.56
452.428	941.56
452.648	936.56
452.869	907.56
453.089	907.56
453.31	922.56
453.53	910.56
453.751	874.56
453.971	899.56
454.192	911.56
454.412	893.56
454.633	893.56
454.853	887.56
455.073	885.56
455.294	872.56
455.514	895.56
455.734	894.56
455.955	870.56
456.175	869.56
456.395	845.56
456.616	861.56
456.836	885.56
457.056	865.56
457.276	851.56
457.497	889.56
457.717	858.56
457.937	908.56
458.157	890.56
458.377	916.56
458.598	924.56
458.818	933.56
459.038	956.56
459.258	979.56
459.478	1002.56
459.698	1074.56
459.918	1067.56
460.138	1080.56
460.358	1123.56
460.578	1141.56
460.798	1141.56
461.018	1162.56
461.238	1165.56
461.458	1148.56
461.678	1155.56
461.898	1174.56
462.118	1173.56
462.338	1245.56
462.558	1259.56
462.777	1320.56
462.997	1394.56
463.217	1467.56
463.437	1445.56
463.657	1390.56
463.876	1338.56
464.096	1303.56
464.316	1348.56
464.536	1332.56
464.755	1235.56
464.975	1245.56
465.195	1201.56
465.414	1175.56
465.634	1086.56
465.854	1060.56
466.073	1043.56
466.293	1044.56
466.512	998.56
466.732	982.56
466.951	993.56
467.171	1018.56
467.391	1001.56
467.61	974.56
467.829	968.56
468.049	973.56
468.268	960.56
468.488	975.56
468.707	983.56
468.927	931.56
469.146	971.56
469.365	959.56
469.585	955.56
469.804	992.56
470.023	996.56
470.243	1006.56
470.462	999.56
470.681	1027.56
470.901	983.56
471.12	1004.56
471.339	946.56
471.558	962.56
471.777	963.56
471.997	940.56
472.216	947.56
472.435	953.56
472.654	942.56
472.873	929.56
473.092	923.56
473.311	918.56
473.53	931.56
473.749	932.56
473.968	940.56
474.187	922.56
474.406	887.56
474.625	925.56
474.844	929.56
475.063	942.56
475.282	949.56
475.501	951.56
475.72	952.56
475.939	972.56
476.158	959.56
476.377	974.56
476.596	998.56
476.814	1018.56
477.033	974.56
477.252	1027.56
477.471	1013.56
477.69	1014.56
477.908	1034.56
478.127	1098.56
478.346	1083.56
478.564	1062.56
478.783	1122.56
479.002	1109.56
479.22	1137.56
479.439	1139.56
479.658	1102.56
479.876	1130.56
480.095	1158.56
480.313	1204.56
480.532	1190.56
480.751	1195.56
480.969	1148.56
481.188	1114.56
481.406	1129.56
481.624	1120.56
481.843	1062.56
482.061	1035.56
482.28	1051.56
482.498	1066.56
482.717	1060.56
482.935	1026.56
483.153	1076.56
483.372	1078.56
483.59	1087.56
483.808	1077.56
484.027	1090.56
484.245	1082.56
484.463	1063.56
484.681	1082.56
484.9	1082.56
485.118	1132.56
485.336	1094.56
485.554	1149.56
485.772	1089.56
485.99	1130.56
486.209	1139.56
486.427	1117.56
486.645	1155.56
486.863	1130.56
487.081	1125.56
487.299	1105.56
487.517	1093.56
487.735	1138.56
487.953	1127.56
488.171	1121.56
488.389	1113.56
488.607	1109.56
488.825	1107.56
489.043	1112.56
489.261	1097.56
489.479	1119.56
489.696	1122.56
489.914	1124.56
490.132	1089.56
490.35	1130.56
490.568	1124.56
490.786	1125.56
491.003	1138.56
491.221	1139.56
491.439	1146.56
491.657	1149.56
491.874	1148.56
492.092	1155.56
492.31	1180.56
492.527	1177.56
492.745	1168.56
492.963	1153.56
493.18	1163.56
493.398	1181.56
493.615	1197.56
493.833	1176.56
494.05	1211.56
494.268	1201.56
494.485	1224.56
494.703	1212.56
494.92	1196.56
495.138	1205.56
495.355	1219.56
495.573	1185.56
495.79	1219.56
496.008	1217.56
496.225	1249.56
496.442	1250.56
496.66	1255.56
496.877	1292.56
497.094	1315.56
497.312	1335.56
497.529	1359.56
497.746	1368.56
497.963	1390.56
498.181	1490.56
498.398	1518.56
498.615	1579.56
498.832	1668.56
499.049	1783.56
499.267	1883.56
499.484	2010.56
499.701	2186.56
499.918	2355.56
500.135	2581.56
500.352	2781.56
500.569	2902.56
500.786	2857.56
501.003	2765.56
501.22	2571.56
501.437	2338.56
501.654	2170.56
501.871	1989.56
502.088	1867.56
502.305	1807.56
502.522	1705.56
502.739	1645.56
502.956	1538.56
503.172	1480.56
503.389	1435.56
503.606	1413.56
503.823	1412.56
504.04	1363.56
504.256	1357.56
504.473	1387.56
504.69	1345.56
504.907	1321.56
505.123	1288.56
505.34	1214.56
505.557	1228.56
505.773	1193.56
505.99	1172.56
506.207	1107.56
506.423	1098.56
506.64	1114.56
506.856	1076.56
507.073	1061.56
507.289	1049.56
507.506	1054.56
507.722	1043.56
507.939	1043.56
508.155	1014.56
508.372	1045.56
508.588	1005.56
508.805	989.56
509.021	997.56
509.238	988.56
509.454	1025.56
509.67	993.56
509.887	981.56
510.103	969.56
510.319	986.56
510.536	971.56
510.752	1006.56
510.968	978.56
511.184	945.56
511.401	969.56
511.617	957.56
511.833	934.56
512.049	947.56
512.265	984.56
512.481	962.56
512.698	984.56
512.914	971.56
513.13	966.56
513.346	981.56
513.562	994.56
513.778	975.56
513.994	960.56
514.21	974.56
514.426	988.56
514.642	987.56
514.858	1009.56
515.074	967.56
515.29	995.56
515.506	993.56
515.721	1008.56
515.937	1025.56
516.153	1054.56
516.369	1078.56
516.585	1104.56
516.801	1111.56
517.016	1144.56
517.232	1171.56
517.448	1229.56
517.664	1238.56
517.879	1226.56
518.095	1241.56
518.311	1185.56
518.527	1172.56
518.742	1176.56
518.958	1121.56
519.173	1097.56
519.389	1067.56
519.605	1045.56
519.82	1030.56
520.036	1042.56
520.251	982.56
520.467	983.56
520.682	968.56
520.898	966.56
521.113	933.56
521.329	918.56
521.544	922.56
521.76	960.56
521.975	925.56
522.19	943.56
522.406	922.56
522.621	915.56
522.836	905.56
523.052	919.56
523.267	902.56
523.482	910.56
523.698	896.56
523.913	905.56
524.128	905.56
524.343	928.56
524.559	914.56
524.774	877.56
524.989	874.56
525.204	874.56
525.419	890.56
525.634	881.56
525.849	906.56
526.064	884.56
526.28	882.56
526.495	879.56
526.71	844.56
526.925	858.56
527.14	855.56
527.355	877.56
527.57	864.56
527.785	868.56
527.999	858.56
528.214	842.56
528.429	896.56
528.644	865.56
528.859	863.56
529.074	881.56
529.289	865.56
529.503	858.56
529.718	865.56
529.933	891.56
530.148	847.56
530.363	873.56
530.577	846.56
530.792	844.56
531.007	852.56
531.221	893.56
531.436	860.56
531.651	894.56
531.865	868.56
532.08	859.56
532.295	849.56
532.509	857.56
532.724	848.56
532.938	877.56
533.153	807.56
533.367	836.56
533.582	866.56
533.796	874.56
534.011	846.56
534.225	845.56
534.44	847.56
534.654	825.56
534.868	843.56
535.083	824.56
535.297	833.56
535.511	821.56
535.726	834.56
535.94	811.56
536.154	819.56
536.369	827.56
536.583	802.56
536.797	798.56
537.011	813.56
537.225	801.56
537.44	797.56
537.654	819.56
537.868	805.56
538.082	778.56
538.296	816.56
538.51	775.56
538.724	783.56
538.938	791.56
539.153	763.56
539.367	780.56
539.581	791.56
539.795	755.56
540.009	757.56
540.222	764.56
540.436	745.56
540.65	779.56
540.864	764.56
541.078	804.56
541.292	793.56
541.506	779.56
541.72	796.56
541.934	793.56
542.147	804.56
542.361	783.56
542.575	793.56
542.789	757.56
543.002	769.56
543.216	756.56
543.43	765.56
543.644	805.56
543.857	769.56
544.071	773.56
544.285	783.56
544.498	773.56
544.712	758.56
544.925	782.56
545.139	798.56
545.352	797.56
545.566	790.56
545.779	795.56
545.993	780.56
546.206	800.56
546.42	801.56
546.633	801.56
546.847	814.56
547.06	799.56
547.274	800.56
547.487	806.56
547.7	812.56
547.914	801.56
548.127	803.56
548.34	792.56
548.554	819.56
548.767	798.56
548.98	793.56
549.193	803.56
549.407	787.56
549.62	805.56
549.833	810.56
550.046	786.56
550.259	799.56
550.473	795.56
550.686	805.56
550.899	805.56
551.112	796.56
551.325	775.56
551.538	760.56
551.751	765.56
551.964	778.56
552.177	773.56
552.39	806.56
552.603	795.56
552.816	819.56
553.029	812.56
553.242	851.56
553.455	835.56
553.667	822.56
553.88	821.56
554.093	824.56
554.306	783.56
554.519	760.56
554.732	763.56
554.944	771.56
555.157	774.56
555.37	749.56
555.583	769.56
555.795	746.56
556.008	746.56
556.221	726.56
556.433	709.56
556.646	697.56
556.859	698.56
557.071	698.56
557.284	690.56
557.496	714.56
557.709	695.56
557.921	689.56
558.134	691.56
558.346	652.56
558.559	677.56
558.771	655.56
558.984	674.56
559.196	660.56
559.409	672.56
559.621	645.56
559.833	666.56
560.046	683.56
560.258	645.56
560.47	660.56
560.683	651.56
560.895	641.56
561.107	668.56
561.32	674.56
561.532	642.56
561.744	647.56
561.956	640.56
562.168	660.56
562.381	658.56
562.593	663.56
562.805	674.56
563.017	681.56
563.229	667.56
563.441	660.56
563.653	690.56
563.865	669.56
564.077	691.56
564.289	695.56
564.501	681.56
564.713	691.56
564.925	730.56
565.137	722.56
565.349	725.56
565.561	740.56
565.773	791.56
565.985	796.56
566.197	829.56
566.408	879.56
566.62	892.56
566.832	941.56
567.044	961.56
567.255	962.56
567.467	975.56
567.679	1001.56
567.891	1034.56
568.102	1047.56
568.314	1035.56
568.526	929.56
568.737	887.56
568.949	860.56
569.161	813.56
569.372	791.56
569.584	708.56
569.795	719.56
570.007	717.56
570.218	687.56
570.43	677.56
570.641	663.56
570.853	657.56
571.064	674.56
571.276	648.56
571.487	639.56
571.698	623.56
571.91	622.56
572.121	620.56
572.333	598.56
572.544	597.56
572.755	587.56
572.966	569.56
573.178	566.56
573.389	551.56
573.6	549.56
573.811	537.56
574.023	523.56
574.234	520.56
574.445	527.56
574.656	567.56
574.867	528.56
575.078	541.56
575.289	545.56
575.501	522.56
575.712	505.56
575.923	521.56
576.134	509.56
576.345	516.56
576.556	536.56
576.767	487.56
576.978	487.56
577.188	505.56
577.399	490.56
577.61	490.56
577.821	487.56
578.032	472.56
578.243	486.56
578.454	489.56
578.665	480.56
578.875	494.56
579.086	488.56
579.297	486.56
579.508	473.56
579.718	463.56
579.929	466.56
580.14	459.56
580.35	477.56
580.561	442.56
580.772	437.56
580.982	466.56
581.193	462.56
581.403	477.56
581.614	458.56
581.825	462.56
582.035	459.56
582.246	449.56
582.456	462.56
582.667	467.56
582.877	458.56
583.087	456.56
583.298	433.56
583.508	443.56
583.719	460.56
583.929	423.56
584.139	445.56
584.35	421.56
584.56	442.56
584.77	418.56
584.981	439.56
585.191	431.56
585.401	434.56
585.611	431.56
585.821	433.56
586.032	445.56
586.242	417.56
586.452	426.56
586.662	425.56
586.872	434.56
587.082	449.56
587.292	445.56
587.502	399.56
587.713	447.56
587.923	438.56
588.133	419.56
588.343	439.56
588.553	427.56
588.762	419.56
588.972	436.56
589.182	442.56
589.392	443.56
589.602	418.56
589.812	445.56
590.022	438.56
590.232	442.56
590.441	429.56
590.651	442.56
590.861	435.56
591.071	425.56
591.281	419.56
591.49	426.56
591.7	440.56
591.91	441.56
592.119	464.56
592.329	457.56
592.539	473.56
592.748	463.56
592.958	492.56
593.167	486.56
593.377	494.56
593.587	487.56
593.796	505.56
594.006	499.56
594.215	490.56
594.424	497.56
594.634	487.56
594.843	477.56
595.053	461.56
595.262	476.56
595.472	462.56
595.681	459.56
595.89	435.56
596.1	414.56
596.309	409.56
596.518	403.56
596.727	417.56
596.937	418.56
597.146	391.56
597.355	394.56
597.564	395.56
597.774	404.56
597.983	380.56
598.192	392.56
598.401	375.56
598.61	374.56
598.819	358.56
599.028	369.56
599.237	365.56
599.446	399.56
599.655	391.56
599.864	366.56
600.073	366.56
600.282	372.56
600.491	350.56
600.7	353.56
600.909	356.56
601.118	341.56
601.327	364.56
601.536	347.56
601.745	353.56
601.953	354.56
602.162	347.56
602.371	343.56
602.58	361.56
602.789	347.56
602.997	344.56
603.206	338.56
603.415	361.56
603.623	338.56
603.832	347.56
604.041	345.56
604.249	329.56
604.458	318.56
604.666	319.56
604.875	324.56
605.084	343.56
605.292	334.56
605.501	347.56
605.709	340.56
605.918	328.56
606.126	325.56
606.334	338.56
606.543	331.56
606.751	338.56
606.96	330.56
607.168	332.56
607.376	332.56
607.585	317.56
607.793	350.56
608.001	333.56
608.21	330.56
608.418	327.56
608.626	315.56
608.834	346.56
609.043	338.56
609.251	334.56
609.459	316.56
609.667	321.56
609.875	321.56
610.083	314.56
610.291	322.56
610.499	302.56
610.707	330.56
610.916	328.56
611.124	316.56
611.332	293.56
611.54	339.56
611.748	303.56
611.955	312.56
612.163	331.56
612.371	322.56
612.579	330.56
612.787	290.56
612.995	306.56
613.203	310.56
613.411	300.56
613.618	311.56
613.826	306.56
614.034	313.56
614.242	306.56
614.449	301.56
614.657	292.56
614.865	293.56
615.072	309.56
615.28	299.56
615.488	333.56
615.695	299.56
615.903	305.56
616.111	290.56
616.318	308.56
616.526	313.56
616.733	314.56
616.941	293.56
617.148	325.56
617.356	318.56
617.563	303.56
617.771	309.56
617.978	309.56
618.185	286.56
618.393	293.56
618.6	301.56
618.807	307.56
619.015	294.56
619.222	306.56
619.429	298.56
619.637	286.56
619.844	298.56
620.051	283.56
620.258	319.56
620.466	304.56
620.673	290.56
620.88	279.56
621.087	297.56
621.294	275.56
621.501	288.56
621.708	270.56
621.915	289.56
622.122	302.56
622.329	299.56
622.536	277.56
622.743	301.56
622.95	269.56
623.157	263.56
623.364	272.56
623.571	271.56
623.778	281.56
623.985	269.56
624.192	291.56
624.399	276.56
624.606	269.56
624.812	267.56
625.019	285.56
625.226	268.56
625.433	243.56
625.639	261.56
625.846	252.56
626.053	279.56
626.259	259.56
626.466	284.56
626.673	236.56
626.879	260.56
627.086	264.56
627.293	268.56
627.499	258.56
627.706	272.56
627.912	263.56
628.119	263.56
628.325	268.56
628.532	245.56
628.738	237.56
628.945	253.56
629.151	249.56
629.357	243.56
629.564	238.56
629.77	238.56
629.976	244.56
630.183	244.56
630.389	229.56
630.595	234.56
630.802	244.56
631.008	251.56
631.214	267.56
631.42	236.56
631.627	247.56
631.833	253.56
632.039	220.56
632.245	231.56
632.451	235.56
632.657	236.56
632.863	245.56
633.069	226.56
633.275	234.56
633.481	227.56
633.688	224.56
633.893	222.56
634.099	243.56
634.305	227.56
634.511	219.56
634.717	220.56
634.923	220.56
635.129	222.56
635.335	231.56
635.541	237.56
635.747	222.56
635.952	217.56
636.158	219.56
636.364	205.56
636.57	223.56
636.775	237.56
636.981	234.56
637.187	216.56
637.392	221.56
637.598	208.56
637.804	206.56
638.009	208.56
638.215	217.56
638.421	221.56
638.626	211.56
638.832	192.56
639.037	223.56
639.243	214.56
639.448	218.56
639.654	204.56
639.859	222.56
640.065	200.56
640.27	195.56
640.475	202.56
640.681	207.56
640.886	195.56
641.091	192.56
641.297	202.56
641.502	201.56
641.707	186.56
641.913	198.56
642.118	206.56
642.323	199.56
642.528	209.56
642.733	207.56
642.939	191.56
643.144	182.56
643.349	212.56
643.554	209.56
643.759	212.56
643.964	190.56
644.169	191.56
644.374	205.56
644.579	198.56
644.784	184.56
644.989	196.56
645.194	187.56
645.399	213.56
645.604	187.56
645.809	199.56
646.014	206.56
646.219	190.56
646.423	209.56
646.628	193.56
646.833	217.56
647.038	200.56
647.243	220.56
647.447	199.56
647.652	196.56
647.857	187.56
648.062	207.56
648.266	212.56
648.471	211.56
648.676	217.56
648.88	191.56
649.085	221.56
649.289	204.56
649.494	208.56
649.698	205.56
649.903	193.56
650.107	206.56
650.312	193.56
650.516	181.56
650.721	199.56
650.925	198.56
651.13	191.56
651.334	188.56
651.539	194.56
651.743	192.56
651.947	168.56
652.152	180.56
652.356	185.56
652.56	181.56
652.764	174.56
652.969	160.56
653.173	163.56
653.377	173.56
653.581	160.56
653.785	142.56
653.99	184.56
654.194	162.56
654.398	152.56
654.602	166.56
654.806	161.56
655.01	164.56
655.214	151.56
655.418	136.56
655.622	139.56
655.826	170.56
656.03	150.56
656.234	153.56
656.438	149.56
656.642	155.56
656.846	148.56
657.049	135.56
657.253	136.56
657.457	137.56
657.661	129.56
657.865	132.56
658.068	119.56
658.272	124.56
658.476	138.56
658.68	131.56
658.883	109.56
659.087	124.56
659.291	109.56
659.494	113.56
659.698	125.56
659.901	102.56
660.105	102.56
660.309	117.56
660.512	103.56
660.716	95.56
660.919	98.56
661.123	96.56
661.326	92.56
661.53	94.56
661.733	96.56
661.936	102.56
662.14	97.56
662.343	86.56
662.546	97.56
662.75	82.56
662.953	86.56
663.156	74.56
663.36	86.56
663.563	78.56
663.766	93.56
663.969	77.56
664.173	80.56
664.376	84.56
664.579	81.56
664.782	91.56
664.985	93.56
665.188	83.56
665.391	86.56
665.594	94.56
665.797	82.56
666	69.56
666.203	87.56
666.406	85.56
666.609	84.56
666.812	77.56
667.015	76.56
667.218	86.56
667.421	78.56
667.624	87.56
667.827	85.56
668.03	92.56
668.232	84.56
668.435	81.56
668.638	78.56
668.841	86.56
669.043	73.56
669.246	79.56
669.449	84.56
669.651	89.56
669.854	79.56
670.057	70.56
670.259	63.56
670.462	94.56
670.665	85.56
670.867	94.56
671.07	77.56
671.272	68.56
671.475	87.56
671.677	88.56
671.88	83.56
672.082	87.56
672.284	80.56
672.487	81.56
672.689	88.56
672.892	89.56
