Data from Ni(NO3)2@0.5M.TitratingCurve.Agarose3%dH2O.NegLispCup.LampEnergy10.LIBS07252019_HRD10591_17-57-30-564.txt Node
Date: Thu Jul 25 17:57:30 EDT 2019
User: cochatt
Spectrometer: HR+D1059
Trigger mode: 1
Integration Time (sec): 1.000000E-1
Scans to average: 1
Electric dark correction enabled: true
Nonlinearity correction enabled: false
Boxcar width: 0
XAxis mode: Wavelengths
Number of Pixels in Spectrum: 2048
>>>>>Begin Spectral Data<<<<<
223.165	-7.94
223.4	-7.94
223.635	-7.94
223.869	-7.94
224.104	-23.94
224.338	-8.94
224.573	-9.94
224.808	-18.94
225.042	-11.94
225.277	0.06
225.511	2.06
225.746	-1.94
225.98	4.06
226.215	-6.94
226.449	15.06
226.683	2.06
226.918	18.06
227.152	57.06
227.387	44.06
227.621	51.06
227.856	44.06
228.09	54.06
228.324	47.06
228.559	43.06
228.793	70.06
229.027	120.06
229.262	150.06
229.496	141.06
229.73	145.06
229.964	148.06
230.199	170.06
230.433	176.06
230.667	167.06
230.901	172.06
231.136	163.06
231.37	155.06
231.604	164.06
231.838	196.06
232.072	175.06
232.306	187.06
232.541	165.06
232.775	166.06
233.009	158.06
233.243	160.06
233.477	155.06
233.711	173.06
233.945	188.06
234.179	177.06
234.413	170.06
234.647	162.06
234.881	182.06
235.115	198.06
235.349	186.06
235.583	162.06
235.817	162.06
236.051	169.06
236.285	188.06
236.519	184.06
236.753	195.06
236.987	189.06
237.221	182.06
237.455	176.06
237.689	204.06
237.922	192.06
238.156	193.06
238.39	178.06
238.624	194.06
238.858	202.06
239.091	198.06
239.325	218.06
239.559	215.06
239.793	217.06
240.027	232.06
240.26	215.06
240.494	216.06
240.728	227.06
240.961	206.06
241.195	227.06
241.429	246.06
241.662	227.06
241.896	229.06
242.13	252.06
242.363	234.06
242.597	231.06
242.83	248.06
243.064	232.06
243.298	244.06
243.531	235.06
243.765	250.06
243.998	248.06
244.232	262.06
244.465	255.06
244.699	250.06
244.932	266.06
245.166	284.06
245.399	260.06
245.633	291.06
245.866	280.06
246.099	271.06
246.333	285.06
246.566	276.06
246.8	279.06
247.033	277.06
247.266	288.06
247.5	272.06
247.733	304.06
247.966	291.06
248.2	300.06
248.433	296.06
248.666	291.06
248.899	293.06
249.133	316.06
249.366	302.06
249.599	311.06
249.832	323.06
250.066	336.06
250.299	334.06
250.532	330.06
250.765	333.06
250.998	313.06
251.231	347.06
251.465	357.06
251.698	352.06
251.931	349.06
252.164	326.06
252.397	352.06
252.63	377.06
252.863	371.06
253.096	350.06
253.329	370.06
253.562	370.06
253.795	362.06
254.028	384.06
254.261	396.06
254.494	380.06
254.727	388.06
254.96	389.06
255.193	392.06
255.426	394.06
255.659	410.06
255.892	408.06
256.124	401.06
256.357	407.06
256.59	400.06
256.823	414.06
257.056	391.06
257.289	414.06
257.521	426.06
257.754	428.06
257.987	422.06
258.22	448.06
258.452	444.06
258.685	455.06
258.918	439.06
259.151	435.06
259.383	418.06
259.616	440.06
259.849	437.06
260.081	448.06
260.314	443.06
260.547	463.06
260.779	487.06
261.012	444.06
261.244	469.06
261.477	456.06
261.71	458.06
261.942	476.06
262.175	474.06
262.407	468.06
262.64	472.06
262.872	465.06
263.105	480.06
263.337	482.06
263.57	466.06
263.802	488.06
264.035	500.06
264.267	506.06
264.499	494.06
264.732	498.06
264.964	500.06
265.197	516.06
265.429	519.06
265.661	491.06
265.894	514.06
266.126	524.06
266.358	520.06
266.591	507.06
266.823	503.06
267.055	521.06
267.287	524.06
267.52	525.06
267.752	513.06
267.984	542.06
268.216	546.06
268.448	530.06
268.681	528.06
268.913	522.06
269.145	509.06
269.377	535.06
269.609	530.06
269.841	544.06
270.073	563.06
270.306	539.06
270.538	568.06
270.77	543.06
271.002	559.06
271.234	545.06
271.466	568.06
271.698	572.06
271.93	588.06
272.162	576.06
272.394	551.06
272.626	578.06
272.858	581.06
273.09	595.06
273.322	590.06
273.553	597.06
273.785	588.06
274.017	612.06
274.249	603.06
274.481	598.06
274.713	597.06
274.945	602.06
275.176	583.06
275.408	605.06
275.64	594.06
275.872	600.06
276.104	612.06
276.335	588.06
276.567	623.06
276.799	608.06
277.031	626.06
277.262	614.06
277.494	616.06
277.726	617.06
277.957	626.06
278.189	621.06
278.421	628.06
278.652	615.06
278.884	613.06
279.115	614.06
279.347	643.06
279.579	642.06
279.81	639.06
280.042	622.06
280.273	623.06
280.505	646.06
280.736	656.06
280.968	643.06
281.199	659.06
281.431	623.06
281.662	655.06
281.894	647.06
282.125	639.06
282.356	660.06
282.588	677.06
282.819	652.06
283.051	635.06
283.282	652.06
283.513	680.06
283.745	675.06
283.976	658.06
284.207	641.06
284.439	671.06
284.67	678.06
284.901	660.06
285.132	654.06
285.364	670.06
285.595	688.06
285.826	687.06
286.057	686.06
286.288	676.06
286.52	698.06
286.751	717.06
286.982	745.06
287.213	674.06
287.444	700.06
287.675	694.06
287.906	688.06
288.138	704.06
288.369	704.06
288.6	714.06
288.831	706.06
289.062	699.06
289.293	694.06
289.524	704.06
289.755	710.06
289.986	715.06
290.217	686.06
290.448	711.06
290.679	713.06
290.91	718.06
291.141	702.06
291.371	729.06
291.602	724.06
291.833	714.06
292.064	749.06
292.295	719.06
292.526	702.06
292.757	717.06
292.987	694.06
293.218	724.06
293.449	734.06
293.68	745.06
293.91	733.06
294.141	754.06
294.372	732.06
294.603	737.06
294.833	730.06
295.064	715.06
295.295	731.06
295.525	727.06
295.756	730.06
295.987	717.06
296.217	718.06
296.448	728.06
296.679	741.06
296.909	734.06
297.14	735.06
297.37	747.06
297.601	756.06
297.831	734.06
298.062	754.06
298.292	741.06
298.523	759.06
298.753	768.06
298.984	725.06
299.214	767.06
299.445	778.06
299.675	776.06
299.905	783.06
300.136	790.06
300.366	796.06
300.597	811.06
300.827	809.06
301.057	770.06
301.288	782.06
301.518	798.06
301.748	811.06
301.979	811.06
302.209	812.06
302.439	800.06
302.669	773.06
302.9	798.06
303.13	751.06
303.36	815.06
303.59	794.06
303.82	804.06
304.051	820.06
304.281	834.06
304.511	837.06
304.741	805.06
304.971	844.06
305.201	846.06
305.431	846.06
305.661	822.06
305.891	859.06
306.121	845.06
306.352	836.06
306.582	808.06
306.812	827.06
307.042	846.06
307.272	847.06
307.502	852.06
307.731	859.06
307.961	830.06
308.191	876.06
308.421	826.06
308.651	869.06
308.881	847.06
309.111	843.06
309.341	852.06
309.571	847.06
309.8	869.06
310.03	880.06
310.26	878.06
310.49	884.06
310.72	910.06
310.949	895.06
311.179	875.06
311.409	866.06
311.639	887.06
311.868	876.06
312.098	872.06
312.328	889.06
312.557	878.06
312.787	907.06
313.017	920.06
313.246	926.06
313.476	900.06
313.706	932.06
313.935	945.06
314.165	909.06
314.394	926.06
314.624	918.06
314.853	935.06
315.083	941.06
315.312	952.06
315.542	939.06
315.771	931.06
316.001	917.06
316.23	958.06
316.46	924.06
316.689	948.06
316.919	969.06
317.148	978.06
317.377	972.06
317.607	931.06
317.836	966.06
318.065	950.06
318.295	1005.06
318.524	976.06
318.753	977.06
318.983	986.06
319.212	980.06
319.441	999.06
319.67	979.06
319.9	977.06
320.129	974.06
320.358	1005.06
320.587	1007.06
320.816	1038.06
321.046	998.06
321.275	988.06
321.504	1006.06
321.733	1020.06
321.962	1032.06
322.191	987.06
322.42	1033.06
322.649	1012.06
322.878	1036.06
323.108	1041.06
323.337	1017.06
323.566	1044.06
323.795	1067.06
324.024	1077.06
324.253	1067.06
324.482	1081.06
324.71	1082.06
324.939	1062.06
325.168	1066.06
325.397	1072.06
325.626	1101.06
325.855	1089.06
326.084	1099.06
326.313	1111.06
326.542	1120.06
326.77	1081.06
326.999	1092.06
327.228	1082.06
327.457	1106.06
327.686	1105.06
327.914	1148.06
328.143	1080.06
328.372	1097.06
328.6	1105.06
328.829	1115.06
329.058	1119.06
329.287	1102.06
329.515	1116.06
329.744	1121.06
329.972	1115.06
330.201	1144.06
330.43	1141.06
330.658	1134.06
330.887	1166.06
331.115	1146.06
331.344	1168.06
331.572	1131.06
331.801	1142.06
332.03	1178.06
332.258	1160.06
332.486	1159.06
332.715	1179.06
332.943	1194.06
333.172	1178.06
333.4	1157.06
333.629	1211.06
333.857	1205.06
334.085	1206.06
334.314	1208.06
334.542	1187.06
334.771	1227.06
334.999	1219.06
335.227	1198.06
335.455	1210.06
335.684	1227.06
335.912	1270.06
336.14	1218.06
336.369	1214.06
336.597	1228.06
336.825	1248.06
337.053	1231.06
337.281	1240.06
337.51	1225.06
337.738	1254.06
337.966	1237.06
338.194	1229.06
338.422	1233.06
338.65	1210.06
338.878	1199.06
339.106	1219.06
339.334	1260.06
339.562	1235.06
339.79	1230.06
340.018	1244.06
340.246	1242.06
340.474	1227.06
340.702	1208.06
340.93	1215.06
341.158	1223.06
341.386	1236.06
341.614	1262.06
341.842	1218.06
342.07	1207.06
342.298	1230.06
342.526	1241.06
342.754	1192.06
342.981	1229.06
343.209	1252.06
343.437	1253.06
343.665	1270.06
343.893	1220.06
344.12	1192.06
344.348	1237.06
344.576	1214.06
344.804	1278.06
345.031	1208.06
345.259	1185.06
345.487	1210.06
345.714	1218.06
345.942	1268.06
346.17	1236.06
346.397	1208.06
346.625	1208.06
346.853	1178.06
347.08	1191.06
347.308	1198.06
347.535	1206.06
347.763	1176.06
347.99	1159.06
348.218	1183.06
348.445	1181.06
348.673	1178.06
348.9	1178.06
349.128	1173.06
349.355	1213.06
349.583	1191.06
349.81	1170.06
350.037	1180.06
350.265	1155.06
350.492	1171.06
350.72	1150.06
350.947	1176.06
351.174	1161.06
351.402	1198.06
351.629	1197.06
351.856	1173.06
352.083	1206.06
352.311	1195.06
352.538	1212.06
352.765	1188.06
352.992	1151.06
353.22	1152.06
353.447	1172.06
353.674	1163.06
353.901	1164.06
354.128	1164.06
354.355	1148.06
354.583	1147.06
354.81	1162.06
355.037	1156.06
355.264	1166.06
355.491	1147.06
355.718	1135.06
355.945	1165.06
356.172	1152.06
356.399	1168.06
356.626	1208.06
356.853	1190.06
357.08	1179.06
357.307	1145.06
357.534	1167.06
357.761	1154.06
357.988	1164.06
358.215	1135.06
358.441	1132.06
358.668	1155.06
358.895	1171.06
359.122	1132.06
359.349	1147.06
359.576	1178.06
359.802	1160.06
360.029	1154.06
360.256	1157.06
360.483	1154.06
360.709	1156.06
360.936	1180.06
361.163	1168.06
361.39	1172.06
361.616	1182.06
361.843	1173.06
362.07	1188.06
362.296	1190.06
362.523	1170.06
362.749	1157.06
362.976	1156.06
363.203	1194.06
363.429	1160.06
363.656	1151.06
363.882	1160.06
364.109	1161.06
364.335	1140.06
364.562	1150.06
364.788	1135.06
365.015	1148.06
365.241	1130.06
365.468	1142.06
365.694	1125.06
365.92	1183.06
366.147	1158.06
366.373	1174.06
366.599	1170.06
366.826	1160.06
367.052	1183.06
367.278	1169.06
367.505	1170.06
367.731	1152.06
367.957	1173.06
368.184	1137.06
368.41	1196.06
368.636	1180.06
368.862	1173.06
369.089	1174.06
369.315	1202.06
369.541	1181.06
369.767	1166.06
369.993	1168.06
370.219	1171.06
370.445	1198.06
370.672	1179.06
370.898	1174.06
371.124	1190.06
371.35	1206.06
371.576	1153.06
371.802	1176.06
372.028	1212.06
372.254	1208.06
372.48	1211.06
372.706	1194.06
372.932	1200.06
373.158	1195.06
373.384	1173.06
373.61	1219.06
373.835	1168.06
374.061	1173.06
374.287	1204.06
374.513	1204.06
374.739	1210.06
374.965	1196.06
375.191	1191.06
375.416	1210.06
375.642	1175.06
375.868	1224.06
376.094	1193.06
376.319	1156.06
376.545	1178.06
376.771	1190.06
376.997	1160.06
377.222	1190.06
377.448	1140.06
377.674	1190.06
377.899	1163.06
378.125	1142.06
378.35	1156.06
378.576	1208.06
378.802	1163.06
379.027	1150.06
379.253	1168.06
379.478	1186.06
379.704	1149.06
379.929	1168.06
380.155	1147.06
380.38	1160.06
380.606	1149.06
380.831	1173.06
381.057	1189.06
381.282	1171.06
381.507	1170.06
381.733	1162.06
381.958	1172.06
382.184	1165.06
382.409	1182.06
382.634	1180.06
382.86	1186.06
383.085	1195.06
383.31	1189.06
383.535	1184.06
383.761	1171.06
383.986	1191.06
384.211	1209.06
384.436	1205.06
384.662	1219.06
384.887	1197.06
385.112	1202.06
385.337	1236.06
385.562	1212.06
385.787	1227.06
386.013	1219.06
386.238	1245.06
386.463	1211.06
386.688	1241.06
386.913	1210.06
387.138	1195.06
387.363	1221.06
387.588	1238.06
387.813	1232.06
388.038	1222.06
388.263	1238.06
388.488	1241.06
388.713	1211.06
388.938	1227.06
389.163	1236.06
389.387	1238.06
389.612	1231.06
389.837	1204.06
390.062	1212.06
390.287	1277.06
390.512	1233.06
390.736	1253.06
390.961	1256.06
391.186	1246.06
391.411	1259.06
391.636	1248.06
391.86	1245.06
392.085	1254.06
392.31	1247.06
392.534	1247.06
392.759	1247.06
392.984	1255.06
393.208	1310.06
393.433	1263.06
393.658	1263.06
393.882	1276.06
394.107	1278.06
394.331	1266.06
394.556	1247.06
394.78	1246.06
395.005	1282.06
395.229	1239.06
395.454	1245.06
395.678	1263.06
395.903	1269.06
396.127	1262.06
396.352	1291.06
396.576	1288.06
396.801	1266.06
397.025	1285.06
397.249	1304.06
397.474	1302.06
397.698	1296.06
397.922	1338.06
398.147	1275.06
398.371	1342.06
398.595	1318.06
398.82	1323.06
399.044	1355.06
399.268	1324.06
399.492	1375.06
399.717	1387.06
399.941	1389.06
400.165	1399.06
400.389	1427.06
400.613	1407.06
400.837	1372.06
401.062	1366.06
401.286	1357.06
401.51	1350.06
401.734	1379.06
401.958	1358.06
402.182	1334.06
402.406	1361.06
402.63	1355.06
402.854	1325.06
403.078	1335.06
403.302	1373.06
403.526	1335.06
403.75	1334.06
403.974	1351.06
404.198	1316.06
404.422	1343.06
404.645	1354.06
404.869	1323.06
405.093	1378.06
405.317	1317.06
405.541	1353.06
405.765	1369.06
405.988	1375.06
406.212	1385.06
406.436	1374.06
406.66	1407.06
406.883	1337.06
407.107	1403.06
407.331	1399.06
407.555	1445.06
407.778	1429.06
408.002	1420.06
408.226	1430.06
408.449	1450.06
408.673	1415.06
408.896	1420.06
409.12	1422.06
409.344	1420.06
409.567	1390.06
409.791	1378.06
410.014	1385.06
410.238	1396.06
410.461	1410.06
410.685	1392.06
410.908	1397.06
411.132	1406.06
411.355	1390.06
411.578	1384.06
411.802	1370.06
412.025	1369.06
412.249	1408.06
412.472	1368.06
412.695	1372.06
412.919	1360.06
413.142	1351.06
413.365	1373.06
413.589	1400.06
413.812	1350.06
414.035	1335.06
414.258	1359.06
414.482	1320.06
414.705	1344.06
414.928	1344.06
415.151	1384.06
415.374	1360.06
415.597	1372.06
415.821	1310.06
416.044	1300.06
416.267	1308.06
416.49	1317.06
416.713	1340.06
416.936	1323.06
417.159	1312.06
417.382	1276.06
417.605	1308.06
417.828	1305.06
418.051	1271.06
418.274	1282.06
418.497	1266.06
418.72	1274.06
418.943	1232.06
419.166	1320.06
419.389	1432.06
419.611	1382.06
419.834	1356.06
420.057	1311.06
420.28	1263.06
420.503	1268.06
420.726	1317.06
420.948	1304.06
421.171	1286.06
421.394	1299.06
421.617	1256.06
421.839	1282.06
422.062	1270.06
422.285	1251.06
422.507	1317.06
422.73	1308.06
422.953	1291.06
423.175	1258.06
423.398	1282.06
423.621	1258.06
423.843	1282.06
424.066	1340.06
424.288	1317.06
424.511	1303.06
424.733	1326.06
424.956	1301.06
425.178	1293.06
425.401	1312.06
425.623	1333.06
425.846	1259.06
426.068	1293.06
426.291	1306.06
426.513	1304.06
426.735	1295.06
426.958	1304.06
427.18	1264.06
427.402	1292.06
427.625	1293.06
427.847	1284.06
428.069	1284.06
428.292	1319.06
428.514	1271.06
428.736	1271.06
428.958	1336.06
429.181	1315.06
429.403	1250.06
429.625	1275.06
429.847	1282.06
430.069	1317.06
430.292	1274.06
430.514	1272.06
430.736	1308.06
430.958	1320.06
431.18	1255.06
431.402	1301.06
431.624	1273.06
431.846	1268.06
432.068	1292.06
432.29	1311.06
432.512	1261.06
432.734	1351.06
432.956	1321.06
433.178	1332.06
433.4	1327.06
433.622	1313.06
433.844	1327.06
434.066	1324.06
434.287	1278.06
434.509	1286.06
434.731	1299.06
434.953	1304.06
435.175	1341.06
435.397	1326.06
435.618	1267.06
435.84	1301.06
436.062	1296.06
436.284	1288.06
436.505	1307.06
436.727	1312.06
436.949	1270.06
437.17	1318.06
437.392	1263.06
437.614	1261.06
437.835	1237.06
438.057	1254.06
438.278	1246.06
438.5	1260.06
438.721	1261.06
438.943	1250.06
439.165	1246.06
439.386	1250.06
439.608	1263.06
439.829	1283.06
440.05	1258.06
440.272	1308.06
440.493	1301.06
440.715	1248.06
440.936	1296.06
441.158	1282.06
441.379	1309.06
441.6	1318.06
441.822	1291.06
442.043	1302.06
442.264	1286.06
442.486	1295.06
442.707	1288.06
442.928	1294.06
443.149	1296.06
443.371	1316.06
443.592	1330.06
443.813	1296.06
444.034	1322.06
444.255	1324.06
444.476	1282.06
444.698	1319.06
444.919	1307.06
445.14	1407.06
445.361	1394.06
445.582	1330.06
445.803	1280.06
446.024	1284.06
446.245	1297.06
446.466	1296.06
446.687	1261.06
446.908	1266.06
447.129	1250.06
447.35	1238.06
447.571	1245.06
447.792	1230.06
448.013	1233.06
448.234	1220.06
448.455	1226.06
448.675	1194.06
448.896	1193.06
449.117	1179.06
449.338	1211.06
449.559	1195.06
449.779	1204.06
450	1172.06
450.221	1167.06
450.442	1178.06
450.662	1183.06
450.883	1169.06
451.104	1206.06
451.324	1188.06
451.545	1194.06
451.766	1172.06
451.986	1162.06
452.207	1149.06
452.428	1147.06
452.648	1154.06
452.869	1151.06
453.089	1162.06
453.31	1170.06
453.53	1170.06
453.751	1157.06
453.971	1129.06
454.192	1183.06
454.412	1163.06
454.633	1165.06
454.853	1136.06
455.073	1133.06
455.294	1157.06
455.514	1147.06
455.734	1156.06
455.955	1189.06
456.175	1192.06
456.395	1130.06
456.616	1148.06
456.836	1171.06
457.056	1162.06
457.276	1162.06
457.497	1189.06
457.717	1172.06
457.937	1174.06
458.157	1160.06
458.377	1183.06
458.598	1169.06
458.818	1185.06
459.038	1163.06
459.258	1187.06
459.478	1236.06
459.698	1244.06
459.918	1263.06
460.138	1255.06
460.358	1250.06
460.578	1240.06
460.798	1309.06
461.018	1274.06
461.238	1270.06
461.458	1281.06
461.678	1255.06
461.898	1245.06
462.118	1296.06
462.338	1295.06
462.558	1334.06
462.777	1341.06
462.997	1358.06
463.217	1317.06
463.437	1364.06
463.657	1345.06
463.876	1349.06
464.096	1328.06
464.316	1286.06
464.536	1286.06
464.755	1314.06
464.975	1281.06
465.195	1268.06
465.414	1260.06
465.634	1271.06
465.854	1261.06
466.073	1265.06
466.293	1222.06
466.512	1206.06
466.732	1243.06
466.951	1206.06
467.171	1256.06
467.391	1254.06
467.61	1211.06
467.829	1231.06
468.049	1214.06
468.268	1241.06
468.488	1211.06
468.707	1211.06
468.927	1257.06
469.146	1263.06
469.365	1203.06
469.585	1234.06
469.804	1247.06
470.023	1235.06
470.243	1226.06
470.462	1221.06
470.681	1264.06
470.901	1225.06
471.12	1218.06
471.339	1251.06
471.558	1255.06
471.777	1243.06
471.997	1280.06
472.216	1260.06
472.435	1225.06
472.654	1238.06
472.873	1214.06
473.092	1261.06
473.311	1263.06
473.53	1263.06
473.749	1238.06
473.968	1285.06
474.187	1269.06
474.406	1260.06
474.625	1270.06
474.844	1310.06
475.063	1321.06
475.282	1322.06
475.501	1286.06
475.72	1292.06
475.939	1325.06
476.158	1312.06
476.377	1324.06
476.596	1359.06
476.814	1364.06
477.033	1368.06
477.252	1370.06
477.471	1382.06
477.69	1382.06
477.908	1394.06
478.127	1424.06
478.346	1412.06
478.564	1404.06
478.783	1397.06
479.002	1456.06
479.22	1504.06
479.439	1495.06
479.658	1465.06
479.876	1454.06
480.095	1477.06
480.313	1477.06
480.532	1492.06
480.751	1485.06
480.969	1447.06
481.188	1463.06
481.406	1505.06
481.624	1460.06
481.843	1483.06
482.061	1468.06
482.28	1475.06
482.498	1465.06
482.717	1491.06
482.935	1514.06
483.153	1525.06
483.372	1571.06
483.59	1526.06
483.808	1551.06
484.027	1560.06
484.245	1534.06
484.463	1529.06
484.681	1548.06
484.9	1535.06
485.118	1565.06
485.336	1528.06
485.554	1549.06
485.772	1496.06
485.99	1542.06
486.209	1568.06
486.427	1528.06
486.645	1565.06
486.863	1594.06
487.081	1582.06
487.299	1582.06
487.517	1564.06
487.735	1605.06
487.953	1626.06
488.171	1602.06
488.389	1625.06
488.607	1582.06
488.825	1555.06
489.043	1575.06
489.261	1557.06
489.479	1576.06
489.696	1550.06
489.914	1580.06
490.132	1550.06
490.35	1601.06
490.568	1581.06
490.786	1596.06
491.003	1595.06
491.221	1622.06
491.439	1606.06
491.657	1626.06
491.874	1624.06
492.092	1646.06
492.31	1623.06
492.527	1615.06
492.745	1613.06
492.963	1625.06
493.18	1624.06
493.398	1602.06
493.615	1598.06
493.833	1652.06
494.05	1642.06
494.268	1631.06
494.485	1618.06
494.703	1582.06
494.92	1640.06
495.138	1640.06
495.355	1590.06
495.573	1625.06
495.79	1624.06
496.008	1643.06
496.225	1666.06
496.442	1670.06
496.66	1688.06
496.877	1693.06
497.094	1693.06
497.312	1660.06
497.529	1671.06
497.746	1736.06
497.963	1717.06
498.181	1724.06
498.398	1699.06
498.615	1770.06
498.832	1778.06
499.049	1796.06
499.267	1827.06
499.484	1832.06
499.701	1875.06
499.918	1896.06
500.135	1880.06
500.352	1945.06
500.569	1933.06
500.786	1956.06
501.003	1952.06
501.22	1919.06
501.437	1907.06
501.654	1840.06
501.871	1890.06
502.088	1828.06
502.305	1819.06
502.522	1775.06
502.739	1736.06
502.956	1739.06
503.172	1695.06
503.389	1678.06
503.606	1673.06
503.823	1661.06
504.04	1599.06
504.256	1619.06
504.473	1630.06
504.69	1629.06
504.907	1613.06
505.123	1621.06
505.34	1578.06
505.557	1551.06
505.773	1511.06
505.99	1519.06
506.207	1485.06
506.423	1439.06
506.64	1479.06
506.856	1446.06
507.073	1447.06
507.289	1441.06
507.506	1412.06
507.722	1437.06
507.939	1404.06
508.155	1433.06
508.372	1448.06
508.588	1393.06
508.805	1376.06
509.021	1394.06
509.238	1356.06
509.454	1382.06
509.67	1337.06
509.887	1360.06
510.103	1360.06
510.319	1327.06
510.536	1306.06
510.752	1307.06
510.968	1319.06
511.184	1311.06
511.401	1320.06
511.617	1331.06
511.833	1340.06
512.049	1293.06
512.265	1321.06
512.481	1312.06
512.698	1302.06
512.914	1302.06
513.13	1277.06
513.346	1311.06
513.562	1312.06
513.778	1300.06
513.994	1294.06
514.21	1333.06
514.426	1321.06
514.642	1272.06
514.858	1276.06
515.074	1275.06
515.29	1292.06
515.506	1303.06
515.721	1315.06
515.937	1312.06
516.153	1327.06
516.369	1318.06
516.585	1310.06
516.801	1300.06
517.016	1327.06
517.232	1315.06
517.448	1302.06
517.664	1308.06
517.879	1316.06
518.095	1336.06
518.311	1321.06
518.527	1325.06
518.742	1259.06
518.958	1293.06
519.173	1274.06
519.389	1275.06
519.605	1300.06
519.82	1282.06
520.036	1283.06
520.251	1260.06
520.467	1242.06
520.682	1276.06
520.898	1246.06
521.113	1238.06
521.329	1240.06
521.544	1245.06
521.76	1227.06
521.975	1278.06
522.19	1204.06
522.406	1237.06
522.621	1211.06
522.836	1196.06
523.052	1215.06
523.267	1213.06
523.482	1216.06
523.698	1191.06
523.913	1188.06
524.128	1224.06
524.343	1209.06
524.559	1201.06
524.774	1178.06
524.989	1183.06
525.204	1168.06
525.419	1180.06
525.634	1215.06
525.849	1174.06
526.064	1190.06
526.28	1147.06
526.495	1140.06
526.71	1150.06
526.925	1154.06
527.14	1167.06
527.355	1167.06
527.57	1133.06
527.785	1156.06
527.999	1157.06
528.214	1152.06
528.429	1175.06
528.644	1167.06
528.859	1150.06
529.074	1190.06
529.289	1126.06
529.503	1151.06
529.718	1131.06
529.933	1175.06
530.148	1094.06
530.363	1130.06
530.577	1121.06
530.792	1123.06
531.007	1145.06
531.221	1126.06
531.436	1118.06
531.651	1129.06
531.865	1142.06
532.08	1130.06
532.295	1119.06
532.509	1127.06
532.724	1131.06
532.938	1098.06
533.153	1109.06
533.367	1102.06
533.582	1147.06
533.796	1119.06
534.011	1121.06
534.225	1080.06
534.44	1084.06
534.654	1090.06
534.868	1078.06
535.083	1091.06
535.297	1104.06
535.511	1030.06
535.726	1068.06
535.94	1066.06
536.154	1070.06
536.369	1057.06
536.583	1060.06
536.797	1055.06
537.011	1036.06
537.225	1038.06
537.44	1066.06
537.654	1026.06
537.868	1037.06
538.082	1047.06
538.296	1056.06
538.51	1045.06
538.724	1055.06
538.938	1048.06
539.153	1065.06
539.367	1050.06
539.581	1030.06
539.795	995.06
540.009	1024.06
540.222	1006.06
540.436	998.06
540.65	1010.06
540.864	1037.06
541.078	1029.06
541.292	1030.06
541.506	1031.06
541.72	1037.06
541.934	1044.06
542.147	1072.06
542.361	1051.06
542.575	1026.06
542.789	1024.06
543.002	998.06
543.216	1020.06
543.43	1009.06
543.644	979.06
543.857	1013.06
544.071	989.06
544.285	1010.06
544.498	1006.06
544.712	989.06
544.925	1006.06
545.139	998.06
545.352	992.06
545.566	999.06
545.779	1014.06
545.993	973.06
546.206	1033.06
546.42	1003.06
546.633	984.06
546.847	961.06
547.06	1007.06
547.274	1008.06
547.487	967.06
547.7	992.06
547.914	976.06
548.127	995.06
548.34	997.06
548.554	981.06
548.767	977.06
548.98	949.06
549.193	961.06
549.407	968.06
549.62	973.06
549.833	973.06
550.046	956.06
550.259	971.06
550.473	977.06
550.686	920.06
550.899	965.06
551.112	950.06
551.325	962.06
551.538	952.06
551.751	921.06
551.964	907.06
552.177	930.06
552.39	944.06
552.603	949.06
552.816	961.06
553.029	939.06
553.242	954.06
553.455	946.06
553.667	919.06
553.88	943.06
554.093	945.06
554.306	930.06
554.519	919.06
554.732	914.06
554.944	931.06
555.157	902.06
555.37	888.06
555.583	903.06
555.795	906.06
556.008	885.06
556.221	853.06
556.433	892.06
556.646	855.06
556.859	910.06
557.071	854.06
557.284	882.06
557.496	847.06
557.709	853.06
557.921	836.06
558.134	854.06
558.346	868.06
558.559	846.06
558.771	848.06
558.984	835.06
559.196	840.06
559.409	822.06
559.621	834.06
559.833	833.06
560.046	847.06
560.258	837.06
560.47	838.06
560.683	819.06
560.895	796.06
561.107	803.06
561.32	840.06
561.532	818.06
561.744	836.06
561.956	816.06
562.168	800.06
562.381	824.06
562.593	811.06
562.805	814.06
563.017	802.06
563.229	829.06
563.441	808.06
563.653	829.06
563.865	820.06
564.077	807.06
564.289	797.06
564.501	796.06
564.713	807.06
564.925	844.06
565.137	818.06
565.349	848.06
565.561	816.06
565.773	820.06
565.985	851.06
566.197	836.06
566.408	819.06
566.62	849.06
566.832	857.06
567.044	831.06
567.255	875.06
567.467	830.06
567.679	856.06
567.891	819.06
568.102	815.06
568.314	819.06
568.526	802.06
568.737	791.06
568.949	798.06
569.161	785.06
569.372	741.06
569.584	739.06
569.795	759.06
570.007	732.06
570.218	752.06
570.43	750.06
570.641	731.06
570.853	740.06
571.064	730.06
571.276	690.06
571.487	719.06
571.698	710.06
571.91	709.06
572.121	709.06
572.333	691.06
572.544	672.06
572.755	657.06
572.966	680.06
573.178	675.06
573.389	646.06
573.6	639.06
573.811	662.06
574.023	640.06
574.234	632.06
574.445	652.06
574.656	642.06
574.867	617.06
575.078	636.06
575.289	652.06
575.501	637.06
575.712	632.06
575.923	632.06
576.134	631.06
576.345	637.06
576.556	616.06
576.767	618.06
576.978	612.06
577.188	622.06
577.399	610.06
577.61	591.06
577.821	596.06
578.032	578.06
578.243	617.06
578.454	591.06
578.665	594.06
578.875	573.06
579.086	570.06
579.297	590.06
579.508	542.06
579.718	567.06
579.929	583.06
580.14	567.06
580.35	578.06
580.561	572.06
580.772	597.06
580.982	558.06
581.193	543.06
581.403	546.06
581.614	564.06
581.825	554.06
582.035	556.06
582.246	558.06
582.456	555.06
582.667	555.06
582.877	552.06
583.087	534.06
583.298	543.06
583.508	563.06
583.719	549.06
583.929	524.06
584.139	554.06
584.35	544.06
584.56	542.06
584.77	550.06
584.981	539.06
585.191	520.06
585.401	514.06
585.611	542.06
585.821	539.06
586.032	512.06
586.242	540.06
586.452	541.06
586.662	514.06
586.872	518.06
587.082	529.06
587.292	520.06
587.502	512.06
587.713	512.06
587.923	515.06
588.133	534.06
588.343	515.06
588.553	508.06
588.762	526.06
588.972	537.06
589.182	559.06
589.392	540.06
589.602	503.06
589.812	532.06
590.022	531.06
590.232	508.06
590.441	522.06
590.651	498.06
590.861	485.06
591.071	481.06
591.281	507.06
591.49	494.06
591.7	492.06
591.91	518.06
592.119	493.06
592.329	508.06
592.539	477.06
592.748	480.06
592.958	495.06
593.167	481.06
593.377	512.06
593.587	510.06
593.796	517.06
594.006	500.06
594.215	478.06
594.424	503.06
594.634	500.06
594.843	496.06
595.053	490.06
595.262	488.06
595.472	477.06
595.681	459.06
595.89	453.06
596.1	454.06
596.309	459.06
596.518	462.06
596.727	449.06
596.937	463.06
597.146	457.06
597.355	426.06
597.564	443.06
597.774	456.06
597.983	442.06
598.192	435.06
598.401	441.06
598.61	440.06
598.819	450.06
599.028	420.06
599.237	438.06
599.446	432.06
599.655	439.06
599.864	430.06
600.073	418.06
600.282	420.06
600.491	422.06
600.7	437.06
600.909	429.06
601.118	426.06
601.327	420.06
601.536	418.06
601.745	425.06
601.953	432.06
602.162	418.06
602.371	412.06
602.58	413.06
602.789	406.06
602.997	405.06
603.206	420.06
603.415	409.06
603.623	397.06
603.832	410.06
604.041	413.06
604.249	391.06
604.458	402.06
604.666	392.06
604.875	392.06
605.084	393.06
605.292	422.06
605.501	400.06
605.709	392.06
605.918	408.06
606.126	394.06
606.334	396.06
606.543	407.06
606.751	411.06
606.96	384.06
607.168	389.06
607.376	386.06
607.585	381.06
607.793	412.06
608.001	390.06
608.21	374.06
608.418	399.06
608.626	368.06
608.834	388.06
609.043	398.06
609.251	398.06
609.459	402.06
609.667	385.06
609.875	366.06
610.083	373.06
610.291	391.06
610.499	375.06
610.707	374.06
610.916	374.06
611.124	381.06
611.332	374.06
611.54	384.06
611.748	375.06
611.955	368.06
612.163	362.06
612.371	386.06
612.579	367.06
612.787	366.06
612.995	382.06
613.203	368.06
613.411	364.06
613.618	359.06
613.826	359.06
614.034	366.06
614.242	358.06
614.449	372.06
614.657	352.06
614.865	355.06
615.072	373.06
615.28	382.06
615.488	349.06
615.695	361.06
615.903	332.06
616.111	354.06
616.318	372.06
616.526	375.06
616.733	386.06
616.941	363.06
617.148	364.06
617.356	365.06
617.563	363.06
617.771	367.06
617.978	339.06
618.185	345.06
618.393	329.06
618.6	342.06
618.807	335.06
619.015	351.06
619.222	351.06
619.429	355.06
619.637	363.06
619.844	352.06
620.051	331.06
620.258	359.06
620.466	331.06
620.673	318.06
620.88	318.06
621.087	329.06
621.294	324.06
621.501	343.06
621.708	343.06
621.915	346.06
622.122	335.06
622.329	339.06
622.536	345.06
622.743	314.06
622.95	340.06
623.157	329.06
623.364	322.06
623.571	332.06
623.778	316.06
623.985	347.06
624.192	329.06
624.399	330.06
624.606	331.06
624.812	320.06
625.019	326.06
625.226	335.06
625.433	320.06
625.639	335.06
625.846	298.06
626.053	288.06
626.259	303.06
626.466	303.06
626.673	278.06
626.879	308.06
627.086	311.06
627.293	314.06
627.499	299.06
627.706	311.06
627.912	310.06
628.119	305.06
628.325	311.06
628.532	300.06
628.738	318.06
628.945	312.06
629.151	291.06
629.357	301.06
629.564	298.06
629.77	309.06
629.976	298.06
630.183	286.06
630.389	295.06
630.595	295.06
630.802	282.06
631.008	278.06
631.214	281.06
631.42	300.06
631.627	291.06
631.833	280.06
632.039	287.06
632.245	288.06
632.451	290.06
632.657	301.06
632.863	277.06
633.069	283.06
633.275	285.06
633.481	299.06
633.688	279.06
633.893	283.06
634.099	273.06
634.305	273.06
634.511	278.06
634.717	256.06
634.923	257.06
635.129	264.06
635.335	254.06
635.541	266.06
635.747	278.06
635.952	276.06
636.158	265.06
636.364	266.06
636.57	295.06
636.775	267.06
636.981	275.06
637.187	288.06
637.392	272.06
637.598	275.06
637.804	261.06
638.009	269.06
638.215	280.06
638.421	272.06
638.626	235.06
638.832	259.06
639.037	264.06
639.243	267.06
639.448	274.06
639.654	268.06
639.859	250.06
640.065	266.06
640.27	239.06
640.475	268.06
640.681	268.06
640.886	262.06
641.091	281.06
641.297	268.06
641.502	265.06
641.707	251.06
641.913	239.06
642.118	241.06
642.323	246.06
642.528	266.06
642.733	272.06
642.939	249.06
643.144	260.06
643.349	262.06
643.554	243.06
643.759	244.06
643.964	261.06
644.169	261.06
644.374	257.06
644.579	264.06
644.784	242.06
644.989	251.06
645.194	262.06
645.399	250.06
645.604	264.06
645.809	261.06
646.014	243.06
646.219	259.06
646.423	276.06
646.628	262.06
646.833	240.06
647.038	244.06
647.243	260.06
647.447	244.06
647.652	263.06
647.857	265.06
648.062	254.06
648.266	262.06
648.471	272.06
648.676	262.06
648.88	261.06
649.085	270.06
649.289	261.06
649.494	274.06
649.698	261.06
649.903	262.06
650.107	246.06
650.312	263.06
650.516	252.06
650.721	261.06
650.925	263.06
651.13	234.06
651.334	254.06
651.539	233.06
651.743	246.06
651.947	246.06
652.152	239.06
652.356	257.06
652.56	262.06
652.764	243.06
652.969	232.06
653.173	245.06
653.377	248.06
653.581	237.06
653.785	232.06
653.99	253.06
654.194	238.06
654.398	231.06
654.602	238.06
654.806	252.06
655.01	246.06
655.214	236.06
655.418	236.06
655.622	240.06
655.826	255.06
656.03	246.06
656.234	264.06
656.438	273.06
656.642	245.06
656.846	242.06
657.049	227.06
657.253	219.06
657.457	210.06
657.661	195.06
657.865	182.06
658.068	182.06
658.272	170.06
658.476	153.06
658.68	152.06
658.883	155.06
659.087	154.06
659.291	157.06
659.494	143.06
659.698	139.06
659.901	135.06
660.105	127.06
660.309	119.06
660.512	126.06
660.716	111.06
660.919	114.06
661.123	124.06
661.326	116.06
661.53	97.06
661.733	113.06
661.936	104.06
662.14	100.06
662.343	98.06
662.546	81.06
662.75	90.06
662.953	106.06
663.156	94.06
663.36	98.06
663.563	92.06
663.766	78.06
663.969	88.06
664.173	72.06
664.376	92.06
664.579	98.06
664.782	72.06
664.985	79.06
665.188	89.06
665.391	82.06
665.594	95.06
665.797	87.06
666	74.06
666.203	77.06
666.406	92.06
666.609	90.06
666.812	80.06
667.015	80.06
667.218	95.06
667.421	77.06
667.624	70.06
667.827	82.06
668.03	93.06
668.232	83.06
668.435	87.06
668.638	103.06
668.841	91.06
669.043	82.06
669.246	76.06
669.449	75.06
669.651	91.06
669.854	95.06
670.057	93.06
670.259	94.06
670.462	93.06
670.665	87.06
670.867	90.06
671.07	90.06
671.272	77.06
671.475	87.06
671.677	77.06
671.88	84.06
672.082	82.06
672.284	91.06
672.487	81.06
672.689	83.06
672.892	68.06
