Data from Ni(NO3)2@0.0625M.TitratingCurve.Agarose3%dH2O.NegLispCup.LampEnergy10.LIBS07252019_HRD10591_18-13-41-569.txt Node
Date: Thu Jul 25 18:13:41 EDT 2019
User: cochatt
Spectrometer: HR+D1059
Trigger mode: 1
Integration Time (sec): 1.000000E-1
Scans to average: 1
Electric dark correction enabled: true
Nonlinearity correction enabled: false
Boxcar width: 0
XAxis mode: Wavelengths
Number of Pixels in Spectrum: 2048
>>>>>Begin Spectral Data<<<<<
223.165	-24.5
223.4	-24.5
223.635	-24.5
223.869	-19.5
224.104	-20.5
224.338	-11.5
224.573	-7.5
224.808	-10.5
225.042	5.5
225.277	-10.5
225.511	-8.5
225.746	-2.5
225.98	2.5
226.215	16.5
226.449	30.5
226.683	16.5
226.918	27.5
227.152	16.5
227.387	39.5
227.621	35.5
227.856	38.5
228.09	45.5
228.324	51.5
228.559	60.5
228.793	72.5
229.027	96.5
229.262	113.5
229.496	109.5
229.73	110.5
229.964	114.5
230.199	116.5
230.433	124.5
230.667	135.5
230.901	129.5
231.136	119.5
231.37	125.5
231.604	134.5
231.838	144.5
232.072	142.5
232.306	138.5
232.541	150.5
232.775	155.5
233.009	142.5
233.243	154.5
233.477	154.5
233.711	135.5
233.945	157.5
234.179	129.5
234.413	131.5
234.647	132.5
234.881	140.5
235.115	140.5
235.349	155.5
235.583	138.5
235.817	141.5
236.051	141.5
236.285	137.5
236.519	140.5
236.753	151.5
236.987	157.5
237.221	144.5
237.455	159.5
237.689	148.5
237.922	139.5
238.156	152.5
238.39	142.5
238.624	146.5
238.858	172.5
239.091	166.5
239.325	159.5
239.559	168.5
239.793	157.5
240.027	154.5
240.26	162.5
240.494	163.5
240.728	173.5
240.961	171.5
241.195	204.5
241.429	182.5
241.662	177.5
241.896	182.5
242.13	194.5
242.363	183.5
242.597	176.5
242.83	189.5
243.064	194.5
243.298	173.5
243.531	199.5
243.765	196.5
243.998	200.5
244.232	204.5
244.465	205.5
244.699	201.5
244.932	200.5
245.166	206.5
245.399	189.5
245.633	177.5
245.866	227.5
246.099	211.5
246.333	214.5
246.566	196.5
246.8	222.5
247.033	212.5
247.266	216.5
247.5	219.5
247.733	231.5
247.966	220.5
248.2	217.5
248.433	232.5
248.666	210.5
248.899	222.5
249.133	212.5
249.366	216.5
249.599	223.5
249.832	224.5
250.066	237.5
250.299	255.5
250.532	235.5
250.765	229.5
250.998	233.5
251.231	251.5
251.465	248.5
251.698	250.5
251.931	252.5
252.164	262.5
252.397	244.5
252.63	259.5
252.863	237.5
253.096	266.5
253.329	245.5
253.562	256.5
253.795	246.5
254.028	239.5
254.261	264.5
254.494	265.5
254.727	259.5
254.96	260.5
255.193	268.5
255.426	264.5
255.659	252.5
255.892	281.5
256.124	272.5
256.357	299.5
256.59	272.5
256.823	270.5
257.056	266.5
257.289	262.5
257.521	284.5
257.754	268.5
257.987	271.5
258.22	271.5
258.452	263.5
258.685	283.5
258.918	298.5
259.151	288.5
259.383	291.5
259.616	300.5
259.849	289.5
260.081	305.5
260.314	295.5
260.547	295.5
260.779	301.5
261.012	285.5
261.244	312.5
261.477	302.5
261.71	299.5
261.942	299.5
262.175	293.5
262.407	298.5
262.64	309.5
262.872	304.5
263.105	305.5
263.337	320.5
263.57	309.5
263.802	300.5
264.035	312.5
264.267	309.5
264.499	331.5
264.732	322.5
264.964	332.5
265.197	338.5
265.429	317.5
265.661	319.5
265.894	349.5
266.126	324.5
266.358	326.5
266.591	332.5
266.823	332.5
267.055	311.5
267.287	329.5
267.52	342.5
267.752	343.5
267.984	330.5
268.216	349.5
268.448	333.5
268.681	374.5
268.913	337.5
269.145	353.5
269.377	343.5
269.609	347.5
269.841	352.5
270.073	353.5
270.306	355.5
270.538	353.5
270.77	350.5
271.002	355.5
271.234	362.5
271.466	346.5
271.698	352.5
271.93	361.5
272.162	358.5
272.394	355.5
272.626	363.5
272.858	353.5
273.09	357.5
273.322	390.5
273.553	383.5
273.785	360.5
274.017	363.5
274.249	381.5
274.481	367.5
274.713	370.5
274.945	389.5
275.176	379.5
275.408	372.5
275.64	381.5
275.872	392.5
276.104	391.5
276.335	389.5
276.567	375.5
276.799	392.5
277.031	412.5
277.262	397.5
277.494	387.5
277.726	399.5
277.957	378.5
278.189	412.5
278.421	400.5
278.652	414.5
278.884	407.5
279.115	398.5
279.347	389.5
279.579	401.5
279.81	382.5
280.042	413.5
280.273	436.5
280.505	409.5
280.736	414.5
280.968	432.5
281.199	408.5
281.431	425.5
281.662	446.5
281.894	428.5
282.125	407.5
282.356	432.5
282.588	433.5
282.819	416.5
283.051	450.5
283.282	430.5
283.513	441.5
283.745	440.5
283.976	451.5
284.207	437.5
284.439	456.5
284.67	440.5
284.901	473.5
285.132	451.5
285.364	459.5
285.595	454.5
285.826	471.5
286.057	461.5
286.288	456.5
286.52	439.5
286.751	447.5
286.982	469.5
287.213	465.5
287.444	450.5
287.675	451.5
287.906	473.5
288.138	464.5
288.369	473.5
288.6	468.5
288.831	479.5
289.062	473.5
289.293	472.5
289.524	472.5
289.755	474.5
289.986	478.5
290.217	488.5
290.448	476.5
290.679	482.5
290.91	480.5
291.141	486.5
291.371	484.5
291.602	491.5
291.833	474.5
292.064	492.5
292.295	485.5
292.526	476.5
292.757	487.5
292.987	458.5
293.218	488.5
293.449	470.5
293.68	492.5
293.91	471.5
294.141	461.5
294.372	492.5
294.603	468.5
294.833	483.5
295.064	507.5
295.295	488.5
295.525	521.5
295.756	487.5
295.987	488.5
296.217	491.5
296.448	492.5
296.679	483.5
296.909	512.5
297.14	515.5
297.37	526.5
297.601	545.5
297.831	528.5
298.062	520.5
298.292	518.5
298.523	543.5
298.753	543.5
298.984	550.5
299.214	538.5
299.445	541.5
299.675	502.5
299.905	535.5
300.136	526.5
300.366	527.5
300.597	534.5
300.827	534.5
301.057	574.5
301.288	567.5
301.518	553.5
301.748	565.5
301.979	559.5
302.209	546.5
302.439	551.5
302.669	570.5
302.9	552.5
303.13	520.5
303.36	541.5
303.59	532.5
303.82	532.5
304.051	563.5
304.281	556.5
304.511	536.5
304.741	546.5
304.971	560.5
305.201	541.5
305.431	563.5
305.661	538.5
305.891	548.5
306.121	541.5
306.352	538.5
306.582	532.5
306.812	516.5
307.042	533.5
307.272	528.5
307.502	545.5
307.731	533.5
307.961	508.5
308.191	517.5
308.421	522.5
308.651	502.5
308.881	522.5
309.111	562.5
309.341	526.5
309.571	527.5
309.8	540.5
310.03	520.5
310.26	525.5
310.49	527.5
310.72	521.5
310.949	530.5
311.179	533.5
311.409	547.5
311.639	552.5
311.868	534.5
312.098	543.5
312.328	556.5
312.557	548.5
312.787	541.5
313.017	564.5
313.246	574.5
313.476	558.5
313.706	563.5
313.935	573.5
314.165	569.5
314.394	545.5
314.624	568.5
314.853	556.5
315.083	567.5
315.312	561.5
315.542	576.5
315.771	558.5
316.001	558.5
316.23	553.5
316.46	551.5
316.689	568.5
316.919	569.5
317.148	571.5
317.377	535.5
317.607	543.5
317.836	518.5
318.065	542.5
318.295	564.5
318.524	553.5
318.753	529.5
318.983	539.5
319.212	550.5
319.441	545.5
319.67	555.5
319.9	557.5
320.129	569.5
320.358	549.5
320.587	559.5
320.816	555.5
321.046	560.5
321.275	560.5
321.504	548.5
321.733	553.5
321.962	540.5
322.191	563.5
322.42	567.5
322.649	552.5
322.878	570.5
323.108	555.5
323.337	559.5
323.566	584.5
323.795	569.5
324.024	559.5
324.253	556.5
324.482	563.5
324.71	561.5
324.939	577.5
325.168	590.5
325.397	588.5
325.626	591.5
325.855	617.5
326.084	588.5
326.313	607.5
326.542	603.5
326.77	640.5
326.999	627.5
327.228	600.5
327.457	595.5
327.686	604.5
327.914	591.5
328.143	608.5
328.372	589.5
328.6	606.5
328.829	627.5
329.058	589.5
329.287	591.5
329.515	624.5
329.744	624.5
329.972	599.5
330.201	617.5
330.43	633.5
330.658	606.5
330.887	618.5
331.115	641.5
331.344	645.5
331.572	670.5
331.801	666.5
332.03	669.5
332.258	716.5
332.486	709.5
332.715	734.5
332.943	777.5
333.172	825.5
333.4	824.5
333.629	857.5
333.857	846.5
334.085	827.5
334.314	819.5
334.542	791.5
334.771	773.5
334.999	772.5
335.227	781.5
335.455	761.5
335.684	761.5
335.912	741.5
336.14	739.5
336.369	727.5
336.597	733.5
336.825	747.5
337.053	718.5
337.281	712.5
337.51	695.5
337.738	662.5
337.966	673.5
338.194	670.5
338.422	678.5
338.65	668.5
338.878	672.5
339.106	648.5
339.334	672.5
339.562	661.5
339.79	651.5
340.018	636.5
340.246	615.5
340.474	622.5
340.702	649.5
340.93	624.5
341.158	643.5
341.386	654.5
341.614	653.5
341.842	600.5
342.07	631.5
342.298	630.5
342.526	622.5
342.754	618.5
342.981	641.5
343.209	659.5
343.437	665.5
343.665	728.5
343.893	781.5
344.12	797.5
344.348	781.5
344.576	713.5
344.804	710.5
345.031	678.5
345.259	671.5
345.487	656.5
345.714	644.5
345.942	621.5
346.17	630.5
346.397	605.5
346.625	618.5
346.853	649.5
347.08	612.5
347.308	615.5
347.535	646.5
347.763	643.5
347.99	625.5
348.218	655.5
348.445	623.5
348.673	635.5
348.9	638.5
349.128	623.5
349.355	627.5
349.583	589.5
349.81	605.5
350.037	596.5
350.265	607.5
350.492	596.5
350.72	613.5
350.947	596.5
351.174	578.5
351.402	593.5
351.629	601.5
351.856	608.5
352.083	589.5
352.311	577.5
352.538	596.5
352.765	591.5
352.992	588.5
353.22	596.5
353.447	575.5
353.674	597.5
353.901	589.5
354.128	596.5
354.355	583.5
354.583	590.5
354.81	616.5
355.037	610.5
355.264	597.5
355.491	590.5
355.718	608.5
355.945	614.5
356.172	588.5
356.399	619.5
356.626	601.5
356.853	605.5
357.08	582.5
357.307	592.5
357.534	584.5
357.761	601.5
357.988	602.5
358.215	593.5
358.441	607.5
358.668	581.5
358.895	602.5
359.122	614.5
359.349	601.5
359.576	622.5
359.802	592.5
360.029	585.5
360.256	603.5
360.483	609.5
360.709	624.5
360.936	592.5
361.163	596.5
361.39	590.5
361.616	572.5
361.843	590.5
362.07	579.5
362.296	593.5
362.523	591.5
362.749	600.5
362.976	592.5
363.203	606.5
363.429	587.5
363.656	582.5
363.882	596.5
364.109	600.5
364.335	594.5
364.562	576.5
364.788	616.5
365.015	574.5
365.241	596.5
365.468	576.5
365.694	601.5
365.92	608.5
366.147	601.5
366.373	582.5
366.599	594.5
366.826	589.5
367.052	590.5
367.278	626.5
367.505	601.5
367.731	597.5
367.957	606.5
368.184	613.5
368.41	595.5
368.636	585.5
368.862	596.5
369.089	602.5
369.315	623.5
369.541	628.5
369.767	621.5
369.993	607.5
370.219	619.5
370.445	617.5
370.672	639.5
370.898	609.5
371.124	620.5
371.35	635.5
371.576	653.5
371.802	642.5
372.028	642.5
372.254	633.5
372.48	640.5
372.706	672.5
372.932	677.5
373.158	655.5
373.384	679.5
373.61	647.5
373.835	654.5
374.061	635.5
374.287	648.5
374.513	649.5
374.739	667.5
374.965	685.5
375.191	730.5
375.416	728.5
375.642	687.5
375.868	697.5
376.094	709.5
376.319	650.5
376.545	657.5
376.771	663.5
376.997	647.5
377.222	668.5
377.448	649.5
377.674	630.5
377.899	633.5
378.125	637.5
378.35	643.5
378.576	622.5
378.802	612.5
379.027	633.5
379.253	639.5
379.478	638.5
379.704	646.5
379.929	648.5
380.155	635.5
380.38	623.5
380.606	635.5
380.831	643.5
381.057	679.5
381.282	635.5
381.507	663.5
381.733	637.5
381.958	651.5
382.184	651.5
382.409	658.5
382.634	669.5
382.86	667.5
383.085	673.5
383.31	697.5
383.535	708.5
383.761	714.5
383.986	739.5
384.211	743.5
384.436	759.5
384.662	747.5
384.887	785.5
385.112	792.5
385.337	771.5
385.562	804.5
385.787	791.5
386.013	783.5
386.238	799.5
386.463	809.5
386.688	811.5
386.913	760.5
387.138	779.5
387.363	777.5
387.588	770.5
387.813	762.5
388.038	774.5
388.263	765.5
388.488	756.5
388.713	759.5
388.938	779.5
389.163	764.5
389.387	746.5
389.612	755.5
389.837	751.5
390.062	745.5
390.287	760.5
390.512	744.5
390.736	779.5
390.961	761.5
391.186	789.5
391.411	843.5
391.636	816.5
391.86	863.5
392.085	868.5
392.31	881.5
392.534	884.5
392.759	847.5
392.984	822.5
393.208	796.5
393.433	833.5
393.658	807.5
393.882	816.5
394.107	837.5
394.331	845.5
394.556	848.5
394.78	844.5
395.005	848.5
395.229	822.5
395.454	852.5
395.678	901.5
395.903	855.5
396.127	863.5
396.352	854.5
396.576	815.5
396.801	817.5
397.025	840.5
397.249	836.5
397.474	853.5
397.698	864.5
397.922	880.5
398.147	854.5
398.371	887.5
398.595	911.5
398.82	921.5
399.044	1004.5
399.268	1118.5
399.492	1350.5
399.717	1496.5
399.941	1574.5
400.165	1353.5
400.389	1151.5
400.613	1068.5
400.837	1026.5
401.062	980.5
401.286	969.5
401.51	959.5
401.734	968.5
401.958	986.5
402.182	1016.5
402.406	996.5
402.63	1029.5
402.854	1051.5
403.078	1017.5
403.302	1102.5
403.526	1120.5
403.75	1125.5
403.974	1172.5
404.198	1133.5
404.422	1181.5
404.645	1122.5
404.869	1144.5
405.093	1142.5
405.317	1090.5
405.541	1095.5
405.765	1085.5
405.988	1079.5
406.212	1080.5
406.436	1084.5
406.66	1104.5
406.883	1110.5
407.107	1174.5
407.331	1246.5
407.555	1256.5
407.778	1270.5
408.002	1243.5
408.226	1178.5
408.449	1192.5
408.673	1172.5
408.896	1104.5
409.12	1104.5
409.344	1131.5
409.567	1102.5
409.791	1142.5
410.014	1135.5
410.238	1101.5
410.461	1118.5
410.685	1123.5
410.908	1074.5
411.132	1097.5
411.355	1045.5
411.578	1032.5
411.802	1007.5
412.025	1027.5
412.249	1040.5
412.472	1023.5
412.695	981.5
412.919	976.5
413.142	967.5
413.365	947.5
413.589	962.5
413.812	941.5
414.035	966.5
414.258	968.5
414.482	976.5
414.705	990.5
414.928	987.5
415.151	975.5
415.374	979.5
415.597	1007.5
415.821	975.5
416.044	926.5
416.267	944.5
416.49	950.5
416.713	931.5
416.936	949.5
417.159	951.5
417.382	956.5
417.605	997.5
417.828	951.5
418.051	960.5
418.274	976.5
418.497	966.5
418.72	1003.5
418.943	982.5
419.166	1079.5
419.389	1156.5
419.611	1100.5
419.834	1053.5
420.057	1033.5
420.28	990.5
420.503	983.5
420.726	980.5
420.948	983.5
421.171	956.5
421.394	944.5
421.617	979.5
421.839	979.5
422.062	972.5
422.285	960.5
422.507	999.5
422.73	999.5
422.953	1021.5
423.175	1027.5
423.398	1077.5
423.621	1027.5
423.843	1039.5
424.066	1039.5
424.288	1041.5
424.511	1053.5
424.733	1032.5
424.956	1017.5
425.178	979.5
425.401	973.5
425.623	982.5
425.846	977.5
426.068	948.5
426.291	900.5
426.513	930.5
426.735	913.5
426.958	903.5
427.18	884.5
427.402	878.5
427.625	865.5
427.847	870.5
428.069	857.5
428.292	861.5
428.514	880.5
428.736	883.5
428.958	865.5
429.181	858.5
429.403	843.5
429.625	851.5
429.847	840.5
430.069	834.5
430.292	835.5
430.514	819.5
430.736	840.5
430.958	848.5
431.18	851.5
431.402	835.5
431.624	839.5
431.846	876.5
432.068	861.5
432.29	859.5
432.512	872.5
432.734	875.5
432.956	832.5
433.178	850.5
433.4	876.5
433.622	851.5
433.844	891.5
434.066	885.5
434.287	886.5
434.509	926.5
434.731	948.5
434.953	984.5
435.175	976.5
435.397	969.5
435.618	939.5
435.84	925.5
436.062	890.5
436.284	853.5
436.505	850.5
436.727	858.5
436.949	870.5
437.17	877.5
437.392	832.5
437.614	859.5
437.835	835.5
438.057	807.5
438.278	821.5
438.5	814.5
438.721	833.5
438.943	835.5
439.165	837.5
439.386	841.5
439.608	884.5
439.829	893.5
440.05	865.5
440.272	867.5
440.493	894.5
440.715	903.5
440.936	908.5
441.158	907.5
441.379	923.5
441.6	957.5
441.822	1015.5
442.043	1001.5
442.264	954.5
442.486	959.5
442.707	954.5
442.928	944.5
443.149	963.5
443.371	968.5
443.592	999.5
443.813	982.5
444.034	973.5
444.255	1029.5
444.476	1097.5
444.698	1138.5
444.919	1219.5
445.14	1260.5
445.361	1107.5
445.582	1013.5
445.803	963.5
446.024	908.5
446.245	896.5
446.466	914.5
446.687	900.5
446.908	880.5
447.129	841.5
447.35	824.5
447.571	853.5
447.792	836.5
448.013	817.5
448.234	803.5
448.455	814.5
448.675	803.5
448.896	808.5
449.117	795.5
449.338	800.5
449.559	809.5
449.779	784.5
450	779.5
450.221	782.5
450.442	795.5
450.662	804.5
450.883	813.5
451.104	860.5
451.324	843.5
451.545	818.5
451.766	831.5
451.986	845.5
452.207	781.5
452.428	829.5
452.648	819.5
452.869	794.5
453.089	776.5
453.31	814.5
453.53	790.5
453.751	793.5
453.971	782.5
454.192	757.5
454.412	779.5
454.633	765.5
454.853	779.5
455.073	747.5
455.294	760.5
455.514	719.5
455.734	737.5
455.955	759.5
456.175	728.5
456.395	707.5
456.616	719.5
456.836	721.5
457.056	744.5
457.276	732.5
457.497	740.5
457.717	745.5
457.937	744.5
458.157	757.5
458.377	776.5
458.598	766.5
458.818	800.5
459.038	819.5
459.258	866.5
459.478	895.5
459.698	879.5
459.918	948.5
460.138	983.5
460.358	1028.5
460.578	1049.5
460.798	1059.5
461.018	1058.5
461.238	1000.5
461.458	1040.5
461.678	1020.5
461.898	1013.5
462.118	1021.5
462.338	1100.5
462.558	1128.5
462.777	1160.5
462.997	1290.5
463.217	1452.5
463.437	1430.5
463.657	1279.5
463.876	1207.5
464.096	1193.5
464.316	1238.5
464.536	1239.5
464.755	1187.5
464.975	1113.5
465.195	1043.5
465.414	1045.5
465.634	948.5
465.854	909.5
466.073	871.5
466.293	877.5
466.512	877.5
466.732	828.5
466.951	835.5
467.171	832.5
467.391	835.5
467.61	819.5
467.829	824.5
468.049	839.5
468.268	814.5
468.488	792.5
468.707	800.5
468.927	819.5
469.146	806.5
469.365	813.5
469.585	845.5
469.804	851.5
470.023	846.5
470.243	859.5
470.462	867.5
470.681	872.5
470.901	873.5
471.12	869.5
471.339	817.5
471.558	806.5
471.777	836.5
471.997	821.5
472.216	791.5
472.435	777.5
472.654	757.5
472.873	777.5
473.092	767.5
473.311	782.5
473.53	794.5
473.749	764.5
473.968	790.5
474.187	795.5
474.406	786.5
474.625	777.5
474.844	785.5
475.063	776.5
475.282	792.5
475.501	789.5
475.72	785.5
475.939	761.5
476.158	822.5
476.377	824.5
476.596	803.5
476.814	804.5
477.033	815.5
477.252	872.5
477.471	861.5
477.69	879.5
477.908	903.5
478.127	942.5
478.346	938.5
478.564	972.5
478.783	968.5
479.002	973.5
479.22	968.5
479.439	955.5
479.658	958.5
479.876	968.5
480.095	963.5
480.313	1037.5
480.532	1067.5
480.751	1045.5
480.969	983.5
481.188	990.5
481.406	948.5
481.624	919.5
481.843	903.5
482.061	893.5
482.28	909.5
482.498	871.5
482.717	851.5
482.935	885.5
483.153	875.5
483.372	877.5
483.59	892.5
483.808	895.5
484.027	891.5
484.245	891.5
484.463	896.5
484.681	922.5
484.9	892.5
485.118	921.5
485.336	926.5
485.554	932.5
485.772	958.5
485.99	939.5
486.209	938.5
486.427	957.5
486.645	950.5
486.863	934.5
487.081	946.5
487.299	958.5
487.517	953.5
487.735	938.5
487.953	907.5
488.171	950.5
488.389	941.5
488.607	899.5
488.825	903.5
489.043	923.5
489.261	887.5
489.479	909.5
489.696	919.5
489.914	929.5
490.132	933.5
490.35	925.5
490.568	924.5
490.786	913.5
491.003	911.5
491.221	900.5
491.439	927.5
491.657	907.5
491.874	937.5
492.092	951.5
492.31	945.5
492.527	953.5
492.745	920.5
492.963	956.5
493.18	964.5
493.398	961.5
493.615	977.5
493.833	977.5
494.05	954.5
494.268	991.5
494.485	973.5
494.703	977.5
494.92	994.5
495.138	976.5
495.355	990.5
495.573	964.5
495.79	992.5
496.008	983.5
496.225	1004.5
496.442	977.5
496.66	1038.5
496.877	1018.5
497.094	1060.5
497.312	1078.5
497.529	1041.5
497.746	1113.5
497.963	1145.5
498.181	1185.5
498.398	1220.5
498.615	1315.5
498.832	1398.5
499.049	1510.5
499.267	1662.5
499.484	1814.5
499.701	1996.5
499.918	2252.5
500.135	2602.5
500.352	2987.5
500.569	3194.5
500.786	3179.5
501.003	2929.5
501.22	2566.5
501.437	2284.5
501.654	1952.5
501.871	1755.5
502.088	1613.5
502.305	1495.5
502.522	1428.5
502.739	1374.5
502.956	1325.5
503.172	1225.5
503.389	1157.5
503.606	1195.5
503.823	1137.5
504.04	1132.5
504.256	1130.5
504.473	1179.5
504.69	1195.5
504.907	1211.5
505.123	1077.5
505.34	1039.5
505.557	990.5
505.773	992.5
505.99	937.5
506.207	925.5
506.423	894.5
506.64	887.5
506.856	913.5
507.073	871.5
507.289	875.5
507.506	879.5
507.722	855.5
507.939	837.5
508.155	878.5
508.372	864.5
508.588	822.5
508.805	834.5
509.021	837.5
509.238	833.5
509.454	853.5
509.67	825.5
509.887	834.5
510.103	829.5
510.319	812.5
510.536	813.5
510.752	795.5
510.968	813.5
511.184	799.5
511.401	799.5
511.617	808.5
511.833	812.5
512.049	806.5
512.265	807.5
512.481	808.5
512.698	797.5
512.914	808.5
513.13	792.5
513.346	815.5
513.562	803.5
513.778	827.5
513.994	824.5
514.21	807.5
514.426	796.5
514.642	794.5
514.858	807.5
515.074	823.5
515.29	833.5
515.506	831.5
515.721	867.5
515.937	855.5
516.153	868.5
516.369	896.5
516.585	928.5
516.801	958.5
517.016	991.5
517.232	1047.5
517.448	1112.5
517.664	1159.5
517.879	1156.5
518.095	1152.5
518.311	1118.5
518.527	1060.5
518.742	1011.5
518.958	982.5
519.173	968.5
519.389	929.5
519.605	893.5
519.82	861.5
520.036	862.5
520.251	829.5
520.467	810.5
520.682	843.5
520.898	821.5
521.113	817.5
521.329	801.5
521.544	768.5
521.76	781.5
521.975	783.5
522.19	783.5
522.406	776.5
522.621	762.5
522.836	743.5
523.052	763.5
523.267	742.5
523.482	755.5
523.698	725.5
523.913	744.5
524.128	756.5
524.343	739.5
524.559	738.5
524.774	762.5
524.989	769.5
525.204	750.5
525.419	745.5
525.634	730.5
525.849	721.5
526.064	737.5
526.28	744.5
526.495	724.5
526.71	760.5
526.925	727.5
527.14	731.5
527.355	729.5
527.57	750.5
527.785	726.5
527.999	733.5
528.214	722.5
528.429	746.5
528.644	752.5
528.859	728.5
529.074	735.5
529.289	714.5
529.503	726.5
529.718	730.5
529.933	719.5
530.148	726.5
530.363	716.5
530.577	733.5
530.792	711.5
531.007	740.5
531.221	720.5
531.436	735.5
531.651	736.5
531.865	742.5
532.08	747.5
532.295	731.5
532.509	754.5
532.724	719.5
532.938	767.5
533.153	741.5
533.367	744.5
533.582	733.5
533.796	737.5
534.011	716.5
534.225	726.5
534.44	724.5
534.654	738.5
534.868	719.5
535.083	717.5
535.297	699.5
535.511	694.5
535.726	701.5
535.94	699.5
536.154	699.5
536.369	683.5
536.583	673.5
536.797	698.5
537.011	651.5
537.225	682.5
537.44	672.5
537.654	683.5
537.868	651.5
538.082	657.5
538.296	651.5
538.51	678.5
538.724	682.5
538.938	656.5
539.153	642.5
539.367	671.5
539.581	647.5
539.795	651.5
540.009	651.5
540.222	636.5
540.436	664.5
540.65	678.5
540.864	647.5
541.078	664.5
541.292	637.5
541.506	661.5
541.72	665.5
541.934	658.5
542.147	664.5
542.361	647.5
542.575	640.5
542.789	643.5
543.002	631.5
543.216	669.5
543.43	654.5
543.644	651.5
543.857	648.5
544.071	636.5
544.285	639.5
544.498	657.5
544.712	646.5
544.925	672.5
545.139	677.5
545.352	659.5
545.566	682.5
545.779	698.5
545.993	666.5
546.206	681.5
546.42	670.5
546.633	658.5
546.847	681.5
547.06	660.5
547.274	662.5
547.487	652.5
547.7	669.5
547.914	671.5
548.127	651.5
548.34	675.5
548.554	672.5
548.767	679.5
548.98	687.5
549.193	684.5
549.407	697.5
549.62	682.5
549.833	683.5
550.046	689.5
550.259	679.5
550.473	645.5
550.686	661.5
550.899	667.5
551.112	645.5
551.325	651.5
551.538	658.5
551.751	651.5
551.964	665.5
552.177	682.5
552.39	693.5
552.603	700.5
552.816	711.5
553.029	727.5
553.242	736.5
553.455	751.5
553.667	769.5
553.88	740.5
554.093	735.5
554.306	717.5
554.519	671.5
554.732	683.5
554.944	650.5
555.157	640.5
555.37	611.5
555.583	643.5
555.795	629.5
556.008	614.5
556.221	586.5
556.433	603.5
556.646	587.5
556.859	601.5
557.071	573.5
557.284	579.5
557.496	559.5
557.709	563.5
557.921	577.5
558.134	589.5
558.346	575.5
558.559	575.5
558.771	547.5
558.984	569.5
559.196	537.5
559.409	551.5
559.621	558.5
559.833	555.5
560.046	553.5
560.258	559.5
560.47	550.5
560.683	555.5
560.895	557.5
561.107	544.5
561.32	542.5
561.532	553.5
561.744	563.5
561.956	562.5
562.168	565.5
562.381	564.5
562.593	575.5
562.805	558.5
563.017	558.5
563.229	576.5
563.441	539.5
563.653	571.5
563.865	570.5
564.077	565.5
564.289	579.5
564.501	565.5
564.713	588.5
564.925	579.5
565.137	607.5
565.349	620.5
565.561	619.5
565.773	652.5
565.985	667.5
566.197	728.5
566.408	797.5
566.62	849.5
566.832	938.5
567.044	950.5
567.255	927.5
567.467	949.5
567.679	1010.5
567.891	1119.5
568.102	1171.5
568.314	1105.5
568.526	983.5
568.737	868.5
568.949	805.5
569.161	704.5
569.372	654.5
569.584	613.5
569.795	631.5
570.007	619.5
570.218	590.5
570.43	598.5
570.641	576.5
570.853	565.5
571.064	573.5
571.276	590.5
571.487	555.5
571.698	538.5
571.91	530.5
572.121	521.5
572.333	488.5
572.544	487.5
572.755	489.5
572.966	500.5
573.178	470.5
573.389	490.5
573.6	476.5
573.811	469.5
574.023	445.5
574.234	469.5
574.445	458.5
574.656	460.5
574.867	473.5
575.078	454.5
575.289	467.5
575.501	461.5
575.712	438.5
575.923	421.5
576.134	452.5
576.345	444.5
576.556	436.5
576.767	431.5
576.978	437.5
577.188	423.5
577.399	419.5
577.61	407.5
577.821	430.5
578.032	424.5
578.243	423.5
578.454	431.5
578.665	407.5
578.875	423.5
579.086	402.5
579.297	404.5
579.508	403.5
579.718	423.5
579.929	416.5
580.14	393.5
580.35	402.5
580.561	403.5
580.772	398.5
580.982	406.5
581.193	396.5
581.403	430.5
581.614	389.5
581.825	394.5
582.035	393.5
582.246	401.5
582.456	384.5
582.667	388.5
582.877	401.5
583.087	400.5
583.298	391.5
583.508	385.5
583.719	405.5
583.929	385.5
584.139	364.5
584.35	409.5
584.56	387.5
584.77	389.5
584.981	385.5
585.191	361.5
585.401	378.5
585.611	393.5
585.821	384.5
586.032	383.5
586.242	356.5
586.452	381.5
586.662	371.5
586.872	379.5
587.082	377.5
587.292	378.5
587.502	378.5
587.713	392.5
587.923	389.5
588.133	355.5
588.343	374.5
588.553	376.5
588.762	368.5
588.972	381.5
589.182	375.5
589.392	360.5
589.602	376.5
589.812	367.5
590.022	379.5
590.232	383.5
590.441	377.5
590.651	385.5
590.861	377.5
591.071	398.5
591.281	380.5
591.49	380.5
591.7	396.5
591.91	388.5
592.119	430.5
592.329	402.5
592.539	446.5
592.748	451.5
592.958	455.5
593.167	481.5
593.377	470.5
593.587	496.5
593.796	487.5
594.006	500.5
594.215	489.5
594.424	501.5
594.634	485.5
594.843	460.5
595.053	439.5
595.262	409.5
595.472	421.5
595.681	404.5
595.89	405.5
596.1	384.5
596.309	381.5
596.518	363.5
596.727	341.5
596.937	342.5
597.146	360.5
597.355	345.5
597.564	359.5
597.774	329.5
597.983	336.5
598.192	336.5
598.401	332.5
598.61	326.5
598.819	327.5
599.028	336.5
599.237	332.5
599.446	338.5
599.655	339.5
599.864	332.5
600.073	319.5
600.282	309.5
600.491	319.5
600.7	328.5
600.909	301.5
601.118	324.5
601.327	336.5
601.536	325.5
601.745	323.5
601.953	320.5
602.162	342.5
602.371	326.5
602.58	292.5
602.789	298.5
602.997	310.5
603.206	308.5
603.415	298.5
603.623	315.5
603.832	307.5
604.041	295.5
604.249	292.5
604.458	302.5
604.666	307.5
604.875	296.5
605.084	290.5
605.292	307.5
605.501	300.5
605.709	300.5
605.918	294.5
606.126	299.5
606.334	312.5
606.543	312.5
606.751	298.5
606.96	295.5
607.168	277.5
607.376	285.5
607.585	291.5
607.793	300.5
608.001	296.5
608.21	287.5
608.418	285.5
608.626	298.5
608.834	303.5
609.043	286.5
609.251	288.5
609.459	277.5
609.667	286.5
609.875	293.5
610.083	285.5
610.291	285.5
610.499	285.5
610.707	296.5
610.916	291.5
611.124	276.5
611.332	278.5
611.54	283.5
611.748	278.5
611.955	258.5
612.163	278.5
612.371	265.5
612.579	272.5
612.787	301.5
612.995	285.5
613.203	278.5
613.411	271.5
613.618	276.5
613.826	291.5
614.034	268.5
614.242	280.5
614.449	268.5
614.657	284.5
614.865	267.5
615.072	284.5
615.28	283.5
615.488	284.5
615.695	279.5
615.903	288.5
616.111	286.5
616.318	276.5
616.526	283.5
616.733	269.5
616.941	278.5
617.148	273.5
617.356	267.5
617.563	279.5
617.771	300.5
617.978	276.5
618.185	286.5
618.393	288.5
618.6	283.5
618.807	286.5
619.015	277.5
619.222	295.5
619.429	280.5
619.637	267.5
619.844	270.5
620.051	263.5
620.258	252.5
620.466	269.5
620.673	278.5
620.88	235.5
621.087	269.5
621.294	253.5
621.501	268.5
621.708	259.5
621.915	245.5
622.122	240.5
622.329	263.5
622.536	259.5
622.743	262.5
622.95	271.5
623.157	255.5
623.364	235.5
623.571	257.5
623.778	239.5
623.985	241.5
624.192	247.5
624.399	241.5
624.606	253.5
624.812	261.5
625.019	246.5
625.226	247.5
625.433	249.5
625.639	245.5
625.846	236.5
626.053	238.5
626.259	243.5
626.466	233.5
626.673	247.5
626.879	225.5
627.086	235.5
627.293	227.5
627.499	221.5
627.706	229.5
627.912	227.5
628.119	245.5
628.325	245.5
628.532	222.5
628.738	216.5
628.945	226.5
629.151	240.5
629.357	230.5
629.564	227.5
629.77	216.5
629.976	215.5
630.183	220.5
630.389	232.5
630.595	214.5
630.802	213.5
631.008	215.5
631.214	224.5
631.42	227.5
631.627	221.5
631.833	194.5
632.039	220.5
632.245	224.5
632.451	205.5
632.657	204.5
632.863	215.5
633.069	221.5
633.275	197.5
633.481	198.5
633.688	207.5
633.893	218.5
634.099	197.5
634.305	203.5
634.511	208.5
634.717	208.5
634.923	191.5
635.129	193.5
635.335	203.5
635.541	191.5
635.747	211.5
635.952	195.5
636.158	193.5
636.364	212.5
636.57	188.5
636.775	199.5
636.981	207.5
637.187	202.5
637.392	184.5
637.598	190.5
637.804	203.5
638.009	189.5
638.215	200.5
638.421	203.5
638.626	202.5
638.832	184.5
639.037	199.5
639.243	212.5
639.448	183.5
639.654	182.5
639.859	183.5
640.065	196.5
640.27	204.5
640.475	196.5
640.681	206.5
640.886	192.5
641.091	174.5
641.297	195.5
641.502	179.5
641.707	175.5
641.913	185.5
642.118	175.5
642.323	190.5
642.528	182.5
642.733	191.5
642.939	190.5
643.144	189.5
643.349	192.5
643.554	191.5
643.759	178.5
643.964	186.5
644.169	165.5
644.374	172.5
644.579	171.5
644.784	170.5
644.989	184.5
645.194	173.5
645.399	181.5
645.604	173.5
645.809	181.5
646.014	175.5
646.219	190.5
646.423	175.5
646.628	189.5
646.833	189.5
647.038	180.5
647.243	174.5
647.447	175.5
647.652	199.5
647.857	191.5
648.062	199.5
648.266	203.5
648.471	204.5
648.676	209.5
648.88	204.5
649.085	210.5
649.289	197.5
649.494	185.5
649.698	185.5
649.903	179.5
650.107	166.5
650.312	159.5
650.516	175.5
650.721	169.5
650.925	147.5
651.13	165.5
651.334	164.5
651.539	181.5
651.743	163.5
651.947	175.5
652.152	156.5
652.356	153.5
652.56	140.5
652.764	151.5
652.969	154.5
653.173	148.5
653.377	143.5
653.581	133.5
653.785	146.5
653.99	140.5
654.194	147.5
654.398	150.5
654.602	141.5
654.806	129.5
655.01	142.5
655.214	131.5
655.418	141.5
655.622	130.5
655.826	124.5
656.03	149.5
656.234	135.5
656.438	145.5
656.642	140.5
656.846	145.5
657.049	124.5
657.253	117.5
657.457	131.5
657.661	113.5
657.865	124.5
658.068	127.5
658.272	124.5
658.476	109.5
658.68	113.5
658.883	106.5
659.087	99.5
659.291	91.5
659.494	95.5
659.698	112.5
659.901	81.5
660.105	99.5
660.309	99.5
660.512	96.5
660.716	90.5
660.919	111.5
661.123	87.5
661.326	86.5
661.53	91.5
661.733	99.5
661.936	94.5
662.14	95.5
662.343	84.5
662.546	85.5
662.75	89.5
662.953	94.5
663.156	71.5
663.36	72.5
663.563	85.5
663.766	92.5
663.969	90.5
664.173	83.5
664.376	92.5
664.579	79.5
664.782	76.5
664.985	87.5
665.188	69.5
665.391	97.5
665.594	89.5
665.797	87.5
666	75.5
666.203	83.5
666.406	73.5
666.609	83.5
666.812	82.5
667.015	73.5
667.218	85.5
667.421	86.5
667.624	92.5
667.827	79.5
668.03	76.5
668.232	102.5
668.435	92.5
668.638	69.5
668.841	100.5
669.043	78.5
669.246	85.5
669.449	91.5
669.651	89.5
669.854	86.5
670.057	99.5
670.259	92.5
670.462	85.5
670.665	91.5
670.867	67.5
671.07	78.5
671.272	80.5
671.475	96.5
671.677	88.5
671.88	83.5
672.082	88.5
672.284	80.5
672.487	86.5
672.689	94.5
672.892	95.5
