Data from Ni(NO3)2Standard.Agarose3%.GreenCap.LampEnergy5.5.E.O_HRD10591_14-40-59-188.txt Node
Date: Mon Jul 22 14:40:59 EDT 2019
User: cochatt
Spectrometer: HR+D1059
Trigger mode: 1
Integration Time (sec): 1.000000E-1
Scans to average: 1
Electric dark correction enabled: true
Nonlinearity correction enabled: false
Boxcar width: 0
XAxis mode: Wavelengths
Number of Pixels in Spectrum: 2048
>>>>>Begin Spectral Data<<<<<
223.165	-17.25
223.4	-17.25
223.635	-17.25
223.869	-23.25
224.104	-18.25
224.338	-3.25
224.573	-14.25
224.808	-7.25
225.042	-14.25
225.277	-8.25
225.511	0.75
225.746	5.75
225.98	3.75
226.215	11.75
226.449	14.75
226.683	17.75
226.918	23.75
227.152	27.75
227.387	45.75
227.621	24.75
227.856	50.75
228.09	49.75
228.324	63.75
228.559	57.75
228.793	71.75
229.027	66.75
229.262	56.75
229.496	61.75
229.73	77.75
229.964	84.75
230.199	51.75
230.433	63.75
230.667	75.75
230.901	64.75
231.136	73.75
231.37	71.75
231.604	90.75
231.838	77.75
232.072	76.75
232.306	72.75
232.541	75.75
232.775	77.75
233.009	75.75
233.243	75.75
233.477	84.75
233.711	89.75
233.945	83.75
234.179	86.75
234.413	83.75
234.647	95.75
234.881	80.75
235.115	83.75
235.349	77.75
235.583	87.75
235.817	82.75
236.051	85.75
236.285	80.75
236.519	77.75
236.753	73.75
236.987	77.75
237.221	69.75
237.455	85.75
237.689	65.75
237.922	79.75
238.156	78.75
238.39	69.75
238.624	79.75
238.858	62.75
239.091	64.75
239.325	77.75
239.559	77.75
239.793	72.75
240.027	74.75
240.26	84.75
240.494	77.75
240.728	79.75
240.961	65.75
241.195	82.75
241.429	83.75
241.662	77.75
241.896	74.75
242.13	85.75
242.363	70.75
242.597	68.75
242.83	92.75
243.064	78.75
243.298	83.75
243.531	76.75
243.765	79.75
243.998	80.75
244.232	78.75
244.465	84.75
244.699	67.75
244.932	87.75
245.166	77.75
245.399	87.75
245.633	85.75
245.866	78.75
246.099	69.75
246.333	71.75
246.566	59.75
246.8	75.75
247.033	68.75
247.266	75.75
247.5	69.75
247.733	69.75
247.966	82.75
248.2	85.75
248.433	84.75
248.666	89.75
248.899	72.75
249.133	94.75
249.366	96.75
249.599	92.75
249.832	69.75
250.066	70.75
250.299	75.75
250.532	93.75
250.765	75.75
250.998	65.75
251.231	80.75
251.465	79.75
251.698	75.75
251.931	81.75
252.164	85.75
252.397	78.75
252.63	81.75
252.863	79.75
253.096	72.75
253.329	72.75
253.562	86.75
253.795	80.75
254.028	99.75
254.261	80.75
254.494	78.75
254.727	83.75
254.96	78.75
255.193	85.75
255.426	81.75
255.659	75.75
255.892	81.75
256.124	76.75
256.357	80.75
256.59	83.75
256.823	73.75
257.056	73.75
257.289	86.75
257.521	78.75
257.754	93.75
257.987	82.75
258.22	74.75
258.452	81.75
258.685	98.75
258.918	79.75
259.151	73.75
259.383	77.75
259.616	87.75
259.849	98.75
260.081	83.75
260.314	86.75
260.547	86.75
260.779	89.75
261.012	81.75
261.244	82.75
261.477	89.75
261.71	74.75
261.942	78.75
262.175	79.75
262.407	63.75
262.64	92.75
262.872	74.75
263.105	82.75
263.337	83.75
263.57	82.75
263.802	78.75
264.035	83.75
264.267	83.75
264.499	76.75
264.732	74.75
264.964	89.75
265.197	76.75
265.429	74.75
265.661	75.75
265.894	77.75
266.126	91.75
266.358	81.75
266.591	79.75
266.823	76.75
267.055	85.75
267.287	77.75
267.52	77.75
267.752	96.75
267.984	88.75
268.216	84.75
268.448	95.75
268.681	100.75
268.913	88.75
269.145	73.75
269.377	79.75
269.609	91.75
269.841	87.75
270.073	74.75
270.306	94.75
270.538	84.75
270.77	96.75
271.002	84.75
271.234	104.75
271.466	90.75
271.698	77.75
271.93	75.75
272.162	97.75
272.394	91.75
272.626	93.75
272.858	84.75
273.09	81.75
273.322	97.75
273.553	90.75
273.785	86.75
274.017	85.75
274.249	92.75
274.481	95.75
274.713	105.75
274.945	97.75
275.176	66.75
275.408	106.75
275.64	87.75
275.872	85.75
276.104	83.75
276.335	90.75
276.567	79.75
276.799	76.75
277.031	74.75
277.262	82.75
277.494	87.75
277.726	93.75
277.957	94.75
278.189	82.75
278.421	90.75
278.652	83.75
278.884	92.75
279.115	59.75
279.347	73.75
279.579	98.75
279.81	81.75
280.042	74.75
280.273	87.75
280.505	85.75
280.736	78.75
280.968	80.75
281.199	91.75
281.431	60.75
281.662	78.75
281.894	89.75
282.125	86.75
282.356	94.75
282.588	83.75
282.819	85.75
283.051	86.75
283.282	86.75
283.513	79.75
283.745	87.75
283.976	85.75
284.207	84.75
284.439	86.75
284.67	97.75
284.901	93.75
285.132	85.75
285.364	86.75
285.595	85.75
285.826	86.75
286.057	81.75
286.288	86.75
286.52	88.75
286.751	68.75
286.982	86.75
287.213	71.75
287.444	83.75
287.675	79.75
287.906	79.75
288.138	93.75
288.369	86.75
288.6	91.75
288.831	89.75
289.062	89.75
289.293	79.75
289.524	90.75
289.755	90.75
289.986	78.75
290.217	97.75
290.448	82.75
290.679	87.75
290.91	89.75
291.141	82.75
291.371	91.75
291.602	83.75
291.833	92.75
292.064	87.75
292.295	90.75
292.526	85.75
292.757	87.75
292.987	79.75
293.218	88.75
293.449	81.75
293.68	84.75
293.91	94.75
294.141	82.75
294.372	95.75
294.603	67.75
294.833	87.75
295.064	86.75
295.295	77.75
295.525	88.75
295.756	95.75
295.987	83.75
296.217	73.75
296.448	71.75
296.679	99.75
296.909	84.75
297.14	77.75
297.37	102.75
297.601	80.75
297.831	80.75
298.062	83.75
298.292	91.75
298.523	84.75
298.753	89.75
298.984	78.75
299.214	89.75
299.445	97.75
299.675	83.75
299.905	94.75
300.136	99.75
300.366	87.75
300.597	92.75
300.827	86.75
301.057	88.75
301.288	77.75
301.518	98.75
301.748	80.75
301.979	92.75
302.209	85.75
302.439	78.75
302.669	91.75
302.9	90.75
303.13	87.75
303.36	84.75
303.59	73.75
303.82	93.75
304.051	87.75
304.281	84.75
304.511	89.75
304.741	91.75
304.971	98.75
305.201	82.75
305.431	90.75
305.661	81.75
305.891	95.75
306.121	91.75
306.352	97.75
306.582	92.75
306.812	76.75
307.042	85.75
307.272	78.75
307.502	86.75
307.731	72.75
307.961	95.75
308.191	91.75
308.421	102.75
308.651	79.75
308.881	85.75
309.111	101.75
309.341	86.75
309.571	83.75
309.8	88.75
310.03	88.75
310.26	90.75
310.49	96.75
310.72	96.75
310.949	93.75
311.179	88.75
311.409	82.75
311.639	81.75
311.868	83.75
312.098	83.75
312.328	74.75
312.557	96.75
312.787	78.75
313.017	91.75
313.246	87.75
313.476	92.75
313.706	106.75
313.935	79.75
314.165	95.75
314.394	85.75
314.624	83.75
314.853	80.75
315.083	82.75
315.312	89.75
315.542	79.75
315.771	109.75
316.001	89.75
316.23	94.75
316.46	81.75
316.689	79.75
316.919	91.75
317.148	103.75
317.377	94.75
317.607	80.75
317.836	90.75
318.065	73.75
318.295	77.75
318.524	78.75
318.753	83.75
318.983	94.75
319.212	99.75
319.441	79.75
319.67	90.75
319.9	105.75
320.129	93.75
320.358	79.75
320.587	80.75
320.816	78.75
321.046	80.75
321.275	102.75
321.504	69.75
321.733	85.75
321.962	98.75
322.191	74.75
322.42	69.75
322.649	78.75
322.878	86.75
323.108	98.75
323.337	90.75
323.566	83.75
323.795	94.75
324.024	77.75
324.253	78.75
324.482	86.75
324.71	77.75
324.939	102.75
325.168	93.75
325.397	89.75
325.626	90.75
325.855	83.75
326.084	89.75
326.313	76.75
326.542	98.75
326.77	97.75
326.999	74.75
327.228	79.75
327.457	79.75
327.686	77.75
327.914	105.75
328.143	97.75
328.372	92.75
328.6	77.75
328.829	90.75
329.058	86.75
329.287	80.75
329.515	79.75
329.744	91.75
329.972	82.75
330.201	98.75
330.43	102.75
330.658	93.75
330.887	98.75
331.115	95.75
331.344	98.75
331.572	93.75
331.801	85.75
332.03	78.75
332.258	84.75
332.486	80.75
332.715	98.75
332.943	99.75
333.172	85.75
333.4	87.75
333.629	90.75
333.857	92.75
334.085	81.75
334.314	96.75
334.542	85.75
334.771	88.75
334.999	87.75
335.227	84.75
335.455	88.75
335.684	92.75
335.912	89.75
336.14	76.75
336.369	88.75
336.597	98.75
336.825	82.75
337.053	102.75
337.281	103.75
337.51	91.75
337.738	91.75
337.966	87.75
338.194	84.75
338.422	89.75
338.65	84.75
338.878	89.75
339.106	81.75
339.334	87.75
339.562	95.75
339.79	78.75
340.018	82.75
340.246	74.75
340.474	81.75
340.702	86.75
340.93	81.75
341.158	78.75
341.386	78.75
341.614	83.75
341.842	83.75
342.07	75.75
342.298	70.75
342.526	85.75
342.754	72.75
342.981	85.75
343.209	97.75
343.437	90.75
343.665	83.75
343.893	84.75
344.12	82.75
344.348	78.75
344.576	85.75
344.804	86.75
345.031	78.75
345.259	85.75
345.487	79.75
345.714	81.75
345.942	77.75
346.17	90.75
346.397	78.75
346.625	98.75
346.853	86.75
347.08	90.75
347.308	83.75
347.535	95.75
347.763	97.75
347.99	99.75
348.218	88.75
348.445	80.75
348.673	82.75
348.9	95.75
349.128	96.75
349.355	83.75
349.583	84.75
349.81	100.75
350.037	82.75
350.265	94.75
350.492	89.75
350.72	86.75
350.947	79.75
351.174	77.75
351.402	87.75
351.629	95.75
351.856	84.75
352.083	72.75
352.311	82.75
352.538	78.75
352.765	85.75
352.992	104.75
353.22	87.75
353.447	87.75
353.674	99.75
353.901	75.75
354.128	90.75
354.355	88.75
354.583	82.75
354.81	86.75
355.037	76.75
355.264	95.75
355.491	88.75
355.718	74.75
355.945	87.75
356.172	103.75
356.399	95.75
356.626	82.75
356.853	99.75
357.08	84.75
357.307	70.75
357.534	87.75
357.761	83.75
357.988	86.75
358.215	82.75
358.441	80.75
358.668	92.75
358.895	78.75
359.122	85.75
359.349	100.75
359.576	84.75
359.802	91.75
360.029	86.75
360.256	92.75
360.483	82.75
360.709	89.75
360.936	87.75
361.163	91.75
361.39	90.75
361.616	95.75
361.843	83.75
362.07	95.75
362.296	89.75
362.523	99.75
362.749	83.75
362.976	83.75
363.203	74.75
363.429	99.75
363.656	87.75
363.882	83.75
364.109	90.75
364.335	80.75
364.562	92.75
364.788	92.75
365.015	100.75
365.241	99.75
365.468	85.75
365.694	87.75
365.92	94.75
366.147	95.75
366.373	97.75
366.599	89.75
366.826	86.75
367.052	75.75
367.278	78.75
367.505	78.75
367.731	88.75
367.957	77.75
368.184	93.75
368.41	82.75
368.636	95.75
368.862	90.75
369.089	84.75
369.315	77.75
369.541	104.75
369.767	85.75
369.993	79.75
370.219	85.75
370.445	94.75
370.672	79.75
370.898	82.75
371.124	68.75
371.35	98.75
371.576	88.75
371.802	87.75
372.028	97.75
372.254	95.75
372.48	79.75
372.706	86.75
372.932	93.75
373.158	83.75
373.384	89.75
373.61	93.75
373.835	98.75
374.061	94.75
374.287	86.75
374.513	85.75
374.739	96.75
374.965	102.75
375.191	90.75
375.416	88.75
375.642	101.75
375.868	97.75
376.094	81.75
376.319	93.75
376.545	56.75
376.771	86.75
376.997	69.75
377.222	85.75
377.448	97.75
377.674	77.75
377.899	89.75
378.125	92.75
378.35	89.75
378.576	84.75
378.802	79.75
379.027	85.75
379.253	86.75
379.478	93.75
379.704	85.75
379.929	92.75
380.155	85.75
380.38	102.75
380.606	77.75
380.831	76.75
381.057	97.75
381.282	79.75
381.507	95.75
381.733	100.75
381.958	90.75
382.184	87.75
382.409	92.75
382.634	85.75
382.86	87.75
383.085	92.75
383.31	74.75
383.535	62.75
383.761	85.75
383.986	76.75
384.211	82.75
384.436	79.75
384.662	81.75
384.887	91.75
385.112	82.75
385.337	78.75
385.562	79.75
385.787	87.75
386.013	92.75
386.238	87.75
386.463	73.75
386.688	74.75
386.913	74.75
387.138	90.75
387.363	91.75
387.588	83.75
387.813	84.75
388.038	83.75
388.263	82.75
388.488	84.75
388.713	82.75
388.938	78.75
389.163	85.75
389.387	94.75
389.612	98.75
389.837	80.75
390.062	84.75
390.287	74.75
390.512	105.75
390.736	85.75
390.961	84.75
391.186	91.75
391.411	89.75
391.636	90.75
391.86	94.75
392.085	99.75
392.31	93.75
392.534	83.75
392.759	85.75
392.984	81.75
393.208	82.75
393.433	77.75
393.658	101.75
393.882	91.75
394.107	90.75
394.331	81.75
394.556	88.75
394.78	92.75
395.005	98.75
395.229	95.75
395.454	76.75
395.678	82.75
395.903	89.75
396.127	109.75
396.352	94.75
396.576	81.75
396.801	84.75
397.025	87.75
397.249	79.75
397.474	96.75
397.698	86.75
397.922	86.75
398.147	88.75
398.371	86.75
398.595	90.75
398.82	90.75
399.044	85.75
399.268	92.75
399.492	92.75
399.717	85.75
399.941	84.75
400.165	87.75
400.389	90.75
400.613	77.75
400.837	88.75
401.062	76.75
401.286	105.75
401.51	97.75
401.734	87.75
401.958	94.75
402.182	77.75
402.406	84.75
402.63	94.75
402.854	86.75
403.078	83.75
403.302	85.75
403.526	98.75
403.75	98.75
403.974	76.75
404.198	95.75
404.422	84.75
404.645	87.75
404.869	85.75
405.093	90.75
405.317	85.75
405.541	87.75
405.765	99.75
405.988	99.75
406.212	88.75
406.436	83.75
406.66	84.75
406.883	95.75
407.107	86.75
407.331	94.75
407.555	90.75
407.778	85.75
408.002	93.75
408.226	79.75
408.449	90.75
408.673	92.75
408.896	89.75
409.12	79.75
409.344	103.75
409.567	87.75
409.791	86.75
410.014	83.75
410.238	96.75
410.461	100.75
410.685	85.75
410.908	91.75
411.132	93.75
411.355	78.75
411.578	90.75
411.802	78.75
412.025	90.75
412.249	90.75
412.472	85.75
412.695	84.75
412.919	96.75
413.142	79.75
413.365	103.75
413.589	105.75
413.812	87.75
414.035	81.75
414.258	90.75
414.482	81.75
414.705	77.75
414.928	76.75
415.151	94.75
415.374	90.75
415.597	92.75
415.821	93.75
416.044	79.75
416.267	95.75
416.49	86.75
416.713	82.75
416.936	79.75
417.159	93.75
417.382	92.75
417.605	90.75
417.828	99.75
418.051	86.75
418.274	87.75
418.497	82.75
418.72	89.75
418.943	92.75
419.166	82.75
419.389	94.75
419.611	84.75
419.834	76.75
420.057	78.75
420.28	93.75
420.503	79.75
420.726	91.75
420.948	71.75
421.171	90.75
421.394	81.75
421.617	104.75
421.839	91.75
422.062	89.75
422.285	78.75
422.507	82.75
422.73	93.75
422.953	83.75
423.175	92.75
423.398	80.75
423.621	86.75
423.843	82.75
424.066	89.75
424.288	93.75
424.511	99.75
424.733	97.75
424.956	93.75
425.178	83.75
425.401	94.75
425.623	93.75
425.846	89.75
426.068	79.75
426.291	83.75
426.513	81.75
426.735	93.75
426.958	88.75
427.18	87.75
427.402	98.75
427.625	73.75
427.847	84.75
428.069	91.75
428.292	93.75
428.514	88.75
428.736	87.75
428.958	96.75
429.181	91.75
429.403	84.75
429.625	95.75
429.847	109.75
430.069	73.75
430.292	82.75
430.514	78.75
430.736	89.75
430.958	96.75
431.18	81.75
431.402	93.75
431.624	86.75
431.846	71.75
432.068	94.75
432.29	79.75
432.512	84.75
432.734	78.75
432.956	78.75
433.178	79.75
433.4	76.75
433.622	93.75
433.844	87.75
434.066	87.75
434.287	90.75
434.509	86.75
434.731	73.75
434.953	81.75
435.175	86.75
435.397	89.75
435.618	86.75
435.84	75.75
436.062	79.75
436.284	93.75
436.505	101.75
436.727	99.75
436.949	91.75
437.17	82.75
437.392	90.75
437.614	83.75
437.835	72.75
438.057	87.75
438.278	91.75
438.5	76.75
438.721	98.75
438.943	94.75
439.165	92.75
439.386	94.75
439.608	87.75
439.829	88.75
440.05	100.75
440.272	89.75
440.493	88.75
440.715	96.75
440.936	96.75
441.158	78.75
441.379	86.75
441.6	84.75
441.822	87.75
442.043	88.75
442.264	86.75
442.486	85.75
442.707	78.75
442.928	91.75
443.149	93.75
443.371	91.75
443.592	93.75
443.813	90.75
444.034	77.75
444.255	98.75
444.476	77.75
444.698	101.75
444.919	103.75
445.14	217.75
445.361	158.75
445.582	88.75
445.803	89.75
446.024	84.75
446.245	85.75
446.466	88.75
446.687	93.75
446.908	83.75
447.129	100.75
447.35	93.75
447.571	84.75
447.792	91.75
448.013	85.75
448.234	98.75
448.455	83.75
448.675	92.75
448.896	97.75
449.117	78.75
449.338	95.75
449.559	78.75
449.779	91.75
450	69.75
450.221	73.75
450.442	80.75
450.662	83.75
450.883	77.75
451.104	86.75
451.324	93.75
451.545	86.75
451.766	101.75
451.986	90.75
452.207	93.75
452.428	91.75
452.648	85.75
452.869	74.75
453.089	89.75
453.31	85.75
453.53	89.75
453.751	70.75
453.971	83.75
454.192	77.75
454.412	83.75
454.633	92.75
454.853	98.75
455.073	85.75
455.294	87.75
455.514	95.75
455.734	79.75
455.955	81.75
456.175	96.75
456.395	87.75
456.616	83.75
456.836	84.75
457.056	89.75
457.276	82.75
457.497	96.75
457.717	86.75
457.937	112.75
458.157	83.75
458.377	91.75
458.598	85.75
458.818	105.75
459.038	99.75
459.258	94.75
459.478	79.75
459.698	93.75
459.918	82.75
460.138	87.75
460.358	83.75
460.578	98.75
460.798	89.75
461.018	99.75
461.238	92.75
461.458	98.75
461.678	97.75
461.898	92.75
462.118	85.75
462.338	85.75
462.558	80.75
462.777	85.75
462.997	91.75
463.217	97.75
463.437	78.75
463.657	102.75
463.876	92.75
464.096	90.75
464.316	78.75
464.536	75.75
464.755	93.75
464.975	99.75
465.195	89.75
465.414	98.75
465.634	94.75
465.854	89.75
466.073	93.75
466.293	90.75
466.512	87.75
466.732	70.75
466.951	90.75
467.171	75.75
467.391	73.75
467.61	86.75
467.829	79.75
468.049	92.75
468.268	88.75
468.488	83.75
468.707	90.75
468.927	87.75
469.146	79.75
469.365	94.75
469.585	91.75
469.804	83.75
470.023	83.75
470.243	98.75
470.462	97.75
470.681	89.75
470.901	81.75
471.12	76.75
471.339	86.75
471.558	97.75
471.777	82.75
471.997	87.75
472.216	86.75
472.435	92.75
472.654	93.75
472.873	87.75
473.092	93.75
473.311	88.75
473.53	94.75
473.749	89.75
473.968	94.75
474.187	98.75
474.406	80.75
474.625	88.75
474.844	87.75
475.063	84.75
475.282	87.75
475.501	104.75
475.72	96.75
475.939	74.75
476.158	89.75
476.377	95.75
476.596	87.75
476.814	78.75
477.033	82.75
477.252	78.75
477.471	90.75
477.69	106.75
477.908	102.75
478.127	91.75
478.346	96.75
478.564	94.75
478.783	84.75
479.002	81.75
479.22	98.75
479.439	100.75
479.658	81.75
479.876	88.75
480.095	80.75
480.313	86.75
480.532	89.75
480.751	93.75
480.969	103.75
481.188	74.75
481.406	79.75
481.624	99.75
481.843	87.75
482.061	88.75
482.28	99.75
482.498	97.75
482.717	88.75
482.935	77.75
483.153	84.75
483.372	88.75
483.59	87.75
483.808	74.75
484.027	89.75
484.245	109.75
484.463	101.75
484.681	101.75
484.9	86.75
485.118	90.75
485.336	93.75
485.554	108.75
485.772	97.75
485.99	93.75
486.209	83.75
486.427	102.75
486.645	106.75
486.863	98.75
487.081	99.75
487.299	78.75
487.517	101.75
487.735	92.75
487.953	85.75
488.171	89.75
488.389	92.75
488.607	94.75
488.825	109.75
489.043	86.75
489.261	86.75
489.479	98.75
489.696	87.75
489.914	89.75
490.132	94.75
490.35	93.75
490.568	99.75
490.786	109.75
491.003	90.75
491.221	77.75
491.439	94.75
491.657	97.75
491.874	91.75
492.092	90.75
492.31	84.75
492.527	94.75
492.745	98.75
492.963	94.75
493.18	99.75
493.398	100.75
493.615	110.75
493.833	87.75
494.05	87.75
494.268	95.75
494.485	91.75
494.703	101.75
494.92	89.75
495.138	96.75
495.355	94.75
495.573	97.75
495.79	114.75
496.008	104.75
496.225	111.75
496.442	98.75
496.66	104.75
496.877	94.75
497.094	91.75
497.312	103.75
497.529	99.75
497.746	73.75
497.963	98.75
498.181	91.75
498.398	95.75
498.615	103.75
498.832	89.75
499.049	95.75
499.267	105.75
499.484	107.75
499.701	109.75
499.918	110.75
500.135	103.75
500.352	91.75
500.569	115.75
500.786	105.75
501.003	104.75
501.22	102.75
501.437	114.75
501.654	108.75
501.871	97.75
502.088	110.75
502.305	113.75
502.522	105.75
502.739	87.75
502.956	86.75
503.172	90.75
503.389	101.75
503.606	91.75
503.823	101.75
504.04	98.75
504.256	84.75
504.473	91.75
504.69	89.75
504.907	92.75
505.123	108.75
505.34	85.75
505.557	94.75
505.773	98.75
505.99	83.75
506.207	87.75
506.423	94.75
506.64	90.75
506.856	101.75
507.073	101.75
507.289	97.75
507.506	98.75
507.722	95.75
507.939	69.75
508.155	84.75
508.372	92.75
508.588	91.75
508.805	83.75
509.021	94.75
509.238	89.75
509.454	91.75
509.67	89.75
509.887	96.75
510.103	87.75
510.319	79.75
510.536	97.75
510.752	98.75
510.968	85.75
511.184	82.75
511.401	97.75
511.617	92.75
511.833	91.75
512.049	88.75
512.265	92.75
512.481	95.75
512.698	102.75
512.914	98.75
513.13	93.75
513.346	108.75
513.562	96.75
513.778	79.75
513.994	82.75
514.21	94.75
514.426	92.75
514.642	86.75
514.858	106.75
515.074	94.75
515.29	91.75
515.506	95.75
515.721	84.75
515.937	86.75
516.153	84.75
516.369	97.75
516.585	99.75
516.801	103.75
517.016	103.75
517.232	99.75
517.448	94.75
517.664	82.75
517.879	85.75
518.095	91.75
518.311	102.75
518.527	91.75
518.742	88.75
518.958	91.75
519.173	80.75
519.389	91.75
519.605	99.75
519.82	102.75
520.036	101.75
520.251	98.75
520.467	92.75
520.682	100.75
520.898	100.75
521.113	98.75
521.329	92.75
521.544	79.75
521.76	91.75
521.975	93.75
522.19	99.75
522.406	85.75
522.621	91.75
522.836	85.75
523.052	77.75
523.267	97.75
523.482	85.75
523.698	89.75
523.913	75.75
524.128	94.75
524.343	109.75
524.559	98.75
524.774	100.75
524.989	94.75
525.204	100.75
525.419	92.75
525.634	86.75
525.849	97.75
526.064	83.75
526.28	93.75
526.495	95.75
526.71	86.75
526.925	89.75
527.14	97.75
527.355	100.75
527.57	89.75
527.785	89.75
527.999	97.75
528.214	87.75
528.429	95.75
528.644	91.75
528.859	97.75
529.074	92.75
529.289	87.75
529.503	86.75
529.718	91.75
529.933	89.75
530.148	88.75
530.363	101.75
530.577	93.75
530.792	88.75
531.007	98.75
531.221	93.75
531.436	97.75
531.651	94.75
531.865	92.75
532.08	81.75
532.295	83.75
532.509	74.75
532.724	94.75
532.938	86.75
533.153	91.75
533.367	89.75
533.582	88.75
533.796	101.75
534.011	88.75
534.225	90.75
534.44	102.75
534.654	84.75
534.868	82.75
535.083	95.75
535.297	71.75
535.511	86.75
535.726	100.75
535.94	93.75
536.154	79.75
536.369	90.75
536.583	86.75
536.797	75.75
537.011	89.75
537.225	100.75
537.44	97.75
537.654	80.75
537.868	89.75
538.082	92.75
538.296	86.75
538.51	87.75
538.724	102.75
538.938	82.75
539.153	98.75
539.367	82.75
539.581	103.75
539.795	84.75
540.009	82.75
540.222	95.75
540.436	91.75
540.65	90.75
540.864	89.75
541.078	93.75
541.292	95.75
541.506	87.75
541.72	87.75
541.934	89.75
542.147	105.75
542.361	96.75
542.575	92.75
542.789	85.75
543.002	90.75
543.216	91.75
543.43	82.75
543.644	90.75
543.857	83.75
544.071	90.75
544.285	94.75
544.498	73.75
544.712	85.75
544.925	89.75
545.139	92.75
545.352	104.75
545.566	92.75
545.779	101.75
545.993	81.75
546.206	79.75
546.42	74.75
546.633	92.75
546.847	102.75
547.06	102.75
547.274	97.75
547.487	102.75
547.7	89.75
547.914	93.75
548.127	84.75
548.34	101.75
548.554	98.75
548.767	102.75
548.98	91.75
549.193	89.75
549.407	76.75
549.62	100.75
549.833	90.75
550.046	81.75
550.259	84.75
550.473	98.75
550.686	96.75
550.899	83.75
551.112	96.75
551.325	94.75
551.538	97.75
551.751	87.75
551.964	94.75
552.177	103.75
552.39	103.75
552.603	98.75
552.816	93.75
553.029	85.75
553.242	93.75
553.455	106.75
553.667	96.75
553.88	92.75
554.093	87.75
554.306	87.75
554.519	92.75
554.732	79.75
554.944	83.75
555.157	93.75
555.37	76.75
555.583	90.75
555.795	86.75
556.008	84.75
556.221	82.75
556.433	89.75
556.646	94.75
556.859	85.75
557.071	69.75
557.284	91.75
557.496	91.75
557.709	86.75
557.921	82.75
558.134	90.75
558.346	84.75
558.559	83.75
558.771	86.75
558.984	101.75
559.196	101.75
559.409	89.75
559.621	103.75
559.833	88.75
560.046	93.75
560.258	89.75
560.47	85.75
560.683	90.75
560.895	86.75
561.107	84.75
561.32	81.75
561.532	79.75
561.744	79.75
561.956	89.75
562.168	98.75
562.381	100.75
562.593	106.75
562.805	90.75
563.017	82.75
563.229	85.75
563.441	90.75
563.653	86.75
563.865	88.75
564.077	85.75
564.289	86.75
564.501	97.75
564.713	96.75
564.925	97.75
565.137	94.75
565.349	78.75
565.561	90.75
565.773	99.75
565.985	90.75
566.197	93.75
566.408	97.75
566.62	81.75
566.832	93.75
567.044	90.75
567.255	91.75
567.467	92.75
567.679	85.75
567.891	93.75
568.102	91.75
568.314	79.75
568.526	90.75
568.737	89.75
568.949	99.75
569.161	89.75
569.372	74.75
569.584	92.75
569.795	77.75
570.007	100.75
570.218	80.75
570.43	83.75
570.641	92.75
570.853	92.75
571.064	84.75
571.276	90.75
571.487	90.75
571.698	94.75
571.91	83.75
572.121	90.75
572.333	89.75
572.544	78.75
572.755	85.75
572.966	99.75
573.178	97.75
573.389	85.75
573.6	94.75
573.811	96.75
574.023	86.75
574.234	92.75
574.445	89.75
574.656	82.75
574.867	85.75
575.078	68.75
575.289	91.75
575.501	97.75
575.712	92.75
575.923	77.75
576.134	85.75
576.345	97.75
576.556	85.75
576.767	81.75
576.978	82.75
577.188	97.75
577.399	103.75
577.61	89.75
577.821	83.75
578.032	86.75
578.243	88.75
578.454	89.75
578.665	85.75
578.875	92.75
579.086	99.75
579.297	70.75
579.508	78.75
579.718	69.75
579.929	82.75
580.14	93.75
580.35	87.75
580.561	90.75
580.772	89.75
580.982	74.75
581.193	97.75
581.403	83.75
581.614	83.75
581.825	88.75
582.035	85.75
582.246	77.75
582.456	83.75
582.667	77.75
582.877	89.75
583.087	85.75
583.298	88.75
583.508	83.75
583.719	87.75
583.929	93.75
584.139	90.75
584.35	87.75
584.56	97.75
584.77	82.75
584.981	78.75
585.191	94.75
585.401	85.75
585.611	92.75
585.821	105.75
586.032	73.75
586.242	79.75
586.452	98.75
586.662	85.75
586.872	83.75
587.082	87.75
587.292	98.75
587.502	87.75
587.713	94.75
587.923	84.75
588.133	78.75
588.343	86.75
588.553	78.75
588.762	92.75
588.972	96.75
589.182	85.75
589.392	99.75
589.602	87.75
589.812	79.75
590.022	81.75
590.232	83.75
590.441	100.75
590.651	102.75
590.861	101.75
591.071	87.75
591.281	95.75
591.49	90.75
591.7	83.75
591.91	89.75
592.119	77.75
592.329	85.75
592.539	74.75
592.748	85.75
592.958	87.75
593.167	85.75
593.377	84.75
593.587	95.75
593.796	87.75
594.006	93.75
594.215	98.75
594.424	91.75
594.634	82.75
594.843	87.75
595.053	85.75
595.262	84.75
595.472	84.75
595.681	86.75
595.89	97.75
596.1	97.75
596.309	87.75
596.518	89.75
596.727	85.75
596.937	87.75
597.146	97.75
597.355	69.75
597.564	94.75
597.774	89.75
597.983	87.75
598.192	89.75
598.401	83.75
598.61	76.75
598.819	87.75
599.028	88.75
599.237	88.75
599.446	86.75
599.655	89.75
599.864	75.75
600.073	74.75
600.282	90.75
600.491	86.75
600.7	89.75
600.909	91.75
601.118	85.75
601.327	79.75
601.536	96.75
601.745	94.75
601.953	83.75
602.162	89.75
602.371	91.75
602.58	76.75
602.789	81.75
602.997	83.75
603.206	98.75
603.415	87.75
603.623	69.75
603.832	94.75
604.041	93.75
604.249	86.75
604.458	88.75
604.666	75.75
604.875	70.75
605.084	89.75
605.292	76.75
605.501	84.75
605.709	91.75
605.918	101.75
606.126	75.75
606.334	74.75
606.543	78.75
606.751	73.75
606.96	97.75
607.168	86.75
607.376	83.75
607.585	94.75
607.793	84.75
608.001	87.75
608.21	84.75
608.418	98.75
608.626	85.75
608.834	71.75
609.043	87.75
609.251	86.75
609.459	80.75
609.667	97.75
609.875	91.75
610.083	78.75
610.291	87.75
610.499	102.75
610.707	85.75
610.916	79.75
611.124	96.75
611.332	97.75
611.54	99.75
611.748	105.75
611.955	91.75
612.163	89.75
612.371	92.75
612.579	91.75
612.787	98.75
612.995	102.75
613.203	97.75
613.411	91.75
613.618	92.75
613.826	89.75
614.034	76.75
614.242	78.75
614.449	88.75
614.657	85.75
614.865	85.75
615.072	76.75
615.28	87.75
615.488	86.75
615.695	85.75
615.903	97.75
616.111	87.75
616.318	94.75
616.526	93.75
616.733	82.75
616.941	81.75
617.148	71.75
617.356	75.75
617.563	68.75
617.771	77.75
617.978	76.75
618.185	83.75
618.393	91.75
618.6	99.75
618.807	93.75
619.015	82.75
619.222	89.75
619.429	85.75
619.637	102.75
619.844	88.75
620.051	74.75
620.258	84.75
620.466	78.75
620.673	87.75
620.88	93.75
621.087	75.75
621.294	79.75
621.501	91.75
621.708	86.75
621.915	85.75
622.122	81.75
622.329	80.75
622.536	85.75
622.743	71.75
622.95	76.75
623.157	88.75
623.364	89.75
623.571	76.75
623.778	96.75
623.985	81.75
624.192	89.75
624.399	92.75
624.606	86.75
624.812	93.75
625.019	92.75
625.226	70.75
625.433	87.75
625.639	77.75
625.846	95.75
626.053	86.75
626.259	84.75
626.466	93.75
626.673	87.75
626.879	96.75
627.086	87.75
627.293	84.75
627.499	80.75
627.706	87.75
627.912	82.75
628.119	96.75
628.325	78.75
628.532	85.75
628.738	85.75
628.945	85.75
629.151	84.75
629.357	86.75
629.564	95.75
629.77	86.75
629.976	76.75
630.183	85.75
630.389	86.75
630.595	81.75
630.802	95.75
631.008	83.75
631.214	79.75
631.42	82.75
631.627	87.75
631.833	87.75
632.039	77.75
632.245	72.75
632.451	79.75
632.657	85.75
632.863	76.75
633.069	87.75
633.275	91.75
633.481	85.75
633.688	80.75
633.893	74.75
634.099	92.75
634.305	77.75
634.511	95.75
634.717	82.75
634.923	89.75
635.129	91.75
635.335	78.75
635.541	85.75
635.747	83.75
635.952	90.75
636.158	84.75
636.364	89.75
636.57	69.75
636.775	94.75
636.981	86.75
637.187	85.75
637.392	82.75
637.598	79.75
637.804	86.75
638.009	91.75
638.215	82.75
638.421	90.75
638.626	87.75
638.832	86.75
639.037	86.75
639.243	84.75
639.448	94.75
639.654	85.75
639.859	72.75
640.065	78.75
640.27	84.75
640.475	90.75
640.681	83.75
640.886	85.75
641.091	104.75
641.297	75.75
641.502	92.75
641.707	87.75
641.913	87.75
642.118	84.75
642.323	93.75
642.528	83.75
642.733	101.75
642.939	84.75
643.144	81.75
643.349	92.75
643.554	97.75
643.759	78.75
643.964	83.75
644.169	94.75
644.374	89.75
644.579	85.75
644.784	83.75
644.989	78.75
645.194	87.75
645.399	89.75
645.604	81.75
645.809	94.75
646.014	80.75
646.219	85.75
646.423	89.75
646.628	89.75
646.833	91.75
647.038	93.75
647.243	81.75
647.447	79.75
647.652	100.75
647.857	88.75
648.062	96.75
648.266	96.75
648.471	94.75
648.676	92.75
648.88	75.75
649.085	76.75
649.289	90.75
649.494	91.75
649.698	99.75
649.903	81.75
650.107	86.75
650.312	83.75
650.516	92.75
650.721	83.75
650.925	90.75
651.13	88.75
651.334	93.75
651.539	91.75
651.743	87.75
651.947	87.75
652.152	87.75
652.356	81.75
652.56	78.75
652.764	87.75
652.969	83.75
653.173	85.75
653.377	75.75
653.581	81.75
653.785	85.75
653.99	91.75
654.194	79.75
654.398	76.75
654.602	86.75
654.806	87.75
655.01	90.75
655.214	96.75
655.418	75.75
655.622	73.75
655.826	75.75
656.03	79.75
656.234	82.75
656.438	83.75
656.642	84.75
656.846	102.75
657.049	88.75
657.253	94.75
657.457	85.75
657.661	94.75
657.865	83.75
658.068	85.75
658.272	84.75
658.476	89.75
658.68	77.75
658.883	85.75
659.087	86.75
659.291	101.75
659.494	84.75
659.698	85.75
659.901	76.75
660.105	84.75
660.309	85.75
660.512	73.75
660.716	88.75
660.919	83.75
661.123	91.75
661.326	85.75
661.53	79.75
661.733	83.75
661.936	83.75
662.14	86.75
662.343	82.75
662.546	84.75
662.75	95.75
662.953	88.75
663.156	87.75
663.36	86.75
663.563	67.75
663.766	89.75
663.969	86.75
664.173	74.75
664.376	80.75
664.579	87.75
664.782	84.75
664.985	89.75
665.188	87.75
665.391	85.75
665.594	93.75
665.797	82.75
666	83.75
666.203	78.75
666.406	83.75
666.609	69.75
666.812	84.75
667.015	92.75
667.218	78.75
667.421	84.75
667.624	84.75
667.827	91.75
668.03	79.75
668.232	71.75
668.435	75.75
668.638	79.75
668.841	87.75
669.043	93.75
669.246	89.75
669.449	84.75
669.651	89.75
669.854	74.75
670.057	79.75
670.259	86.75
670.462	84.75
670.665	85.75
670.867	90.75
671.07	90.75
671.272	89.75
671.475	88.75
671.677	73.75
671.88	83.75
672.082	74.75
672.284	80.75
672.487	69.75
672.689	69.75
672.892	100.75
