Data from Ni(NO3)2@0.25M.TitratingCurve.Agarose3%dH2O.NegLispCup.LampEnergy10.LIBS07252019_HRD10591_18-05-50-566.txt Node
Date: Thu Jul 25 18:05:50 EDT 2019
User: cochatt
Spectrometer: HR+D1059
Trigger mode: 1
Integration Time (sec): 1.000000E-1
Scans to average: 1
Electric dark correction enabled: true
Nonlinearity correction enabled: false
Boxcar width: 0
XAxis mode: Wavelengths
Number of Pixels in Spectrum: 2048
>>>>>Begin Spectral Data<<<<<
223.165	-2.44
223.4	-2.44
223.635	-2.44
223.869	-14.44
224.104	-16.44
224.338	-8.44
224.573	-6.44
224.808	-11.44
225.042	-13.44
225.277	-7.44
225.511	-3.44
225.746	-14.44
225.98	7.56
226.215	15.56
226.449	10.56
226.683	11.56
226.918	29.56
227.152	23.56
227.387	39.56
227.621	31.56
227.856	31.56
228.09	58.56
228.324	58.56
228.559	63.56
228.793	73.56
229.027	124.56
229.262	124.56
229.496	154.56
229.73	154.56
229.964	156.56
230.199	156.56
230.433	173.56
230.667	169.56
230.901	174.56
231.136	174.56
231.37	190.56
231.604	183.56
231.838	173.56
232.072	174.56
232.306	179.56
232.541	197.56
232.775	194.56
233.009	187.56
233.243	189.56
233.477	191.56
233.711	168.56
233.945	199.56
234.179	198.56
234.413	205.56
234.647	206.56
234.881	187.56
235.115	197.56
235.349	200.56
235.583	206.56
235.817	204.56
236.051	201.56
236.285	203.56
236.519	204.56
236.753	183.56
236.987	205.56
237.221	207.56
237.455	227.56
237.689	229.56
237.922	220.56
238.156	225.56
238.39	214.56
238.624	226.56
238.858	235.56
239.091	232.56
239.325	218.56
239.559	233.56
239.793	237.56
240.027	246.56
240.26	239.56
240.494	236.56
240.728	233.56
240.961	242.56
241.195	242.56
241.429	260.56
241.662	251.56
241.896	257.56
242.13	253.56
242.363	257.56
242.597	242.56
242.83	284.56
243.064	279.56
243.298	275.56
243.531	265.56
243.765	277.56
243.998	297.56
244.232	297.56
244.465	294.56
244.699	303.56
244.932	317.56
245.166	301.56
245.399	291.56
245.633	310.56
245.866	327.56
246.099	326.56
246.333	338.56
246.566	325.56
246.8	309.56
247.033	329.56
247.266	323.56
247.5	334.56
247.733	337.56
247.966	355.56
248.2	350.56
248.433	338.56
248.666	355.56
248.899	357.56
249.133	353.56
249.366	355.56
249.599	370.56
249.832	377.56
250.066	372.56
250.299	370.56
250.532	391.56
250.765	376.56
250.998	387.56
251.231	389.56
251.465	404.56
251.698	395.56
251.931	408.56
252.164	402.56
252.397	386.56
252.63	406.56
252.863	405.56
253.096	399.56
253.329	423.56
253.562	419.56
253.795	438.56
254.028	420.56
254.261	432.56
254.494	444.56
254.727	454.56
254.96	441.56
255.193	442.56
255.426	461.56
255.659	463.56
255.892	455.56
256.124	453.56
256.357	469.56
256.59	467.56
256.823	450.56
257.056	472.56
257.289	473.56
257.521	477.56
257.754	510.56
257.987	497.56
258.22	486.56
258.452	488.56
258.685	485.56
258.918	502.56
259.151	503.56
259.383	515.56
259.616	503.56
259.849	519.56
260.081	514.56
260.314	516.56
260.547	535.56
260.779	525.56
261.012	513.56
261.244	553.56
261.477	543.56
261.71	541.56
261.942	550.56
262.175	538.56
262.407	550.56
262.64	530.56
262.872	531.56
263.105	547.56
263.337	544.56
263.57	561.56
263.802	566.56
264.035	558.56
264.267	580.56
264.499	557.56
264.732	557.56
264.964	574.56
265.197	595.56
265.429	630.56
265.661	579.56
265.894	596.56
266.126	593.56
266.358	590.56
266.591	620.56
266.823	605.56
267.055	578.56
267.287	595.56
267.52	620.56
267.752	621.56
267.984	622.56
268.216	611.56
268.448	629.56
268.681	615.56
268.913	634.56
269.145	603.56
269.377	634.56
269.609	599.56
269.841	619.56
270.073	625.56
270.306	629.56
270.538	628.56
270.77	638.56
271.002	651.56
271.234	657.56
271.466	648.56
271.698	666.56
271.93	672.56
272.162	666.56
272.394	674.56
272.626	672.56
272.858	659.56
273.09	640.56
273.322	671.56
273.553	672.56
273.785	693.56
274.017	650.56
274.249	675.56
274.481	699.56
274.713	687.56
274.945	710.56
275.176	689.56
275.408	694.56
275.64	703.56
275.872	713.56
276.104	728.56
276.335	691.56
276.567	714.56
276.799	687.56
277.031	692.56
277.262	733.56
277.494	694.56
277.726	700.56
277.957	735.56
278.189	712.56
278.421	721.56
278.652	738.56
278.884	728.56
279.115	753.56
279.347	734.56
279.579	735.56
279.81	747.56
280.042	724.56
280.273	736.56
280.505	756.56
280.736	734.56
280.968	758.56
281.199	772.56
281.431	764.56
281.662	769.56
281.894	773.56
282.125	762.56
282.356	785.56
282.588	797.56
282.819	808.56
283.051	778.56
283.282	781.56
283.513	774.56
283.745	796.56
283.976	792.56
284.207	805.56
284.439	795.56
284.67	793.56
284.901	818.56
285.132	804.56
285.364	805.56
285.595	813.56
285.826	808.56
286.057	795.56
286.288	818.56
286.52	845.56
286.751	827.56
286.982	811.56
287.213	814.56
287.444	812.56
287.675	813.56
287.906	833.56
288.138	823.56
288.369	834.56
288.6	833.56
288.831	843.56
289.062	831.56
289.293	825.56
289.524	857.56
289.755	849.56
289.986	838.56
290.217	859.56
290.448	845.56
290.679	857.56
290.91	871.56
291.141	863.56
291.371	848.56
291.602	851.56
291.833	817.56
292.064	842.56
292.295	878.56
292.526	875.56
292.757	832.56
292.987	833.56
293.218	858.56
293.449	865.56
293.68	869.56
293.91	851.56
294.141	836.56
294.372	844.56
294.603	870.56
294.833	868.56
295.064	865.56
295.295	869.56
295.525	873.56
295.756	888.56
295.987	867.56
296.217	883.56
296.448	863.56
296.679	866.56
296.909	906.56
297.14	884.56
297.37	887.56
297.601	890.56
297.831	900.56
298.062	917.56
298.292	923.56
298.523	935.56
298.753	941.56
298.984	937.56
299.214	938.56
299.445	930.56
299.675	929.56
299.905	921.56
300.136	939.56
300.366	935.56
300.597	963.56
300.827	943.56
301.057	932.56
301.288	954.56
301.518	961.56
301.748	974.56
301.979	982.56
302.209	962.56
302.439	974.56
302.669	959.56
302.9	967.56
303.13	974.56
303.36	991.56
303.59	988.56
303.82	973.56
304.051	991.56
304.281	979.56
304.511	963.56
304.741	996.56
304.971	970.56
305.201	993.56
305.431	969.56
305.661	982.56
305.891	979.56
306.121	976.56
306.352	973.56
306.582	984.56
306.812	951.56
307.042	960.56
307.272	960.56
307.502	933.56
307.731	953.56
307.961	973.56
308.191	983.56
308.421	947.56
308.651	963.56
308.881	973.56
309.111	989.56
309.341	952.56
309.571	990.56
309.8	978.56
310.03	964.56
310.26	994.56
310.49	956.56
310.72	978.56
310.949	967.56
311.179	1013.56
311.409	988.56
311.639	1008.56
311.868	998.56
312.098	1015.56
312.328	1005.56
312.557	1049.56
312.787	1051.56
313.017	1041.56
313.246	1074.56
313.476	1077.56
313.706	1046.56
313.935	1045.56
314.165	1062.56
314.394	1039.56
314.624	1058.56
314.853	1039.56
315.083	1051.56
315.312	1052.56
315.542	1115.56
315.771	1083.56
316.001	1072.56
316.23	1088.56
316.46	1083.56
316.689	1081.56
316.919	1044.56
317.148	1081.56
317.377	1062.56
317.607	1049.56
317.836	1078.56
318.065	1077.56
318.295	1073.56
318.524	1077.56
318.753	1052.56
318.983	1070.56
319.212	1082.56
319.441	1048.56
319.67	1068.56
319.9	1124.56
320.129	1075.56
320.358	1093.56
320.587	1101.56
320.816	1138.56
321.046	1121.56
321.275	1123.56
321.504	1069.56
321.733	1062.56
321.962	1099.56
322.191	1126.56
322.42	1141.56
322.649	1121.56
322.878	1125.56
323.108	1137.56
323.337	1137.56
323.566	1132.56
323.795	1179.56
324.024	1147.56
324.253	1141.56
324.482	1142.56
324.71	1159.56
324.939	1151.56
325.168	1198.56
325.397	1205.56
325.626	1179.56
325.855	1192.56
326.084	1204.56
326.313	1217.56
326.542	1232.56
326.77	1251.56
326.999	1252.56
327.228	1223.56
327.457	1244.56
327.686	1197.56
327.914	1214.56
328.143	1228.56
328.372	1219.56
328.6	1231.56
328.829	1227.56
329.058	1221.56
329.287	1226.56
329.515	1248.56
329.744	1245.56
329.972	1283.56
330.201	1258.56
330.43	1270.56
330.658	1269.56
330.887	1301.56
331.115	1289.56
331.344	1327.56
331.572	1295.56
331.801	1330.56
332.03	1367.56
332.258	1351.56
332.486	1353.56
332.715	1396.56
332.943	1398.56
333.172	1443.56
333.4	1519.56
333.629	1517.56
333.857	1557.56
334.085	1593.56
334.314	1583.56
334.542	1569.56
334.771	1579.56
334.999	1576.56
335.227	1556.56
335.455	1566.56
335.684	1602.56
335.912	1566.56
336.14	1571.56
336.369	1557.56
336.597	1551.56
336.825	1547.56
337.053	1577.56
337.281	1528.56
337.51	1515.56
337.738	1486.56
337.966	1463.56
338.194	1457.56
338.422	1469.56
338.65	1426.56
338.878	1431.56
339.106	1389.56
339.334	1427.56
339.562	1427.56
339.79	1350.56
340.018	1362.56
340.246	1339.56
340.474	1370.56
340.702	1356.56
340.93	1365.56
341.158	1333.56
341.386	1389.56
341.614	1388.56
341.842	1385.56
342.07	1342.56
342.298	1323.56
342.526	1338.56
342.754	1369.56
342.981	1357.56
343.209	1419.56
343.437	1415.56
343.665	1452.56
343.893	1503.56
344.12	1549.56
344.348	1513.56
344.576	1516.56
344.804	1479.56
345.031	1465.56
345.259	1428.56
345.487	1414.56
345.714	1384.56
345.942	1329.56
346.17	1353.56
346.397	1353.56
346.625	1347.56
346.853	1311.56
347.08	1295.56
347.308	1319.56
347.535	1331.56
347.763	1289.56
347.99	1298.56
348.218	1355.56
348.445	1310.56
348.673	1271.56
348.9	1304.56
349.128	1319.56
349.355	1306.56
349.583	1323.56
349.81	1300.56
350.037	1249.56
350.265	1266.56
350.492	1277.56
350.72	1264.56
350.947	1247.56
351.174	1293.56
351.402	1291.56
351.629	1305.56
351.856	1258.56
352.083	1263.56
352.311	1268.56
352.538	1291.56
352.765	1261.56
352.992	1245.56
353.22	1223.56
353.447	1230.56
353.674	1223.56
353.901	1241.56
354.128	1255.56
354.355	1246.56
354.583	1231.56
354.81	1242.56
355.037	1231.56
355.264	1241.56
355.491	1225.56
355.718	1243.56
355.945	1217.56
356.172	1286.56
356.399	1236.56
356.626	1251.56
356.853	1311.56
357.08	1268.56
357.307	1233.56
357.534	1242.56
357.761	1260.56
357.988	1223.56
358.215	1245.56
358.441	1231.56
358.668	1211.56
358.895	1247.56
359.122	1244.56
359.349	1253.56
359.576	1256.56
359.802	1244.56
360.029	1257.56
360.256	1265.56
360.483	1243.56
360.709	1256.56
360.936	1257.56
361.163	1250.56
361.39	1265.56
361.616	1248.56
361.843	1237.56
362.07	1298.56
362.296	1256.56
362.523	1243.56
362.749	1251.56
362.976	1242.56
363.203	1231.56
363.429	1259.56
363.656	1219.56
363.882	1226.56
364.109	1229.56
364.335	1251.56
364.562	1259.56
364.788	1222.56
365.015	1233.56
365.241	1240.56
365.468	1223.56
365.694	1238.56
365.92	1227.56
366.147	1241.56
366.373	1246.56
366.599	1252.56
366.826	1263.56
367.052	1237.56
367.278	1241.56
367.505	1244.56
367.731	1253.56
367.957	1281.56
368.184	1258.56
368.41	1276.56
368.636	1260.56
368.862	1255.56
369.089	1245.56
369.315	1276.56
369.541	1269.56
369.767	1281.56
369.993	1281.56
370.219	1291.56
370.445	1313.56
370.672	1315.56
370.898	1335.56
371.124	1316.56
371.35	1325.56
371.576	1356.56
371.802	1339.56
372.028	1337.56
372.254	1329.56
372.48	1342.56
372.706	1363.56
372.932	1369.56
373.158	1310.56
373.384	1360.56
373.61	1371.56
373.835	1353.56
374.061	1331.56
374.287	1394.56
374.513	1375.56
374.739	1371.56
374.965	1411.56
375.191	1469.56
375.416	1463.56
375.642	1414.56
375.868	1400.56
376.094	1370.56
376.319	1353.56
376.545	1349.56
376.771	1347.56
376.997	1343.56
377.222	1342.56
377.448	1362.56
377.674	1350.56
377.899	1332.56
378.125	1297.56
378.35	1335.56
378.576	1317.56
378.802	1283.56
379.027	1348.56
379.253	1314.56
379.478	1314.56
379.704	1289.56
379.929	1319.56
380.155	1275.56
380.38	1326.56
380.606	1307.56
380.831	1338.56
381.057	1330.56
381.282	1310.56
381.507	1290.56
381.733	1339.56
381.958	1331.56
382.184	1358.56
382.409	1333.56
382.634	1351.56
382.86	1364.56
383.085	1401.56
383.31	1381.56
383.535	1413.56
383.761	1397.56
383.986	1403.56
384.211	1432.56
384.436	1429.56
384.662	1463.56
384.887	1465.56
385.112	1476.56
385.337	1506.56
385.562	1499.56
385.787	1511.56
386.013	1541.56
386.238	1572.56
386.463	1581.56
386.688	1566.56
386.913	1524.56
387.138	1523.56
387.363	1564.56
387.588	1551.56
387.813	1553.56
388.038	1563.56
388.263	1565.56
388.488	1572.56
388.713	1580.56
388.938	1549.56
389.163	1552.56
389.387	1585.56
389.612	1532.56
389.837	1543.56
390.062	1559.56
390.287	1572.56
390.512	1579.56
390.736	1597.56
390.961	1577.56
391.186	1644.56
391.411	1643.56
391.636	1643.56
391.86	1668.56
392.085	1697.56
392.31	1707.56
392.534	1699.56
392.759	1685.56
392.984	1669.56
393.208	1640.56
393.433	1645.56
393.658	1639.56
393.882	1626.56
394.107	1637.56
394.331	1638.56
394.556	1674.56
394.78	1661.56
395.005	1694.56
395.229	1697.56
395.454	1704.56
395.678	1709.56
395.903	1734.56
396.127	1712.56
396.352	1704.56
396.576	1697.56
396.801	1694.56
397.025	1718.56
397.249	1754.56
397.474	1763.56
397.698	1779.56
397.922	1797.56
398.147	1773.56
398.371	1842.56
398.595	1879.56
398.82	1969.56
399.044	2009.56
399.268	2133.56
399.492	2299.56
399.717	2376.56
399.941	2443.56
400.165	2377.56
400.389	2301.56
400.613	2177.56
400.837	2169.56
401.062	2072.56
401.286	2048.56
401.51	1989.56
401.734	1942.56
401.958	1956.56
402.182	1951.56
402.406	1954.56
402.63	1926.56
402.854	1959.56
403.078	1991.56
403.302	1968.56
403.526	2034.56
403.75	1985.56
403.974	2019.56
404.198	1987.56
404.422	2043.56
404.645	1986.56
404.869	2004.56
405.093	2042.56
405.317	2043.56
405.541	2044.56
405.765	2050.56
405.988	2069.56
406.212	2092.56
406.436	2079.56
406.66	2167.56
406.883	2146.56
407.107	2265.56
407.331	2243.56
407.555	2387.56
407.778	2341.56
408.002	2313.56
408.226	2332.56
408.449	2297.56
408.673	2205.56
408.896	2172.56
409.12	2150.56
409.344	2224.56
409.567	2153.56
409.791	2177.56
410.014	2127.56
410.238	2138.56
410.461	2141.56
410.685	2109.56
410.908	2096.56
411.132	2063.56
411.355	2030.56
411.578	2007.56
411.802	1977.56
412.025	2042.56
412.249	2023.56
412.472	2073.56
412.695	1989.56
412.919	1994.56
413.142	2013.56
413.365	1980.56
413.589	2005.56
413.812	1983.56
414.035	1928.56
414.258	1932.56
414.482	1954.56
414.705	1943.56
414.928	1957.56
415.151	1945.56
415.374	1986.56
415.597	1935.56
415.821	1906.56
416.044	1877.56
416.267	1928.56
416.49	1870.56
416.713	1875.56
416.936	1873.56
417.159	1875.56
417.382	1867.56
417.605	1895.56
417.828	1877.56
418.051	1895.56
418.274	1887.56
418.497	1869.56
418.72	1971.56
418.943	1901.56
419.166	2059.56
419.389	2162.56
419.611	2124.56
419.834	2068.56
420.057	1995.56
420.28	1955.56
420.503	1868.56
420.726	1835.56
420.948	1892.56
421.171	1885.56
421.394	1890.56
421.617	1853.56
421.839	1894.56
422.062	1896.56
422.285	1852.56
422.507	1915.56
422.73	1902.56
422.953	1891.56
423.175	1923.56
423.398	1913.56
423.621	1891.56
423.843	1935.56
424.066	1919.56
424.288	1894.56
424.511	1933.56
424.733	1886.56
424.956	1871.56
425.178	1910.56
425.401	1921.56
425.623	1894.56
425.846	1889.56
426.068	1889.56
426.291	1844.56
426.513	1822.56
426.735	1861.56
426.958	1897.56
427.18	1761.56
427.402	1798.56
427.625	1822.56
427.847	1800.56
428.069	1801.56
428.292	1815.56
428.514	1789.56
428.736	1777.56
428.958	1798.56
429.181	1750.56
429.403	1735.56
429.625	1740.56
429.847	1741.56
430.069	1733.56
430.292	1745.56
430.514	1742.56
430.736	1798.56
430.958	1794.56
431.18	1729.56
431.402	1795.56
431.624	1771.56
431.846	1747.56
432.068	1789.56
432.29	1810.56
432.512	1756.56
432.734	1811.56
432.956	1797.56
433.178	1777.56
433.4	1769.56
433.622	1802.56
433.844	1825.56
434.066	1839.56
434.287	1819.56
434.509	1856.56
434.731	1896.56
434.953	1870.56
435.175	1899.56
435.397	1917.56
435.618	1855.56
435.84	1835.56
436.062	1785.56
436.284	1779.56
436.505	1766.56
436.727	1804.56
436.949	1733.56
437.17	1732.56
437.392	1742.56
437.614	1750.56
437.835	1686.56
438.057	1745.56
438.278	1714.56
438.5	1683.56
438.721	1698.56
438.943	1727.56
439.165	1705.56
439.386	1744.56
439.608	1714.56
439.829	1783.56
440.05	1739.56
440.272	1777.56
440.493	1724.56
440.715	1764.56
440.936	1815.56
441.158	1831.56
441.379	1871.56
441.6	1902.56
441.822	1908.56
442.043	1909.56
442.264	1874.56
442.486	1859.56
442.707	1895.56
442.928	1894.56
443.149	1862.56
443.371	1845.56
443.592	1890.56
443.813	1904.56
444.034	1931.56
444.255	1908.56
444.476	1982.56
444.698	2025.56
444.919	2062.56
445.14	2183.56
445.361	2059.56
445.582	1991.56
445.803	1917.56
446.024	1873.56
446.245	1899.56
446.466	1844.56
446.687	1797.56
446.908	1802.56
447.129	1749.56
447.35	1709.56
447.571	1716.56
447.792	1685.56
448.013	1712.56
448.234	1672.56
448.455	1687.56
448.675	1629.56
448.896	1609.56
449.117	1607.56
449.338	1639.56
449.559	1638.56
449.779	1614.56
450	1615.56
450.221	1630.56
450.442	1632.56
450.662	1615.56
450.883	1638.56
451.104	1612.56
451.324	1621.56
451.545	1622.56
451.766	1606.56
451.986	1641.56
452.207	1620.56
452.428	1596.56
452.648	1590.56
452.869	1559.56
453.089	1541.56
453.31	1590.56
453.53	1526.56
453.751	1547.56
453.971	1548.56
454.192	1550.56
454.412	1510.56
454.633	1564.56
454.853	1551.56
455.073	1531.56
455.294	1535.56
455.514	1479.56
455.734	1541.56
455.955	1480.56
456.175	1475.56
456.395	1495.56
456.616	1515.56
456.836	1512.56
457.056	1510.56
457.276	1533.56
457.497	1546.56
457.717	1559.56
457.937	1562.56
458.157	1566.56
458.377	1574.56
458.598	1614.56
458.818	1656.56
459.038	1662.56
459.258	1683.56
459.478	1743.56
459.698	1816.56
459.918	1797.56
460.138	1863.56
460.358	1926.56
460.578	1913.56
460.798	1960.56
461.018	1992.56
461.238	1987.56
461.458	1997.56
461.678	1991.56
461.898	2023.56
462.118	2035.56
462.338	2147.56
462.558	2109.56
462.777	2218.56
462.997	2294.56
463.217	2332.56
463.437	2364.56
463.657	2327.56
463.876	2291.56
464.096	2287.56
464.316	2225.56
464.536	2182.56
464.755	2175.56
464.975	2147.56
465.195	2043.56
465.414	1990.56
465.634	1868.56
465.854	1881.56
466.073	1811.56
466.293	1811.56
466.512	1743.56
466.732	1677.56
466.951	1743.56
467.171	1709.56
467.391	1703.56
467.61	1661.56
467.829	1634.56
468.049	1627.56
468.268	1662.56
468.488	1654.56
468.707	1634.56
468.927	1659.56
469.146	1626.56
469.365	1663.56
469.585	1633.56
469.804	1670.56
470.023	1727.56
470.243	1679.56
470.462	1713.56
470.681	1730.56
470.901	1728.56
471.12	1694.56
471.339	1685.56
471.558	1679.56
471.777	1683.56
471.997	1690.56
472.216	1648.56
472.435	1643.56
472.654	1632.56
472.873	1595.56
473.092	1614.56
473.311	1614.56
473.53	1619.56
473.749	1609.56
473.968	1615.56
474.187	1622.56
474.406	1621.56
474.625	1654.56
474.844	1649.56
475.063	1618.56
475.282	1614.56
475.501	1641.56
475.72	1677.56
475.939	1636.56
476.158	1699.56
476.377	1714.56
476.596	1690.56
476.814	1718.56
477.033	1728.56
477.252	1786.56
477.471	1813.56
477.69	1817.56
477.908	1846.56
478.127	1901.56
478.346	1895.56
478.564	1920.56
478.783	1921.56
479.002	1991.56
479.22	2018.56
479.439	1990.56
479.658	1955.56
479.876	1944.56
480.095	1945.56
480.313	2059.56
480.532	2022.56
480.751	2019.56
480.969	1991.56
481.188	1961.56
481.406	1953.56
481.624	1901.56
481.843	1934.56
482.061	1892.56
482.28	1906.56
482.498	1873.56
482.717	1862.56
482.935	1908.56
483.153	1915.56
483.372	1914.56
483.59	1895.56
483.808	1893.56
484.027	1905.56
484.245	1941.56
484.463	1913.56
484.681	1928.56
484.9	1980.56
485.118	1921.56
485.336	1932.56
485.554	1973.56
485.772	1940.56
485.99	1936.56
486.209	1956.56
486.427	1957.56
486.645	1948.56
486.863	1962.56
487.081	1991.56
487.299	1921.56
487.517	1976.56
487.735	1961.56
487.953	1958.56
488.171	1996.56
488.389	1982.56
488.607	1932.56
488.825	1976.56
489.043	1906.56
489.261	1921.56
489.479	1967.56
489.696	1942.56
489.914	1961.56
490.132	1948.56
490.35	1946.56
490.568	1941.56
490.786	2003.56
491.003	1981.56
491.221	2017.56
491.439	1999.56
491.657	1983.56
491.874	1982.56
492.092	1994.56
492.31	2021.56
492.527	2034.56
492.745	2000.56
492.963	2071.56
493.18	2031.56
493.398	2030.56
493.615	2058.56
493.833	2046.56
494.05	2068.56
494.268	2117.56
494.485	2083.56
494.703	2106.56
494.92	2093.56
495.138	2133.56
495.355	2111.56
495.573	2107.56
495.79	2147.56
496.008	2173.56
496.225	2219.56
496.442	2180.56
496.66	2238.56
496.877	2263.56
497.094	2316.56
497.312	2380.56
497.529	2391.56
497.746	2433.56
497.963	2536.56
498.181	2657.56
498.398	2715.56
498.615	2814.56
498.832	2960.56
499.049	3121.56
499.267	3255.56
499.484	3494.56
499.701	3675.56
499.918	3867.56
500.135	4120.56
500.352	4275.56
500.569	4452.56
500.786	4479.56
501.003	4311.56
501.22	4111.56
501.437	3887.56
501.654	3664.56
501.871	3467.56
502.088	3299.56
502.305	3129.56
502.522	2955.56
502.739	2909.56
502.956	2756.56
503.172	2658.56
503.389	2600.56
503.606	2535.56
503.823	2488.56
504.04	2446.56
504.256	2402.56
504.473	2410.56
504.69	2361.56
504.907	2325.56
505.123	2253.56
505.34	2217.56
505.557	2135.56
505.773	2097.56
505.99	2056.56
506.207	1998.56
506.423	1975.56
506.64	1980.56
506.856	1949.56
507.073	1881.56
507.289	1910.56
507.506	1813.56
507.722	1863.56
507.939	1876.56
508.155	1852.56
508.372	1829.56
508.588	1777.56
508.805	1795.56
509.021	1786.56
509.238	1800.56
509.454	1774.56
509.67	1733.56
509.887	1743.56
510.103	1739.56
510.319	1716.56
510.536	1712.56
510.752	1707.56
510.968	1721.56
511.184	1675.56
511.401	1693.56
511.617	1645.56
511.833	1701.56
512.049	1693.56
512.265	1662.56
512.481	1715.56
512.698	1679.56
512.914	1683.56
513.13	1679.56
513.346	1703.56
513.562	1661.56
513.778	1702.56
513.994	1698.56
514.21	1691.56
514.426	1735.56
514.642	1706.56
514.858	1760.56
515.074	1743.56
515.29	1772.56
515.506	1766.56
515.721	1782.56
515.937	1824.56
516.153	1837.56
516.369	1900.56
516.585	1923.56
516.801	1931.56
517.016	1993.56
517.232	2043.56
517.448	2069.56
517.664	2113.56
517.879	2142.56
518.095	2097.56
518.311	2103.56
518.527	2113.56
518.742	2034.56
518.958	1983.56
519.173	1940.56
519.389	1884.56
519.605	1832.56
519.82	1818.56
520.036	1764.56
520.251	1784.56
520.467	1762.56
520.682	1738.56
520.898	1679.56
521.113	1673.56
521.329	1631.56
521.544	1648.56
521.76	1639.56
521.975	1646.56
522.19	1637.56
522.406	1629.56
522.621	1582.56
522.836	1609.56
523.052	1556.56
523.267	1560.56
523.482	1572.56
523.698	1514.56
523.913	1576.56
524.128	1573.56
524.343	1578.56
524.559	1564.56
524.774	1585.56
524.989	1575.56
525.204	1518.56
525.419	1521.56
525.634	1517.56
525.849	1516.56
526.064	1492.56
526.28	1471.56
526.495	1495.56
526.71	1537.56
526.925	1501.56
527.14	1505.56
527.355	1481.56
527.57	1458.56
527.785	1491.56
527.999	1473.56
528.214	1503.56
528.429	1484.56
528.644	1480.56
528.859	1504.56
529.074	1478.56
529.289	1496.56
529.503	1539.56
529.718	1491.56
529.933	1459.56
530.148	1466.56
530.363	1481.56
530.577	1510.56
530.792	1459.56
531.007	1461.56
531.221	1468.56
531.436	1484.56
531.651	1482.56
531.865	1459.56
532.08	1485.56
532.295	1516.56
532.509	1469.56
532.724	1438.56
532.938	1450.56
533.153	1437.56
533.367	1477.56
533.582	1475.56
533.796	1465.56
534.011	1445.56
534.225	1454.56
534.44	1451.56
534.654	1431.56
534.868	1457.56
535.083	1442.56
535.297	1447.56
535.511	1425.56
535.726	1426.56
535.94	1415.56
536.154	1387.56
536.369	1394.56
536.583	1397.56
536.797	1393.56
537.011	1366.56
537.225	1374.56
537.44	1397.56
537.654	1409.56
537.868	1383.56
538.082	1373.56
538.296	1354.56
538.51	1369.56
538.724	1351.56
538.938	1359.56
539.153	1332.56
539.367	1316.56
539.581	1327.56
539.795	1327.56
540.009	1350.56
540.222	1352.56
540.436	1342.56
540.65	1325.56
540.864	1322.56
541.078	1314.56
541.292	1325.56
541.506	1337.56
541.72	1348.56
541.934	1322.56
542.147	1320.56
542.361	1314.56
542.575	1316.56
542.789	1317.56
543.002	1305.56
543.216	1296.56
543.43	1302.56
543.644	1312.56
543.857	1324.56
544.071	1306.56
544.285	1340.56
544.498	1294.56
544.712	1289.56
544.925	1335.56
545.139	1344.56
545.352	1324.56
545.566	1324.56
545.779	1320.56
545.993	1367.56
546.206	1335.56
546.42	1318.56
546.633	1350.56
546.847	1349.56
547.06	1363.56
547.274	1340.56
547.487	1321.56
547.7	1350.56
547.914	1335.56
548.127	1367.56
548.34	1335.56
548.554	1364.56
548.767	1322.56
548.98	1345.56
549.193	1327.56
549.407	1336.56
549.62	1347.56
549.833	1355.56
550.046	1300.56
550.259	1331.56
550.473	1317.56
550.686	1337.56
550.899	1319.56
551.112	1331.56
551.325	1290.56
551.538	1299.56
551.751	1376.56
551.964	1312.56
552.177	1335.56
552.39	1340.56
552.603	1395.56
552.816	1356.56
553.029	1383.56
553.242	1393.56
553.455	1367.56
553.667	1364.56
553.88	1349.56
554.093	1350.56
554.306	1297.56
554.519	1305.56
554.732	1315.56
554.944	1292.56
555.157	1236.56
555.37	1238.56
555.583	1246.56
555.795	1230.56
556.008	1198.56
556.221	1188.56
556.433	1141.56
556.646	1177.56
556.859	1182.56
557.071	1167.56
557.284	1159.56
557.496	1157.56
557.709	1159.56
557.921	1139.56
558.134	1158.56
558.346	1123.56
558.559	1151.56
558.771	1155.56
558.984	1122.56
559.196	1122.56
559.409	1127.56
559.621	1137.56
559.833	1131.56
560.046	1121.56
560.258	1102.56
560.47	1105.56
560.683	1069.56
560.895	1111.56
561.107	1141.56
561.32	1115.56
561.532	1095.56
561.744	1101.56
561.956	1116.56
562.168	1141.56
562.381	1145.56
562.593	1110.56
562.805	1141.56
563.017	1113.56
563.229	1130.56
563.441	1117.56
563.653	1117.56
563.865	1129.56
564.077	1170.56
564.289	1147.56
564.501	1198.56
564.713	1193.56
564.925	1232.56
565.137	1215.56
565.349	1274.56
565.561	1286.56
565.773	1333.56
565.985	1346.56
566.197	1377.56
566.408	1421.56
566.62	1463.56
566.832	1529.56
567.044	1555.56
567.255	1542.56
567.467	1561.56
567.679	1619.56
567.891	1658.56
568.102	1600.56
568.314	1573.56
568.526	1498.56
568.737	1433.56
568.949	1419.56
569.161	1325.56
569.372	1271.56
569.584	1227.56
569.795	1214.56
570.007	1177.56
570.218	1127.56
570.43	1150.56
570.641	1143.56
570.853	1109.56
571.064	1077.56
571.276	1049.56
571.487	1045.56
571.698	1030.56
571.91	1033.56
572.121	1017.56
572.333	979.56
572.544	970.56
572.755	942.56
572.966	939.56
573.178	944.56
573.389	914.56
573.6	914.56
573.811	905.56
574.023	890.56
574.234	891.56
574.445	888.56
574.656	905.56
574.867	916.56
575.078	899.56
575.289	856.56
575.501	857.56
575.712	891.56
575.923	877.56
576.134	861.56
576.345	869.56
576.556	848.56
576.767	829.56
576.978	841.56
577.188	857.56
577.399	793.56
577.61	814.56
577.821	816.56
578.032	791.56
578.243	813.56
578.454	822.56
578.665	778.56
578.875	790.56
579.086	795.56
579.297	799.56
579.508	813.56
579.718	802.56
579.929	774.56
580.14	763.56
580.35	758.56
580.561	751.56
580.772	764.56
580.982	776.56
581.193	745.56
581.403	750.56
581.614	780.56
581.825	751.56
582.035	754.56
582.246	727.56
582.456	751.56
582.667	737.56
582.877	756.56
583.087	756.56
583.298	771.56
583.508	736.56
583.719	737.56
583.929	747.56
584.139	719.56
584.35	703.56
584.56	745.56
584.77	734.56
584.981	707.56
585.191	719.56
585.401	717.56
585.611	726.56
585.821	709.56
586.032	696.56
586.242	702.56
586.452	729.56
586.662	696.56
586.872	705.56
587.082	719.56
587.292	704.56
587.502	690.56
587.713	711.56
587.923	693.56
588.133	701.56
588.343	699.56
588.553	706.56
588.762	714.56
588.972	706.56
589.182	708.56
589.392	722.56
589.602	716.56
589.812	733.56
590.022	717.56
590.232	711.56
590.441	710.56
590.651	734.56
590.861	704.56
591.071	741.56
591.281	734.56
591.49	745.56
591.7	730.56
591.91	733.56
592.119	719.56
592.329	759.56
592.539	749.56
592.748	793.56
592.958	794.56
593.167	784.56
593.377	792.56
593.587	794.56
593.796	782.56
594.006	791.56
594.215	820.56
594.424	775.56
594.634	777.56
594.843	803.56
595.053	760.56
595.262	745.56
595.472	731.56
595.681	699.56
595.89	679.56
596.1	690.56
596.309	683.56
596.518	635.56
596.727	670.56
596.937	643.56
597.146	639.56
597.355	644.56
597.564	603.56
597.774	637.56
597.983	611.56
598.192	590.56
598.401	606.56
598.61	614.56
598.819	616.56
599.028	625.56
599.237	595.56
599.446	597.56
599.655	587.56
599.864	597.56
600.073	577.56
600.282	589.56
600.491	564.56
600.7	572.56
600.909	551.56
601.118	589.56
601.327	565.56
601.536	558.56
601.745	565.56
601.953	535.56
602.162	569.56
602.371	556.56
602.58	534.56
602.789	549.56
602.997	563.56
603.206	565.56
603.415	540.56
603.623	535.56
603.832	532.56
604.041	538.56
604.249	515.56
604.458	526.56
604.666	525.56
604.875	539.56
605.084	527.56
605.292	529.56
605.501	527.56
605.709	513.56
605.918	520.56
606.126	523.56
606.334	526.56
606.543	536.56
606.751	526.56
606.96	539.56
607.168	519.56
607.376	508.56
607.585	516.56
607.793	516.56
608.001	497.56
608.21	505.56
608.418	494.56
608.626	507.56
608.834	494.56
609.043	516.56
609.251	525.56
609.459	487.56
609.667	497.56
609.875	501.56
610.083	492.56
610.291	506.56
610.499	495.56
610.707	485.56
610.916	511.56
611.124	487.56
611.332	492.56
611.54	486.56
611.748	513.56
611.955	490.56
612.163	463.56
612.371	502.56
612.579	490.56
612.787	496.56
612.995	483.56
613.203	479.56
613.411	475.56
613.618	479.56
613.826	477.56
614.034	500.56
614.242	461.56
614.449	461.56
614.657	486.56
614.865	476.56
615.072	463.56
615.28	487.56
615.488	455.56
615.695	459.56
615.903	451.56
616.111	486.56
616.318	440.56
616.526	472.56
616.733	463.56
616.941	462.56
617.148	471.56
617.356	477.56
617.563	456.56
617.771	443.56
617.978	462.56
618.185	468.56
618.393	451.56
618.6	476.56
618.807	459.56
619.015	461.56
619.222	459.56
619.429	453.56
619.637	438.56
619.844	437.56
620.051	455.56
620.258	441.56
620.466	415.56
620.673	411.56
620.88	412.56
621.087	420.56
621.294	436.56
621.501	433.56
621.708	434.56
621.915	428.56
622.122	439.56
622.329	431.56
622.536	443.56
622.743	464.56
622.95	419.56
623.157	421.56
623.364	403.56
623.571	421.56
623.778	416.56
623.985	412.56
624.192	402.56
624.399	418.56
624.606	411.56
624.812	426.56
625.019	406.56
625.226	399.56
625.433	430.56
625.639	418.56
625.846	394.56
626.053	383.56
626.259	390.56
626.466	396.56
626.673	379.56
626.879	383.56
627.086	386.56
627.293	381.56
627.499	412.56
627.706	375.56
627.912	403.56
628.119	382.56
628.325	375.56
628.532	383.56
628.738	376.56
628.945	378.56
629.151	372.56
629.357	371.56
629.564	362.56
629.77	362.56
629.976	378.56
630.183	375.56
630.389	391.56
630.595	364.56
630.802	375.56
631.008	364.56
631.214	355.56
631.42	354.56
631.627	341.56
631.833	338.56
632.039	337.56
632.245	345.56
632.451	351.56
632.657	350.56
632.863	327.56
633.069	345.56
633.275	341.56
633.481	347.56
633.688	333.56
633.893	337.56
634.099	335.56
634.305	332.56
634.511	326.56
634.717	326.56
634.923	331.56
635.129	345.56
635.335	326.56
635.541	329.56
635.747	317.56
635.952	335.56
636.158	335.56
636.364	330.56
636.57	337.56
636.775	342.56
636.981	296.56
637.187	319.56
637.392	311.56
637.598	323.56
637.804	318.56
638.009	330.56
638.215	313.56
638.421	312.56
638.626	318.56
638.832	324.56
639.037	312.56
639.243	302.56
639.448	290.56
639.654	314.56
639.859	316.56
640.065	313.56
640.27	318.56
640.475	304.56
640.681	299.56
640.886	309.56
641.091	301.56
641.297	316.56
641.502	301.56
641.707	293.56
641.913	301.56
642.118	311.56
642.323	304.56
642.528	294.56
642.733	299.56
642.939	293.56
643.144	316.56
643.349	285.56
643.554	313.56
643.759	287.56
643.964	294.56
644.169	305.56
644.374	285.56
644.579	287.56
644.784	285.56
644.989	288.56
645.194	286.56
645.399	286.56
645.604	292.56
645.809	277.56
646.014	289.56
646.219	271.56
646.423	299.56
646.628	309.56
646.833	293.56
647.038	297.56
647.243	294.56
647.447	293.56
647.652	286.56
647.857	295.56
648.062	321.56
648.266	317.56
648.471	295.56
648.676	312.56
648.88	299.56
649.085	285.56
649.289	286.56
649.494	268.56
649.698	276.56
649.903	279.56
650.107	269.56
650.312	274.56
650.516	269.56
650.721	273.56
650.925	259.56
651.13	263.56
651.334	258.56
651.539	254.56
651.743	267.56
651.947	272.56
652.152	241.56
652.356	233.56
652.56	251.56
652.764	249.56
652.969	229.56
653.173	229.56
653.377	222.56
653.581	220.56
653.785	221.56
653.99	222.56
654.194	229.56
654.398	209.56
654.602	206.56
654.806	205.56
655.01	220.56
655.214	202.56
655.418	213.56
655.622	209.56
655.826	195.56
656.03	196.56
656.234	207.56
656.438	202.56
656.642	199.56
656.846	185.56
657.049	193.56
657.253	180.56
657.457	177.56
657.661	174.56
657.865	152.56
658.068	153.56
658.272	157.56
658.476	133.56
658.68	139.56
658.883	149.56
659.087	135.56
659.291	120.56
659.494	141.56
659.698	129.56
659.901	133.56
660.105	126.56
660.309	111.56
660.512	98.56
660.716	91.56
660.919	96.56
661.123	96.56
661.326	105.56
661.53	85.56
661.733	98.56
661.936	97.56
662.14	98.56
662.343	98.56
662.546	106.56
662.75	95.56
662.953	89.56
663.156	82.56
663.36	87.56
663.563	79.56
663.766	89.56
663.969	97.56
664.173	85.56
664.376	81.56
664.579	86.56
664.782	93.56
664.985	97.56
665.188	77.56
665.391	77.56
665.594	68.56
665.797	77.56
666	76.56
666.203	91.56
666.406	83.56
666.609	84.56
666.812	66.56
667.015	87.56
667.218	78.56
667.421	85.56
667.624	85.56
667.827	85.56
668.03	81.56
668.232	82.56
668.435	78.56
668.638	69.56
668.841	85.56
669.043	77.56
669.246	84.56
669.449	89.56
669.651	95.56
669.854	82.56
670.057	83.56
670.259	88.56
670.462	83.56
670.665	88.56
670.867	77.56
671.07	84.56
671.272	87.56
671.475	77.56
671.677	87.56
671.88	98.56
672.082	74.56
672.284	83.56
672.487	95.56
672.689	74.56
672.892	60.56
