Data from Ni(NO3)2@0.0625M.TitratingCurve.Agarose3%dH2O.NegLispCup.LampEnergy10.LIBS07252019_HRD10591_18-15-40-570.txt Node
Date: Thu Jul 25 18:15:40 EDT 2019
User: cochatt
Spectrometer: HR+D1059
Trigger mode: 1
Integration Time (sec): 1.000000E-1
Scans to average: 1
Electric dark correction enabled: true
Nonlinearity correction enabled: false
Boxcar width: 0
XAxis mode: Wavelengths
Number of Pixels in Spectrum: 2048
>>>>>Begin Spectral Data<<<<<
223.165	-8.31
223.4	-8.31
223.635	-8.31
223.869	-8.31
224.104	-11.31
224.338	-23.31
224.573	-34.31
224.808	-9.31
225.042	-14.31
225.277	-0.31
225.511	-2.31
225.746	-2.31
225.98	8.69
226.215	14.69
226.449	14.69
226.683	18.69
226.918	22.69
227.152	34.69
227.387	32.69
227.621	35.69
227.856	37.69
228.09	45.69
228.324	46.69
228.559	55.69
228.793	65.69
229.027	98.69
229.262	93.69
229.496	96.69
229.73	105.69
229.964	122.69
230.199	109.69
230.433	121.69
230.667	126.69
230.901	119.69
231.136	126.69
231.37	119.69
231.604	114.69
231.838	127.69
232.072	130.69
232.306	118.69
232.541	147.69
232.775	140.69
233.009	136.69
233.243	109.69
233.477	140.69
233.711	128.69
233.945	139.69
234.179	138.69
234.413	132.69
234.647	131.69
234.881	125.69
235.115	137.69
235.349	126.69
235.583	126.69
235.817	140.69
236.051	125.69
236.285	143.69
236.519	127.69
236.753	133.69
236.987	133.69
237.221	141.69
237.455	143.69
237.689	145.69
237.922	131.69
238.156	137.69
238.39	140.69
238.624	142.69
238.858	134.69
239.091	139.69
239.325	135.69
239.559	154.69
239.793	150.69
240.027	151.69
240.26	136.69
240.494	150.69
240.728	168.69
240.961	154.69
241.195	162.69
241.429	148.69
241.662	149.69
241.896	158.69
242.13	162.69
242.363	152.69
242.597	163.69
242.83	165.69
243.064	161.69
243.298	154.69
243.531	179.69
243.765	173.69
243.998	181.69
244.232	180.69
244.465	179.69
244.699	164.69
244.932	185.69
245.166	172.69
245.399	180.69
245.633	172.69
245.866	190.69
246.099	176.69
246.333	181.69
246.566	164.69
246.8	188.69
247.033	173.69
247.266	179.69
247.5	181.69
247.733	177.69
247.966	183.69
248.2	191.69
248.433	185.69
248.666	188.69
248.899	190.69
249.133	193.69
249.366	175.69
249.599	198.69
249.832	201.69
250.066	208.69
250.299	187.69
250.532	195.69
250.765	210.69
250.998	220.69
251.231	209.69
251.465	197.69
251.698	206.69
251.931	210.69
252.164	212.69
252.397	212.69
252.63	201.69
252.863	221.69
253.096	233.69
253.329	218.69
253.562	214.69
253.795	228.69
254.028	223.69
254.261	231.69
254.494	222.69
254.727	222.69
254.96	232.69
255.193	207.69
255.426	241.69
255.659	232.69
255.892	227.69
256.124	221.69
256.357	227.69
256.59	229.69
256.823	234.69
257.056	232.69
257.289	250.69
257.521	239.69
257.754	233.69
257.987	245.69
258.22	241.69
258.452	234.69
258.685	224.69
258.918	258.69
259.151	241.69
259.383	252.69
259.616	234.69
259.849	241.69
260.081	231.69
260.314	244.69
260.547	254.69
260.779	248.69
261.012	271.69
261.244	238.69
261.477	237.69
261.71	273.69
261.942	241.69
262.175	246.69
262.407	251.69
262.64	249.69
262.872	257.69
263.105	274.69
263.337	262.69
263.57	269.69
263.802	257.69
264.035	254.69
264.267	250.69
264.499	266.69
264.732	262.69
264.964	281.69
265.197	269.69
265.429	276.69
265.661	277.69
265.894	259.69
266.126	278.69
266.358	275.69
266.591	259.69
266.823	277.69
267.055	284.69
267.287	283.69
267.52	288.69
267.752	280.69
267.984	284.69
268.216	285.69
268.448	296.69
268.681	292.69
268.913	272.69
269.145	285.69
269.377	308.69
269.609	304.69
269.841	299.69
270.073	281.69
270.306	278.69
270.538	308.69
270.77	293.69
271.002	281.69
271.234	287.69
271.466	281.69
271.698	295.69
271.93	310.69
272.162	303.69
272.394	301.69
272.626	316.69
272.858	291.69
273.09	302.69
273.322	302.69
273.553	310.69
273.785	306.69
274.017	299.69
274.249	322.69
274.481	313.69
274.713	331.69
274.945	329.69
275.176	322.69
275.408	312.69
275.64	328.69
275.872	322.69
276.104	329.69
276.335	334.69
276.567	319.69
276.799	330.69
277.031	339.69
277.262	323.69
277.494	315.69
277.726	315.69
277.957	329.69
278.189	333.69
278.421	335.69
278.652	340.69
278.884	339.69
279.115	343.69
279.347	336.69
279.579	340.69
279.81	332.69
280.042	358.69
280.273	332.69
280.505	349.69
280.736	335.69
280.968	341.69
281.199	341.69
281.431	378.69
281.662	346.69
281.894	350.69
282.125	341.69
282.356	356.69
282.588	356.69
282.819	354.69
283.051	336.69
283.282	374.69
283.513	354.69
283.745	352.69
283.976	366.69
284.207	354.69
284.439	348.69
284.67	361.69
284.901	378.69
285.132	382.69
285.364	378.69
285.595	378.69
285.826	363.69
286.057	391.69
286.288	379.69
286.52	393.69
286.751	382.69
286.982	396.69
287.213	386.69
287.444	390.69
287.675	385.69
287.906	379.69
288.138	392.69
288.369	398.69
288.6	391.69
288.831	394.69
289.062	378.69
289.293	394.69
289.524	378.69
289.755	400.69
289.986	395.69
290.217	397.69
290.448	422.69
290.679	390.69
290.91	391.69
291.141	394.69
291.371	405.69
291.602	395.69
291.833	407.69
292.064	399.69
292.295	382.69
292.526	418.69
292.757	399.69
292.987	404.69
293.218	412.69
293.449	422.69
293.68	391.69
293.91	407.69
294.141	417.69
294.372	402.69
294.603	426.69
294.833	440.69
295.064	405.69
295.295	418.69
295.525	395.69
295.756	417.69
295.987	404.69
296.217	418.69
296.448	411.69
296.679	426.69
296.909	418.69
297.14	406.69
297.37	439.69
297.601	430.69
297.831	439.69
298.062	433.69
298.292	447.69
298.523	455.69
298.753	455.69
298.984	438.69
299.214	446.69
299.445	449.69
299.675	428.69
299.905	437.69
300.136	453.69
300.366	468.69
300.597	436.69
300.827	482.69
301.057	473.69
301.288	466.69
301.518	485.69
301.748	492.69
301.979	458.69
302.209	471.69
302.439	462.69
302.669	453.69
302.9	441.69
303.13	431.69
303.36	453.69
303.59	441.69
303.82	459.69
304.051	444.69
304.281	478.69
304.511	458.69
304.741	451.69
304.971	452.69
305.201	457.69
305.431	455.69
305.661	469.69
305.891	436.69
306.121	453.69
306.352	449.69
306.582	447.69
306.812	437.69
307.042	437.69
307.272	438.69
307.502	429.69
307.731	458.69
307.961	427.69
308.191	436.69
308.421	453.69
308.651	445.69
308.881	430.69
309.111	436.69
309.341	430.69
309.571	449.69
309.8	454.69
310.03	455.69
310.26	465.69
310.49	454.69
310.72	469.69
310.949	442.69
311.179	461.69
311.409	449.69
311.639	464.69
311.868	451.69
312.098	467.69
312.328	475.69
312.557	469.69
312.787	475.69
313.017	478.69
313.246	470.69
313.476	461.69
313.706	488.69
313.935	490.69
314.165	490.69
314.394	474.69
314.624	486.69
314.853	493.69
315.083	495.69
315.312	482.69
315.542	497.69
315.771	461.69
316.001	472.69
316.23	480.69
316.46	479.69
316.689	483.69
316.919	473.69
317.148	454.69
317.377	475.69
317.607	475.69
317.836	453.69
318.065	485.69
318.295	467.69
318.524	460.69
318.753	455.69
318.983	452.69
319.212	462.69
319.441	467.69
319.67	478.69
319.9	431.69
320.129	478.69
320.358	492.69
320.587	484.69
320.816	488.69
321.046	471.69
321.275	472.69
321.504	475.69
321.733	471.69
321.962	473.69
322.191	490.69
322.42	451.69
322.649	457.69
322.878	488.69
323.108	492.69
323.337	489.69
323.566	473.69
323.795	476.69
324.024	473.69
324.253	482.69
324.482	471.69
324.71	503.69
324.939	500.69
325.168	483.69
325.397	478.69
325.626	496.69
325.855	489.69
326.084	527.69
326.313	521.69
326.542	526.69
326.77	519.69
326.999	514.69
327.228	511.69
327.457	525.69
327.686	517.69
327.914	516.69
328.143	515.69
328.372	521.69
328.6	534.69
328.829	502.69
329.058	507.69
329.287	517.69
329.515	510.69
329.744	510.69
329.972	535.69
330.201	531.69
330.43	515.69
330.658	535.69
330.887	549.69
331.115	538.69
331.344	537.69
331.572	536.69
331.801	566.69
332.03	577.69
332.258	586.69
332.486	580.69
332.715	626.69
332.943	619.69
333.172	669.69
333.4	677.69
333.629	702.69
333.857	725.69
334.085	703.69
334.314	685.69
334.542	654.69
334.771	663.69
334.999	641.69
335.227	638.69
335.455	630.69
335.684	633.69
335.912	627.69
336.14	616.69
336.369	628.69
336.597	629.69
336.825	651.69
337.053	634.69
337.281	624.69
337.51	605.69
337.738	608.69
337.966	590.69
338.194	580.69
338.422	571.69
338.65	569.69
338.878	571.69
339.106	577.69
339.334	590.69
339.562	577.69
339.79	564.69
340.018	526.69
340.246	544.69
340.474	550.69
340.702	545.69
340.93	557.69
341.158	553.69
341.386	551.69
341.614	569.69
341.842	575.69
342.07	535.69
342.298	524.69
342.526	545.69
342.754	535.69
342.981	558.69
343.209	571.69
343.437	598.69
343.665	619.69
343.893	632.69
344.12	673.69
344.348	663.69
344.576	628.69
344.804	597.69
345.031	572.69
345.259	575.69
345.487	531.69
345.714	556.69
345.942	527.69
346.17	553.69
346.397	567.69
346.625	544.69
346.853	517.69
347.08	528.69
347.308	534.69
347.535	541.69
347.763	549.69
347.99	569.69
348.218	551.69
348.445	530.69
348.673	554.69
348.9	530.69
349.128	531.69
349.355	551.69
349.583	513.69
349.81	533.69
350.037	507.69
350.265	535.69
350.492	512.69
350.72	535.69
350.947	532.69
351.174	512.69
351.402	552.69
351.629	522.69
351.856	529.69
352.083	500.69
352.311	521.69
352.538	522.69
352.765	518.69
352.992	502.69
353.22	500.69
353.447	528.69
353.674	513.69
353.901	501.69
354.128	520.69
354.355	529.69
354.583	510.69
354.81	505.69
355.037	526.69
355.264	508.69
355.491	526.69
355.718	507.69
355.945	523.69
356.172	540.69
356.399	516.69
356.626	517.69
356.853	552.69
357.08	513.69
357.307	515.69
357.534	525.69
357.761	526.69
357.988	528.69
358.215	493.69
358.441	510.69
358.668	507.69
358.895	522.69
359.122	529.69
359.349	515.69
359.576	514.69
359.802	516.69
360.029	518.69
360.256	520.69
360.483	523.69
360.709	515.69
360.936	507.69
361.163	526.69
361.39	491.69
361.616	526.69
361.843	521.69
362.07	519.69
362.296	525.69
362.523	518.69
362.749	519.69
362.976	515.69
363.203	522.69
363.429	494.69
363.656	500.69
363.882	502.69
364.109	542.69
364.335	512.69
364.562	489.69
364.788	510.69
365.015	530.69
365.241	482.69
365.468	513.69
365.694	513.69
365.92	499.69
366.147	505.69
366.373	525.69
366.599	509.69
366.826	509.69
367.052	513.69
367.278	534.69
367.505	508.69
367.731	526.69
367.957	506.69
368.184	514.69
368.41	536.69
368.636	523.69
368.862	541.69
369.089	527.69
369.315	533.69
369.541	504.69
369.767	533.69
369.993	545.69
370.219	549.69
370.445	548.69
370.672	554.69
370.898	561.69
371.124	550.69
371.35	559.69
371.576	571.69
371.802	566.69
372.028	561.69
372.254	556.69
372.48	578.69
372.706	565.69
372.932	584.69
373.158	583.69
373.384	562.69
373.61	556.69
373.835	567.69
374.061	565.69
374.287	586.69
374.513	574.69
374.739	624.69
374.965	625.69
375.191	610.69
375.416	639.69
375.642	620.69
375.868	577.69
376.094	586.69
376.319	577.69
376.545	582.69
376.771	561.69
376.997	569.69
377.222	585.69
377.448	556.69
377.674	576.69
377.899	569.69
378.125	556.69
378.35	562.69
378.576	563.69
378.802	553.69
379.027	545.69
379.253	564.69
379.478	558.69
379.704	544.69
379.929	562.69
380.155	554.69
380.38	551.69
380.606	558.69
380.831	544.69
381.057	555.69
381.282	548.69
381.507	573.69
381.733	571.69
381.958	590.69
382.184	581.69
382.409	578.69
382.634	572.69
382.86	583.69
383.085	603.69
383.31	597.69
383.535	619.69
383.761	633.69
383.986	654.69
384.211	642.69
384.436	665.69
384.662	654.69
384.887	690.69
385.112	652.69
385.337	700.69
385.562	667.69
385.787	698.69
386.013	690.69
386.238	680.69
386.463	676.69
386.688	675.69
386.913	691.69
387.138	676.69
387.363	660.69
387.588	634.69
387.813	661.69
388.038	658.69
388.263	668.69
388.488	655.69
388.713	673.69
388.938	670.69
389.163	639.69
389.387	647.69
389.612	641.69
389.837	662.69
390.062	647.69
390.287	663.69
390.512	681.69
390.736	677.69
390.961	677.69
391.186	685.69
391.411	687.69
391.636	718.69
391.86	761.69
392.085	770.69
392.31	737.69
392.534	721.69
392.759	739.69
392.984	702.69
393.208	715.69
393.433	706.69
393.658	721.69
393.882	694.69
394.107	695.69
394.331	707.69
394.556	726.69
394.78	723.69
395.005	740.69
395.229	717.69
395.454	732.69
395.678	751.69
395.903	744.69
396.127	737.69
396.352	700.69
396.576	695.69
396.801	680.69
397.025	712.69
397.249	714.69
397.474	750.69
397.698	754.69
397.922	712.69
398.147	722.69
398.371	749.69
398.595	771.69
398.82	828.69
399.044	877.69
399.268	978.69
399.492	1147.69
399.717	1263.69
399.941	1285.69
400.165	1113.69
400.389	998.69
400.613	913.69
400.837	858.69
401.062	814.69
401.286	828.69
401.51	827.69
401.734	797.69
401.958	845.69
402.182	830.69
402.406	835.69
402.63	870.69
402.854	911.69
403.078	894.69
403.302	910.69
403.526	949.69
403.75	985.69
403.974	990.69
404.198	969.69
404.422	986.69
404.645	981.69
404.869	942.69
405.093	924.69
405.317	917.69
405.541	937.69
405.765	939.69
405.988	922.69
406.212	933.69
406.436	909.69
406.66	933.69
406.883	963.69
407.107	997.69
407.331	1060.69
407.555	1095.69
407.778	1063.69
408.002	1062.69
408.226	1031.69
408.449	1019.69
408.673	1012.69
408.896	960.69
409.12	940.69
409.344	951.69
409.567	969.69
409.791	964.69
410.014	973.69
410.238	970.69
410.461	930.69
410.685	956.69
410.908	910.69
411.132	902.69
411.355	872.69
411.578	851.69
411.802	867.69
412.025	871.69
412.249	902.69
412.472	883.69
412.695	860.69
412.919	844.69
413.142	813.69
413.365	829.69
413.589	818.69
413.812	849.69
414.035	835.69
414.258	846.69
414.482	867.69
414.705	880.69
414.928	849.69
415.151	838.69
415.374	863.69
415.597	817.69
415.821	833.69
416.044	819.69
416.267	823.69
416.49	797.69
416.713	827.69
416.936	815.69
417.159	825.69
417.382	820.69
417.605	819.69
417.828	843.69
418.051	827.69
418.274	840.69
418.497	814.69
418.72	884.69
418.943	837.69
419.166	897.69
419.389	945.69
419.611	937.69
419.834	891.69
420.057	876.69
420.28	839.69
420.503	813.69
420.726	847.69
420.948	835.69
421.171	810.69
421.394	830.69
421.617	815.69
421.839	811.69
422.062	837.69
422.285	815.69
422.507	873.69
422.73	862.69
422.953	865.69
423.175	862.69
423.398	899.69
423.621	868.69
423.843	871.69
424.066	885.69
424.288	871.69
424.511	871.69
424.733	874.69
424.956	879.69
425.178	828.69
425.401	856.69
425.623	848.69
425.846	843.69
426.068	816.69
426.291	781.69
426.513	782.69
426.735	790.69
426.958	791.69
427.18	730.69
427.402	770.69
427.625	755.69
427.847	724.69
428.069	710.69
428.292	765.69
428.514	748.69
428.736	739.69
428.958	725.69
429.181	728.69
429.403	699.69
429.625	719.69
429.847	735.69
430.069	718.69
430.292	746.69
430.514	732.69
430.736	727.69
430.958	722.69
431.18	752.69
431.402	727.69
431.624	745.69
431.846	754.69
432.068	758.69
432.29	749.69
432.512	740.69
432.734	739.69
432.956	750.69
433.178	759.69
433.4	757.69
433.622	746.69
433.844	750.69
434.066	731.69
434.287	754.69
434.509	807.69
434.731	851.69
434.953	857.69
435.175	867.69
435.397	854.69
435.618	812.69
435.84	773.69
436.062	762.69
436.284	757.69
436.505	765.69
436.727	762.69
436.949	773.69
437.17	761.69
437.392	764.69
437.614	736.69
437.835	701.69
438.057	718.69
438.278	723.69
438.5	727.69
438.721	696.69
438.943	710.69
439.165	748.69
439.386	711.69
439.608	740.69
439.829	772.69
440.05	747.69
440.272	744.69
440.493	750.69
440.715	745.69
440.936	776.69
441.158	779.69
441.379	813.69
441.6	846.69
441.822	855.69
442.043	847.69
442.264	807.69
442.486	833.69
442.707	807.69
442.928	842.69
443.149	821.69
443.371	856.69
443.592	851.69
443.813	878.69
444.034	888.69
444.255	875.69
444.476	905.69
444.698	977.69
444.919	1011.69
445.14	1109.69
445.361	951.69
445.582	885.69
445.803	821.69
446.024	801.69
446.245	802.69
446.466	786.69
446.687	774.69
446.908	767.69
447.129	739.69
447.35	710.69
447.571	739.69
447.792	717.69
448.013	708.69
448.234	711.69
448.455	702.69
448.675	712.69
448.896	693.69
449.117	682.69
449.338	698.69
449.559	667.69
449.779	679.69
450	673.69
450.221	690.69
450.442	698.69
450.662	683.69
450.883	709.69
451.104	712.69
451.324	716.69
451.545	713.69
451.766	723.69
451.986	716.69
452.207	707.69
452.428	709.69
452.648	726.69
452.869	717.69
453.089	693.69
453.31	684.69
453.53	695.69
453.751	677.69
453.971	686.69
454.192	698.69
454.412	678.69
454.633	663.69
454.853	670.69
455.073	672.69
455.294	642.69
455.514	649.69
455.734	675.69
455.955	666.69
456.175	655.69
456.395	622.69
456.616	655.69
456.836	681.69
457.056	628.69
457.276	663.69
457.497	648.69
457.717	643.69
457.937	643.69
458.157	674.69
458.377	673.69
458.598	671.69
458.818	705.69
459.038	694.69
459.258	734.69
459.478	789.69
459.698	791.69
459.918	807.69
460.138	840.69
460.358	903.69
460.578	875.69
460.798	911.69
461.018	922.69
461.238	871.69
461.458	887.69
461.678	894.69
461.898	902.69
462.118	907.69
462.338	949.69
462.558	952.69
462.777	995.69
462.997	1097.69
463.217	1241.69
463.437	1258.69
463.657	1142.69
463.876	1055.69
464.096	1065.69
464.316	1025.69
464.536	1086.69
464.755	1027.69
464.975	965.69
465.195	915.69
465.414	876.69
465.634	814.69
465.854	804.69
466.073	793.69
466.293	772.69
466.512	734.69
466.732	742.69
466.951	727.69
467.171	738.69
467.391	757.69
467.61	747.69
467.829	753.69
468.049	725.69
468.268	693.69
468.488	686.69
468.707	702.69
468.927	690.69
469.146	694.69
469.365	701.69
469.585	724.69
469.804	715.69
470.023	738.69
470.243	759.69
470.462	766.69
470.681	769.69
470.901	742.69
471.12	723.69
471.339	741.69
471.558	707.69
471.777	735.69
471.997	689.69
472.216	693.69
472.435	698.69
472.654	689.69
472.873	665.69
473.092	671.69
473.311	682.69
473.53	654.69
473.749	681.69
473.968	690.69
474.187	667.69
474.406	668.69
474.625	693.69
474.844	673.69
475.063	713.69
475.282	676.69
475.501	695.69
475.72	680.69
475.939	689.69
476.158	704.69
476.377	695.69
476.596	706.69
476.814	710.69
477.033	734.69
477.252	755.69
477.471	763.69
477.69	762.69
477.908	763.69
478.127	794.69
478.346	809.69
478.564	834.69
478.783	835.69
479.002	871.69
479.22	890.69
479.439	859.69
479.658	837.69
479.876	838.69
480.095	845.69
480.313	919.69
480.532	917.69
480.751	908.69
480.969	890.69
481.188	851.69
481.406	823.69
481.624	829.69
481.843	788.69
482.061	805.69
482.28	793.69
482.498	795.69
482.717	789.69
482.935	805.69
483.153	804.69
483.372	786.69
483.59	793.69
483.808	799.69
484.027	809.69
484.245	788.69
484.463	791.69
484.681	833.69
484.9	829.69
485.118	827.69
485.336	835.69
485.554	838.69
485.772	842.69
485.99	867.69
486.209	860.69
486.427	853.69
486.645	833.69
486.863	850.69
487.081	862.69
487.299	838.69
487.517	858.69
487.735	854.69
487.953	838.69
488.171	866.69
488.389	822.69
488.607	813.69
488.825	813.69
489.043	818.69
489.261	816.69
489.479	820.69
489.696	813.69
489.914	852.69
490.132	819.69
490.35	821.69
490.568	825.69
490.786	826.69
491.003	831.69
491.221	825.69
491.439	824.69
491.657	831.69
491.874	856.69
492.092	834.69
492.31	850.69
492.527	847.69
492.745	848.69
492.963	846.69
493.18	857.69
493.398	871.69
493.615	869.69
493.833	853.69
494.05	868.69
494.268	863.69
494.485	901.69
494.703	870.69
494.92	877.69
495.138	855.69
495.355	846.69
495.573	853.69
495.79	879.69
496.008	873.69
496.225	877.69
496.442	885.69
496.66	901.69
496.877	871.69
497.094	919.69
497.312	950.69
497.529	935.69
497.746	967.69
497.963	996.69
498.181	1038.69
498.398	1102.69
498.615	1137.69
498.832	1201.69
499.049	1320.69
499.267	1399.69
499.484	1573.69
499.701	1732.69
499.918	1906.69
500.135	2206.69
500.352	2573.69
500.569	2701.69
500.786	2668.69
501.003	2469.69
501.22	2161.69
501.437	1880.69
501.654	1637.69
501.871	1463.69
502.088	1369.69
502.305	1276.69
502.522	1203.69
502.739	1159.69
502.956	1124.69
503.172	1077.69
503.389	1005.69
503.606	1006.69
503.823	981.69
504.04	976.69
504.256	993.69
504.473	1036.69
504.69	1010.69
504.907	1018.69
505.123	965.69
505.34	921.69
505.557	853.69
505.773	862.69
505.99	827.69
506.207	808.69
506.423	796.69
506.64	790.69
506.856	786.69
507.073	754.69
507.289	792.69
507.506	763.69
507.722	766.69
507.939	769.69
508.155	761.69
508.372	770.69
508.588	753.69
508.805	734.69
509.021	745.69
509.238	701.69
509.454	727.69
509.67	731.69
509.887	718.69
510.103	709.69
510.319	714.69
510.536	694.69
510.752	695.69
510.968	696.69
511.184	690.69
511.401	738.69
511.617	709.69
511.833	700.69
512.049	701.69
512.265	684.69
512.481	702.69
512.698	696.69
512.914	699.69
513.13	703.69
513.346	719.69
513.562	708.69
513.778	702.69
513.994	693.69
514.21	738.69
514.426	700.69
514.642	728.69
514.858	728.69
515.074	714.69
515.29	726.69
515.506	727.69
515.721	744.69
515.937	746.69
516.153	762.69
516.369	787.69
516.585	808.69
516.801	836.69
517.016	851.69
517.232	908.69
517.448	971.69
517.664	986.69
517.879	982.69
518.095	972.69
518.311	964.69
518.527	904.69
518.742	894.69
518.958	850.69
519.173	819.69
519.389	818.69
519.605	796.69
519.82	743.69
520.036	765.69
520.251	730.69
520.467	723.69
520.682	719.69
520.898	718.69
521.113	700.69
521.329	700.69
521.544	682.69
521.76	709.69
521.975	691.69
522.19	672.69
522.406	694.69
522.621	679.69
522.836	654.69
523.052	661.69
523.267	675.69
523.482	644.69
523.698	669.69
523.913	652.69
524.128	674.69
524.343	665.69
524.559	650.69
524.774	653.69
524.989	641.69
525.204	660.69
525.419	658.69
525.634	630.69
525.849	631.69
526.064	634.69
526.28	632.69
526.495	642.69
526.71	629.69
526.925	663.69
527.14	642.69
527.355	641.69
527.57	645.69
527.785	660.69
527.999	658.69
528.214	669.69
528.429	661.69
528.644	633.69
528.859	666.69
529.074	651.69
529.289	648.69
529.503	614.69
529.718	644.69
529.933	649.69
530.148	635.69
530.363	664.69
530.577	646.69
530.792	651.69
531.007	645.69
531.221	634.69
531.436	633.69
531.651	644.69
531.865	636.69
532.08	642.69
532.295	651.69
532.509	635.69
532.724	673.69
532.938	656.69
533.153	666.69
533.367	655.69
533.582	645.69
533.796	644.69
534.011	661.69
534.225	641.69
534.44	650.69
534.654	640.69
534.868	638.69
535.083	636.69
535.297	630.69
535.511	639.69
535.726	629.69
535.94	592.69
536.154	621.69
536.369	612.69
536.583	631.69
536.797	615.69
537.011	599.69
537.225	607.69
537.44	627.69
537.654	617.69
537.868	605.69
538.082	575.69
538.296	589.69
538.51	602.69
538.724	582.69
538.938	591.69
539.153	579.69
539.367	612.69
539.581	585.69
539.795	585.69
540.009	578.69
540.222	586.69
540.436	572.69
540.65	589.69
540.864	591.69
541.078	570.69
541.292	587.69
541.506	564.69
541.72	571.69
541.934	555.69
542.147	569.69
542.361	590.69
542.575	588.69
542.789	581.69
543.002	570.69
543.216	567.69
543.43	571.69
543.644	583.69
543.857	602.69
544.071	581.69
544.285	587.69
544.498	594.69
544.712	583.69
544.925	598.69
545.139	585.69
545.352	610.69
545.566	589.69
545.779	597.69
545.993	573.69
546.206	581.69
546.42	602.69
546.633	587.69
546.847	575.69
547.06	582.69
547.274	590.69
547.487	585.69
547.7	582.69
547.914	599.69
548.127	577.69
548.34	588.69
548.554	609.69
548.767	606.69
548.98	585.69
549.193	603.69
549.407	593.69
549.62	605.69
549.833	627.69
550.046	591.69
550.259	605.69
550.473	572.69
550.686	569.69
550.899	579.69
551.112	586.69
551.325	563.69
551.538	558.69
551.751	574.69
551.964	576.69
552.177	571.69
552.39	604.69
552.603	616.69
552.816	603.69
553.029	639.69
553.242	649.69
553.455	656.69
553.667	669.69
553.88	629.69
554.093	595.69
554.306	609.69
554.519	579.69
554.732	555.69
554.944	576.69
555.157	560.69
555.37	571.69
555.583	579.69
555.795	546.69
556.008	544.69
556.221	538.69
556.433	543.69
556.646	537.69
556.859	533.69
557.071	503.69
557.284	514.69
557.496	503.69
557.709	493.69
557.921	500.69
558.134	522.69
558.346	494.69
558.559	497.69
558.771	499.69
558.984	491.69
559.196	525.69
559.409	488.69
559.621	493.69
559.833	492.69
560.046	497.69
560.258	503.69
560.47	485.69
560.683	503.69
560.895	481.69
561.107	475.69
561.32	481.69
561.532	479.69
561.744	497.69
561.956	521.69
562.168	486.69
562.381	473.69
562.593	478.69
562.805	503.69
563.017	495.69
563.229	490.69
563.441	494.69
563.653	504.69
563.865	489.69
564.077	495.69
564.289	513.69
564.501	526.69
564.713	515.69
564.925	538.69
565.137	552.69
565.349	542.69
565.561	552.69
565.773	619.69
565.985	573.69
566.197	634.69
566.408	683.69
566.62	734.69
566.832	775.69
567.044	793.69
567.255	799.69
567.467	811.69
567.679	872.69
567.891	943.69
568.102	990.69
568.314	919.69
568.526	826.69
568.737	725.69
568.949	675.69
569.161	638.69
569.372	582.69
569.584	555.69
569.795	536.69
570.007	532.69
570.218	500.69
570.43	535.69
570.641	507.69
570.853	506.69
571.064	521.69
571.276	517.69
571.487	529.69
571.698	491.69
571.91	460.69
572.121	459.69
572.333	451.69
572.544	445.69
572.755	443.69
572.966	447.69
573.178	421.69
573.389	422.69
573.6	443.69
573.811	417.69
574.023	391.69
574.234	401.69
574.445	414.69
574.656	414.69
574.867	429.69
575.078	410.69
575.289	408.69
575.501	419.69
575.712	413.69
575.923	389.69
576.134	403.69
576.345	418.69
576.556	401.69
576.767	420.69
576.978	404.69
577.188	406.69
577.399	389.69
577.61	389.69
577.821	383.69
578.032	383.69
578.243	373.69
578.454	388.69
578.665	381.69
578.875	368.69
579.086	380.69
579.297	384.69
579.508	378.69
579.718	374.69
579.929	380.69
580.14	359.69
580.35	367.69
580.561	370.69
580.772	365.69
580.982	376.69
581.193	355.69
581.403	351.69
581.614	370.69
581.825	352.69
582.035	346.69
582.246	350.69
582.456	334.69
582.667	363.69
582.877	375.69
583.087	363.69
583.298	353.69
583.508	349.69
583.719	355.69
583.929	347.69
584.139	348.69
584.35	347.69
584.56	348.69
584.77	354.69
584.981	355.69
585.191	350.69
585.401	365.69
585.611	342.69
585.821	350.69
586.032	350.69
586.242	355.69
586.452	349.69
586.662	334.69
586.872	338.69
587.082	346.69
587.292	333.69
587.502	355.69
587.713	338.69
587.923	316.69
588.133	349.69
588.343	338.69
588.553	333.69
588.762	346.69
588.972	337.69
589.182	349.69
589.392	349.69
589.602	327.69
589.812	344.69
590.022	350.69
590.232	339.69
590.441	354.69
590.651	340.69
590.861	343.69
591.071	340.69
591.281	348.69
591.49	343.69
591.7	348.69
591.91	358.69
592.119	358.69
592.329	374.69
592.539	366.69
592.748	387.69
592.958	401.69
593.167	400.69
593.377	411.69
593.587	452.69
593.796	419.69
594.006	430.69
594.215	421.69
594.424	439.69
594.634	427.69
594.843	391.69
595.053	391.69
595.262	385.69
595.472	350.69
595.681	344.69
595.89	352.69
596.1	329.69
596.309	337.69
596.518	315.69
596.727	321.69
596.937	319.69
597.146	321.69
597.355	329.69
597.564	328.69
597.774	339.69
597.983	303.69
598.192	311.69
598.401	305.69
598.61	294.69
598.819	300.69
599.028	317.69
599.237	307.69
599.446	290.69
599.655	299.69
599.864	298.69
600.073	279.69
600.282	309.69
600.491	298.69
600.7	300.69
600.909	294.69
601.118	297.69
601.327	290.69
601.536	275.69
601.745	288.69
601.953	284.69
602.162	288.69
602.371	283.69
602.58	269.69
602.789	282.69
602.997	272.69
603.206	293.69
603.415	288.69
603.623	279.69
603.832	270.69
604.041	274.69
604.249	262.69
604.458	284.69
604.666	275.69
604.875	275.69
605.084	270.69
605.292	294.69
605.501	271.69
605.709	266.69
605.918	279.69
606.126	272.69
606.334	282.69
606.543	281.69
606.751	264.69
606.96	273.69
607.168	266.69
607.376	262.69
607.585	281.69
607.793	275.69
608.001	270.69
608.21	260.69
608.418	250.69
608.626	270.69
608.834	265.69
609.043	270.69
609.251	267.69
609.459	252.69
609.667	265.69
609.875	250.69
610.083	259.69
610.291	272.69
610.499	278.69
610.707	266.69
610.916	262.69
611.124	255.69
611.332	251.69
611.54	253.69
611.748	250.69
611.955	245.69
612.163	250.69
612.371	268.69
612.579	252.69
612.787	266.69
612.995	259.69
613.203	253.69
613.411	250.69
613.618	264.69
613.826	262.69
614.034	273.69
614.242	268.69
614.449	254.69
614.657	250.69
614.865	244.69
615.072	252.69
615.28	243.69
615.488	266.69
615.695	269.69
615.903	270.69
616.111	261.69
616.318	264.69
616.526	260.69
616.733	283.69
616.941	251.69
617.148	280.69
617.356	247.69
617.563	263.69
617.771	253.69
617.978	262.69
618.185	265.69
618.393	257.69
618.6	257.69
618.807	250.69
619.015	252.69
619.222	260.69
619.429	247.69
619.637	248.69
619.844	262.69
620.051	229.69
620.258	223.69
620.466	265.69
620.673	241.69
620.88	219.69
621.087	225.69
621.294	234.69
621.501	250.69
621.708	258.69
621.915	224.69
622.122	221.69
622.329	221.69
622.536	235.69
622.743	233.69
622.95	233.69
623.157	225.69
623.364	228.69
623.571	233.69
623.778	230.69
623.985	232.69
624.192	223.69
624.399	231.69
624.606	213.69
624.812	234.69
625.019	229.69
625.226	216.69
625.433	229.69
625.639	216.69
625.846	227.69
626.053	241.69
626.259	225.69
626.466	222.69
626.673	193.69
626.879	209.69
627.086	214.69
627.293	220.69
627.499	227.69
627.706	228.69
627.912	209.69
628.119	229.69
628.325	204.69
628.532	215.69
628.738	225.69
628.945	223.69
629.151	207.69
629.357	216.69
629.564	212.69
629.77	201.69
629.976	205.69
630.183	198.69
630.389	213.69
630.595	217.69
630.802	210.69
631.008	205.69
631.214	201.69
631.42	202.69
631.627	195.69
631.833	194.69
632.039	201.69
632.245	206.69
632.451	202.69
632.657	199.69
632.863	212.69
633.069	206.69
633.275	199.69
633.481	195.69
633.688	200.69
633.893	197.69
634.099	187.69
634.305	206.69
634.511	185.69
634.717	196.69
634.923	181.69
635.129	186.69
635.335	205.69
635.541	196.69
635.747	188.69
635.952	184.69
636.158	183.69
636.364	184.69
636.57	194.69
636.775	206.69
636.981	189.69
637.187	190.69
637.392	201.69
637.598	182.69
637.804	198.69
638.009	187.69
638.215	199.69
638.421	191.69
638.626	192.69
638.832	175.69
639.037	193.69
639.243	180.69
639.448	191.69
639.654	191.69
639.859	193.69
640.065	177.69
640.27	181.69
640.475	177.69
640.681	189.69
640.886	195.69
641.091	180.69
641.297	186.69
641.502	167.69
641.707	196.69
641.913	172.69
642.118	179.69
642.323	169.69
642.528	181.69
642.733	161.69
642.939	184.69
643.144	165.69
643.349	168.69
643.554	185.69
643.759	166.69
643.964	164.69
644.169	171.69
644.374	153.69
644.579	177.69
644.784	187.69
644.989	180.69
645.194	170.69
645.399	195.69
645.604	155.69
645.809	174.69
646.014	171.69
646.219	172.69
646.423	188.69
646.628	189.69
646.833	181.69
647.038	178.69
647.243	165.69
647.447	178.69
647.652	180.69
647.857	189.69
648.062	171.69
648.266	197.69
648.471	185.69
648.676	203.69
648.88	179.69
649.085	199.69
649.289	170.69
649.494	183.69
649.698	199.69
649.903	160.69
650.107	179.69
650.312	175.69
650.516	164.69
650.721	164.69
650.925	175.69
651.13	159.69
651.334	165.69
651.539	173.69
651.743	156.69
651.947	158.69
652.152	148.69
652.356	187.69
652.56	165.69
652.764	164.69
652.969	156.69
653.173	166.69
653.377	141.69
653.581	152.69
653.785	156.69
653.99	141.69
654.194	134.69
654.398	161.69
654.602	149.69
654.806	141.69
655.01	150.69
655.214	141.69
655.418	157.69
655.622	142.69
655.826	154.69
656.03	160.69
656.234	149.69
656.438	155.69
656.642	140.69
656.846	161.69
657.049	148.69
657.253	147.69
657.457	143.69
657.661	144.69
657.865	129.69
658.068	135.69
658.272	119.69
658.476	117.69
658.68	106.69
658.883	104.69
659.087	118.69
659.291	93.69
659.494	108.69
659.698	98.69
659.901	100.69
660.105	103.69
660.309	90.69
660.512	102.69
660.716	106.69
660.919	103.69
661.123	98.69
661.326	95.69
661.53	101.69
661.733	87.69
661.936	92.69
662.14	78.69
662.343	77.69
662.546	83.69
662.75	98.69
662.953	81.69
663.156	84.69
663.36	92.69
663.563	89.69
663.766	98.69
663.969	90.69
664.173	65.69
664.376	89.69
664.579	83.69
664.782	77.69
664.985	81.69
665.188	64.69
665.391	76.69
665.594	78.69
665.797	75.69
666	63.69
666.203	80.69
666.406	83.69
666.609	84.69
666.812	86.69
667.015	81.69
667.218	74.69
667.421	92.69
667.624	83.69
667.827	78.69
668.03	78.69
668.232	74.69
668.435	82.69
668.638	99.69
668.841	96.69
669.043	82.69
669.246	74.69
669.449	79.69
669.651	91.69
669.854	85.69
670.057	91.69
670.259	81.69
670.462	71.69
670.665	88.69
670.867	80.69
671.07	63.69
671.272	73.69
671.475	94.69
671.677	75.69
671.88	86.69
672.082	70.69
672.284	83.69
672.487	89.69
672.689	83.69
672.892	76.69
