Data from Ni(NO3)2@0.0625M.TitratingCurve.Agarose3%dH2O.NegLispCup.LampEnergy10.LIBS07252019_HRD10591_18-15-27-569.txt Node
Date: Thu Jul 25 18:15:27 EDT 2019
User: cochatt
Spectrometer: HR+D1059
Trigger mode: 1
Integration Time (sec): 1.000000E-1
Scans to average: 1
Electric dark correction enabled: true
Nonlinearity correction enabled: false
Boxcar width: 0
XAxis mode: Wavelengths
Number of Pixels in Spectrum: 2048
>>>>>Begin Spectral Data<<<<<
223.165	-22.31
223.4	-22.31
223.635	-22.31
223.869	-24.31
224.104	-13.31
224.338	-7.31
224.573	-9.31
224.808	-0.31
225.042	-23.31
225.277	-21.31
225.511	5.69
225.746	0.69
225.98	-0.31
226.215	16.69
226.449	20.69
226.683	20.69
226.918	19.69
227.152	37.69
227.387	41.69
227.621	31.69
227.856	40.69
228.09	51.69
228.324	53.69
228.559	53.69
228.793	62.69
229.027	102.69
229.262	123.69
229.496	110.69
229.73	111.69
229.964	117.69
230.199	148.69
230.433	130.69
230.667	139.69
230.901	148.69
231.136	122.69
231.37	136.69
231.604	131.69
231.838	136.69
232.072	123.69
232.306	152.69
232.541	149.69
232.775	154.69
233.009	147.69
233.243	148.69
233.477	147.69
233.711	146.69
233.945	139.69
234.179	142.69
234.413	130.69
234.647	146.69
234.881	150.69
235.115	161.69
235.349	149.69
235.583	142.69
235.817	147.69
236.051	135.69
236.285	124.69
236.519	165.69
236.753	152.69
236.987	185.69
237.221	158.69
237.455	168.69
237.689	149.69
237.922	155.69
238.156	154.69
238.39	166.69
238.624	149.69
238.858	161.69
239.091	169.69
239.325	184.69
239.559	167.69
239.793	176.69
240.027	178.69
240.26	188.69
240.494	188.69
240.728	180.69
240.961	194.69
241.195	183.69
241.429	183.69
241.662	187.69
241.896	195.69
242.13	179.69
242.363	184.69
242.597	187.69
242.83	210.69
243.064	204.69
243.298	208.69
243.531	201.69
243.765	197.69
243.998	215.69
244.232	207.69
244.465	203.69
244.699	209.69
244.932	208.69
245.166	224.69
245.399	209.69
245.633	208.69
245.866	210.69
246.099	217.69
246.333	214.69
246.566	213.69
246.8	204.69
247.033	222.69
247.266	220.69
247.5	219.69
247.733	234.69
247.966	256.69
248.2	238.69
248.433	235.69
248.666	249.69
248.899	244.69
249.133	220.69
249.366	248.69
249.599	256.69
249.832	246.69
250.066	264.69
250.299	254.69
250.532	264.69
250.765	262.69
250.998	241.69
251.231	245.69
251.465	244.69
251.698	252.69
251.931	244.69
252.164	267.69
252.397	262.69
252.63	281.69
252.863	284.69
253.096	281.69
253.329	284.69
253.562	273.69
253.795	274.69
254.028	267.69
254.261	264.69
254.494	274.69
254.727	267.69
254.96	283.69
255.193	302.69
255.426	272.69
255.659	295.69
255.892	285.69
256.124	283.69
256.357	272.69
256.59	303.69
256.823	286.69
257.056	291.69
257.289	306.69
257.521	296.69
257.754	306.69
257.987	317.69
258.22	310.69
258.452	281.69
258.685	317.69
258.918	325.69
259.151	308.69
259.383	323.69
259.616	311.69
259.849	321.69
260.081	328.69
260.314	305.69
260.547	328.69
260.779	313.69
261.012	338.69
261.244	322.69
261.477	323.69
261.71	321.69
261.942	324.69
262.175	309.69
262.407	322.69
262.64	318.69
262.872	336.69
263.105	328.69
263.337	348.69
263.57	336.69
263.802	345.69
264.035	332.69
264.267	322.69
264.499	346.69
264.732	344.69
264.964	346.69
265.197	344.69
265.429	352.69
265.661	346.69
265.894	358.69
266.126	364.69
266.358	347.69
266.591	342.69
266.823	363.69
267.055	362.69
267.287	378.69
267.52	352.69
267.752	354.69
267.984	383.69
268.216	377.69
268.448	375.69
268.681	373.69
268.913	378.69
269.145	389.69
269.377	374.69
269.609	373.69
269.841	364.69
270.073	378.69
270.306	362.69
270.538	380.69
270.77	363.69
271.002	384.69
271.234	382.69
271.466	377.69
271.698	401.69
271.93	397.69
272.162	414.69
272.394	376.69
272.626	367.69
272.858	399.69
273.09	404.69
273.322	399.69
273.553	402.69
273.785	405.69
274.017	396.69
274.249	405.69
274.481	407.69
274.713	398.69
274.945	400.69
275.176	416.69
275.408	405.69
275.64	418.69
275.872	418.69
276.104	400.69
276.335	407.69
276.567	422.69
276.799	434.69
277.031	437.69
277.262	434.69
277.494	424.69
277.726	423.69
277.957	417.69
278.189	447.69
278.421	431.69
278.652	430.69
278.884	441.69
279.115	452.69
279.347	445.69
279.579	455.69
279.81	435.69
280.042	436.69
280.273	452.69
280.505	447.69
280.736	459.69
280.968	434.69
281.199	436.69
281.431	461.69
281.662	457.69
281.894	476.69
282.125	471.69
282.356	459.69
282.588	456.69
282.819	462.69
283.051	475.69
283.282	459.69
283.513	501.69
283.745	500.69
283.976	476.69
284.207	471.69
284.439	463.69
284.67	490.69
284.901	498.69
285.132	483.69
285.364	466.69
285.595	484.69
285.826	498.69
286.057	509.69
286.288	524.69
286.52	494.69
286.751	491.69
286.982	505.69
287.213	494.69
287.444	499.69
287.675	537.69
287.906	517.69
288.138	513.69
288.369	516.69
288.6	515.69
288.831	527.69
289.062	512.69
289.293	500.69
289.524	498.69
289.755	517.69
289.986	516.69
290.217	522.69
290.448	531.69
290.679	528.69
290.91	524.69
291.141	537.69
291.371	522.69
291.602	530.69
291.833	508.69
292.064	549.69
292.295	511.69
292.526	531.69
292.757	528.69
292.987	522.69
293.218	531.69
293.449	552.69
293.68	536.69
293.91	513.69
294.141	559.69
294.372	542.69
294.603	560.69
294.833	523.69
295.064	548.69
295.295	561.69
295.525	542.69
295.756	544.69
295.987	565.69
296.217	539.69
296.448	548.69
296.679	574.69
296.909	563.69
297.14	539.69
297.37	556.69
297.601	566.69
297.831	559.69
298.062	570.69
298.292	576.69
298.523	572.69
298.753	586.69
298.984	598.69
299.214	566.69
299.445	586.69
299.675	572.69
299.905	599.69
300.136	577.69
300.366	570.69
300.597	594.69
300.827	599.69
301.057	630.69
301.288	604.69
301.518	613.69
301.748	593.69
301.979	611.69
302.209	624.69
302.439	612.69
302.669	600.69
302.9	588.69
303.13	591.69
303.36	611.69
303.59	593.69
303.82	599.69
304.051	590.69
304.281	600.69
304.511	586.69
304.741	592.69
304.971	611.69
305.201	598.69
305.431	587.69
305.661	607.69
305.891	615.69
306.121	576.69
306.352	610.69
306.582	615.69
306.812	567.69
307.042	598.69
307.272	599.69
307.502	588.69
307.731	594.69
307.961	588.69
308.191	572.69
308.421	597.69
308.651	582.69
308.881	570.69
309.111	574.69
309.341	546.69
309.571	580.69
309.8	610.69
310.03	598.69
310.26	601.69
310.49	585.69
310.72	594.69
310.949	607.69
311.179	578.69
311.409	607.69
311.639	598.69
311.868	601.69
312.098	606.69
312.328	631.69
312.557	616.69
312.787	620.69
313.017	626.69
313.246	638.69
313.476	633.69
313.706	635.69
313.935	635.69
314.165	660.69
314.394	660.69
314.624	640.69
314.853	641.69
315.083	643.69
315.312	635.69
315.542	631.69
315.771	638.69
316.001	611.69
316.23	645.69
316.46	619.69
316.689	598.69
316.919	633.69
317.148	638.69
317.377	608.69
317.607	612.69
317.836	616.69
318.065	615.69
318.295	625.69
318.524	625.69
318.753	617.69
318.983	630.69
319.212	606.69
319.441	628.69
319.67	621.69
319.9	609.69
320.129	612.69
320.358	631.69
320.587	630.69
320.816	643.69
321.046	639.69
321.275	627.69
321.504	637.69
321.733	645.69
321.962	628.69
322.191	632.69
322.42	629.69
322.649	641.69
322.878	628.69
323.108	635.69
323.337	654.69
323.566	644.69
323.795	662.69
324.024	672.69
324.253	640.69
324.482	647.69
324.71	656.69
324.939	676.69
325.168	675.69
325.397	660.69
325.626	646.69
325.855	657.69
326.084	694.69
326.313	714.69
326.542	707.69
326.77	692.69
326.999	685.69
327.228	677.69
327.457	676.69
327.686	688.69
327.914	672.69
328.143	674.69
328.372	684.69
328.6	707.69
328.829	696.69
329.058	708.69
329.287	696.69
329.515	692.69
329.744	679.69
329.972	702.69
330.201	698.69
330.43	694.69
330.658	679.69
330.887	730.69
331.115	745.69
331.344	695.69
331.572	727.69
331.801	748.69
332.03	766.69
332.258	784.69
332.486	786.69
332.715	828.69
332.943	862.69
333.172	910.69
333.4	948.69
333.629	947.69
333.857	931.69
334.085	930.69
334.314	903.69
334.542	868.69
334.771	898.69
334.999	886.69
335.227	830.69
335.455	880.69
335.684	852.69
335.912	828.69
336.14	826.69
336.369	843.69
336.597	847.69
336.825	819.69
337.053	849.69
337.281	802.69
337.51	787.69
337.738	792.69
337.966	770.69
338.194	776.69
338.422	788.69
338.65	744.69
338.878	770.69
339.106	754.69
339.334	763.69
339.562	762.69
339.79	729.69
340.018	709.69
340.246	710.69
340.474	719.69
340.702	709.69
340.93	738.69
341.158	743.69
341.386	745.69
341.614	740.69
341.842	734.69
342.07	706.69
342.298	686.69
342.526	707.69
342.754	733.69
342.981	705.69
343.209	718.69
343.437	768.69
343.665	818.69
343.893	892.69
344.12	908.69
344.348	870.69
344.576	826.69
344.804	776.69
345.031	743.69
345.259	746.69
345.487	735.69
345.714	704.69
345.942	723.69
346.17	741.69
346.397	726.69
346.625	723.69
346.853	705.69
347.08	691.69
347.308	699.69
347.535	708.69
347.763	700.69
347.99	695.69
348.218	707.69
348.445	703.69
348.673	695.69
348.9	696.69
349.128	681.69
349.355	684.69
349.583	721.69
349.81	700.69
350.037	687.69
350.265	666.69
350.492	674.69
350.72	675.69
350.947	665.69
351.174	694.69
351.402	663.69
351.629	667.69
351.856	648.69
352.083	680.69
352.311	672.69
352.538	692.69
352.765	665.69
352.992	660.69
353.22	652.69
353.447	653.69
353.674	672.69
353.901	650.69
354.128	676.69
354.355	666.69
354.583	675.69
354.81	697.69
355.037	692.69
355.264	690.69
355.491	661.69
355.718	681.69
355.945	665.69
356.172	678.69
356.399	661.69
356.626	714.69
356.853	696.69
357.08	699.69
357.307	694.69
357.534	683.69
357.761	699.69
357.988	672.69
358.215	658.69
358.441	680.69
358.668	650.69
358.895	662.69
359.122	670.69
359.349	658.69
359.576	675.69
359.802	696.69
360.029	690.69
360.256	683.69
360.483	692.69
360.709	679.69
360.936	678.69
361.163	698.69
361.39	672.69
361.616	672.69
361.843	674.69
362.07	683.69
362.296	693.69
362.523	660.69
362.749	680.69
362.976	679.69
363.203	678.69
363.429	671.69
363.656	680.69
363.882	675.69
364.109	646.69
364.335	670.69
364.562	662.69
364.788	680.69
365.015	666.69
365.241	659.69
365.468	675.69
365.694	665.69
365.92	655.69
366.147	664.69
366.373	683.69
366.599	682.69
366.826	670.69
367.052	660.69
367.278	686.69
367.505	694.69
367.731	663.69
367.957	686.69
368.184	670.69
368.41	694.69
368.636	688.69
368.862	670.69
369.089	699.69
369.315	705.69
369.541	711.69
369.767	715.69
369.993	694.69
370.219	707.69
370.445	716.69
370.672	720.69
370.898	724.69
371.124	725.69
371.35	750.69
371.576	728.69
371.802	736.69
372.028	735.69
372.254	761.69
372.48	751.69
372.706	746.69
372.932	771.69
373.158	764.69
373.384	762.69
373.61	720.69
373.835	722.69
374.061	733.69
374.287	764.69
374.513	774.69
374.739	769.69
374.965	791.69
375.191	820.69
375.416	797.69
375.642	783.69
375.868	799.69
376.094	761.69
376.319	726.69
376.545	732.69
376.771	753.69
376.997	752.69
377.222	755.69
377.448	746.69
377.674	740.69
377.899	734.69
378.125	736.69
378.35	739.69
378.576	711.69
378.802	703.69
379.027	739.69
379.253	725.69
379.478	741.69
379.704	740.69
379.929	725.69
380.155	726.69
380.38	726.69
380.606	728.69
380.831	738.69
381.057	746.69
381.282	750.69
381.507	725.69
381.733	744.69
381.958	748.69
382.184	777.69
382.409	779.69
382.634	787.69
382.86	772.69
383.085	807.69
383.31	790.69
383.535	816.69
383.761	849.69
383.986	844.69
384.211	862.69
384.436	858.69
384.662	861.69
384.887	891.69
385.112	890.69
385.337	895.69
385.562	887.69
385.787	898.69
386.013	925.69
386.238	886.69
386.463	888.69
386.688	921.69
386.913	896.69
387.138	883.69
387.363	865.69
387.588	894.69
387.813	856.69
388.038	872.69
388.263	850.69
388.488	881.69
388.713	863.69
388.938	874.69
389.163	843.69
389.387	856.69
389.612	834.69
389.837	847.69
390.062	855.69
390.287	870.69
390.512	862.69
390.736	866.69
390.961	899.69
391.186	906.69
391.411	949.69
391.636	969.69
391.86	991.69
392.085	998.69
392.31	999.69
392.534	969.69
392.759	954.69
392.984	959.69
393.208	933.69
393.433	927.69
393.658	937.69
393.882	953.69
394.107	956.69
394.331	960.69
394.556	943.69
394.78	970.69
395.005	969.69
395.229	969.69
395.454	991.69
395.678	1008.69
395.903	1011.69
396.127	1000.69
396.352	926.69
396.576	925.69
396.801	931.69
397.025	954.69
397.249	952.69
397.474	985.69
397.698	978.69
397.922	992.69
398.147	963.69
398.371	972.69
398.595	1018.69
398.82	1074.69
399.044	1181.69
399.268	1290.69
399.492	1507.69
399.717	1752.69
399.941	1723.69
400.165	1490.69
400.389	1305.69
400.613	1216.69
400.837	1134.69
401.062	1104.69
401.286	1112.69
401.51	1111.69
401.734	1092.69
401.958	1129.69
402.182	1130.69
402.406	1124.69
402.63	1175.69
402.854	1208.69
403.078	1220.69
403.302	1255.69
403.526	1229.69
403.75	1267.69
403.974	1298.69
404.198	1316.69
404.422	1311.69
404.645	1257.69
404.869	1262.69
405.093	1233.69
405.317	1190.69
405.541	1238.69
405.765	1231.69
405.988	1148.69
406.212	1223.69
406.436	1232.69
406.66	1242.69
406.883	1240.69
407.107	1353.69
407.331	1371.69
407.555	1470.69
407.778	1448.69
408.002	1417.69
408.226	1365.69
408.449	1308.69
408.673	1255.69
408.896	1259.69
409.12	1230.69
409.344	1262.69
409.567	1232.69
409.791	1276.69
410.014	1267.69
410.238	1232.69
410.461	1224.69
410.685	1225.69
410.908	1211.69
411.132	1207.69
411.355	1164.69
411.578	1165.69
411.802	1151.69
412.025	1145.69
412.249	1138.69
412.472	1164.69
412.695	1127.69
412.919	1129.69
413.142	1115.69
413.365	1099.69
413.589	1154.69
413.812	1073.69
414.035	1093.69
414.258	1113.69
414.482	1087.69
414.705	1129.69
414.928	1142.69
415.151	1127.69
415.374	1067.69
415.597	1118.69
415.821	1075.69
416.044	1066.69
416.267	1072.69
416.49	1054.69
416.713	1095.69
416.936	1093.69
417.159	1062.69
417.382	1061.69
417.605	1083.69
417.828	1091.69
418.051	1101.69
418.274	1142.69
418.497	1108.69
418.72	1118.69
418.943	1129.69
419.166	1148.69
419.389	1275.69
419.611	1257.69
419.834	1177.69
420.057	1157.69
420.28	1120.69
420.503	1070.69
420.726	1082.69
420.948	1078.69
421.171	1106.69
421.394	1086.69
421.617	1072.69
421.839	1102.69
422.062	1084.69
422.285	1068.69
422.507	1108.69
422.73	1087.69
422.953	1132.69
423.175	1148.69
423.398	1169.69
423.621	1131.69
423.843	1152.69
424.066	1172.69
424.288	1183.69
424.511	1174.69
424.733	1153.69
424.956	1104.69
425.178	1113.69
425.401	1091.69
425.623	1110.69
425.846	1067.69
426.068	1052.69
426.291	1031.69
426.513	1015.69
426.735	1014.69
426.958	1028.69
427.18	985.69
427.402	978.69
427.625	993.69
427.847	979.69
428.069	956.69
428.292	964.69
428.514	935.69
428.736	934.69
428.958	937.69
429.181	937.69
429.403	953.69
429.625	947.69
429.847	903.69
430.069	936.69
430.292	930.69
430.514	935.69
430.736	946.69
430.958	963.69
431.18	936.69
431.402	939.69
431.624	955.69
431.846	983.69
432.068	983.69
432.29	985.69
432.512	937.69
432.734	970.69
432.956	978.69
433.178	976.69
433.4	977.69
433.622	969.69
433.844	997.69
434.066	992.69
434.287	994.69
434.509	1032.69
434.731	1054.69
434.953	1117.69
435.175	1109.69
435.397	1120.69
435.618	1058.69
435.84	1033.69
436.062	998.69
436.284	962.69
436.505	936.69
436.727	997.69
436.949	966.69
437.17	952.69
437.392	943.69
437.614	952.69
437.835	927.69
438.057	934.69
438.278	916.69
438.5	916.69
438.721	910.69
438.943	929.69
439.165	935.69
439.386	942.69
439.608	969.69
439.829	976.69
440.05	964.69
440.272	979.69
440.493	982.69
440.715	1014.69
440.936	970.69
441.158	1023.69
441.379	1038.69
441.6	1087.69
441.822	1132.69
442.043	1099.69
442.264	1093.69
442.486	1054.69
442.707	1046.69
442.928	1084.69
443.149	1081.69
443.371	1056.69
443.592	1052.69
443.813	1054.69
444.034	1100.69
444.255	1137.69
444.476	1177.69
444.698	1278.69
444.919	1339.69
445.14	1410.69
445.361	1230.69
445.582	1127.69
445.803	1064.69
446.024	1025.69
446.245	999.69
446.466	1013.69
446.687	942.69
446.908	968.69
447.129	961.69
447.35	914.69
447.571	922.69
447.792	919.69
448.013	926.69
448.234	862.69
448.455	882.69
448.675	894.69
448.896	892.69
449.117	886.69
449.338	884.69
449.559	872.69
449.779	887.69
450	857.69
450.221	863.69
450.442	892.69
450.662	921.69
450.883	897.69
451.104	948.69
451.324	900.69
451.545	901.69
451.766	896.69
451.986	896.69
452.207	903.69
452.428	914.69
452.648	900.69
452.869	852.69
453.089	858.69
453.31	882.69
453.53	878.69
453.751	875.69
453.971	869.69
454.192	850.69
454.412	854.69
454.633	864.69
454.853	867.69
455.073	823.69
455.294	830.69
455.514	838.69
455.734	835.69
455.955	826.69
456.175	816.69
456.395	817.69
456.616	822.69
456.836	831.69
457.056	808.69
457.276	801.69
457.497	835.69
457.717	826.69
457.937	828.69
458.157	867.69
458.377	824.69
458.598	842.69
458.818	888.69
459.038	942.69
459.258	968.69
459.478	993.69
459.698	1057.69
459.918	1048.69
460.138	1068.69
460.358	1130.69
460.578	1129.69
460.798	1137.69
461.018	1154.69
461.238	1114.69
461.458	1154.69
461.678	1135.69
461.898	1132.69
462.118	1160.69
462.338	1211.69
462.558	1252.69
462.777	1281.69
462.997	1388.69
463.217	1539.69
463.437	1615.69
463.657	1425.69
463.876	1368.69
464.096	1390.69
464.316	1368.69
464.536	1397.69
464.755	1298.69
464.975	1257.69
465.195	1180.69
465.414	1126.69
465.634	1047.69
465.854	1028.69
466.073	980.69
466.293	964.69
466.512	942.69
466.732	938.69
466.951	924.69
467.171	909.69
467.391	915.69
467.61	931.69
467.829	931.69
468.049	913.69
468.268	896.69
468.488	858.69
468.707	852.69
468.927	883.69
469.146	875.69
469.365	905.69
469.585	894.69
469.804	939.69
470.023	937.69
470.243	931.69
470.462	966.69
470.681	938.69
470.901	960.69
471.12	963.69
471.339	935.69
471.558	905.69
471.777	907.69
471.997	918.69
472.216	880.69
472.435	875.69
472.654	863.69
472.873	851.69
473.092	870.69
473.311	864.69
473.53	850.69
473.749	854.69
473.968	863.69
474.187	830.69
474.406	836.69
474.625	864.69
474.844	895.69
475.063	876.69
475.282	898.69
475.501	878.69
475.72	883.69
475.939	886.69
476.158	882.69
476.377	920.69
476.596	917.69
476.814	921.69
477.033	915.69
477.252	959.69
477.471	955.69
477.69	996.69
477.908	974.69
478.127	1026.69
478.346	1082.69
478.564	1057.69
478.783	1066.69
479.002	1098.69
479.22	1108.69
479.439	1112.69
479.658	1089.69
479.876	1089.69
480.095	1115.69
480.313	1140.69
480.532	1179.69
480.751	1190.69
480.969	1146.69
481.188	1096.69
481.406	1067.69
481.624	1046.69
481.843	1035.69
482.061	1002.69
482.28	998.69
482.498	1001.69
482.717	968.69
482.935	1007.69
483.153	998.69
483.372	965.69
483.59	995.69
483.808	998.69
484.027	985.69
484.245	1029.69
484.463	1024.69
484.681	1055.69
484.9	1023.69
485.118	1046.69
485.336	1042.69
485.554	1023.69
485.772	1066.69
485.99	1060.69
486.209	1076.69
486.427	1082.69
486.645	1074.69
486.863	1057.69
487.081	1028.69
487.299	1044.69
487.517	1062.69
487.735	1030.69
487.953	1060.69
488.171	1059.69
488.389	1062.69
488.607	1028.69
488.825	1012.69
489.043	1053.69
489.261	1026.69
489.479	1013.69
489.696	1061.69
489.914	1073.69
490.132	1042.69
490.35	1049.69
490.568	1019.69
490.786	1063.69
491.003	1030.69
491.221	1024.69
491.439	1053.69
491.657	1054.69
491.874	1043.69
492.092	1018.69
492.31	1052.69
492.527	1034.69
492.745	1094.69
492.963	1052.69
493.18	1074.69
493.398	1041.69
493.615	1086.69
493.833	1099.69
494.05	1078.69
494.268	1120.69
494.485	1101.69
494.703	1094.69
494.92	1148.69
495.138	1076.69
495.355	1087.69
495.573	1097.69
495.79	1111.69
496.008	1122.69
496.225	1118.69
496.442	1110.69
496.66	1161.69
496.877	1149.69
497.094	1150.69
497.312	1161.69
497.529	1205.69
497.746	1256.69
497.963	1239.69
498.181	1339.69
498.398	1376.69
498.615	1481.69
498.832	1578.69
499.049	1671.69
499.267	1800.69
499.484	2012.69
499.701	2199.69
499.918	2393.69
500.135	2803.69
500.352	3281.69
500.569	3439.69
500.786	3403.69
501.003	3157.69
501.22	2748.69
501.437	2452.69
501.654	2119.69
501.871	1904.69
502.088	1755.69
502.305	1670.69
502.522	1550.69
502.739	1476.69
502.956	1415.69
503.172	1356.69
503.389	1271.69
503.606	1273.69
503.823	1228.69
504.04	1247.69
504.256	1272.69
504.473	1284.69
504.69	1356.69
504.907	1298.69
505.123	1191.69
505.34	1147.69
505.557	1098.69
505.773	1048.69
505.99	1032.69
506.207	1027.69
506.423	1002.69
506.64	998.69
506.856	975.69
507.073	999.69
507.289	976.69
507.506	975.69
507.722	952.69
507.939	944.69
508.155	958.69
508.372	938.69
508.588	911.69
508.805	906.69
509.021	911.69
509.238	912.69
509.454	890.69
509.67	903.69
509.887	903.69
510.103	911.69
510.319	894.69
510.536	894.69
510.752	906.69
510.968	882.69
511.184	880.69
511.401	865.69
511.617	898.69
511.833	896.69
512.049	847.69
512.265	888.69
512.481	895.69
512.698	865.69
512.914	872.69
513.13	885.69
513.346	886.69
513.562	874.69
513.778	891.69
513.994	878.69
514.21	899.69
514.426	899.69
514.642	896.69
514.858	897.69
515.074	903.69
515.29	908.69
515.506	916.69
515.721	942.69
515.937	944.69
516.153	947.69
516.369	985.69
516.585	1036.69
516.801	1042.69
517.016	1086.69
517.232	1141.69
517.448	1185.69
517.664	1221.69
517.879	1264.69
518.095	1243.69
518.311	1249.69
518.527	1176.69
518.742	1100.69
518.958	1094.69
519.173	1054.69
519.389	1003.69
519.605	978.69
519.82	921.69
520.036	943.69
520.251	914.69
520.467	904.69
520.682	898.69
520.898	910.69
521.113	883.69
521.329	867.69
521.544	847.69
521.76	853.69
521.975	833.69
522.19	834.69
522.406	863.69
522.621	838.69
522.836	832.69
523.052	844.69
523.267	833.69
523.482	826.69
523.698	811.69
523.913	847.69
524.128	791.69
524.343	833.69
524.559	811.69
524.774	795.69
524.989	807.69
525.204	807.69
525.419	791.69
525.634	796.69
525.849	802.69
526.064	811.69
526.28	788.69
526.495	780.69
526.71	802.69
526.925	815.69
527.14	794.69
527.355	780.69
527.57	825.69
527.785	809.69
527.999	783.69
528.214	771.69
528.429	792.69
528.644	803.69
528.859	791.69
529.074	801.69
529.289	800.69
529.503	759.69
529.718	787.69
529.933	770.69
530.148	781.69
530.363	802.69
530.577	773.69
530.792	800.69
531.007	824.69
531.221	792.69
531.436	808.69
531.651	795.69
531.865	803.69
532.08	814.69
532.295	786.69
532.509	786.69
532.724	810.69
532.938	820.69
533.153	795.69
533.367	785.69
533.582	801.69
533.796	799.69
534.011	795.69
534.225	776.69
534.44	779.69
534.654	774.69
534.868	781.69
535.083	796.69
535.297	768.69
535.511	777.69
535.726	763.69
535.94	768.69
536.154	782.69
536.369	759.69
536.583	714.69
536.797	740.69
537.011	737.69
537.225	726.69
537.44	755.69
537.654	745.69
537.868	731.69
538.082	727.69
538.296	717.69
538.51	713.69
538.724	721.69
538.938	737.69
539.153	716.69
539.367	721.69
539.581	744.69
539.795	711.69
540.009	732.69
540.222	726.69
540.436	715.69
540.65	694.69
540.864	719.69
541.078	701.69
541.292	719.69
541.506	704.69
541.72	719.69
541.934	713.69
542.147	702.69
542.361	723.69
542.575	721.69
542.789	708.69
543.002	676.69
543.216	719.69
543.43	698.69
543.644	699.69
543.857	686.69
544.071	683.69
544.285	694.69
544.498	686.69
544.712	693.69
544.925	695.69
545.139	718.69
545.352	715.69
545.566	718.69
545.779	728.69
545.993	731.69
546.206	719.69
546.42	720.69
546.633	730.69
546.847	706.69
547.06	704.69
547.274	707.69
547.487	699.69
547.7	742.69
547.914	724.69
548.127	725.69
548.34	724.69
548.554	744.69
548.767	715.69
548.98	703.69
549.193	726.69
549.407	728.69
549.62	754.69
549.833	767.69
550.046	750.69
550.259	736.69
550.473	735.69
550.686	707.69
550.899	714.69
551.112	699.69
551.325	736.69
551.538	683.69
551.751	687.69
551.964	695.69
552.177	727.69
552.39	703.69
552.603	741.69
552.816	758.69
553.029	778.69
553.242	781.69
553.455	779.69
553.667	830.69
553.88	812.69
554.093	766.69
554.306	756.69
554.519	696.69
554.732	704.69
554.944	713.69
555.157	686.69
555.37	666.69
555.583	693.69
555.795	651.69
556.008	670.69
556.221	648.69
556.433	614.69
556.646	638.69
556.859	644.69
557.071	634.69
557.284	638.69
557.496	636.69
557.709	632.69
557.921	601.69
558.134	598.69
558.346	594.69
558.559	586.69
558.771	594.69
558.984	586.69
559.196	610.69
559.409	601.69
559.621	611.69
559.833	596.69
560.046	619.69
560.258	588.69
560.47	586.69
560.683	589.69
560.895	575.69
561.107	595.69
561.32	578.69
561.532	587.69
561.744	587.69
561.956	610.69
562.168	608.69
562.381	609.69
562.593	601.69
562.805	593.69
563.017	603.69
563.229	605.69
563.441	599.69
563.653	599.69
563.865	613.69
564.077	592.69
564.289	597.69
564.501	623.69
564.713	616.69
564.925	639.69
565.137	640.69
565.349	678.69
565.561	692.69
565.773	712.69
565.985	754.69
566.197	761.69
566.408	825.69
566.62	921.69
566.832	999.69
567.044	1001.69
567.255	969.69
567.467	983.69
567.679	1077.69
567.891	1151.69
568.102	1216.69
568.314	1163.69
568.526	1034.69
568.737	938.69
568.949	842.69
569.161	774.69
569.372	726.69
569.584	652.69
569.795	665.69
570.007	652.69
570.218	603.69
570.43	614.69
570.641	607.69
570.853	626.69
571.064	638.69
571.276	630.69
571.487	628.69
571.698	580.69
571.91	574.69
572.121	567.69
572.333	548.69
572.544	519.69
572.755	500.69
572.966	516.69
573.178	516.69
573.389	494.69
573.6	514.69
573.811	511.69
574.023	511.69
574.234	500.69
574.445	488.69
574.656	483.69
574.867	491.69
575.078	477.69
575.289	482.69
575.501	465.69
575.712	465.69
575.923	481.69
576.134	477.69
576.345	462.69
576.556	471.69
576.767	480.69
576.978	468.69
577.188	439.69
577.399	455.69
577.61	458.69
577.821	448.69
578.032	466.69
578.243	441.69
578.454	446.69
578.665	455.69
578.875	437.69
579.086	444.69
579.297	443.69
579.508	419.69
579.718	442.69
579.929	432.69
580.14	427.69
580.35	418.69
580.561	409.69
580.772	432.69
580.982	417.69
581.193	431.69
581.403	416.69
581.614	435.69
581.825	427.69
582.035	403.69
582.246	418.69
582.456	416.69
582.667	430.69
582.877	403.69
583.087	429.69
583.298	395.69
583.508	393.69
583.719	414.69
583.929	425.69
584.139	395.69
584.35	408.69
584.56	372.69
584.77	407.69
584.981	422.69
585.191	403.69
585.401	411.69
585.611	410.69
585.821	409.69
586.032	412.69
586.242	392.69
586.452	391.69
586.662	383.69
586.872	392.69
587.082	402.69
587.292	412.69
587.502	413.69
587.713	408.69
587.923	393.69
588.133	406.69
588.343	385.69
588.553	386.69
588.762	399.69
588.972	417.69
589.182	381.69
589.392	389.69
589.602	395.69
589.812	403.69
590.022	391.69
590.232	380.69
590.441	382.69
590.651	384.69
590.861	397.69
591.071	427.69
591.281	432.69
591.49	406.69
591.7	424.69
591.91	430.69
592.119	416.69
592.329	441.69
592.539	470.69
592.748	460.69
592.958	460.69
593.167	503.69
593.377	522.69
593.587	498.69
593.796	529.69
594.006	507.69
594.215	542.69
594.424	508.69
594.634	497.69
594.843	482.69
595.053	476.69
595.262	437.69
595.472	422.69
595.681	416.69
595.89	430.69
596.1	409.69
596.309	406.69
596.518	403.69
596.727	386.69
596.937	366.69
597.146	350.69
597.355	372.69
597.564	368.69
597.774	350.69
597.983	344.69
598.192	353.69
598.401	328.69
598.61	340.69
598.819	353.69
599.028	340.69
599.237	328.69
599.446	327.69
599.655	354.69
599.864	340.69
600.073	351.69
600.282	331.69
600.491	336.69
600.7	338.69
600.909	321.69
601.118	355.69
601.327	330.69
601.536	336.69
601.745	336.69
601.953	339.69
602.162	332.69
602.371	328.69
602.58	325.69
602.789	306.69
602.997	315.69
603.206	318.69
603.415	316.69
603.623	323.69
603.832	319.69
604.041	308.69
604.249	317.69
604.458	324.69
604.666	311.69
604.875	308.69
605.084	304.69
605.292	320.69
605.501	296.69
605.709	299.69
605.918	300.69
606.126	302.69
606.334	296.69
606.543	300.69
606.751	319.69
606.96	310.69
607.168	310.69
607.376	305.69
607.585	308.69
607.793	310.69
608.001	309.69
608.21	297.69
608.418	298.69
608.626	298.69
608.834	291.69
609.043	300.69
609.251	299.69
609.459	295.69
609.667	305.69
609.875	317.69
610.083	291.69
610.291	297.69
610.499	292.69
610.707	282.69
610.916	287.69
611.124	309.69
611.332	297.69
611.54	306.69
611.748	295.69
611.955	286.69
612.163	283.69
612.371	291.69
612.579	287.69
612.787	304.69
612.995	291.69
613.203	291.69
613.411	294.69
613.618	311.69
613.826	286.69
614.034	322.69
614.242	297.69
614.449	303.69
614.657	289.69
614.865	283.69
615.072	298.69
615.28	297.69
615.488	266.69
615.695	289.69
615.903	308.69
616.111	290.69
616.318	306.69
616.526	297.69
616.733	291.69
616.941	306.69
617.148	281.69
617.356	277.69
617.563	304.69
617.771	274.69
617.978	277.69
618.185	287.69
618.393	282.69
618.6	291.69
618.807	283.69
619.015	290.69
619.222	286.69
619.429	314.69
619.637	298.69
619.844	287.69
620.051	278.69
620.258	264.69
620.466	263.69
620.673	255.69
620.88	247.69
621.087	275.69
621.294	263.69
621.501	276.69
621.708	274.69
621.915	239.69
622.122	274.69
622.329	245.69
622.536	254.69
622.743	264.69
622.95	271.69
623.157	265.69
623.364	267.69
623.571	266.69
623.778	260.69
623.985	267.69
624.192	264.69
624.399	262.69
624.606	251.69
624.812	239.69
625.019	254.69
625.226	244.69
625.433	244.69
625.639	238.69
625.846	254.69
626.053	236.69
626.259	224.69
626.466	254.69
626.673	248.69
626.879	240.69
627.086	245.69
627.293	249.69
627.499	251.69
627.706	233.69
627.912	227.69
628.119	242.69
628.325	219.69
628.532	229.69
628.738	234.69
628.945	226.69
629.151	236.69
629.357	254.69
629.564	234.69
629.77	241.69
629.976	216.69
630.183	212.69
630.389	227.69
630.595	223.69
630.802	221.69
631.008	216.69
631.214	232.69
631.42	217.69
631.627	244.69
631.833	221.69
632.039	213.69
632.245	207.69
632.451	214.69
632.657	201.69
632.863	230.69
633.069	207.69
633.275	218.69
633.481	234.69
633.688	195.69
633.893	211.69
634.099	238.69
634.305	206.69
634.511	207.69
634.717	217.69
634.923	214.69
635.129	211.69
635.335	207.69
635.541	200.69
635.747	200.69
635.952	207.69
636.158	208.69
636.364	223.69
636.57	219.69
636.775	182.69
636.981	192.69
637.187	223.69
637.392	213.69
637.598	210.69
637.804	216.69
638.009	205.69
638.215	198.69
638.421	201.69
638.626	207.69
638.832	213.69
639.037	200.69
639.243	189.69
639.448	201.69
639.654	209.69
639.859	198.69
640.065	195.69
640.27	193.69
640.475	189.69
640.681	202.69
640.886	204.69
641.091	186.69
641.297	201.69
641.502	204.69
641.707	195.69
641.913	191.69
642.118	185.69
642.323	192.69
642.528	218.69
642.733	187.69
642.939	193.69
643.144	195.69
643.349	186.69
643.554	185.69
643.759	196.69
643.964	192.69
644.169	192.69
644.374	188.69
644.579	198.69
644.784	192.69
644.989	198.69
645.194	204.69
645.399	200.69
645.604	196.69
645.809	196.69
646.014	195.69
646.219	200.69
646.423	186.69
646.628	187.69
646.833	178.69
647.038	204.69
647.243	181.69
647.447	200.69
647.652	209.69
647.857	200.69
648.062	192.69
648.266	218.69
648.471	215.69
648.676	206.69
648.88	199.69
649.085	222.69
649.289	194.69
649.494	192.69
649.698	199.69
649.903	189.69
650.107	182.69
650.312	187.69
650.516	168.69
650.721	176.69
650.925	171.69
651.13	172.69
651.334	179.69
651.539	181.69
651.743	170.69
651.947	168.69
652.152	174.69
652.356	170.69
652.56	180.69
652.764	150.69
652.969	149.69
653.173	172.69
653.377	142.69
653.581	163.69
653.785	146.69
653.99	149.69
654.194	145.69
654.398	152.69
654.602	154.69
654.806	155.69
655.01	149.69
655.214	155.69
655.418	139.69
655.622	145.69
655.826	152.69
656.03	158.69
656.234	158.69
656.438	154.69
656.642	161.69
656.846	159.69
657.049	152.69
657.253	151.69
657.457	152.69
657.661	134.69
657.865	126.69
658.068	120.69
658.272	116.69
658.476	110.69
658.68	122.69
658.883	118.69
659.087	103.69
659.291	110.69
659.494	100.69
659.698	91.69
659.901	102.69
660.105	94.69
660.309	98.69
660.512	85.69
660.716	95.69
660.919	90.69
661.123	104.69
661.326	92.69
661.53	98.69
661.733	77.69
661.936	80.69
662.14	97.69
662.343	90.69
662.546	96.69
662.75	79.69
662.953	100.69
663.156	79.69
663.36	72.69
663.563	68.69
663.766	92.69
663.969	77.69
664.173	91.69
664.376	84.69
664.579	91.69
664.782	68.69
664.985	85.69
665.188	81.69
665.391	75.69
665.594	83.69
665.797	82.69
666	69.69
666.203	84.69
666.406	75.69
666.609	76.69
666.812	75.69
667.015	79.69
667.218	84.69
667.421	85.69
667.624	78.69
667.827	66.69
668.03	73.69
668.232	67.69
668.435	78.69
668.638	75.69
668.841	74.69
669.043	86.69
669.246	96.69
669.449	74.69
669.651	86.69
669.854	71.69
670.057	75.69
670.259	79.69
670.462	86.69
670.665	68.69
670.867	76.69
671.07	76.69
671.272	81.69
671.475	72.69
671.677	86.69
671.88	79.69
672.082	87.69
672.284	87.69
672.487	75.69
672.689	75.69
672.892	70.69
